"","ppg","time"
"1",79.49828,872.3734
"2",79.45922,872.3867
"3",79.40795,872.4
"4",79.34936,872.4133
"5",79.293205,872.42664
"6",79.24193,872.43994
"7",79.19798,872.45325
"8",79.166245,872.46655
"9",79.13939,872.47986
"10",79.1223,872.49316
"11",79.11253,872.5065
"12",79.11253,872.5198
"13",79.10765,872.5331
"14",79.10277,872.5464
"15",79.093,872.5597
"16",79.080795,872.573
"17",79.063705,872.5863
"18",79.05394,872.5996
"19",79.05638,872.6129
"20",79.07591,872.6262
"21",79.14183,872.6395
"22",79.30053,872.65283
"23",79.57641,872.66614
"24",79.96948,872.67944
"25",80.44312,872.69275
"26",80.936295,872.70605
"27",81.36599,872.71936
"28",81.67605,872.73267
"29",81.832306,872.746
"30",81.83963,872.7593
"31",81.73708,872.7726
"32",81.5613,872.7859
"33",81.356224,872.7992
"34",81.15602,872.8125
"35",80.97536,872.8258
"36",80.82887,872.8391
"37",80.71168,872.8524
"38",80.61646,872.8657
"39",80.52125,872.879
"40",80.42115,872.89233
"41",80.30396,872.90564
"42",80.16968,872.91895
"43",80.025635,872.93225
"44",79.89136,872.94556
"45",79.77417,872.95886
"46",79.68627,872.97217
"47",79.63012,872.9855
"48",79.605705,872.9988
"49",79.603264,873.0121
"50",79.61303,873.0254
"51",79.62035,873.0387
"52",79.61303,873.052
"53",79.588615,873.0653
"54",79.54955,873.0786
"55",79.500725,873.0919
"56",79.449455,873.1052
"57",79.40307,873.1185
"58",79.361565,873.13184
"59",79.32006,873.14514
"60",79.281,873.15845
"61",79.24193,873.17175
"62",79.20531,873.18506
"63",79.17601,873.19836
"64",79.14671,873.2117
"65",79.12718,873.225
"66",79.11742,873.2383
"67",79.11742,873.2516
"68",79.11986,873.2649
"69",79.12474,873.2782
"70",79.12962,873.2915
"71",79.12962,873.3048
"72",79.12474,873.3181
"73",79.114975,873.3314
"74",79.114975,873.3447
"75",79.14427,873.35803
"76",79.24193,873.37134
"77",79.449455,873.38464
"78",79.783936,873.39795
"79",80.22583,873.41125
"80",80.723885,873.42456
"81",81.20729,873.43787
"82",81.59792,873.4512
"83",81.846954,873.4645
"84",81.93729,873.4778
"85",81.88846,873.4911
"86",81.739525,873.5044
"87",81.529564,873.5177
"88",81.30007,873.531
"89",81.08522,873.5443
"90",80.89967,873.5576
"91",80.7483,873.5709
"92",80.63111,873.5842
"93",80.52857,873.59753
"94",80.428474,873.61084
"95",80.31617,873.62415
"96",80.19409,873.63745
"97",80.06714,873.65076
"98",79.94263,873.66406
"99",79.835205,873.67737
"100",79.7522,873.6907
"101",79.69848,873.704
"102",79.67162,873.7173
"103",79.66674,873.7306
"104",79.67162,873.7439
"105",79.68139,873.7572
"106",79.67895,873.7705
"107",79.65942,873.7838
"108",79.622795,873.7971
"109",79.57885,873.8104
"110",79.53002,873.8237
"111",79.47631,873.83704
"112",79.42504,873.85034
"113",79.37377,873.86365
"114",79.327385,873.87695
"115",79.28832,873.89026
"116",79.26147,873.90356
"117",79.24681,873.9169
"118",79.234604,873.9302
"119",79.22484,873.9435
"120",79.217514,873.9568
"121",79.21019,873.9701
"122",79.202866,873.9834
"123",79.19798,873.9967
"124",79.19798,874.01
"125",79.19554,874.0233
"126",79.185776,874.0366
"127",79.17357,874.0499
"128",79.168686,874.06323
"129",79.17845,874.07654
"130",79.23949,874.08984
"131",79.395744,874.10315
"132",79.674065,874.11646
"133",80.06714,874.12976
"134",80.5481,874.14307
"135",81.04372,874.1564
"136",81.47585,874.1697
"137",81.78104,874.183
"138",81.9324,874.1963
"139",81.934845,874.2096
"140",81.8201,874.2229
"141",81.634544,874.2362
"142",81.41238,874.2495
"143",81.1902,874.2628
"144",80.987564,874.2761
"145",80.81911,874.2894
"146",80.68238,874.30273
"147",80.56275,874.31604
"148",80.45045,874.32935
"149",80.3357,874.34265
"150",80.216064,874.35596
"151",80.08911,874.36926
"152",79.9646,874.38257
"153",79.852295,874.3959
"154",79.764404,874.4092
"155",79.70336,874.4225
"156",79.67162,874.4358
"157",79.66674,874.4491
"158",79.67895,874.4624
"159",79.70092,874.4757
"160",79.708244,874.489
"161",79.70092,874.5023
"162",79.67162,874.5156
"163",79.62768,874.52893
"164",79.571526,874.54224
"165",79.51049,874.55554
"166",79.45434,874.56885
"167",79.40307,874.58215
"168",79.35424,874.59546
"169",79.31518,874.60876
"170",79.27856,874.6221
"171",79.2517,874.6354
"172",79.22972,874.6487
"173",79.21263,874.662
"174",79.19554,874.6753
"175",79.17601,874.6886
"176",79.15648,874.7019
"177",79.13451,874.7152
"178",79.114975,874.7285
"179",79.10521,874.7418
"180",79.11253,874.7551
"181",79.15404,874.76843
"182",79.26879,874.78174
"183",79.48852,874.79504
"184",79.82788,874.80835
"185",80.26734,874.82166
"186",80.75807,874.83496
"187",81.231705,874.84827
"188",81.60769,874.8616
"189",81.84207,874.8749
"190",81.92508,874.8882
"191",81.87137,874.9015
"192",81.71267,874.9148
"193",81.495384,874.9281
"194",81.25857,874.9414
"195",81.03639,874.9547
"196",80.84596,874.968
"197",80.69459,874.9813
"198",80.57252,874.9946
"199",80.465096,875.00793
"200",80.35767,875.02124
"201",80.24292,875.03455
"202",80.12329,875.04785
"203",80.00122,875.06116
"204",79.89136,875.07446
"205",79.80347,875.08777
"206",79.73998,875.1011
"207",79.708244,875.1144
"208",79.69848,875.1277
"209",79.708244,875.141
"210",79.725334,875.1543
"211",79.7351,875.1676
"212",79.73022,875.1809
"213",79.7058,875.1942
"214",79.66918,875.2075
"215",79.622795,875.2208
"216",79.571526,875.23413
"217",79.517815,875.24744
"218",79.45922,875.26074
"219",79.40307,875.27405
"220",79.34936,875.28735
"221",79.310295,875.30066
"222",79.276115,875.31396
"223",79.256584,875.3273
"224",79.237045,875.3406
"225",79.217514,875.3539
"226",79.1931,875.3672
"227",79.168686,875.3805
"228",79.149155,875.3938
"229",79.13451,875.4071
"230",79.132065,875.4204
"231",79.15648,875.4337
"232",79.23949,875.447
"233",79.41772,875.4603
"234",79.71801,875.47363
"235",80.13794,875.48694
"236",80.63111,875.50024
"237",81.129166,875.51355
"238",81.549095,875.52686
"239",81.83719,875.54016
"240",81.96414,875.55347
"241",81.94461,875.5668
"242",81.815216,875.5801
"243",81.617455,875.5934
"244",81.38308,875.6067
"245",81.1487,875.62
"246",80.938736,875.6333
"247",80.76051,875.6466
"248",80.61402,875.6599
"249",80.49439,875.6732
"250",80.38453,875.6865
"251",80.27711,875.6998
"252",80.164795,875.71313
"253",80.05737,875.72644
"254",79.957275,875.73975
"255",79.88159,875.75305
"256",79.82544,875.76636
"257",79.79614,875.77966
"258",79.77905,875.79297
"259",79.77905,875.8063
"260",79.783936,875.8196
"261",79.78638,875.8329
"262",79.77661,875.8462
"263",79.75464,875.8595
"264",79.71801,875.8728
"265",79.66918,875.8861
"266",79.61547,875.8994
"267",79.55932,875.9127
"268",79.50561,875.926
"269",79.4519,875.93933
"270",79.40307,875.95264
"271",79.361565,875.96594
"272",79.327385,875.97925
"273",79.30541,875.99255
"274",79.290764,876.00586
"275",79.28344,876.01917
"276",79.26879,876.0325
"277",79.2517,876.0458
"278",79.234604,876.0591
"279",79.21019,876.0724
"280",79.200424,876.0857
"281",79.23216,876.099
"282",79.34936,876.1123
"283",79.58373,876.1256
"284",79.94507,876.1389
"285",80.40894,876.1522
"286",80.907,876.1655
"287",81.358665,876.17883
"288",81.69802,876.19214
"289",81.881134,876.20544
"290",81.91287,876.21875
"291",81.815216,876.23206
"292",81.634544,876.24536
"293",81.40505,876.25867
"294",81.17067,876.272
"295",80.953384,876.2853
"296",80.77028,876.2986
"297",80.61646,876.3119
"298",80.48951,876.3252
"299",80.377205,876.3385
"300",80.26734,876.3518
"301",80.15747,876.3651
"302",80.045166,876.3784
"303",79.940186,876.3917
"304",79.852295,876.405
"305",79.78638,876.41833
"306",79.74731,876.43164
"307",79.7351,876.44495
"308",79.73754,876.45825
"309",79.7522,876.47156
"310",79.76929,876.48486
"311",79.77905,876.49817
"312",79.77173,876.5115
"313",79.744865,876.5248
"314",79.70336,876.5381
"315",79.64721,876.5514
"316",79.586174,876.5647
"317",79.52758,876.578
"318",79.47387,876.5913
"319",79.42748,876.6046
"320",79.38598,876.6179
"321",79.34936,876.6312
"322",79.31762,876.64453
"323",79.28588,876.65784
"324",79.256584,876.67114
"325",79.22972,876.68445
"326",79.20531,876.69775
"327",79.19066,876.71106
"328",79.200424,876.72437
"329",79.273674,876.7377
"330",79.44213,876.751
"331",79.73266,876.7643
"332",80.13794,876.7776
"333",80.621346,876.7909
"334",81.10719,876.8042
"335",81.5198,876.8175
"336",81.795685,876.8308
"337",81.91531,876.8441
"338",81.89334,876.8574
"339",81.761505,876.8707
"340",81.56374,876.88403
"341",81.33425,876.89734
"342",81.10475,876.91064
"343",80.89479,876.92395
"344",80.709236,876.93726
"345",80.552986,876.95056
"346",80.41871,876.96387
"347",80.2942,876.9772
"348",80.16968,876.9905
"349",80.042725,877.0038
"350",79.920654,877.0171
"351",79.81079,877.0304
"352",79.72289,877.0437
"353",79.65942,877.057
"354",79.62524,877.0703
"355",79.61303,877.0836
"356",79.61303,877.0969
"357",79.61791,877.1102
"358",79.62035,877.12354
"359",79.61547,877.13684
"360",79.59838,877.15015
"361",79.569084,877.16345
"362",79.53246,877.17676
"363",79.48852,877.19006
"364",79.43969,877.20337
"365",79.38842,877.2167
"366",79.33959,877.23
"367",79.293205,877.2433
"368",79.256584,877.2566
"369",79.23216,877.2699
"370",79.21019,877.2832
"371",79.1931,877.2965
"372",79.17601,877.3098
"373",79.1638,877.3231
"374",79.15404,877.3364
"375",79.17113,877.34973
"376",79.24681,877.36304
"377",79.42016,877.37634
"378",79.71313,877.38965
"379",80.12329,877.40295
"380",80.6067,877.41626
"381",81.09743,877.42957
"382",81.514915,877.4429
"383",81.79813,877.4562
"384",81.92264,877.4695
"385",81.90311,877.4828
"386",81.77127,877.4961
"387",81.56863,877.5094
"388",81.33669,877.5227
"389",81.10719,877.536
"390",80.89723,877.5493
"391",80.719,877.5626
"392",80.57252,877.5759
"393",80.45045,877.58923
"394",80.3357,877.60254
"395",80.22339,877.61584
"396",80.10376,877.62915
"397",79.98413,877.64246
"398",79.869385,877.65576
"399",79.77417,877.66907
"400",79.708244,877.6824
"401",79.66918,877.6957
"402",79.65453,877.709
"403",79.656975,877.7223
"404",79.66186,877.7356
"405",79.66186,877.7489
"406",79.65453,877.7622
"407",79.62768,877.7755
"408",79.586174,877.7888
"409",79.53002,877.8021
"410",79.46899,877.8154
"411",79.41039,877.82874
"412",79.35912,877.84204
"413",79.31518,877.85535
"414",79.28344,877.86865
"415",79.256584,877.88196
"416",79.23216,877.89526
"417",79.21263,877.90857
"418",79.19066,877.9219
"419",79.16136,877.9352
"420",79.13451,877.9485
"421",79.11742,877.9618
"422",79.13939,877.9751
"423",79.24193,877.9884
"424",79.4641,878.0017
"425",79.82056,878.015
"426",80.28199,878.0283
"427",80.79225,878.0416
"428",81.26833,878.05493
"429",81.634544,878.06824
"430",81.849396,878.08154
"431",81.90555,878.09485
"432",81.82742,878.10815
"433",81.654076,878.12146
"434",81.42458,878.13477
"435",81.17555,878.1481
"436",80.93385,878.1614
"437",80.72144,878.1747
"438",80.54078,878.188
"439",80.39185,878.2013
"440",80.26978,878.2146
"441",80.16235,878.2279
"442",80.05737,878.2412
"443",79.954834,878.2545
"444",79.86206,878.2678
"445",79.783936,878.2811
"446",79.725334,878.29443
"447",79.693596,878.30774
"448",79.68627,878.32104
"449",79.69604,878.33435
"450",79.710686,878.34766
"451",79.72045,878.36096
"452",79.72289,878.37427
"453",79.708244,878.3876
"454",79.67895,878.4009
"455",79.63744,878.4142
"456",79.588615,878.4275
"457",79.53002,878.4408
"458",79.46899,878.4541
"459",79.415276,878.4674
"460",79.36889,878.4807
"461",79.33471,878.494
"462",79.30297,878.5073
"463",79.27856,878.5206
"464",79.256584,878.53394
"465",79.234604,878.54724
"466",79.21507,878.56055
"467",79.21507,878.57385
"468",79.26391,878.58716
"469",79.40063,878.60046
"470",79.6643,878.6138
"471",80.04761,878.6271
"472",80.51881,878.6404
"473",81.01442,878.6537
"474",81.449,878.667
"475",81.75418,878.6803
"476",81.90555,878.6936
"477",81.90311,878.7069
"478",81.78104,878.7202
"479",81.57595,878.7335
"480",81.33425,878.7468
"481",81.0901,878.76013
"482",80.867935,878.77344
"483",80.6775,878.78674
"484",80.51881,878.80005
"485",80.38209,878.81335
"486",80.25269,878.82666
"487",80.12329,878.83997
"488",80.00122,878.8533
"489",79.88403,878.8666
"490",79.783936,878.8799
"491",79.710686,878.8932
"492",79.67162,878.9065
"493",79.65942,878.9198
"494",79.66918,878.9331
"495",79.693596,878.9464
"496",79.72045,878.9597
"497",79.7351,878.973
"498",79.73266,878.9863
"499",79.71313,878.99963
"500",79.67895,879.01294
"501",79.62768,879.02625
"502",79.56664,879.03955
"503",79.51049,879.05286
"504",79.45434,879.06616
"505",79.40063,879.07947
"506",79.35424,879.0928
"507",79.31274,879.1061
"508",79.273674,879.1194
"509",79.24193,879.1327
"510",79.219955,879.146
"511",79.2224,879.1593
"512",79.27856,879.1726
"513",79.432365,879.1859
"514",79.71313,879.1992
"515",80.11841,879.2125
"516",80.6067,879.2258
"517",81.10475,879.23914
"518",81.53445,879.25244
"519",81.82498,879.26575
"520",81.951935,879.27905
"521",81.92508,879.29236
"522",81.778595,879.30566
"523",81.55886,879.319
"524",81.307396,879.3323
"525",81.06325,879.3456
"526",80.83864,879.3589
"527",80.6482,879.3722
"528",80.48707,879.3855
"529",80.34547,879.3988
"530",80.21118,879.4121
"531",80.08667,879.4254
"532",79.96216,879.4387
"533",79.84741,879.452
"534",79.74731,879.46533
"535",79.67162,879.47864
"536",79.622795,879.49194
"537",79.603264,879.50525
"538",79.60815,879.51855
"539",79.63012,879.53186
"540",79.65453,879.54517
"541",79.66918,879.5585
"542",79.67162,879.5718
"543",79.656975,879.5851
"544",79.62768,879.5984
"545",79.59106,879.6117
"546",79.54711,879.625
"547",79.49828,879.6383
"548",79.44457,879.6516
"549",79.39086,879.6649
"550",79.344475,879.6782
"551",79.30541,879.6915
"552",79.273674,879.70483
"553",79.259026,879.71814
"554",79.29565,879.73145
"555",79.4226,879.74475
"556",79.676506,879.75806
"557",80.059814,879.77136
"558",80.53834,879.78467
"559",81.04372,879.798
"560",81.49294,879.8113
"561",81.812775,879.8246
"562",81.971466,879.8379
"563",81.97391,879.8512
"564",81.85428,879.8645
"565",81.651634,879.8778
"566",81.41238,879.8911
"567",81.17067,879.9044
"568",80.9485,879.9177
"569",80.75319,879.931
"570",80.587166,879.94434
"571",80.44312,879.95764
"572",80.308846,879.97095
"573",80.177,879.98425
"574",80.04761,879.99756
"575",79.91821,880.01086
"576",79.798584,880.0242
"577",79.69848,880.0375
"578",79.62524,880.0508
"579",79.58373,880.0641
"580",79.569084,880.0774
"581",79.57885,880.0907
"582",79.605705,880.104
"583",79.63256,880.1173
"584",79.64965,880.1306
"585",79.64477,880.1439
"586",79.61791,880.1572
"587",79.56664,880.17053
"588",79.500725,880.18384
"589",79.42016,880.19714
"590",79.33959,880.21045
"591",79.26147,880.22375
"592",79.18822,880.23706
"593",79.12474,880.25037
"594",79.08568,880.2637
"595",79.10277,880.277
"596",79.21263,880.2903
"597",79.45922,880.3036
"598",79.84009,880.3169
"599",80.32838,880.3302
"600",80.848404,880.3435
"601",81.31716,880.3568
"602",81.6614,880.3701
"603",81.83719,880.3834
"604",81.85916,880.3967
"605",81.75662,880.41003
"606",81.57107,880.42334
"607",81.3489,880.43665
"608",81.12184,880.44995
"609",80.90456,880.46326
"610",80.709236,880.47656
"611",80.54078,880.48987
"612",80.39185,880.5032
"613",80.25269,880.5165
"614",80.11841,880.5298
"615",79.97925,880.5431
"616",79.84497,880.5564
"617",79.71557,880.5697
"618",79.603264,880.583
"619",79.5227,880.5963
"620",79.47387,880.6096
"621",79.4519,880.6229
"622",79.449455,880.6362
"623",79.45678,880.64954
"624",79.46166,880.66284
"625",79.45434,880.67615
"626",79.432365,880.68945
"627",79.398186,880.70276
"628",79.35668,880.71606
"629",79.30541,880.7294
"630",79.2517,880.7427
"631",79.1931,880.756
"632",79.12718,880.7693
"633",79.061264,880.7826
"634",79.00755,880.7959
"635",78.99046,880.8092
"636",79.05394,880.8225
"637",79.23949,880.8358
"638",79.5642,880.8491
"639",80.0061,880.8624
"640",80.516365,880.87573
"641",81.00954,880.88904
"642",81.39773,880.90234
"643",81.6321,880.91565
"644",81.705345,880.92896
"645",81.63943,880.94226
"646",81.478294,880.95557
"647",81.26345,880.9689
"648",81.02907,880.9822
"649",80.80202,880.9955
"650",80.59693,881.0088
"651",80.42115,881.0221
"652",80.26978,881.0354
"653",80.13794,881.0487
"654",80.01099,881.062
"655",79.88403,881.0753
"656",79.75708,881.0886
"657",79.63256,881.1019
"658",79.53002,881.11523
"659",79.4641,881.12854
"660",79.43481,881.14185
"661",79.44213,881.15515
"662",79.47631,881.16846
"663",79.517815,881.18176
"664",79.554436,881.19507
"665",79.58129,881.2084
"666",79.586174,881.2217
"667",79.57397,881.235
"668",79.537346,881.2483
"669",79.483635,881.2616
"670",79.415276,881.2749
"671",79.33471,881.2882
"672",79.256584,881.3015
"673",79.183334,881.3148
"674",79.13695,881.3281
"675",79.13939,881.34143
"676",79.23216,881.35474
"677",79.447014,881.36804
"678",79.7937,881.38135
"679",80.2478,881.39465
"680",80.75319,881.40796
"681",81.22682,881.42126
"682",81.5906,881.4346
"683",81.80301,881.4479
"684",81.85916,881.4612
"685",81.78348,881.4745
"686",81.61257,881.4878
"687",81.392845,881.5011
"688",81.15846,881.5144
"689",80.93141,881.5277
"690",80.726326,881.541
"691",80.53834,881.5543
"692",80.36988,881.5676
"693",80.21118,881.58093
"694",80.05005,881.59424
"695",79.886475,881.60754
"696",79.72289,881.62085
"697",79.56176,881.63416
"698",79.42016,881.64746
"699",79.30785,881.66077
"700",79.237045,881.6741
"701",79.21019,881.6874
"702",79.217514,881.7007
"703",79.24925,881.714
"704",79.290764,881.7273
"705",79.3225,881.7406
"706",79.32983,881.7539
"707",79.31518,881.7672
"708",79.273674,881.7805
"709",79.20775,881.7938
"710",79.12718,881.8071
"711",79.04173,881.82043
"712",78.96117,881.83374
"713",78.890366,881.84705
"714",78.84398,881.86035
"715",78.8513,881.87366
"716",78.958725,881.88696
"717",79.19554,881.90027
"718",79.571526,881.9136
"719",80.059814,881.9269
"720",80.58961,881.9402
"721",81.07057,881.9535
"722",81.42947,881.9668
"723",81.619896,881.9801
"724",81.654076,881.9934
"725",81.55642,882.0067
"726",81.3782,882.02
"727",81.15846,882.0333
"728",80.92897,882.04663
"729",80.709236,882.05994
"730",80.5066,882.07324
"731",80.32838,882.08655
"732",80.15991,882.09985
"733",80.0061,882.11316
"734",79.85718,882.12646
"735",79.708244,882.1398
"736",79.55688,882.1531
"737",79.41039,882.1664
"738",79.281,882.1797
"739",79.17845,882.193
"740",79.11742,882.2063
"741",79.093,882.2196
"742",79.10277,882.2329
"743",79.13451,882.2462
"744",79.17357,882.2595
"745",79.202866,882.2728
"746",79.21507,882.28613
"747",79.20531,882.29944
"748",79.17113,882.31274
"749",79.11742,882.32605
"750",79.05394,882.33936
"751",78.98802,882.35266
"752",78.924545,882.36597
"753",78.86839,882.3793
"754",78.83421,882.3926
"755",78.856186,882.4059
"756",78.97337,882.4192
"757",79.2224,882.4325
"758",79.61059,882.4458
"759",80.10376,882.4591
"760",80.63111,882.4724
"761",81.10231,882.4857
"762",81.44167,882.499
"763",81.62478,882.5123
"764",81.64919,882.52563
"765",81.55154,882.53894
"766",81.375755,882.55225
"767",81.16579,882.56555
"768",80.94606,882.57886
"769",80.73853,882.59216
"770",80.550545,882.60547
"771",80.38697,882.6188
"772",80.23804,882.6321
"773",80.096436,882.6454
"774",79.957275,882.6587
"775",79.81323,882.672
"776",79.66918,882.6853
"777",79.52758,882.6986
"778",79.398186,882.7119
"779",79.28832,882.7252
"780",79.20531,882.7385
"781",79.15404,882.75183
"782",79.13695,882.76514
"783",79.14427,882.77844
"784",79.168686,882.79175
"785",79.19066,882.80505
"786",79.200424,882.81836
"787",79.19066,882.83167
"788",79.16136,882.845
"789",79.11742,882.8583
"790",79.061264,882.8716
"791",78.99779,882.8849
"792",78.93187,882.8982
"793",78.86839,882.9115
"794",78.81468,882.9248
"795",78.79759,882.9381
"796",78.84642,882.9514
"797",79.00267,882.9647
"798",79.29809,882.978
"799",79.725334,882.99133
"800",80.23804,883.00464
"801",80.765396,883.01794
"802",81.22438,883.03125
"803",81.54665,883.04456
"804",81.70046,883.05786
"805",81.705345,883.07117
"806",81.59548,883.0845
"807",81.4197,883.0978
"808",81.214615,883.1111
"809",81.007095,883.1244
"810",80.816666,883.1377
"811",80.65064,883.151
"812",80.49683,883.1643
"813",80.35523,883.1776
"814",80.20874,883.1909
"815",80.05737,883.2042
"816",79.89624,883.2175
"817",79.73754,883.23083
"818",79.586174,883.24414
"819",79.4519,883.25745
"820",79.34203,883.27075
"821",79.26147,883.28406
"822",79.21507,883.29736
"823",79.19798,883.31067
"824",79.202866,883.324
"825",79.217514,883.3373
"826",79.22972,883.3506
"827",79.22728,883.3639
"828",79.20775,883.3772
"829",79.17601,883.3905
"830",79.13939,883.4038
"831",79.093,883.4171
"832",79.03929,883.4304
"833",78.98802,883.4437
"834",78.93431,883.45703
"835",78.8806,883.47034
"836",78.84398,883.48364
"837",78.83421,883.49695
"838",78.89281,883.51025
"839",79.05882,883.52356
"840",79.364006,883.53687
"841",79.79614,883.5502
"842",80.308846,883.5635
"843",80.833755,883.5768
"844",81.287865,883.5901
"845",81.602806,883.6034
"846",81.75662,883.6167
"847",81.76395,883.63
"848",81.65896,883.6433
"849",81.478294,883.6566
"850",81.26589,883.6699
"851",81.05592,883.6832
"852",80.86305,883.69653
"853",80.69215,883.70984
"854",80.54078,883.72314
"855",80.40162,883.73645
"856",80.26002,883.74976
"857",80.10864,883.76306
"858",79.95239,883.77637
"859",79.79126,883.7897
"860",79.63256,883.803
"861",79.49096,883.8163
"862",79.37377,883.8296
"863",79.28832,883.8429
"864",79.234604,883.8562
"865",79.20531,883.8695
"866",79.200424,883.8828
"867",79.202866,883.8961
"868",79.200424,883.9094
"869",79.18822,883.9227
"870",79.168686,883.93604
"871",79.13451,883.94934
"872",79.093,883.96265
"873",79.044174,883.97595
"874",78.99046,883.98926
"875",78.93431,884.00256
"876",78.88304,884.01587
"877",78.83177,884.0292
"878",78.79027,884.0425
"879",78.751205,884.0558
"880",78.72434,884.0691
"881",78.72434,884.0824
"882",78.79759,884.0957
"883",78.98802,884.109
"884",79.3225,884.1223
"885",79.78882,884.1356
"886",80.33814,884.1489
"887",80.88014,884.16223
"888",81.32693,884.17554
"889",81.619896,884.18884
"890",81.74441,884.20215
"891",81.722435,884.21545
"892",81.5906,884.22876
"893",81.40017,884.24207
"894",81.1902,884.2554
"895",80.98268,884.2687
"896",80.79225,884.282
"897",80.63111,884.2953
"898",80.48951,884.3086
"899",80.35523,884.3219
"900",80.22095,884.3352
"901",80.08179,884.3485
"902",79.92798,884.3618
"903",79.76929,884.3751
"904",79.61303,884.3884
"905",79.47143,884.40173
"906",79.3518,884.41504
"907",79.26391,884.42834
"908",79.20775,884.44165
"909",79.185776,884.45496
"910",79.17845,884.46826
"911",79.183334,884.48157
"912",79.19066,884.4949
"913",79.185776,884.5082
"914",79.168686,884.5215
"915",79.14183,884.5348
"916",79.10765,884.5481
"917",79.06615,884.5614
"918",79.01976,884.5747
"919",78.97093,884.588
"920",78.922104,884.6013
"921",78.87572,884.6146
"922",78.83421,884.6279
"923",78.79515,884.64124
"924",78.768295,884.65454
"925",78.746315,884.66785
"926",78.74387,884.68115
"927",78.79271,884.69446
"928",78.93919,884.70776
"929",79.217514,884.72107
"930",79.63256,884.7344
"931",80.15015,884.7477
"932",80.70191,884.761
"933",81.197525,884.7743
"934",81.566185,884.7876
"935",81.77615,884.8009
"936",81.832306,884.8142
"937",81.75662,884.8275
"938",81.59792,884.8408
"939",81.39529,884.8541
"940",81.18532,884.86743
"941",80.987564,884.88074
"942",80.80934,884.89404
"943",80.65308,884.90735
"944",80.50904,884.92065
"945",80.36988,884.93396
"946",80.22827,884.94727
"947",80.08179,884.9606
"948",79.92554,884.9739
"949",79.76196,884.9872
"950",79.605705,885.0005
"951",79.4641,885.0138
"952",79.34936,885.0271
"953",79.26879,885.0404
"954",79.219955,885.0537
"955",79.19798,885.067
"956",79.19066,885.0803
"957",79.19066,885.0936
"958",79.19066,885.10693
"959",79.18089,885.12024
"960",79.15892,885.13354
"961",79.12718,885.14685
"962",79.08812,885.16016
"963",79.04173,885.17346
"964",78.98802,885.18677
"965",78.93675,885.2001
"966",78.88548,885.2134
"967",78.84398,885.2267
"968",78.81224,885.24
"969",78.79759,885.2533
"970",78.78783,885.2666
"971",78.78294,885.2799
"972",78.77562,885.2932
"973",78.77318,885.3065
"974",78.80492,885.3198
"975",78.91966,885.3331
"976",79.15648,885.34644
"977",79.53002,885.35974
"978",80.025635,885.37305
"979",80.57496,885.38635
"980",81.09743,885.39966
"981",81.512474,885.41296
"982",81.77371,885.4263
"983",81.87625,885.4396
"984",81.84207,885.4529
"985",81.705345,885.4662
"986",81.512474,885.4795
"987",81.29519,885.4928
"988",81.08278,885.5061
"989",80.89235,885.5194
"990",80.73121,885.5327
"991",80.59205,885.546
"992",80.46754,885.5593
"993",80.343025,885.57263
"994",80.2063,885.58594
"995",80.05493,885.59924
"996",79.8938,885.61255
"997",79.7351,885.62585
"998",79.588615,885.63916
"999",79.46899,885.65247
"1000",79.38354,885.6658
"1001",79.32983,885.6791
"1002",79.30053,885.6924
"1003",79.28344,885.7057
"1004",79.26879,885.719
"1005",79.24681,885.7323
"1006",79.217514,885.7456
"1007",79.183334,885.7589
"1008",79.14671,885.7722
"1009",79.114975,885.7855
"1010",79.08324,885.7988
"1011",79.0515,885.81213
"1012",79.012436,885.82544
"1013",78.97337,885.83875
"1014",78.93431,885.85205
"1015",78.90257,885.86536
"1016",78.8806,885.87866
"1017",78.86351,885.89197
"1018",78.84886,885.9053
"1019",78.83177,885.9186
"1020",78.81468,885.9319
"1021",78.79515,885.9452
"1022",78.79027,885.9585
"1023",78.82201,885.9718
"1024",78.93431,885.9851
"1025",79.168686,885.9984
"1026",79.53979,886.0117
"1027",80.03052,886.025
"1028",80.584724,886.0383
"1029",81.12428,886.05164
"1030",81.566185,886.06494
"1031",81.864044,886.07825
"1032",81.99832,886.09155
"1033",81.991,886.10486
"1034",81.87381,886.11816
"1035",81.6907,886.1315
"1036",81.480736,886.1448
"1037",81.26833,886.1581
"1038",81.06813,886.1714
"1039",80.88258,886.1847
"1040",80.71412,886.198
"1041",80.552986,886.2113
"1042",80.40162,886.2246
"1043",80.25269,886.2379
"1044",80.10132,886.2512
"1045",79.94751,886.2645
"1046",79.79126,886.27783
"1047",79.64233,886.29114
"1048",79.51049,886.30444
"1049",79.40551,886.31775
"1050",79.33471,886.33105
"1051",79.30297,886.34436
"1052",79.29565,886.35767
"1053",79.29565,886.371
"1054",79.29565,886.3843
"1055",79.28588,886.3976
"1056",79.26391,886.4109
"1057",79.23216,886.4242
"1058",79.200424,886.4375
"1059",79.166245,886.4508
"1060",79.12718,886.4641
"1061",79.08568,886.4774
"1062",79.046616,886.4907
"1063",79.012436,886.504
"1064",78.99046,886.51733
"1065",78.975815,886.53064
"1066",78.96849,886.54395
"1067",78.96849,886.55725
"1068",78.97093,886.57056
"1069",78.96849,886.58386
"1070",78.96361,886.59717
"1071",78.9514,886.6105
"1072",78.93675,886.6238
"1073",78.93187,886.6371
"1074",78.96361,886.6504
"1075",79.078354,886.6637
"1076",79.32006,886.677
"1077",79.70092,886.6903
"1078",80.201416,886.7036
"1079",80.762955,886.7169
"1080",81.30007,886.7302
"1081",81.73464,886.7435
"1082",82.01297,886.75684
"1083",82.12283,886.77014
"1084",82.091095,886.78345
"1085",81.94949,886.79675
"1086",81.74685,886.81006
"1087",81.52468,886.82336
"1088",81.30251,886.8367
"1089",81.09987,886.85
"1090",80.91676,886.8633
"1091",80.74586,886.8766
"1092",80.57984,886.8899
"1093",80.42115,886.9032
"1094",80.257576,886.9165
"1095",80.09155,886.9298
"1096",79.93286,886.9431
"1097",79.78638,886.9564
"1098",79.66186,886.9697
"1099",79.56664,886.98303
"1100",79.500725,886.99634
"1101",79.45434,887.00964
"1102",79.4226,887.02295
"1103",79.40063,887.03625
"1104",79.38354,887.04956
"1105",79.36889,887.06287
"1106",79.35424,887.0762
"1107",79.33959,887.0895
"1108",79.31762,887.1028
"1109",79.28588,887.1161
"1110",79.24925,887.1294
"1111",79.20531,887.1427
"1112",79.16136,887.156
"1113",79.1223,887.1693
"1114",79.09056,887.1826
"1115",79.06859,887.1959
"1116",79.0515,887.2092
"1117",79.04173,887.22253
"1118",79.03685,887.23584
"1119",79.03441,887.24915
"1120",79.029526,887.26245
"1121",79.02464,887.27576
"1122",79.01976,887.28906
"1123",79.009995,887.30237
"1124",79.00267,887.3157
"1125",78.995346,887.329
"1126",78.99046,887.3423
"1127",79.00511,887.3556
"1128",79.07347,887.3689
"1129",79.24193,887.3822
"1130",79.54467,887.3955
"1131",79.98657,887.4088
"1132",80.53101,887.4221
"1133",81.112076,887.4354
"1134",81.64431,887.4487
"1135",82.05203,887.46204
"1136",82.29862,887.47534
"1137",82.37919,887.48865
"1138",82.32304,887.50195
"1139",82.16678,887.51526
"1140",81.94949,887.52856
"1141",81.705345,887.5419
"1142",81.45876,887.5552
"1143",81.22926,887.5685
"1144",81.01442,887.5818
"1145",80.82155,887.5951
"1146",80.64332,887.6084
"1147",80.46754,887.6217
"1148",80.291756,887.635
"1149",80.12329,887.6483
"1150",79.96216,887.6616
"1151",79.815674,887.6749
"1152",79.691154,887.68823
"1153",79.5935,887.70154
"1154",79.520256,887.71484
"1155",79.46899,887.72815
"1156",79.44213,887.74146
"1157",79.43481,887.75476
"1158",79.43725,887.76807
"1159",79.43969,887.7814
"1160",79.43481,887.7947
"1161",79.41772,887.808
"1162",79.3933,887.8213
"1163",79.35912,887.8346
"1164",79.3225,887.8479
"1165",79.293205,887.8612
"1166",79.26879,887.8745
"1167",79.24681,887.8878
"1168",79.23216,887.9011
"1169",79.217514,887.9144
"1170",79.200424,887.92773
"1171",79.17845,887.94104
"1172",79.16136,887.95435
"1173",79.14427,887.96765
"1174",79.132065,887.98096
"1175",79.1223,887.99426
"1176",79.114975,888.00757
"1177",79.10521,888.0209
"1178",79.10765,888.0342
"1179",79.14671,888.0475
"1180",79.26391,888.0608
"1181",79.50317,888.0741
"1182",79.87671,888.0874
"1183",80.365,888.1007
"1184",80.90944,888.114
"1185",81.43435,888.1273
"1186",81.85428,888.1406
"1187",82.13016,888.15393
"1188",82.24246,888.16724
"1189",82.22293,888.18054
"1190",82.091095,888.19385
"1191",81.88846,888.20715
"1192",81.64919,888.22046
"1193",81.40261,888.23376
"1194",81.160904,888.2471
"1195",80.936295,888.2604
"1196",80.73121,888.2737
"1197",80.53834,888.287
"1198",80.35523,888.3003
"1199",80.17944,888.3136
"1200",80.01343,888.3269
"1201",79.86206,888.3402
"1202",79.7351,888.3535
"1203",79.635,888.3668
"1204",79.569084,888.3801
"1205",79.53246,888.39343
"1206",79.520256,888.40674
"1207",79.5227,888.42004
"1208",79.53002,888.43335
"1209",79.53002,888.44666
"1210",79.5227,888.45996
"1211",79.50317,888.47327
"1212",79.47631,888.4866
"1213",79.44457,888.4999
"1214",79.40795,888.5132
"1215",79.364006,888.5265
"1216",79.3225,888.5398
"1217",79.27856,888.5531
"1218",79.24193,888.5664
"1219",79.20531,888.5797
"1220",79.17601,888.593
"1221",79.15648,888.6063
"1222",79.13939,888.6196
"1223",79.12474,888.63293
"1224",79.11253,888.64624
"1225",79.10521,888.65955
"1226",79.11009,888.67285
"1227",79.14671,888.68616
"1228",79.26147,888.69946
"1229",79.4934,888.71277
"1230",79.852295,888.7261
"1231",80.32105,888.7394
"1232",80.84596,888.7527
"1233",81.34646,888.766
"1234",81.75174,888.7793
"1235",82.00809,888.7926
"1236",82.11063,888.8059
"1237",82.07156,888.8192
"1238",81.92752,888.8325
"1239",81.71267,888.8458
"1240",81.46853,888.85913
"1241",81.22194,888.87244
"1242",80.98268,888.88574
"1243",80.75563,888.89905
"1244",80.54566,888.91235
"1245",80.34791,888.92566
"1246",80.16235,888.93896
"1247",79.991455,888.9523
"1248",79.83765,888.9656
"1249",79.710686,888.9789
"1250",79.61303,888.9922
"1251",79.54467,889.0055
"1252",79.50805,889.0188
"1253",79.500725,889.0321
"1254",79.51293,889.0454
"1255",79.53246,889.0587
"1256",79.551994,889.072
"1257",79.5642,889.0853
"1258",79.55932,889.09863
"1259",79.54467,889.11194
"1260",79.51537,889.12524
"1261",79.48119,889.13855
"1262",79.44457,889.15186
"1263",79.41039,889.16516
"1264",79.36889,889.17847
"1265",79.327385,889.1918
"1266",79.28832,889.2051
"1267",79.2517,889.2184
"1268",79.217514,889.2317
"1269",79.1931,889.245
"1270",79.18089,889.2583
"1271",79.17601,889.2716
"1272",79.202866,889.2849
"1273",79.293205,889.2982
"1274",79.483635,889.3115
"1275",79.79614,889.3248
"1276",80.218506,889.33813
"1277",80.71168,889.35144
"1278",81.20729,889.36475
"1279",81.6321,889.37805
"1280",81.92752,889.39136
"1281",82.074005,889.40466
"1282",82.08133,889.41797
"1283",81.971466,889.4313
"1284",81.78348,889.4446
"1285",81.54665,889.4579
"1286",81.29275,889.4712
"1287",81.04372,889.4845
"1288",80.80202,889.4978
"1289",80.57496,889.5111
"1290",80.365,889.5244
"1291",80.16724,889.5377
"1292",79.98657,889.551
"1293",79.83032,889.56433
"1294",79.7058,889.57764
"1295",79.61791,889.59094
"1296",79.5642,889.60425
"1297",79.534904,889.61755
"1298",79.53002,889.63086
"1299",79.53979,889.64417
"1300",79.55688,889.6575
"1301",79.57397,889.6708
"1302",79.586174,889.6841
"1303",79.59106,889.6974
"1304",79.57885,889.7107
"1305",79.554436,889.724
"1306",79.52758,889.7373
"1307",79.49828,889.7506
"1308",79.466545,889.7639
"1309",79.43725,889.7772
"1310",79.40307,889.7905
"1311",79.364006,889.80383
"1312",79.31762,889.81714
"1313",79.273674,889.83044
"1314",79.23949,889.84375
"1315",79.2224,889.85706
"1316",79.237045,889.87036
"1317",79.32006,889.88367
"1318",79.50561,889.897
"1319",79.818115,889.9103
"1320",80.24048,889.9236
"1321",80.73609,889.9369
"1322",81.234146,889.9502
"1323",81.65896,889.9635
"1324",81.951935,889.9768
"1325",82.09354,889.9901
"1326",82.091095,890.0034
"1327",81.97391,890.0167
"1328",81.77127,890.03
"1329",81.52224,890.04333
"1330",81.25857,890.05664
"1331",80.99489,890.06995
"1332",80.75075,890.08325
"1333",80.52369,890.09656
"1334",80.31373,890.10986
"1335",80.12085,890.12317
"1336",79.95239,890.1365
"1337",79.801025,890.1498
"1338",79.67895,890.1631
"1339",79.58373,890.1764
"1340",79.520256,890.1897
"1341",79.48852,890.203
"1342",79.48119,890.2163
"1343",79.4934,890.2296
"1344",79.51537,890.2429
"1345",79.54223,890.2562
"1346",79.56176,890.26953
"1347",79.569084,890.28284
"1348",79.56176,890.29614
"1349",79.54223,890.30945
"1350",79.51049,890.32275
"1351",79.46899,890.33606
"1352",79.42504,890.34937
"1353",79.378654,890.3627
"1354",79.33715,890.376
"1355",79.30297,890.3893
"1356",79.27123,890.4026
"1357",79.24193,890.4159
"1358",79.2224,890.4292
"1359",79.22972,890.4425
"1360",79.29809,890.4558
"1361",79.47387,890.4691
"1362",79.77661,890.4824
"1363",80.19409,890.4957
"1364",80.68482,890.50903
"1365",81.17555,890.52234
"1366",81.59548,890.53564
"1367",81.88602,890.54895
"1368",82.03494,890.56226
"1369",82.04471,890.57556
"1370",81.93973,890.58887
"1371",81.74929,890.6022
"1372",81.512474,890.6155
"1373",81.248795,890.6288
"1374",80.98512,890.6421
"1375",80.73365,890.6554
"1376",80.50172,890.6687
"1377",80.2942,890.682
"1378",80.1062,890.6953
"1379",79.937744,890.7086
"1380",79.78882,890.7219
"1381",79.65942,890.7352
"1382",79.56176,890.74854
"1383",79.49096,890.76184
"1384",79.4519,890.77515
"1385",79.43725,890.78845
"1386",79.44213,890.80176
"1387",79.45678,890.81506
"1388",79.47631,890.82837
"1389",79.49096,890.8417
"1390",79.4934,890.855
"1391",79.48608,890.8683
"1392",79.4641,890.8816
"1393",79.432365,890.8949
"1394",79.395744,890.9082
"1395",79.35912,890.9215
"1396",79.31762,890.9348
"1397",79.273674,890.9481
"1398",79.22728,890.9614
"1399",79.183334,890.97473
"1400",79.149155,890.98804
"1401",79.14427,891.00134
"1402",79.200424,891.01465
"1403",79.35912,891.02795
"1404",79.64477,891.04126
"1405",80.05005,891.05457
"1406",80.52613,891.0679
"1407",81.01198,891.0812
"1408",81.43679,891.0945
"1409",81.74441,891.1078
"1410",81.90555,891.1211
"1411",81.92508,891.1344
"1412",81.829865,891.1477
"1413",81.64675,891.161
"1414",81.409935,891.1743
"1415",81.15358,891.1876
"1416",80.902115,891.2009
"1417",80.66529,891.21423
"1418",80.44312,891.22754
"1419",80.235596,891.24084
"1420",80.042725,891.25415
"1421",79.86206,891.26746
"1422",79.70092,891.28076
"1423",79.5642,891.29407
"1424",79.46166,891.3074
"1425",79.3933,891.3207
"1426",79.364006,891.334
"1427",79.364006,891.3473
"1428",79.381096,891.3606
"1429",79.40551,891.3739
"1430",79.42748,891.3872
"1431",79.44457,891.4005
"1432",79.449455,891.4138
"1433",79.449455,891.4271
"1434",79.44213,891.4404
"1435",79.42748,891.45374
"1436",79.40063,891.46704
"1437",79.36889,891.48035
"1438",79.33227,891.49365
"1439",79.29565,891.50696
"1440",79.256584,891.52026
"1441",79.22728,891.53357
"1442",79.217514,891.5469
"1443",79.24681,891.5602
"1444",79.361565,891.5735
"1445",79.59838,891.5868
"1446",79.9646,891.6001
"1447",80.43824,891.6134
"1448",80.96071,891.6267
"1449",81.45632,891.64
"1450",81.846954,891.6533
"1451",82.08865,891.6666
"1452",82.176544,891.67993
"1453",82.125275,891.69324
"1454",81.971466,891.70654
"1455",81.75418,891.71985
"1456",81.512474,891.73315
"1457",81.270775,891.74646
"1458",81.041275,891.75977
"1459",80.833755,891.7731
"1460",80.635994,891.7864
"1461",80.45289,891.7997
"1462",80.28199,891.813
"1463",80.12573,891.8263
"1464",79.98901,891.8396
"1465",79.88403,891.8529
"1466",79.815674,891.8662
"1467",79.781494,891.8795
"1468",79.781494,891.8928
"1469",79.80591,891.9061
"1470",79.84253,891.91943
"1471",79.88403,891.93274
"1472",79.920654,891.94604
"1473",79.94751,891.95935
"1474",79.95972,891.97266
"1475",79.95972,891.98596
"1476",79.94751,891.99927
"1477",79.923096,892.0126
"1478",79.88403,892.0259
"1479",79.83276,892.0392
"1480",79.783936,892.0525
"1481",79.73266,892.0658
"1482",79.70092,892.0791
"1483",79.710686,892.0924
"1484",79.80347,892.1057
"1485",80.01343,892.119
"1486",80.34791,892.1323
"1487",80.78493,892.1456
"1488",81.27322,892.15894
"1489",81.7322,892.17224
"1490",82.09354,892.18555
"1491",82.31327,892.19885
"1492",82.391396,892.21216
"1493",82.34989,892.22546
"1494",82.213165,892.2388
"1495",82.01541,892.2521
"1496",81.78592,892.2654
"1497",81.54665,892.2787
"1498",81.307396,892.292
"1499",81.08034,892.3053
"1500",80.86549,892.3186
"1501",80.66773,892.3319
"1502",80.482185,892.3452
"1503",80.306404,892.3585
"1504",80.15747,892.3718
"1505",80.0354,892.38513
"1506",79.94263,892.39844
"1507",79.88403,892.41174
"1508",79.85718,892.42505
"1509",79.85474,892.43835
"1510",79.8645,892.45166
"1511",79.87671,892.46497
"1512",79.88403,892.4783
"1513",79.88159,892.4916
"1514",79.86694,892.5049
"1515",79.84497,892.5182
"1516",79.81323,892.5315
"1517",79.77417,892.5448
"1518",79.73022,892.5581
"1519",79.68139,892.5714
"1520",79.63256,892.5847
"1521",79.59838,892.598
"1522",79.60815,892.6113
"1523",79.69848,892.62463
"1524",79.903564,892.63794
"1525",80.24048,892.65125
"1526",80.67994,892.66455
"1527",81.16579,892.67786
"1528",81.62478,892.69116
"1529",81.98367,892.70447
"1530",82.20096,892.7178
"1531",82.269325,892.7311
"1532",82.213165,892.7444
"1533",82.06424,892.7577
"1534",81.8616,892.771
"1535",81.62966,892.7843
"1536",81.392845,892.7976
"1537",81.163345,892.8109
"1538",80.94118,892.8242
"1539",80.723885,892.8375
"1540",80.516365,892.8508
"1541",80.31617,892.86414
"1542",80.130615,892.87744
"1543",79.96948,892.89075
"1544",79.83765,892.90405
"1545",79.742424,892.91736
"1546",79.68627,892.93066
"1547",79.66674,892.944
"1548",79.67895,892.9573
"1549",79.708244,892.9706
"1550",79.74731,892.9839
"1551",79.77905,892.9972
"1552",79.79614,893.0105
"1553",79.7937,893.0238
"1554",79.77661,893.0371
"1555",79.73998,893.0504
"1556",79.691154,893.0637
"1557",79.635,893.077
"1558",79.57397,893.09033
"1559",79.5227,893.10364
"1560",79.51049,893.11694
"1561",79.571526,893.13025
"1562",79.742424,893.14355
"1563",80.03784,893.15686
"1564",80.44068,893.17017
"1565",80.89723,893.1835
"1566",81.34646,893.1968
"1567",81.71267,893.2101
"1568",81.95926,893.2234
"1569",82.06424,893.2367
"1570",82.04959,893.25
"1571",81.934845,893.2633
"1572",81.74929,893.2766
"1573",81.529564,893.2899
"1574",81.29275,893.3032
"1575",81.05104,893.3165
"1576",80.80934,893.32983
"1577",80.5774,893.34314
"1578",80.343025,893.35645
"1579",80.11597,893.36975
"1580",79.903564,893.38306
"1581",79.71801,893.39636
"1582",79.54955,893.40967
"1583",79.40795,893.423
"1584",79.28588,893.4363
"1585",79.17357,893.4496
"1586",79.07591,893.4629
"1587",79.00267,893.4762
"1588",78.95384,893.4895
"1589",78.92699,893.5028
"1590",78.91966,893.5161
"1591",78.91478,893.5294
"1592",78.90257,893.5427
"1593",78.87572,893.556
"1594",78.836655,893.56934
"1595",78.79271,893.58264
"1596",78.746315,893.59595
"1597",78.70725,893.60925
"1598",78.70725,893.62256
"1599",78.78783,893.63586
"1600",78.98558,893.6492
"1601",79.31762,893.6625
"1602",79.75708,893.6758
"1603",80.23804,893.6891
"1604",80.68726,893.7024
"1605",81.02907,893.7157
"1606",81.22926,893.729
"1607",81.28542,893.7423
"1608",81.23659,893.7556
"1609",81.109634,893.7689
"1610",80.94118,893.7822
"1611",80.7483,893.79553
"1612",80.550545,893.80884
"1613",80.35523,893.82214
"1614",80.16968,893.83545
"1615",79.98657,893.84875
"1616",79.815674,893.86206
"1617",79.64721,893.87537
"1618",79.49096,893.8887
"1619",79.35668,893.902
"1620",79.2517,893.9153
"1621",79.185776,893.9286
"1622",79.16136,893.9419
"1623",79.17845,893.9552
"1624",79.2224,893.9685
"1625",79.28344,893.9818
"1626",79.34692,893.9951
"1627",79.398186,894.0084
"1628",79.429924,894.0217
"1629",79.43969,894.03503
"1630",79.432365,894.04834
"1631",79.4226,894.06165
"1632",79.415276,894.07495
"1633",79.412834,894.08826
"1634",79.429924,894.10156
"1635",79.4934,894.11487
"1636",79.63744,894.1282
"1637",79.89624,894.1415
"1638",80.26734,894.1548
"1639",80.723885,894.1681
"1640",81.19997,894.1814
"1641",81.617455,894.1947
"1642",81.91531,894.208
"1643",82.05936,894.2213
"1644",82.056915,894.2346
"1645",81.92752,894.2479
"1646",81.71267,894.2612
"1647",81.44167,894.27454
"1648",81.143814,894.28784
"1649",80.84108,894.30115
"1650",80.54322,894.31445
"1651",80.26246,894.32776
"1652",79.9939,894.34106
"1653",79.73022,894.3544
"1654",79.47387,894.3677
"1655",79.234604,894.381
"1656",79.01732,894.3943
"1657",78.836655,894.4076
"1658",78.709694,894.4209
"1659",78.643776,894.4342
"1660",78.62913,894.4475
"1661",78.65354,894.4608
"1662",78.70237,894.4741
"1663",78.75853,894.4874
"1664",78.8098,894.50073
"1665",78.84642,894.51404
"1666",78.856186,894.52734
"1667",78.84642,894.54065
"1668",78.81468,894.55396
"1669",78.77318,894.56726
"1670",78.73655,894.58057
"1671",78.73167,894.5939
"1672",78.79759,894.6072
"1673",78.975815,894.6205
"1674",79.28588,894.6338
"1675",79.70336,894.6471
"1676",80.184326,894.6604
"1677",80.65797,894.6737
"1678",81.05348,894.687
"1679",81.3196,894.7003
"1680",81.449,894.7136
"1681",81.45632,894.7269
"1682",81.37087,894.74023
"1683",81.22926,894.75354
"1684",81.05348,894.76685
"1685",80.86061,894.78015
"1686",80.67017,894.79346
"1687",80.48463,894.80676
"1688",80.29664,894.82007
"1689",80.1062,894.8334
"1690",79.91577,894.8467
"1691",79.725334,894.86
"1692",79.54467,894.8733
"1693",79.38354,894.8866
"1694",79.25414,894.8999
"1695",79.168686,894.9132
"1696",79.132065,894.9265
"1697",79.13451,894.9398
"1698",79.1638,894.9531
"1699",79.202866,894.96643
"1700",79.234604,894.97974
"1701",79.24925,894.99304
"1702",79.237045,895.00635
"1703",79.20531,895.01965
"1704",79.15404,895.03296
"1705",79.08812,895.04626
"1706",79.0222,895.0596
"1707",78.97826,895.0729
"1708",79.00023,895.0862
"1709",79.12962,895.0995
"1710",79.39086,895.1128
"1711",79.783936,895.1261
"1712",80.26734,895.1394
"1713",80.77028,895.1527
"1714",81.2195,895.166
"1715",81.55154,895.1793
"1716",81.739525,895.1926
"1717",81.795685,895.20593
"1718",81.74197,895.21924
"1719",81.617455,895.23254
"1720",81.449,895.24585
"1721",81.26589,895.25916
"1722",81.08278,895.27246
"1723",80.902115,895.28577
"1724",80.726326,895.2991
"1725",80.5481,895.3124
"1726",80.36988,895.3257
"1727",80.184326,895.339
"1728",79.98901,895.3523
"1729",79.798584,895.3656
"1730",79.62768,895.3789
"1731",79.483635,895.3922
"1732",79.37377,895.4055
"1733",79.30785,895.4188
"1734",79.281,895.4321
"1735",79.27856,895.44543
"1736",79.28832,895.45874
"1737",79.29565,895.47205
"1738",79.293205,895.48535
"1739",79.27123,895.49866
"1740",79.22972,895.51196
"1741",79.17113,895.52527
"1742",79.10521,895.5386
"1743",79.04173,895.5519
"1744",79.00755,895.5652
"1745",79.044174,895.5785
"1746",79.19554,895.5918
"1747",79.48852,895.6051
"1748",79.906006,895.6184
"1749",80.40894,895.6317
"1750",80.92653,895.645
"1751",81.373314,895.6583
"1752",81.69314,895.67163
"1753",81.8616,895.68494
"1754",81.89578,895.69824
"1755",81.82498,895.71155
"1756",81.688255,895.72485
"1757",81.5198,895.73816
"1758",81.339134,895.75146
"1759",81.160904,895.7648
"1760",80.98268,895.7781
"1761",80.80446,895.7914
"1762",80.618904,895.8047
"1763",80.430916,895.818
"1764",80.23071,895.8313
"1765",80.025635,895.8446
"1766",79.82056,895.8579
"1767",79.63012,895.8712
"1768",79.4641,895.8845
"1769",79.33227,895.8978
"1770",79.24437,895.91113
"1771",79.202866,895.92444
"1772",79.19066,895.93774
"1773",79.19554,895.95105
"1774",79.20531,895.96436
"1775",79.202866,895.97766
"1776",79.18089,895.99097
"1777",79.13939,896.0043
"1778",79.078354,896.0176
"1779",79.00267,896.0309
"1780",78.922104,896.0442
"1781",78.84642,896.0575
"1782",78.79759,896.0708
"1783",78.80492,896.0841
"1784",78.91478,896.0974
"1785",79.15892,896.1107
"1786",79.54467,896.124
"1787",80.0354,896.1373
"1788",80.567635,896.15063
"1789",81.06325,896.16394
"1790",81.45144,896.17725
"1791",81.6907,896.19055
"1792",81.78592,896.20386
"1793",81.76639,896.21716
"1794",81.668724,896.23047
"1795",81.52468,896.2438
"1796",81.36599,896.2571
"1797",81.20241,896.2704
"1798",81.03883,896.2837
"1799",80.87038,896.297
"1800",80.69459,896.3103
"1801",80.5066,896.3236
"1802",80.30396,896.3369
"1803",80.09155,896.3502
"1804",79.87915,896.3635
"1805",79.676506,896.37683
"1806",79.49828,896.39014
"1807",79.3518,896.40344
"1808",79.24681,896.41675
"1809",79.17845,896.43005
"1810",79.14427,896.44336
"1811",79.12718,896.45667
"1812",79.11986,896.47
"1813",79.114975,896.4833
"1814",79.10033,896.4966
"1815",79.07591,896.5099
"1816",79.03685,896.5232
"1817",78.98314,896.5365
"1818",78.91966,896.5498
"1819",78.853745,896.5631
"1820",78.78783,896.5764
"1821",78.72434,896.5897
"1822",78.66575,896.603
"1823",78.624245,896.61633
"1824",78.60471,896.62964
"1825",78.6511,896.64294
"1826",78.80492,896.65625
"1827",79.10765,896.66956
"1828",79.54711,896.68286
"1829",80.09155,896.69617
"1830",80.66041,896.7095
"1831",81.16823,896.7228
"1832",81.549095,896.7361
"1833",81.77371,896.7494
"1834",81.85672,896.7627
"1835",81.82498,896.776
"1836",81.71755,896.7893
"1837",81.57107,896.8026
"1838",81.409935,896.8159
"1839",81.25124,896.8292
"1840",81.09743,896.8425
"1841",80.9485,896.85583
"1842",80.79225,896.86914
"1843",80.621346,896.88245
"1844",80.42603,896.89575
"1845",80.21362,896.90906
"1846",79.98657,896.92236
"1847",79.766846,896.93567
"1848",79.569084,896.949
"1849",79.41039,896.9623
"1850",79.290764,896.9756
"1851",79.217514,896.9889
"1852",79.17357,897.0022
"1853",79.149155,897.0155
"1854",79.132065,897.0288
"1855",79.11742,897.0421
"1856",79.09056,897.0554
"1857",79.05638,897.0687
"1858",79.012436,897.08203
"1859",78.95628,897.09534
"1860",78.890366,897.10864
"1861",78.819565,897.12195
"1862",78.75365,897.13525
"1863",78.695045,897.14856
"1864",78.643776,897.16187
"1865",78.60227,897.1752
"1866",78.572975,897.1885
"1867",78.54124,897.2018
"1868",78.5095,897.2151
"1869",78.47776,897.2284
"1870",78.45335,897.2417
"1871",78.44358,897.255
"1872",78.4802,897.2683
"1873",78.61204,897.2816
"1874",78.87816,897.2949
"1875",79.29565,897.3082
"1876",79.835205,897.32153
"1877",80.4358,897.33484
"1878",81.007095,897.34814
"1879",81.46609,897.36145
"1880",81.76395,897.37476
"1881",81.900665,897.38806
"1882",81.91043,897.40137
"1883",81.82742,897.4147
"1884",81.69802,897.428
"1885",81.549095,897.4413
"1886",81.39529,897.4546
"1887",81.234146,897.4679
"1888",81.07301,897.4812
"1889",80.907,897.4945
"1890",80.73121,897.5078
"1891",80.54322,897.5211
"1892",80.34547,897.5344
"1893",80.14038,897.5477
"1894",79.93042,897.56104
"1895",79.73022,897.57434
"1896",79.554436,897.58765
"1897",79.41772,897.60095
"1898",79.3225,897.61426
"1899",79.26635,897.62756
"1900",79.234604,897.64087
"1901",79.217514,897.6542
"1902",79.202866,897.6675
"1903",79.183334,897.6808
"1904",79.15404,897.6941
"1905",79.114975,897.7074
"1906",79.06615,897.7207
"1907",79.009995,897.734
"1908",78.94896,897.7473
"1909",78.88548,897.7606
"1910",78.82689,897.7739
"1911",78.77318,897.78723
"1912",78.72678,897.80054
"1913",78.68528,897.81384
"1914",78.64866,897.82715
"1915",78.61448,897.84045
"1916",78.58518,897.85376
"1917",78.56077,897.86707
"1918",78.56077,897.8804
"1919",78.6218,897.8937
"1920",78.79027,897.907
"1921",79.093,897.9203
"1922",79.53246,897.9336
"1923",80.06714,897.9469
"1924",80.62379,897.9602
"1925",81.12184,897.9735
"1926",81.495384,897.9868
"1927",81.71267,898.0001
"1928",81.78592,898.0134
"1929",81.74197,898.02673
"1930",81.619896,898.04004
"1931",81.461205,898.05334
"1932",81.287865,898.06665
"1933",81.11452,898.07996
"1934",80.9485,898.09326
"1935",80.782486,898.10657
"1936",80.61158,898.1199
"1937",80.430916,898.1332
"1938",80.24048,898.1465
"1939",80.042725,898.1598
"1940",79.84497,898.1731
"1941",79.66186,898.1864
"1942",79.50317,898.1997
"1943",79.38354,898.213
"1944",79.30053,898.2263
"1945",79.256584,898.2396
"1946",79.237045,898.2529
"1947",79.237045,898.26624
"1948",79.24193,898.27954
"1949",79.24193,898.29285
"1950",79.234604,898.30615
"1951",79.219955,898.31946
"1952",79.19066,898.33276
"1953",79.15404,898.34607
"1954",79.11253,898.3594
"1955",79.06615,898.3727
"1956",79.01732,898.386
"1957",78.97337,898.3993
"1958",78.93187,898.4126
"1959",78.89281,898.4259
"1960",78.8513,898.4392
"1961",78.80736,898.4525
"1962",78.75853,898.4658
"1963",78.70725,898.4791
"1964",78.65598,898.49243
"1965",78.61204,898.50574
"1966",78.590065,898.51904
"1967",78.6218,898.53235
"1968",78.75365,898.54565
"1969",79.01976,898.55896
"1970",79.42748,898.57227
"1971",79.94995,898.5856
"1972",80.50416,898.5989
"1973",81.01198,898.6122
"1974",81.39529,898.6255
"1975",81.619896,898.6388
"1976",81.6907,898.6521
"1977",81.64431,898.6654
"1978",81.51736,898.6787
"1979",81.34402,898.692
"1980",81.1487,898.7053
"1981",80.94606,898.7186
"1982",80.74586,898.73193
"1983",80.54322,898.74524
"1984",80.3357,898.75854
"1985",80.12573,898.77185
"1986",79.91821,898.78516
"1987",79.71313,898.79846
"1988",79.51537,898.81177
"1989",79.33715,898.8251
"1990",79.19066,898.8384
"1991",79.08568,898.8517
"1992",79.012436,898.865
"1993",78.9807,898.8783
"1994",78.97093,898.8916
"1995",78.97337,898.9049
"1996",78.97826,898.9182
"1997",78.975815,898.9315
"1998",78.96117,898.9448
"1999",78.93675,898.9581
"2000",78.89769,898.97144
"2001",78.84886,898.98474
"2002",78.80003,898.99805
"2003",78.751205,899.01135
"2004",78.70481,899.02466
"2005",78.660866,899.03796
"2006",78.6218,899.0513
"2007",78.590065,899.0646
"2008",78.55833,899.0779
"2009",78.53147,899.0912
"2010",78.51438,899.1045
"2011",78.504616,899.1178
"2012",78.5095,899.1311
"2013",78.56077,899.1444
"2014",78.69993,899.1577
"2015",78.95628,899.171
"2016",79.34692,899.1843
"2017",79.84009,899.19763
"2018",80.377205,899.21094
"2019",80.8777,899.22424
"2020",81.26833,899.23755
"2021",81.50515,899.25085
"2022",81.58572,899.26416
"2023",81.53933,899.27747
"2024",81.409935,899.2908
"2025",81.22926,899.3041
"2026",81.02907,899.3174
"2027",80.833755,899.3307
"2028",80.6482,899.344
"2029",80.47242,899.3573
"2030",80.29908,899.3706
"2031",80.12573,899.3839
"2032",79.95239,899.3972
"2033",79.77661,899.4105
"2034",79.605705,899.4238
"2035",79.4519,899.43713
"2036",79.32494,899.45044
"2037",79.22728,899.46375
"2038",79.166245,899.47705
"2039",79.132065,899.49036
"2040",79.11986,899.50366
"2041",79.1223,899.51697
"2042",79.13451,899.5303
"2043",79.14427,899.5436
"2044",79.149155,899.5569
"2045",79.14427,899.5702
"2046",79.12718,899.5835
"2047",79.10033,899.5968
"2048",79.061264,899.6101
"2049",79.01976,899.6234
"2050",78.9807,899.6367
"2051",78.94652,899.65
"2052",78.91722,899.6633
"2053",78.89525,899.67664
"2054",78.87572,899.68994
"2055",78.853745,899.70325
"2056",78.82933,899.71655
"2057",78.80492,899.72986
"2058",78.785385,899.74316
"2059",78.785385,899.7565
"2060",78.84642,899.7698
"2061",79.00267,899.7831
"2062",79.293205,899.7964
"2063",79.72045,899.8097
"2064",80.2478,899.823
"2065",80.8069,899.8363
"2066",81.31472,899.8496
"2067",81.70779,899.8629
"2068",81.94949,899.8762
"2069",82.037384,899.8895
"2070",82.00076,899.90283
"2071",81.87625,899.91614
"2072",81.69802,899.92944
"2073",81.495384,899.94275
"2074",81.29275,899.95605
"2075",81.10231,899.96936
"2076",80.919205,899.98267
"2077",80.75075,899.996
"2078",80.58228,900.0093
"2079",80.413826,900.0226
"2080",80.233154,900.0359
"2081",80.05005,900.0492
"2082",79.87427,900.0625
"2083",79.710686,900.0758
"2084",79.569084,900.0891
"2085",79.4519,900.1024
"2086",79.36889,900.1157
"2087",79.32006,900.129
"2088",79.290764,900.14233
"2089",79.276115,900.15564
"2090",79.27123,900.16895
"2091",79.26147,900.18225
"2092",79.237045,900.19556
"2093",79.200424,900.20886
"2094",79.15648,900.22217
"2095",79.11009,900.2355
"2096",79.061264,900.2488
"2097",79.01488,900.2621
"2098",78.975815,900.2754
"2099",78.9514,900.2887
"2100",78.93431,900.302
"2101",78.91234,900.3153
"2102",78.890366,900.3286
"2103",78.86595,900.3419
"2104",78.84398,900.3552
"2105",78.83177,900.3685
"2106",78.85863,900.38184
"2107",78.96361,900.39514
"2108",79.1931,900.40845
"2109",79.554436,900.42175
"2110",80.0354,900.43506
"2111",80.57984,900.44836
"2112",81.11452,900.4617
"2113",81.55642,900.475
"2114",81.85916,900.4883
"2115",82.00809,900.5016
"2116",82.02762,900.5149
"2117",81.94949,900.5282
"2118",81.80545,900.5415
"2119",81.62478,900.5548
"2120",81.42947,900.5681
"2121",81.23903,900.5814
"2122",81.058365,900.5947
"2123",80.88747,900.60803
"2124",80.723885,900.62134
"2125",80.56519,900.63464
"2126",80.40162,900.64795
"2127",80.22827,900.66125
"2128",80.05005,900.67456
"2129",79.87671,900.68787
"2130",79.72289,900.7012
"2131",79.59106,900.7145
"2132",79.48852,900.7278
"2133",79.4226,900.7411
"2134",79.38354,900.7544
"2135",79.361565,900.7677
"2136",79.344475,900.781
"2137",79.32983,900.7943
"2138",79.30785,900.8076
"2139",79.281,900.8209
"2140",79.24925,900.8342
"2141",79.217514,900.84753
"2142",79.18822,900.86084
"2143",79.15892,900.87415
"2144",79.13451,900.88745
"2145",79.11253,900.90076
"2146",79.09544,900.91406
"2147",79.078354,900.92737
"2148",79.061264,900.9407
"2149",79.04173,900.954
"2150",79.027084,900.9673
"2151",79.01976,900.9806
"2152",79.01732,900.9939
"2153",79.05882,901.0072
"2154",79.183334,901.0205
"2155",79.42748,901.0338
"2156",79.81323,901.0471
"2157",80.31617,901.0604
"2158",80.88014,901.0737
"2159",81.4197,901.08704
"2160",81.85672,901.10034
"2161",82.14725,901.11365
"2162",82.27909,901.12695
"2163",82.27665,901.14026
"2164",82.17166,901.15356
"2165",81.99832,901.1669
"2166",81.79324,901.1802
"2167",81.57839,901.1935
"2168",81.36599,901.2068
"2169",81.17067,901.2201
"2170",80.98512,901.2334
"2171",80.8069,901.2467
"2172",80.62867,901.26
"2173",80.445564,901.2733
"2174",80.255135,901.2866
"2175",80.06958,901.2999
"2176",79.8938,901.31323
"2177",79.73754,901.32654
"2178",79.61059,901.33984
"2179",79.51293,901.35315
"2180",79.44213,901.36646
"2181",79.3933,901.37976
"2182",79.35912,901.39307
"2183",79.33227,901.4064
"2184",79.30785,901.4197
"2185",79.281,901.433
"2186",79.256584,901.4463
"2187",79.22972,901.4596
"2188",79.202866,901.4729
"2189",79.17601,901.4862
"2190",79.14671,901.4995
"2191",79.11253,901.5128
"2192",79.07591,901.5261
"2193",79.044174,901.5394
"2194",79.01488,901.55273
"2195",78.98802,901.56604
"2196",78.96361,901.57935
"2197",78.93919,901.59265
"2198",78.91966,901.60596
"2199",78.907455,901.61926
"2200",78.93919,901.63257
"2201",79.05882,901.6459
"2202",79.30785,901.6592
"2203",79.70092,901.6725
"2204",80.21362,901.6858
"2205",80.78493,901.6991
"2206",81.33669,901.7124
"2207",81.78836,901.7257
"2208",82.08621,901.739
"2209",82.22293,901.7523
"2210",82.22049,901.7656
"2211",82.108185,901.77893
"2212",81.92508,901.79224
"2213",81.71023,901.80554
"2214",81.48806,901.81885
"2215",81.27322,901.83215
"2216",81.06325,901.84546
"2217",80.867935,901.85876
"2218",80.6775,901.8721
"2219",80.48707,901.8854
"2220",80.29908,901.8987
"2221",80.113525,901.912
"2222",79.9353,901.9253
"2223",79.76929,901.9386
"2224",79.63012,901.9519
"2225",79.517815,901.9652
"2226",79.432365,901.9785
"2227",79.37377,901.9918
"2228",79.33715,902.0051
"2229",79.31762,902.01843
"2230",79.30541,902.03174
"2231",79.29809,902.04504
"2232",79.28588,902.05835
"2233",79.26391,902.07166
"2234",79.23216,902.08496
"2235",79.19554,902.09827
"2236",79.15404,902.1116
"2237",79.11742,902.1249
"2238",79.08324,902.1382
"2239",79.04906,902.1515
"2240",79.01488,902.1648
"2241",78.98314,902.1781
"2242",78.9514,902.1914
"2243",78.91966,902.2047
"2244",78.89525,902.218
"2245",78.87816,902.2313
"2246",78.873276,902.2446
"2247",78.88304,902.25793
"2248",78.941635,902.27124
"2249",79.093,902.28455
"2250",79.37133,902.29785
"2251",79.79126,902.31116
"2252",80.32105,902.32446
"2253",80.902115,902.33777
"2254",81.45144,902.3511
"2255",81.88846,902.3644
"2256",82.1741,902.3777
"2257",82.30106,902.391
"2258",82.29618,902.4043
"2259",82.19119,902.4176
"2260",82.022736,902.4309
"2261",81.81766,902.4442
"2262",81.600365,902.4575
"2263",81.38308,902.4708
"2264",81.17311,902.48413
"2265",80.96803,902.49744
"2266",80.77028,902.51074
"2267",80.5774,902.52405
"2268",80.38941,902.53735
"2269",80.20386,902.55066
"2270",80.025635,902.56396
"2271",79.85962,902.5773
"2272",79.71313,902.5906
"2273",79.59106,902.6039
"2274",79.49828,902.6172
"2275",79.43725,902.6305
"2276",79.40551,902.6438
"2277",79.395744,902.6571
"2278",79.395744,902.6704
"2279",79.395744,902.6837
"2280",79.39086,902.697
"2281",79.37621,902.7103
"2282",79.3518,902.72363
"2283",79.32006,902.73694
"2284",79.281,902.75024
"2285",79.24193,902.76355
"2286",79.21019,902.77686
"2287",79.18089,902.79016
"2288",79.151596,902.80347
"2289",79.12718,902.8168
"2290",79.10277,902.8301
"2291",79.078354,902.8434
"2292",79.0515,902.8567
"2293",79.027084,902.87
"2294",79.00511,902.8833
"2295",78.98802,902.8966
"2296",78.9807,902.9099
"2297",79.012436,902.9232
"2298",79.1223,902.9365
"2299",79.35424,902.9498
"2300",79.73266,902.96313
"2301",80.24536,902.97644
"2302",80.82399,902.98975
"2303",81.39773,903.00305
"2304",81.881134,903.01636
"2305",82.21805,903.02966
"2306",82.388954,903.04297
"2307",82.41337,903.0563
"2308",82.320595,903.0696
"2309",82.142365,903.0829
"2310",81.91287,903.0962
"2311",81.65896,903.1095
"2312",81.40261,903.1228
"2313",81.15358,903.1361
"2314",80.91432,903.1494
"2315",80.68726,903.1627
"2316",80.465096,903.176
"2317",80.25025,903.18933
"2318",80.05249,903.20264
"2319",79.871826,903.21594
"2320",79.71801,903.22925
"2321",79.588615,903.24255
"2322",79.49096,903.25586
"2323",79.415276,903.26917
"2324",79.36645,903.2825
"2325",79.33959,903.2958
"2326",79.33227,903.3091
"2327",79.33715,903.3224
"2328",79.33715,903.3357
"2329",79.33227,903.349
"2330",79.31518,903.3623
"2331",79.290764,903.3756
"2332",79.26147,903.3889
"2333",79.234604,903.4022
"2334",79.20531,903.4155
"2335",79.17601,903.42883
"2336",79.14427,903.44214
"2337",79.114975,903.45544
"2338",79.08812,903.46875
"2339",79.06615,903.48206
"2340",79.044174,903.49536
"2341",79.01732,903.50867
"2342",78.99046,903.522
"2343",78.97093,903.5353
"2344",78.97826,903.5486
"2345",79.05638,903.5619
"2346",79.2517,903.5752
"2347",79.588615,903.5885
"2348",80.05249,903.6018
"2349",80.604256,903.6151
"2350",81.16823,903.6284
"2351",81.65896,903.6417
"2352",82.01785,903.655
"2353",82.21805,903.66833
"2354",82.266884,903.68164
"2355",82.18875,903.69495
"2356",82.022736,903.70825
"2357",81.79813,903.72156
"2358",81.54421,903.73486
"2359",81.28542,903.74817
"2360",81.03639,903.7615
"2361",80.79469,903.7748
"2362",80.56275,903.7881
"2363",80.34058,903.8014
"2364",80.12573,903.8147
"2365",79.91821,903.828
"2366",79.73266,903.8413
"2367",79.57641,903.8546
"2368",79.449455,903.8679
"2369",79.35912,903.8812
"2370",79.30053,903.89453
"2371",79.26635,903.90784
"2372",79.24925,903.92114
"2373",79.24437,903.93445
"2374",79.24681,903.94775
"2375",79.2517,903.96106
"2376",79.2517,903.97437
"2377",79.24925,903.9877
"2378",79.237045,904.001
"2379",79.217514,904.0143
"2380",79.19066,904.0276
"2381",79.15648,904.0409
"2382",79.1223,904.0542
"2383",79.08568,904.0675
"2384",79.04906,904.0808
"2385",79.009995,904.0941
"2386",78.97093,904.1074
"2387",78.92943,904.1207
"2388",78.89525,904.13403
"2389",78.8806,904.14734
"2390",78.91722,904.16064
"2391",79.046616,904.17395
"2392",79.30541,904.18726
"2393",79.70336,904.20056
"2394",80.21362,904.21387
"2395",80.77272,904.2272
"2396",81.307396,904.2405
"2397",81.74197,904.2538
"2398",82.022736,904.2671
"2399",82.14725,904.2804
"2400",82.13504,904.2937
"2401",82.01297,904.307
"2402",81.812775,904.3203
"2403",81.57595,904.3336
"2404",81.32693,904.3469
"2405",81.077896,904.3602
"2406",80.833755,904.37354
"2407",80.59693,904.38684
"2408",80.365,904.40015
"2409",80.14282,904.41345
"2410",79.93286,904.42676
"2411",79.742424,904.44006
"2412",79.57885,904.45337
"2413",79.447014,904.4667
"2414",79.35668,904.48
"2415",79.293205,904.4933
"2416",79.26147,904.5066
"2417",79.24925,904.5199
"2418",79.25414,904.5332
"2419",79.259026,904.5465
"2420",79.26635,904.5598
"2421",79.26879,904.5731
"2422",79.26879,904.5864
"2423",79.256584,904.59973
"2424",79.237045,904.61304
"2425",79.20531,904.62634
"2426",79.166245,904.63965
"2427",79.12718,904.65295
"2428",79.08812,904.66626
"2429",79.0515,904.67957
"2430",79.01488,904.6929
"2431",78.9807,904.7062
"2432",78.94652,904.7195
"2433",78.91478,904.7328
"2434",78.907455,904.7461
"2435",78.96361,904.7594
"2436",79.12718,904.7727
"2437",79.429924,904.786
"2438",79.86694,904.7993
"2439",80.40162,904.8126
"2440",80.95827,904.8259
"2441",81.45876,904.83923
"2442",81.829865,904.85254
"2443",82.04227,904.86584
"2444",82.09842,904.87915
"2445",82.022736,904.89246
"2446",81.85184,904.90576
"2447",81.62478,904.91907
"2448",81.3782,904.9324
"2449",81.126724,904.9457
"2450",80.88258,904.959
"2451",80.64332,904.9723
"2452",80.41627,904.9856
"2453",80.198975,904.9989
"2454",79.991455,905.0122
"2455",79.80347,905.0255
"2456",79.64477,905.0388
"2457",79.51537,905.0521
"2458",79.41772,905.0654
"2459",79.35424,905.07874
"2460",79.31762,905.09204
"2461",79.30541,905.10535
"2462",79.30785,905.11865
"2463",79.32006,905.13196
"2464",79.33227,905.14526
"2465",79.344475,905.15857
"2466",79.34692,905.1719
"2467",79.34203,905.1852
"2468",79.32494,905.1985
"2469",79.30053,905.2118
"2470",79.26879,905.2251
"2471",79.234604,905.2384
"2472",79.200424,905.2517
"2473",79.166245,905.265
"2474",79.13451,905.2783
"2475",79.10277,905.2916
"2476",79.06859,905.30493
"2477",79.03929,905.31824
"2478",79.027084,905.33154
"2479",79.05882,905.34485
"2480",79.18089,905.35815
"2481",79.429924,905.37146
"2482",79.818115,905.38477
"2483",80.31861,905.3981
"2484",80.87038,905.4114
"2485",81.3904,905.4247
"2486",81.80301,905.438
"2487",82.06424,905.4513
"2488",82.16678,905.4646
"2489",82.127716,905.4779
"2490",81.986115,905.4912
"2491",81.778595,905.5045
"2492",81.53933,905.5178
"2493",81.29763,905.5311
"2494",81.06081,905.54443
"2495",80.8362,905.55774
"2496",80.61646,905.57104
"2497",80.40406,905.58435
"2498",80.201416,905.59766
"2499",80.01099,905.61096
"2500",79.84497,905.62427
"2501",79.7058,905.6376
"2502",79.59838,905.6509
"2503",79.5227,905.6642
"2504",79.47875,905.6775
"2505",79.45922,905.6908
"2506",79.45922,905.7041
"2507",79.46899,905.7174
"2508",79.47631,905.7307
"2509",79.47875,905.744
"2510",79.47387,905.7573
"2511",79.4641,905.7706
"2512",79.447014,905.78394
"2513",79.42748,905.79724
"2514",79.40307,905.81055
"2515",79.37133,905.82385
"2516",79.33471,905.83716
"2517",79.29809,905.85046
"2518",79.26391,905.8638
"2519",79.23216,905.8771
"2520",79.20531,905.8904
"2521",79.18089,905.9037
"2522",79.168686,905.917
"2523",79.18089,905.9303
"2524",79.26391,905.9436
"2525",79.45434,905.9569
"2526",79.781494,905.9702
"2527",80.23071,905.9835
"2528",80.75807,905.9968
"2529",81.29519,906.01013
"2530",81.75906,906.02344
"2531",82.08621,906.03674
"2532",82.25956,906.05005
"2533",82.28153,906.06335
"2534",82.178986,906.07666
"2535",81.99588,906.08997
"2536",81.75418,906.1033
"2537",81.49294,906.1166
"2538",81.22926,906.1299
"2539",80.9778,906.1432
"2540",80.73853,906.1565
"2541",80.52125,906.1698
"2542",80.32105,906.1831
"2543",80.13306,906.1964
"2544",79.95972,906.2097
"2545",79.80347,906.223
"2546",79.66918,906.2363
"2547",79.5642,906.24963
"2548",79.48852,906.26294
"2549",79.447014,906.27625
"2550",79.43481,906.28955
"2551",79.44213,906.30286
"2552",79.45922,906.31616
"2553",79.47631,906.32947
"2554",79.48608,906.3428
"2555",79.483635,906.3561
"2556",79.47143,906.3694
"2557",79.449455,906.3827
"2558",79.42016,906.396
"2559",79.38842,906.4093
"2560",79.35668,906.4226
"2561",79.3225,906.4359
"2562",79.290764,906.4492
"2563",79.26391,906.4625
"2564",79.23949,906.4758
"2565",79.23216,906.48914
"2566",79.26635,906.50244
"2567",79.37621,906.51575
"2568",79.60082,906.52905
"2569",79.957275,906.54236
"2570",80.42359,906.55566
"2571",80.953384,906.569
"2572",81.47097,906.5823
"2573",81.90799,906.5956
"2574",82.20828,906.6089
"2575",82.35966,906.6222
"2576",82.36698,906.6355
"2577",82.25468,906.6488
"2578",82.0618,906.6621
"2579",81.82498,906.6754
"2580",81.56863,906.6887
"2581",81.307396,906.702
"2582",81.05592,906.71533
"2583",80.814224,906.72864
"2584",80.58961,906.74194
"2585",80.37476,906.75525
"2586",80.181885,906.76855
"2587",79.99878,906.78186
"2588",79.83765,906.79517
"2589",79.70092,906.8085
"2590",79.59594,906.8218
"2591",79.520256,906.8351
"2592",79.47875,906.8484
"2593",79.466545,906.8617
"2594",79.47387,906.875
"2595",79.48852,906.8883
"2596",79.500725,906.9016
"2597",79.50805,906.9149
"2598",79.50317,906.9282
"2599",79.48608,906.9415
"2600",79.45922,906.95483
"2601",79.42016,906.96814
"2602",79.36889,906.98145
"2603",79.31518,906.99475
"2604",79.26147,907.00806
"2605",79.20775,907.02136
"2606",79.1638,907.03467
"2607",79.132065,907.048
"2608",79.132065,907.0613
"2609",79.19798,907.0746
"2610",79.378654,907.0879
"2611",79.693596,907.1012
"2612",80.1355,907.1145
"2613",80.65797,907.1278
"2614",81.1902,907.1411
"2615",81.651634,907.1544
"2616",81.98367,907.1677
"2617",82.161896,907.181
"2618",82.18875,907.19434
"2619",82.09598,907.20764
"2620",81.917755,907.22095
"2621",81.69314,907.23425
"2622",81.446556,907.24756
"2623",81.20241,907.26086
"2624",80.970474,907.2742
"2625",80.7483,907.2875
"2626",80.53101,907.3008
"2627",80.323494,907.3141
"2628",80.12573,907.3274
"2629",79.94263,907.3407
"2630",79.783936,907.354
"2631",79.65209,907.3673
"2632",79.54711,907.3806
"2633",79.47631,907.3939
"2634",79.432365,907.4072
"2635",79.412834,907.42053
"2636",79.412834,907.43384
"2637",79.4226,907.44714
"2638",79.43481,907.46045
"2639",79.43969,907.47375
"2640",79.43481,907.48706
"2641",79.42016,907.50037
"2642",79.3933,907.5137
"2643",79.35424,907.527
"2644",79.31274,907.5403
"2645",79.26147,907.5536
"2646",79.20775,907.5669
"2647",79.151596,907.5802
"2648",79.10521,907.5935
"2649",79.08568,907.6068
"2650",79.13451,907.6201
"2651",79.293205,907.6334
"2652",79.59594,907.6467
"2653",80.03296,907.66003
"2654",80.56275,907.67334
"2655",81.10475,907.68665
"2656",81.57839,907.69995
"2657",81.91531,907.71326
"2658",82.10086,907.72656
"2659",82.13504,907.73987
"2660",82.054474,907.7532
"2661",81.88846,907.7665
"2662",81.67605,907.7798
"2663",81.43923,907.7931
"2664",81.19264,907.8064
"2665",80.953384,907.8197
"2666",80.726326,907.833
"2667",80.50904,907.8463
"2668",80.29664,907.8596
"2669",80.093994,907.8729
"2670",79.90845,907.8862
"2671",79.73998,907.89954
"2672",79.59838,907.91284
"2673",79.4934,907.92615
"2674",79.42016,907.93945
"2675",79.37621,907.95276
"2676",79.35668,907.96606
"2677",79.35424,907.9794
"2678",79.35912,907.9927
"2679",79.364006,908.006
"2680",79.36889,908.0193
"2681",79.36889,908.0326
"2682",79.361565,908.0459
"2683",79.34203,908.0592
"2684",79.310295,908.0725
"2685",79.27123,908.0858
"2686",79.2224,908.0991
"2687",79.168686,908.1124
"2688",79.1223,908.12573
"2689",79.08812,908.13904
"2690",79.08812,908.15234
"2691",79.151596,908.16565
"2692",79.32983,908.17896
"2693",79.64477,908.19226
"2694",80.08179,908.20557
"2695",80.59693,908.2189
"2696",81.12184,908.2322
"2697",81.56863,908.2455
"2698",81.881134,908.2588
"2699",82.037384,908.2721
"2700",82.04715,908.2854
"2701",81.94461,908.2987
"2702",81.76639,908.312
"2703",81.549095,908.3253
"2704",81.3196,908.3386
"2705",81.10231,908.3519
"2706",80.89235,908.36523
"2707",80.689705,908.37854
"2708",80.48951,908.39185
"2709",80.29664,908.40515
"2710",80.10864,908.41846
"2711",79.92798,908.43176
"2712",79.766846,908.44507
"2713",79.63012,908.4584
"2714",79.5227,908.4717
"2715",79.449455,908.485
"2716",79.40551,908.4983
"2717",79.38598,908.5116
"2718",79.38354,908.5249
"2719",79.381096,908.5382
"2720",79.37377,908.5515
"2721",79.35668,908.5648
"2722",79.32983,908.5781
"2723",79.29565,908.59143
"2724",79.2517,908.60474
"2725",79.19554,908.61804
"2726",79.13939,908.63135
"2727",79.078354,908.64465
"2728",79.01976,908.65796
"2729",78.97093,908.67126
"2730",78.93675,908.6846
"2731",78.93675,908.6979
"2732",79.00267,908.7112
"2733",79.17845,908.7245
"2734",79.4934,908.7378
"2735",79.940186,908.7511
"2736",80.479744,908.7644
"2737",81.03151,908.7777
"2738",81.512474,908.791
"2739",81.85916,908.8043
"2740",82.04471,908.8176
"2741",82.07645,908.83093
"2742",81.98367,908.84424
"2743",81.80545,908.85754
"2744",81.58572,908.87085
"2745",81.35378,908.88416
"2746",81.12428,908.89746
"2747",80.91188,908.91077
"2748",80.71168,908.9241
"2749",80.52125,908.9374
"2750",80.3357,908.9507
"2751",80.15259,908.964
"2752",79.97925,908.9773
"2753",79.82056,908.9906
"2754",79.68139,909.0039
"2755",79.57397,909.0172
"2756",79.49584,909.0305
"2757",79.449455,909.0438
"2758",79.429924,909.0571
"2759",79.429924,909.07043
"2760",79.44213,909.08374
"2761",79.45434,909.09705
"2762",79.46166,909.11035
"2763",79.45922,909.12366
"2764",79.43969,909.13696
"2765",79.41039,909.15027
"2766",79.36645,909.1636
"2767",79.31518,909.1769
"2768",79.259026,909.1902
"2769",79.200424,909.2035
"2770",79.151596,909.2168
"2771",79.13939,909.2301
"2772",79.21019,909.2434
"2773",79.40551,909.2567
"2774",79.744865,909.27
"2775",80.21362,909.2833
"2776",80.75319,909.29663
"2777",81.28298,909.30994
"2778",81.72732,909.32324
"2779",82.03006,909.33655
"2780",82.1741,909.34985
"2781",82.17166,909.36316
"2782",82.0618,909.37646
"2783",81.87625,909.3898
"2784",81.64431,909.4031
"2785",81.39773,909.4164
"2786",81.15602,909.4297
"2787",80.921646,909.443
"2788",80.69703,909.4563
"2789",80.48463,909.4696
"2790",80.28199,909.4829
"2791",80.08667,909.4962
"2792",79.90845,909.5095
"2793",79.7522,909.5228
"2794",79.62768,909.53613
"2795",79.53246,909.54944
"2796",79.47631,909.56274
"2797",79.45434,909.57605
"2798",79.45922,909.58936
"2799",79.48119,909.60266
"2800",79.51293,909.61597
"2801",79.537346,909.6293
"2802",79.54955,909.6426
"2803",79.54711,909.6559
"2804",79.52758,909.6692
"2805",79.4934,909.6825
"2806",79.449455,909.6958
"2807",79.3933,909.7091
"2808",79.33227,909.7224
"2809",79.281,909.7357
"2810",79.276115,909.749
"2811",79.37133,909.7623
"2812",79.60082,909.77563
"2813",79.97925,909.78894
"2814",80.47486,909.80225
"2815",81.0193,909.81555
"2816",81.52224,909.82886
"2817",81.91287,909.84216
"2818",82.14725,909.85547
"2819",82.2327,909.8688
"2820",82.193634,909.8821
"2821",82.06668,909.8954
"2822",81.881134,909.9087
"2823",81.66628,909.922
"2824",81.444115,909.9353
"2825",81.22438,909.9486
"2826",81.00954,909.9619
"2827",80.80446,909.9752
"2828",80.604256,909.9885
"2829",80.396736,910.00183
"2830",80.19165,910.01514
"2831",79.99634,910.02844
"2832",79.823,910.04175
"2833",79.68627,910.05505
"2834",79.588615,910.06836
"2835",79.53002,910.08167
"2836",79.50805,910.095
"2837",79.51049,910.1083
"2838",79.52514,910.1216
"2839",79.53979,910.1349
"2840",79.54223,910.1482
"2841",79.5227,910.1615
"2842",79.483635,910.1748
"2843",79.42748,910.1881
"2844",79.35668,910.2014
"2845",79.281,910.2147
"2846",79.202866,910.228
"2847",79.14427,910.24133
"2848",79.13939,910.25464
"2849",79.237045,910.26794
"2850",79.47631,910.28125
"2851",79.85962,910.29456
"2852",80.35767,910.30786
"2853",80.902115,910.32117
"2854",81.39773,910.3345
"2855",81.77615,910.3478
"2856",82.00076,910.3611
"2857",82.07889,910.3744
"2858",82.03006,910.3877
"2859",81.900665,910.401
"2860",81.72488,910.4143
"2861",81.52712,910.4276
"2862",81.322044,910.4409
"2863",81.12428,910.4542
"2864",80.92409,910.4675
"2865",80.719,910.48083
"2866",80.51148,910.49414
"2867",80.29908,910.50745
"2868",80.08911,910.52075
"2869",79.88403,910.53406
"2870",79.708244,910.54736
"2871",79.5642,910.56067
"2872",79.45922,910.574
"2873",79.398186,910.5873
"2874",79.37377,910.6006
"2875",79.36645,910.6139
"2876",79.36645,910.6272
"2877",79.364006,910.6405
"2878",79.3518,910.6538
"2879",79.32494,910.6671
"2880",79.281,910.6804
"2881",79.217514,910.6937
"2882",79.13695,910.70703
"2883",79.04906,910.72034
"2884",78.97337,910.73364
"2885",78.93919,910.74695
"2886",78.995346,910.76025
"2887",79.185776,910.77356
"2888",79.52514,910.78687
"2889",79.991455,910.8002
"2890",80.52613,910.8135
"2891",81.041275,910.8268
"2892",81.463646,910.8401
"2893",81.74197,910.8534
"2894",81.87137,910.8667
"2895",81.87381,910.88
"2896",81.78836,910.8933
"2897",81.64187,910.9066
"2898",81.463646,910.9199
"2899",81.270775,910.9332
"2900",81.07301,910.94653
"2901",80.87038,910.95984
"2902",80.66285,910.97314
"2903",80.448006,910.98645
"2904",80.23071,910.99976
"2905",80.01343,911.01306
"2906",79.80347,911.02637
"2907",79.62035,911.0397
"2908",79.47387,911.053
"2909",79.37133,911.0663
"2910",79.310295,911.0796
"2911",79.290764,911.0929
"2912",79.30297,911.1062
"2913",79.33227,911.1195
"2914",79.361565,911.1328
"2915",79.38354,911.1461
"2916",79.3933,911.1594
"2917",79.378654,911.1727
"2918",79.33959,911.18604
"2919",79.281,911.19934
"2920",79.2224,911.21265
"2921",79.17357,911.22595
"2922",79.17601,911.23926
"2923",79.28588,911.25256
"2924",79.53246,911.26587
"2925",79.91333,911.2792
"2926",80.396736,911.2925
"2927",80.919205,911.3058
"2928",81.39773,911.3191
"2929",81.76395,911.3324
"2930",81.988556,911.3457
"2931",82.074005,911.359
"2932",82.04959,911.3723
"2933",81.94217,911.3856
"2934",81.7908,911.3989
"2935",81.61501,911.41223
"2936",81.427025,911.42554
"2937",81.23903,911.43884
"2938",81.041275,911.45215
"2939",80.831314,911.46545
"2940",80.61158,911.47876
"2941",80.38209,911.49207
"2942",80.14526,911.5054
"2943",79.91577,911.5187
"2944",79.71313,911.532
"2945",79.54955,911.5453
"2946",79.432365,911.5586
"2947",79.364006,911.5719
"2948",79.34203,911.5852
"2949",79.34936,911.5985
"2950",79.36645,911.6118
"2951",79.378654,911.6251
"2952",79.37377,911.6384
"2953",79.34203,911.65173
"2954",79.28344,911.66504
"2955",79.21019,911.67834
"2956",79.12474,911.69165
"2957",79.046616,911.70496
"2958",79.01488,911.71826
"2959",79.078354,911.73157
"2960",79.27856,911.7449
"2961",79.63012,911.7582
"2962",80.10864,911.7715
"2963",80.65308,911.7848
"2964",81.18288,911.7981
"2965",81.61501,911.8114
"2966",81.90311,911.8247
"2967",82.04227,911.838
"2968",82.04959,911.8513
"2969",81.96658,911.8646
"2970",81.82498,911.8779
"2971",81.654076,911.89124
"2972",81.47341,911.90454
"2973",81.29763,911.91785
"2974",81.11452,911.93115
"2975",80.921646,911.94446
"2976",80.71168,911.95776
"2977",80.482185,911.97107
"2978",80.24048,911.9844
"2979",79.99878,911.9977
"2980",79.77661,912.011
"2981",79.588615,912.0243
"2982",79.44457,912.0376
"2983",79.3518,912.0509
"2984",79.30541,912.0642
"2985",79.293205,912.0775
"2986",79.29565,912.0908
"2987",79.29565,912.1041
"2988",79.281,912.11743
"2989",79.24681,912.13074
"2990",79.19066,912.14404
"2991",79.114975,912.15735
"2992",79.03197,912.17065
"2993",78.94896,912.18396
"2994",78.887924,912.19727
"2995",78.90013,912.2106
"2996",79.029526,912.2239
"2997",79.30785,912.2372
"2998",79.725334,912.2505
"2999",80.23804,912.2638
"3000",80.765396,912.2771
"3001",81.22682,912.2904
"3002",81.56374,912.3037
"3003",81.75174,912.317
"3004",81.80301,912.3303
"3005",81.74685,912.3436
"3006",81.617455,912.35693
"3007",81.446556,912.37024
"3008",81.26589,912.38354
"3009",81.08034,912.39685
"3010",80.88747,912.41016
"3011",80.68238,912.42346
"3012",80.45533,912.43677
"3013",80.20386,912.4501
"3014",79.940186,912.4634
"3015",79.68139,912.4767
"3016",79.43969,912.49
"3017",79.23216,912.5033
"3018",79.07347,912.5166
"3019",78.96605,912.5299
"3020",78.907455,912.5432
"3021",78.89525,912.5565
"3022",78.91234,912.5698
"3023",78.941635,912.5831
"3024",78.96361,912.59644
"3025",78.96605,912.60974
"3026",78.94408,912.62305
"3027",78.90013,912.63635
"3028",78.83177,912.64966
"3029",78.75365,912.66296
"3030",78.677956,912.6763
"3031",78.624245,912.6896
"3032",78.63401,912.7029
"3033",78.76341,912.7162
"3034",79.03929,912.7295
"3035",79.45678,912.7428
"3036",79.971924,912.7561
"3037",80.50904,912.7694
"3038",80.990005,912.7827
"3039",81.3489,912.796
"3040",81.56374,912.8093
"3041",81.64187,912.82263
"3042",81.61501,912.83594
"3043",81.51736,912.84924
"3044",81.3782,912.86255
"3045",81.21706,912.87585
"3046",81.05104,912.88916
"3047",80.885025,912.90247
"3048",80.71168,912.9158
"3049",80.52369,912.9291
"3050",80.31617,912.9424
"3051",80.09888,912.9557
"3052",79.87671,912.969
"3053",79.656975,912.9823
"3054",79.45922,912.9956
"3055",79.293205,913.0089
"3056",79.17601,913.0222
"3057",79.10521,913.0355
"3058",79.08324,913.0488
"3059",79.093,913.06213
"3060",79.1223,913.07544
"3061",79.14183,913.08875
"3062",79.13939,913.10205
"3063",79.10521,913.11536
"3064",79.04173,913.12866
"3065",78.94896,913.14197
"3066",78.84154,913.1553
"3067",78.729225,913.1686
"3068",78.6218,913.1819
"3069",78.54612,913.1952
"3070",78.536354,913.2085
"3071",78.63401,913.2218
"3072",78.88304,913.2351
"3073",79.28344,913.2484
"3074",79.798584,913.2617
"3075",80.360115,913.275
"3076",80.88258,913.2883
"3077",81.29519,913.30164
"3078",81.55642,913.31494
"3079",81.67361,913.32825
"3080",81.67605,913.34155
"3081",81.59792,913.35486
"3082",81.46853,913.36816
"3083",81.3196,913.3815
"3084",81.15602,913.3948
"3085",80.98512,913.4081
"3086",80.79469,913.4214
"3087",80.58961,913.4347
"3088",80.36256,913.448
"3089",80.12573,913.4613
"3090",79.87915,913.4746
"3091",79.64233,913.4879
"3092",79.415276,913.5012
"3093",79.21019,913.5145
"3094",79.027084,913.52783
"3095",78.8806,913.54114
"3096",78.77806,913.55444
"3097",78.712135,913.56775
"3098",78.68284,913.58105
"3099",78.67307,913.59436
"3100",78.66331,913.60767
"3101",78.63889,913.621
"3102",78.59983,913.6343
"3103",78.555885,913.6476
"3104",78.50706,913.6609
"3105",78.45823,913.6742
"3106",78.40452,913.6875
"3107",78.35325,913.7008
"3108",78.294655,913.7141
"3109",78.25071,913.7274
"3110",78.25559,913.7407
"3111",78.365456,913.754
"3112",78.61936,913.76733
"3113",79.01488,913.78064
"3114",79.50805,913.79395
"3115",80.02319,913.80725
"3116",80.47486,913.82056
"3117",80.79225,913.83386
"3118",80.96071,913.84717
"3119",80.99489,913.8605
"3120",80.92897,913.8738
"3121",80.80446,913.8871
"3122",80.6482,913.9004
"3123",80.482185,913.9137
"3124",80.31373,913.927
"3125",80.14282,913.9403
"3126",79.957275,913.9536
"3127",79.75464,913.9669
"3128",79.534904,913.9802
"3129",79.30785,913.9935
"3130",79.08568,914.00684
"3131",78.88304,914.02014
"3132",78.70481,914.03345
"3133",78.57053,914.04675
"3134",78.4802,914.06006
"3135",78.4387,914.07336
"3136",78.43626,914.0867
"3137",78.46555,914.1
"3138",78.504616,914.1133
"3139",78.54124,914.1266
"3140",78.55833,914.1399
"3141",78.551,914.1532
"3142",78.521706,914.1665
"3143",78.47288,914.1798
"3144",78.4094,914.1931
"3145",78.34104,914.2064
"3146",78.2678,914.2197
"3147",78.19699,914.23303
"3148",78.14572,914.24634
"3149",78.14328,914.25964
"3150",78.23361,914.27295
"3151",78.45579,914.28625
"3152",78.839096,914.29956
"3153",79.35912,914.31287
"3154",79.95239,914.3262
"3155",80.533455,914.3395
"3156",81.0193,914.3528
"3157",81.35378,914.3661
"3158",81.52468,914.3794
"3159",81.55398,914.3927
"3160",81.48318,914.406
"3161",81.34646,914.4193
"3162",81.18288,914.4326
"3163",81.01198,914.4459
"3164",80.83864,914.4592
"3165",80.66773,914.47253
"3166",80.499275,914.48584
"3167",80.32105,914.49915
"3168",80.13306,914.51245
"3169",79.9353,914.52576
"3170",79.7351,914.53906
"3171",79.53979,914.55237
"3172",79.364006,914.5657
"3173",79.22972,914.579
"3174",79.14183,914.5923
"3175",79.10521,914.6056
"3176",79.114975,914.6189
"3177",79.14427,914.6322
"3178",79.17845,914.6455
"3179",79.19554,914.6588
"3180",79.18822,914.6721
"3181",79.15648,914.6854
"3182",79.10765,914.6987
"3183",79.044174,914.71204
"3184",78.97337,914.72534
"3185",78.89769,914.73865
"3186",78.819565,914.75195
"3187",78.74143,914.76526
"3188",78.67063,914.77856
"3189",78.61204,914.7919
"3190",78.58274,914.8052
"3191",78.61204,914.8185
"3192",78.746315,914.8318
"3193",79.027084,914.8451
"3194",79.4641,914.8584
"3195",80.025635,914.8717
"3196",80.64088,914.885
"3197",81.20973,914.8983
"3198",81.64187,914.9116
"3199",81.89578,914.9249
"3200",81.98123,914.93823
"3201",81.934845,914.95154
"3202",81.80789,914.96484
"3203",81.64187,914.97815
"3204",81.46853,914.99146
"3205",81.29763,915.00476
"3206",81.13161,915.01807
"3207",80.96803,915.0314
"3208",80.799576,915.0447
"3209",80.621346,915.058
"3210",80.42359,915.0713
"3211",80.2063,915.0846
"3212",79.97681,915.0979
"3213",79.74975,915.1112
"3214",79.54223,915.1245
"3215",79.36645,915.1378
"3216",79.24193,915.1511
"3217",79.1638,915.1644
"3218",79.132065,915.17773
"3219",79.13451,915.19104
"3220",79.15404,915.20435
"3221",79.17357,915.21765
"3222",79.17845,915.23096
"3223",79.15648,915.24426
"3224",79.11253,915.25757
"3225",79.04906,915.2709
"3226",78.975815,915.2842
"3227",78.89525,915.2975
"3228",78.82201,915.3108
"3229",78.75365,915.3241
"3230",78.695045,915.3374
"3231",78.64622,915.3507
"3232",78.61204,915.364
"3233",78.57786,915.3773
"3234",78.54612,915.3906
"3235",78.51194,915.40393
"3236",78.487526,915.41724
"3237",78.504616,915.43054
"3238",78.61448,915.44385
"3239",78.873276,915.45715
"3240",79.29565,915.47046
"3241",79.85474,915.48376
"3242",80.48707,915.4971
"3243",81.09987,915.5104
"3244",81.602806,915.5237
"3245",81.93729,915.537
"3246",82.1033,915.5503
"3247",82.127716,915.5636
"3248",82.05203,915.5769
"3249",81.91531,915.5902
"3250",81.75418,915.6035
"3251",81.59548,915.6168
"3252",81.43923,915.6301
"3253",81.28542,915.64343
"3254",81.13161,915.65674
"3255",80.96315,915.67004
"3256",80.77516,915.68335
"3257",80.56275,915.69666
"3258",80.33326,915.70996
"3259",80.08667,915.72327
"3260",79.84741,915.7366
"3261",79.635,915.7499
"3262",79.466545,915.7632
"3263",79.344475,915.7765
"3264",79.26879,915.7898
"3265",79.234604,915.8031
"3266",79.22484,915.8164
"3267",79.219955,915.8297
"3268",79.21019,915.843
"3269",79.18822,915.8563
"3270",79.151596,915.8696
"3271",79.097885,915.88293
"3272",79.04173,915.89624
"3273",78.9807,915.90955
"3274",78.922104,915.92285
"3275",78.86595,915.93616
"3276",78.81468,915.94946
"3277",78.76341,915.96277
"3278",78.71702,915.9761
"3279",78.67307,915.9894
"3280",78.63157,916.0027
"3281",78.59495,916.016
"3282",78.55833,916.0293
"3283",78.52415,916.0426
"3284",78.48997,916.0559
"3285",78.45579,916.0692
"3286",78.42405,916.0825
"3287",78.399635,916.0958
"3288",78.38987,916.10913
"3289",78.40452,916.12244
"3290",78.485085,916.13574
"3291",78.67307,916.14905
"3292",79.01488,916.16235
"3293",79.520256,916.17566
"3294",80.15259,916.18896
"3295",80.8362,916.2023
"3296",81.47585,916.2156
"3297",81.986115,916.2289
"3298",82.320595,916.2422
"3299",82.47929,916.2555
"3300",82.49149,916.2688
"3301",82.39628,916.2821
"3302",82.23758,916.2954
"3303",82.04227,916.3087
"3304",81.83719,916.322
"3305",81.634544,916.3353
"3306",81.44167,916.34863
"3307",81.24391,916.36194
"3308",81.03883,916.37524
"3309",80.81911,916.38855
"3310",80.57496,916.40186
"3311",80.31861,916.41516
"3312",80.059814,916.42847
"3313",79.818115,916.4418
"3314",79.61303,916.4551
"3315",79.46166,916.4684
"3316",79.364006,916.4817
"3317",79.31274,916.495
"3318",79.29565,916.5083
"3319",79.293205,916.5216
"3320",79.29565,916.5349
"3321",79.290764,916.5482
"3322",79.276115,916.5615
"3323",79.24925,916.5748
"3324",79.20531,916.58813
"3325",79.14427,916.60144
"3326",79.07347,916.61475
"3327",78.995346,916.62805
"3328",78.91478,916.64136
"3329",78.839096,916.65466
"3330",78.77318,916.66797
"3331",78.71458,916.6813
"3332",78.66575,916.6946
"3333",78.626686,916.7079
"3334",78.59495,916.7212
"3335",78.56321,916.7345
"3336",78.53147,916.7478
"3337",78.49973,916.7611
"3338",78.46067,916.7744
"3339",78.41917,916.7877
"3340",78.382545,916.801
"3341",78.365456,916.81433
"3342",78.39475,916.82764
"3343",78.51194,916.84094
"3344",78.77318,916.85425
"3345",79.200424,916.86755
"3346",79.76929,916.88086
"3347",80.41871,916.89417
"3348",81.06325,916.9075
"3349",81.600365,916.9208
"3350",81.97635,916.9341
"3351",82.16922,916.9474
"3352",82.20584,916.9607
"3353",82.11551,916.974
"3354",81.951935,916.9873
"3355",81.74441,917.0006
"3356",81.51736,917.0139
"3357",81.28542,917.0272
"3358",81.06325,917.0405
"3359",80.84108,917.05383
"3360",80.618904,917.06714
"3361",80.396736,917.08044
"3362",80.17456,917.09375
"3363",79.94751,917.10706
"3364",79.727776,917.12036
"3365",79.53002,917.13367
"3366",79.364006,917.147
"3367",79.24437,917.1603
"3368",79.17601,917.1736
"3369",79.15892,917.1869
"3370",79.17357,917.2002
"3371",79.202866,917.2135
"3372",79.23216,917.2268
"3373",79.24681,917.2401
"3374",79.23949,917.2534
"3375",79.21019,917.2667
"3376",79.16136,917.28
"3377",79.10033,917.29333
"3378",79.03929,917.30664
"3379",78.97826,917.31995
"3380",78.922104,917.33325
"3381",78.873276,917.34656
"3382",78.82933,917.35986
"3383",78.78783,917.37317
"3384",78.74387,917.3865
"3385",78.70481,917.3998
"3386",78.66819,917.4131
"3387",78.63889,917.4264
"3388",78.61448,917.4397
"3389",78.60227,917.453
"3390",78.59251,917.4663
"3391",78.58518,917.4796
"3392",78.572975,917.4929
"3393",78.555885,917.5062
"3394",78.536354,917.51953
"3395",78.5095,917.53284
"3396",78.48997,917.54614
"3397",78.48264,917.55945
"3398",78.521706,917.57275
"3399",78.65354,917.58606
"3400",78.92943,917.59937
"3401",79.378654,917.6127
"3402",79.97925,917.626
"3403",80.672615,917.6393
"3404",81.37087,917.6526
"3405",81.971466,917.6659
"3406",82.408485,917.6792
"3407",82.65751,917.6925
"3408",82.73319,917.7058
"3409",82.669716,917.7191
"3410",82.511024,917.7324
"3411",82.29374,917.7457
"3412",82.05203,917.75903
"3413",81.80789,917.77234
"3414",81.57107,917.78564
"3415",81.34402,917.79895
"3416",81.12428,917.81226
"3417",80.89723,917.82556
"3418",80.66529,917.83887
"3419",80.428474,917.8522
"3420",80.19653,917.8655
"3421",79.97681,917.8788
"3422",79.78882,917.8921
"3423",79.635,917.9054
"3424",79.520256,917.9187
"3425",79.44457,917.932
"3426",79.40063,917.9453
"3427",79.38354,917.9586
"3428",79.378654,917.9719
"3429",79.381096,917.9852
"3430",79.381096,917.99854
"3431",79.37133,918.01184
"3432",79.344475,918.02515
"3433",79.30297,918.03845
"3434",79.24681,918.05176
"3435",79.183334,918.06506
"3436",79.11253,918.07837
"3437",79.044174,918.0917
"3438",78.98802,918.105
"3439",78.941635,918.1183
"3440",78.90257,918.1316
"3441",78.873276,918.1449
"3442",78.84886,918.1582
"3443",78.82201,918.1715
"3444",78.79759,918.1848
"3445",78.77318,918.1981
"3446",78.74387,918.2114
"3447",78.7219,918.22473
"3448",78.69993,918.23804
"3449",78.68528,918.25134
"3450",78.675514,918.26465
"3451",78.692604,918.27795
"3452",78.77562,918.29126
"3453",78.97337,918.30457
"3454",79.327385,918.3179
"3455",79.84985,918.3312
"3456",80.5066,918.3445
"3457",81.20973,918.3578
"3458",81.85916,918.3711
"3459",82.37675,918.3844
"3460",82.70634,918.3977
"3461",82.85283,918.411
"3462",82.84062,918.4243
"3463",82.7161,918.4376
"3464",82.51835,918.4509
"3465",82.286415,918.46423
"3466",82.04715,918.47754
"3467",81.82254,918.49084
"3468",81.61013,918.50415
"3469",81.40261,918.51746
"3470",81.197525,918.53076
"3471",80.98268,918.54407
"3472",80.75319,918.5574
"3473",80.52369,918.5707
"3474",80.2942,918.584
"3475",80.079346,918.5973
"3476",79.89624,918.6106
"3477",79.75708,918.6239
"3478",79.65942,918.6372
"3479",79.603264,918.6505
"3480",79.58373,918.6638
"3481",79.586174,918.6771
"3482",79.59594,918.6904
"3483",79.59838,918.70374
"3484",79.5935,918.71704
"3485",79.57641,918.73035
"3486",79.54955,918.74365
"3487",79.51049,918.75696
"3488",79.46899,918.77026
"3489",79.415276,918.78357
"3490",79.361565,918.7969
"3491",79.30785,918.8102
"3492",79.26147,918.8235
"3493",79.2224,918.8368
"3494",79.19554,918.8501
"3495",79.17357,918.8634
"3496",79.149155,918.8767
"3497",79.12474,918.89
"3498",79.09056,918.9033
"3499",79.0515,918.9166
"3500",79.01488,918.92993
"3501",78.9807,918.94324
"3502",78.94652,918.95654
"3503",78.91966,918.96985
"3504",78.91234,918.98315
"3505",78.9514,918.99646
"3506",79.08568,919.00977
"3507",79.37377,919.0231
"3508",79.83276,919.0364
"3509",80.43824,919.0497
"3510",81.12184,919.063
"3511",81.78592,919.0763
"3512",82.33524,919.0896
"3513",82.71122,919.1029
"3514",82.90898,919.1162
"3515",82.9456,919.1295
"3516",82.85527,919.1428
"3517",82.67704,919.1561
"3518",82.44999,919.16943
"3519",82.196075,919.18274
"3520",81.934845,919.19604
"3521",81.67849,919.20935
"3522",81.42947,919.22266
"3523",81.18776,919.23596
"3524",80.94362,919.24927
"3525",80.69459,919.2626
"3526",80.43824,919.2759
"3527",80.18677,919.2892
"3528",79.95239,919.3025
"3529",79.744865,919.3158
"3530",79.57641,919.3291
"3531",79.4519,919.3424
"3532",79.36889,919.3557
"3533",79.3225,919.369
"3534",79.30297,919.3823
"3535",79.29809,919.3956
"3536",79.29809,919.40894
"3537",79.29809,919.42224
"3538",79.28832,919.43555
"3539",79.26635,919.44885
"3540",79.23216,919.46216
"3541",79.18822,919.47546
"3542",79.13451,919.4888
"3543",79.08568,919.5021
"3544",79.03441,919.5154
"3545",78.99046,919.5287
"3546",78.94652,919.542
"3547",78.905014,919.5553
"3548",78.86595,919.5686
"3549",78.83177,919.5819
"3550",78.79759,919.5952
"3551",78.76341,919.6085
"3552",78.73167,919.6218
"3553",78.69993,919.63513
"3554",78.67063,919.64844
"3555",78.64622,919.66174
"3556",78.63645,919.67505
"3557",78.66575,919.68835
"3558",78.77562,919.70166
"3559",79.01488,919.71497
"3560",79.41772,919.7283
"3561",79.97681,919.7416
"3562",80.64088,919.7549
"3563",81.32693,919.7682
"3564",81.94217,919.7815
"3565",82.41337,919.7948
"3566",82.70878,919.8081
"3567",82.83086,919.8214
"3568",82.811325,919.8347
"3569",82.68192,919.848
"3570",82.476845,919.8613
"3571",82.23514,919.87463
"3572",81.97391,919.88794
"3573",81.71023,919.90125
"3574",81.45144,919.91455
"3575",81.20485,919.92786
"3576",80.96803,919.94116
"3577",80.73609,919.95447
"3578",80.499275,919.9678
"3579",80.2649,919.9811
"3580",80.0354,919.9944
"3581",79.83032,920.0077
"3582",79.656975,920.021
"3583",79.52514,920.0343
"3584",79.43725,920.0476
"3585",79.38842,920.0609
"3586",79.35912,920.0742
"3587",79.34936,920.0875
"3588",79.344475,920.1008
"3589",79.33715,920.11414
"3590",79.32494,920.12744
"3591",79.30053,920.14075
"3592",79.26147,920.15405
"3593",79.217514,920.16736
"3594",79.17113,920.18066
"3595",79.12474,920.194
"3596",79.080795,920.2073
"3597",79.03929,920.2206
"3598",78.99779,920.2339
"3599",78.95628,920.2472
"3600",78.91478,920.2605
"3601",78.8806,920.2738
"3602",78.84886,920.2871
"3603",78.82201,920.3004
"3604",78.79759,920.3137
"3605",78.77806,920.327
"3606",78.765854,920.34033
"3607",78.77074,920.35364
"3608",78.819565,920.36694
"3609",78.96117,920.38025
"3610",79.24193,920.39355
"3611",79.68383,920.40686
"3612",80.26734,920.42017
"3613",80.93385,920.4335
"3614",81.59304,920.4468
"3615",82.15457,920.4601
"3616",82.55009,920.4734
"3617",82.76982,920.4867
"3618",82.82109,920.5
"3619",82.7454,920.5133
"3620",82.57694,920.5266
"3621",82.354774,920.5399
"3622",82.108185,920.5532
"3623",81.8616,920.5665
"3624",81.619896,920.57983
"3625",81.38796,920.59314
"3626",81.17067,920.60645
"3627",80.95094,920.61975
"3628",80.723885,920.63306
"3629",80.49439,920.64636
"3630",80.26734,920.65967
"3631",80.045166,920.673
"3632",79.84741,920.6863
"3633",79.67162,920.6996
"3634",79.53002,920.7129
"3635",79.42504,920.7262
"3636",79.35668,920.7395
"3637",79.32006,920.7528
"3638",79.30785,920.7661
"3639",79.310295,920.7794
"3640",79.31518,920.7927
"3641",79.310295,920.806
"3642",79.293205,920.81934
"3643",79.26147,920.83264
"3644",79.219955,920.84595
"3645",79.17113,920.85925
"3646",79.11742,920.87256
"3647",79.061264,920.88586
"3648",79.00755,920.8992
"3649",78.958725,920.9125
"3650",78.91234,920.9258
"3651",78.870834,920.9391
"3652",78.83177,920.9524
"3653",78.79759,920.9657
"3654",78.765854,920.979
"3655",78.73899,920.9923
"3656",78.729225,921.0056
"3657",78.75853,921.0189
"3658",78.873276,921.0322
"3659",79.1223,921.04553
"3660",79.537346,921.05884
"3661",80.10132,921.07214
"3662",80.762955,921.08545
"3663",81.43191,921.09875
"3664",82.020294,921.11206
"3665",82.45731,921.12537
"3666",82.720985,921.1387
"3667",82.81865,921.152
"3668",82.78203,921.1653
"3669",82.64774,921.1786
"3670",82.44999,921.1919
"3671",82.22293,921.2052
"3672",81.97879,921.2185
"3673",81.73708,921.2318
"3674",81.495384,921.2451
"3675",81.25613,921.2584
"3676",81.0193,921.2717
"3677",80.782486,921.28503
"3678",80.54566,921.29834
"3679",80.31373,921.31165
"3680",80.093994,921.32495
"3681",79.888916,921.33826
"3682",79.71313,921.35156
"3683",79.571526,921.36487
"3684",79.46899,921.3782
"3685",79.40795,921.3915
"3686",79.378654,921.4048
"3687",79.37133,921.4181
"3688",79.36889,921.4314
"3689",79.361565,921.4447
"3690",79.344475,921.458
"3691",79.30785,921.4713
"3692",79.259026,921.4846
"3693",79.202866,921.4979
"3694",79.14671,921.5112
"3695",79.08568,921.52454
"3696",79.029526,921.53784
"3697",78.97826,921.55115
"3698",78.92699,921.56445
"3699",78.87572,921.57776
"3700",78.82445,921.59106
"3701",78.77074,921.6044
"3702",78.7219,921.6177
"3703",78.67307,921.631
"3704",78.63401,921.6443
"3705",78.626686,921.6576
"3706",78.69016,921.6709
"3707",78.873276,921.6842
"3708",79.21507,921.6975
"3709",79.72289,921.7108
"3710",80.35523,921.7241
"3711",81.03639,921.7374
"3712",81.671165,921.75073
"3713",82.178986,921.76404
"3714",82.513466,921.77734
"3715",82.67216,921.79065
"3716",82.67948,921.80396
"3717",82.56962,921.81726
"3718",82.38163,921.83057
"3719",82.15213,921.8439
"3720",81.90311,921.8572
"3721",81.65652,921.8705
"3722",81.41726,921.8838
"3723",81.18532,921.8971
"3724",80.953384,921.9104
"3725",80.72144,921.9237
"3726",80.49195,921.937
"3727",80.26246,921.9503
"3728",80.04761,921.9636
"3729",79.84985,921.9769
"3730",79.68139,921.99023
"3731",79.54711,922.00354
"3732",79.449455,922.01685
"3733",79.38598,922.03015
"3734",79.3518,922.04346
"3735",79.33227,922.05676
"3736",79.31762,922.07007
"3737",79.30297,922.0834
"3738",79.28344,922.0967
"3739",79.256584,922.11
"3740",79.22484,922.1233
"3741",79.18822,922.1366
"3742",79.14427,922.1499
"3743",79.093,922.1632
"3744",79.03929,922.1765
"3745",78.98558,922.1898
"3746",78.93431,922.2031
"3747",78.890366,922.21643
"3748",78.84642,922.22974
"3749",78.802475,922.24304
"3750",78.75609,922.25635
"3751",78.71458,922.26965
"3752",78.69016,922.28296
"3753",78.709694,922.29626
"3754",78.82445,922.3096
"3755",79.080795,922.3229
"3756",79.50317,922.3362
"3757",80.06958,922.3495
"3758",80.72144,922.3628
"3759",81.37087,922.3761
"3760",81.92264,922.3894
"3761",82.320595,922.4027
"3762",82.53788,922.416
"3763",82.59403,922.4293
"3764",82.51835,922.4426
"3765",82.354774,922.45593
"3766",82.13992,922.46924
"3767",81.898224,922.48254
"3768",81.64675,922.49585
"3769",81.39773,922.50916
"3770",81.15358,922.52246
"3771",80.907,922.53577
"3772",80.65797,922.5491
"3773",80.40894,922.5624
"3774",80.164795,922.5757
"3775",79.937744,922.589
"3776",79.73754,922.6023
"3777",79.569084,922.6156
"3778",79.44213,922.6289
"3779",79.3518,922.6422
"3780",79.293205,922.6555
"3781",79.26147,922.6688
"3782",79.24925,922.6821
"3783",79.23949,922.69543
"3784",79.22728,922.70874
"3785",79.202866,922.72205
"3786",79.168686,922.73535
"3787",79.12474,922.74866
"3788",79.07591,922.76196
"3789",79.0222,922.77527
"3790",78.96849,922.7886
"3791",78.91234,922.8019
"3792",78.853745,922.8152
"3793",78.79027,922.8285
"3794",78.73167,922.8418
"3795",78.66819,922.8551
"3796",78.607155,922.8684
"3797",78.553444,922.8817
"3798",78.519264,922.895
"3799",78.54124,922.9083
"3800",78.66575,922.92163
"3801",78.93675,922.93494
"3802",79.36645,922.94824
"3803",79.93042,922.96155
"3804",80.56275,922.97485
"3805",81.17555,922.98816
"3806",81.68337,923.00146
"3807",82.03494,923.0148
"3808",82.213165,923.0281
"3809",82.23758,923.0414
"3810",82.142365,923.0547
"3811",81.96414,923.068
"3812",81.739525,923.0813
"3813",81.49294,923.0946
"3814",81.23903,923.1079
"3815",80.987564,923.1212
"3816",80.743416,923.1345
"3817",80.5066,923.1478
"3818",80.274666,923.16113
"3819",80.05005,923.17444
"3820",79.83276,923.18774
"3821",79.635,923.20105
"3822",79.46899,923.21436
"3823",79.33227,923.22766
"3824",79.23216,923.24097
"3825",79.17601,923.2543
"3826",79.149155,923.2676
"3827",79.14183,923.2809
"3828",79.14183,923.2942
"3829",79.13695,923.3075
"3830",79.11986,923.3208
"3831",79.093,923.3341
"3832",79.05394,923.3474
"3833",79.01488,923.3607
"3834",78.96849,923.374
"3835",78.922104,923.3873
"3836",78.870834,923.40063
"3837",78.819565,923.41394
"3838",78.768295,923.42725
"3839",78.7219,923.44055
"3840",78.677956,923.45386
"3841",78.63889,923.46716
"3842",78.60227,923.48047
"3843",78.57542,923.4938
"3844",78.56809,923.5071
"3845",78.6096,923.5204
"3846",78.751205,923.5337
"3847",79.03685,923.547
"3848",79.47875,923.5603
"3849",80.045166,923.5736
"3850",80.67994,923.5869
"3851",81.28054,923.6002
"3852",81.76639,923.6135
"3853",82.07889,923.62683
"3854",82.21805,923.64014
"3855",82.196075,923.65344
"3856",82.054474,923.66675
"3857",81.83719,923.68005
"3858",81.58083,923.69336
"3859",81.31472,923.70667
"3860",81.05104,923.72
"3861",80.797134,923.7333
"3862",80.5481,923.7466
"3863",80.306404,923.7599
"3864",80.07202,923.7732
"3865",79.84497,923.7865
"3866",79.63744,923.7998
"3867",79.45678,923.8131
"3868",79.31762,923.8264
"3869",79.219955,923.8397
"3870",79.16136,923.853
"3871",79.13939,923.86633
"3872",79.14183,923.87964
"3873",79.15404,923.89294
"3874",79.166245,923.90625
"3875",79.17601,923.91956
"3876",79.17601,923.93286
"3877",79.16136,923.94617
"3878",79.13695,923.9595
"3879",79.10033,923.9728
"3880",79.061264,923.9861
"3881",79.01488,923.9994
"3882",78.96605,924.0127
"3883",78.91966,924.026
"3884",78.87816,924.0393
"3885",78.836655,924.0526
"3886",78.79027,924.0659
"3887",78.74387,924.0792
"3888",78.69749,924.0925
"3889",78.660866,924.10583
"3890",78.65354,924.11914
"3891",78.71458,924.13245
"3892",78.89281,924.14575
"3893",79.217514,924.15906
"3894",79.69604,924.17236
"3895",80.291756,924.18567
"3896",80.92897,924.199
"3897",81.5198,924.2123
"3898",81.98123,924.2256
"3899",82.26444,924.2389
"3900",82.36942,924.2522
"3901",82.32548,924.2655
"3902",82.16678,924.2788
"3903",81.93973,924.2921
"3904",81.685814,924.3054
"3905",81.4197,924.3187
"3906",81.15846,924.33203
"3907",80.907,924.34534
"3908",80.67017,924.35864
"3909",80.44068,924.37195
"3910",80.218506,924.38525
"3911",80.0061,924.39856
"3912",79.81323,924.41187
"3913",79.64477,924.4252
"3914",79.50561,924.4385
"3915",79.40795,924.4518
"3916",79.3518,924.4651
"3917",79.33227,924.4784
"3918",79.33959,924.4917
"3919",79.35912,924.505
"3920",79.38354,924.5183
"3921",79.3933,924.5316
"3922",79.38842,924.5449
"3923",79.36889,924.5582
"3924",79.33959,924.57153
"3925",79.30053,924.58484
"3926",79.25414,924.59814
"3927",79.20775,924.61145
"3928",79.16136,924.62476
"3929",79.11253,924.63806
"3930",79.06859,924.65137
"3931",79.029526,924.6647
"3932",78.992905,924.678
"3933",78.958725,924.6913
"3934",78.93431,924.7046
"3935",78.93187,924.7179
"3936",78.98314,924.7312
"3937",79.13939,924.7445
"3938",79.43725,924.7578
"3939",79.88403,924.7711
"3940",80.45045,924.7844
"3941",81.06325,924.7977
"3942",81.6321,924.81104
"3943",82.08133,924.82434
"3944",82.354774,924.83765
"3945",82.45243,924.85095
"3946",82.391396,924.86426
"3947",82.22293,924.87756
"3948",81.986115,924.89087
"3949",81.72488,924.9042
"3950",81.461205,924.9175
"3951",81.20729,924.9308
"3952",80.96071,924.9441
"3953",80.71412,924.9574
"3954",80.47486,924.9707
"3955",80.24048,924.984
"3956",80.01831,924.9973
"3957",79.82056,925.0106
"3958",79.65453,925.0239
"3959",79.52514,925.03723
"3960",79.432365,925.05054
"3961",79.378654,925.06384
"3962",79.35668,925.07715
"3963",79.3518,925.09045
"3964",79.361565,925.10376
"3965",79.37377,925.11707
"3966",79.37621,925.1304
"3967",79.36645,925.1437
"3968",79.344475,925.157
"3969",79.310295,925.1703
"3970",79.27123,925.1836
"3971",79.2224,925.1969
"3972",79.17357,925.2102
"3973",79.12474,925.2235
"3974",79.07103,925.2368
"3975",79.01732,925.2501
"3976",78.96605,925.2634
"3977",78.924545,925.27673
"3978",78.890366,925.29004
"3979",78.88304,925.30334
"3980",78.92943,925.31665
"3981",79.078354,925.32996
"3982",79.364006,925.34326
"3983",79.80591,925.35657
"3984",80.36744,925.3699
"3985",80.98268,925.3832
"3986",81.5613,925.3965
"3987",82.01785,925.4098
"3988",82.30595,925.4231
"3989",82.42069,925.4364
"3990",82.388954,925.4497
"3991",82.247345,925.463
"3992",82.03006,925.4763
"3993",81.778595,925.4896
"3994",81.514915,925.5029
"3995",81.25124,925.51624
"3996",80.99733,925.52954
"3997",80.75319,925.54285
"3998",80.516365,925.55615
"3999",80.291756,925.56946
"4000",80.08179,925.58276
"4001",79.89136,925.59607
"4002",79.727776,925.6094
"4003",79.60082,925.6227
"4004",79.51293,925.636
"4005",79.4641,925.6493
"4006",79.4519,925.6626
"4007",79.4641,925.6759
"4008",79.48852,925.6892
"4009",79.51049,925.7025
"4010",79.520256,925.7158
"4011",79.51537,925.7291
"4012",79.49584,925.74243
"4013",79.4641,925.75574
"4014",79.41772,925.76904
"4015",79.36645,925.78235
"4016",79.30785,925.79565
"4017",79.24681,925.80896
"4018",79.185776,925.82227
"4019",79.1223,925.8356
"4020",79.063705,925.8489
"4021",79.01732,925.8622
"4022",79.00023,925.8755
"4023",79.05394,925.8888
"4024",79.2224,925.9021
"4025",79.537346,925.9154
"4026",79.99634,925.9287
"4027",80.56031,925.942
"4028",81.143814,925.9553
"4029",81.66628,925.9686
"4030",82.04715,925.98193
"4031",82.25956,925.99524
"4032",82.31083,926.00854
"4033",82.2327,926.02185
"4034",82.06424,926.03516
"4035",81.846954,926.04846
"4036",81.60769,926.06177
"4037",81.36355,926.0751
"4038",81.12184,926.0884
"4039",80.88747,926.1017
"4040",80.655525,926.115
"4041",80.428474,926.1283
"4042",80.20386,926.1416
"4043",79.9939,926.1549
"4044",79.80591,926.1682
"4045",79.65209,926.1815
"4046",79.53979,926.1948
"4047",79.47143,926.2081
"4048",79.44213,926.22144
"4049",79.44213,926.23474
"4050",79.45922,926.24805
"4051",79.483635,926.26135
"4052",79.49828,926.27466
"4053",79.50317,926.28796
"4054",79.48852,926.3013
"4055",79.46166,926.3146
"4056",79.42504,926.3279
"4057",79.38354,926.3412
"4058",79.33715,926.3545
"4059",79.28344,926.3678
"4060",79.22484,926.3811
"4061",79.16136,926.3944
"4062",79.09544,926.4077
"4063",79.03929,926.421
"4064",79.00511,926.4343
"4065",79.03197,926.44763
"4066",79.1638,926.46094
"4067",79.44457,926.47424
"4068",79.87427,926.48755
"4069",80.42115,926.50085
"4070",81.00954,926.51416
"4071",81.55642,926.52747
"4072",81.98123,926.5408
"4073",82.24002,926.5541
"4074",82.32792,926.5674
"4075",82.27665,926.5807
"4076",82.127716,926.594
"4077",81.9202,926.6073
"4078",81.685814,926.6206
"4079",81.45388,926.6339
"4080",81.22926,926.6472
"4081",81.01686,926.6605
"4082",80.8069,926.6738
"4083",80.59937,926.68713
"4084",80.39918,926.70044
"4085",80.20386,926.71375
"4086",80.025635,926.72705
"4087",79.8645,926.74036
"4088",79.7351,926.75366
"4089",79.639885,926.76697
"4090",79.57397,926.7803
"4091",79.53979,926.7936
"4092",79.52758,926.8069
"4093",79.52758,926.8202
"4094",79.52758,926.8335
"4095",79.520256,926.8468
"4096",79.500725,926.8601
"4097",79.466545,926.8734
"4098",79.41772,926.8867
"4099",79.361565,926.9
"4100",79.29565,926.9133
"4101",79.22728,926.92664
"4102",79.15892,926.93994
"4103",79.093,926.95325
"4104",79.03929,926.96655
"4105",78.992905,926.97986
"4106",78.96117,926.99316
"4107",78.97093,927.0065
"4108",79.07103,927.0198
"4109",79.30053,927.0331
"4110",79.676506,927.0464
"4111",80.18921,927.0597
"4112",80.76784,927.073
"4113",81.33181,927.0863
"4114",81.7908,927.0996
"4115",82.09354,927.1129
"4116",82.230255,927.1262
"4117",82.21805,927.1395
"4118",82.10086,927.15283
"4119",81.91287,927.16614
"4120",81.6907,927.17944
"4121",81.46609,927.19275
"4122",81.24635,927.20605
"4123",81.03395,927.21936
"4124",80.82887,927.23267
"4125",80.62379,927.246
"4126",80.41627,927.2593
"4127",80.21118,927.2726
"4128",80.01099,927.2859
"4129",79.83032,927.2992
"4130",79.676506,927.3125
"4131",79.55932,927.3258
"4132",79.48119,927.3391
"4133",79.43725,927.3524
"4134",79.415276,927.3657
"4135",79.40551,927.379
"4136",79.40063,927.39233
"4137",79.38598,927.40564
"4138",79.364006,927.41895
"4139",79.33471,927.43225
"4140",79.29809,927.44556
"4141",79.2517,927.45886
"4142",79.19554,927.47217
"4143",79.12962,927.4855
"4144",79.05882,927.4988
"4145",78.98558,927.5121
"4146",78.91478,927.5254
"4147",78.85863,927.5387
"4148",78.82933,927.552
"4149",78.86107,927.5653
"4150",79.00023,927.5786
"4151",79.276115,927.5919
"4152",79.69848,927.6052
"4153",80.23804,927.6185
"4154",80.82643,927.63184
"4155",81.373314,927.64514
"4156",81.80545,927.65845
"4157",82.06912,927.67175
"4158",82.16434,927.68506
"4159",82.12039,927.69836
"4160",81.98367,927.7117
"4161",81.795685,927.725
"4162",81.5906,927.7383
"4163",81.38308,927.7516
"4164",81.17799,927.7649
"4165",80.97536,927.7782
"4166",80.76784,927.7915
"4167",80.5481,927.8048
"4168",80.32105,927.8181
"4169",80.09155,927.8314
"4170",79.871826,927.8447
"4171",79.674065,927.85803
"4172",79.51293,927.87134
"4173",79.3933,927.88464
"4174",79.31762,927.89795
"4175",79.276115,927.91125
"4176",79.259026,927.92456
"4177",79.256584,927.93787
"4178",79.26147,927.9512
"4179",79.256584,927.9645
"4180",79.24193,927.9778
"4181",79.21507,927.9911
"4182",79.17601,928.0044
"4183",79.12474,928.0177
"4184",79.06859,928.031
"4185",79.009995,928.0443
"4186",78.9514,928.0576
"4187",78.887924,928.0709
"4188",78.82933,928.0842
"4189",78.7805,928.09753
"4190",78.75853,928.11084
"4191",78.802475,928.12415
"4192",78.95384,928.13745
"4193",79.25414,928.15076
"4194",79.693596,928.16406
"4195",80.24048,928.17737
"4196",80.81911,928.1907
"4197",81.34402,928.204
"4198",81.73464,928.2173
"4199",81.9617,928.2306
"4200",82.02518,928.2439
"4201",81.95682,928.2572
"4202",81.80301,928.2705
"4203",81.602806,928.2838
"4204",81.3904,928.2971
"4205",81.18288,928.3104
"4206",80.987564,928.3237
"4207",80.799576,928.33704
"4208",80.61402,928.35034
"4209",80.42115,928.36365
"4210",80.216064,928.37695
"4211",80.00366,928.39026
"4212",79.79614,928.40356
"4213",79.605705,928.4169
"4214",79.44457,928.4302
"4215",79.32494,928.4435
"4216",79.24437,928.4568
"4217",79.200424,928.4701
"4218",79.18089,928.4834
"4219",79.17845,928.4967
"4220",79.183334,928.51
"4221",79.17845,928.5233
"4222",79.16136,928.5366
"4223",79.12718,928.5499
"4224",79.07591,928.56323
"4225",79.012436,928.57654
"4226",78.94408,928.58984
"4227",78.873276,928.60315
"4228",78.802475,928.61646
"4229",78.73899,928.62976
"4230",78.6804,928.64307
"4231",78.63157,928.6564
"4232",78.6096,928.6697
"4233",78.65354,928.683
"4234",78.80492,928.6963
"4235",79.097885,928.7096
"4236",79.53979,928.7229
"4237",80.093994,928.7362
"4238",80.68726,928.7495
"4239",81.231705,928.7628
"4240",81.64675,928.7761
"4241",81.88846,928.7894
"4242",81.95682,928.80273
"4243",81.881134,928.81604
"4244",81.7029,928.82935
"4245",81.47585,928.84265
"4246",81.23659,928.85596
"4247",81.004654,928.86926
"4248",80.78981,928.88257
"4249",80.58961,928.8959
"4250",80.394295,928.9092
"4251",80.19653,928.9225
"4252",79.9939,928.9358
"4253",79.7937,928.9491
"4254",79.603264,928.9624
"4255",79.42748,928.9757
"4256",79.27856,928.989
"4257",79.1638,929.0023
"4258",79.08324,929.0156
"4259",79.03929,929.02893
"4260",79.02464,929.04224
"4261",79.027084,929.05554
"4262",79.03197,929.06885
"4263",79.03685,929.08215
"4264",79.027084,929.09546
"4265",79.00267,929.10876
"4266",78.97337,929.1221
"4267",78.93431,929.1354
"4268",78.887924,929.1487
"4269",78.83421,929.162
"4270",78.78294,929.1753
"4271",78.73411,929.1886
"4272",78.695045,929.2019
"4273",78.66819,929.2152
"4274",78.675514,929.2285
"4275",78.73655,929.2418
"4276",78.905014,929.2551
"4277",79.20775,929.26843
"4278",79.64965,929.28174
"4279",80.19165,929.29504
"4280",80.765396,929.30835
"4281",81.27566,929.32166
"4282",81.654076,929.33496
"4283",81.864044,929.34827
"4284",81.90799,929.3616
"4285",81.815216,929.3749
"4286",81.63943,929.3882
"4287",81.41726,929.4015
"4288",81.18532,929.4148
"4289",80.96315,929.4281
"4290",80.76051,929.4414
"4291",80.57496,929.4547
"4292",80.38697,929.468
"4293",80.19653,929.4813
"4294",80.0061,929.4946
"4295",79.815674,929.50793
"4296",79.63256,929.52124
"4297",79.47143,929.53455
"4298",79.33715,929.54785
"4299",79.23216,929.56116
"4300",79.16136,929.57446
"4301",79.12718,929.58777
"4302",79.11986,929.6011
"4303",79.12718,929.6144
"4304",79.13695,929.6277
"4305",79.13695,929.641
"4306",79.1223,929.6543
"4307",79.09544,929.6676
"4308",79.05638,929.6809
"4309",79.012436,929.6942
"4310",78.96605,929.7075
"4311",78.91478,929.7208
"4312",78.86595,929.73413
"4313",78.81468,929.74744
"4314",78.765854,929.76074
"4315",78.71702,929.77405
"4316",78.68528,929.78735
"4317",78.68772,929.80066
"4318",78.765854,929.81396
"4319",78.975815,929.8273
"4320",79.33715,929.8406
"4321",79.835205,929.8539
"4322",80.413826,929.8672
"4323",80.99489,929.8805
"4324",81.480736,929.8938
"4325",81.812775,929.9071
"4326",81.971466,929.9204
"4327",81.971466,929.9337
"4328",81.849396,929.947
"4329",81.65896,929.9603
"4330",81.42947,929.97363
"4331",81.19997,929.98694
"4332",80.987564,930.00024
"4333",80.78981,930.01355
"4334",80.6067,930.02686
"4335",80.430916,930.04016
"4336",80.255135,930.05347
"4337",80.0647,930.0668
"4338",79.871826,930.0801
"4339",79.676506,930.0934
"4340",79.49828,930.1067
"4341",79.34936,930.12
"4342",79.23949,930.1333
"4343",79.17113,930.1466
"4344",79.13695,930.1599
"4345",79.132065,930.1732
"4346",79.149155,930.1865
"4347",79.166245,930.1998
"4348",79.183334,930.21313
"4349",79.19066,930.22644
"4350",79.183334,930.23975
"4351",79.16136,930.25305
"4352",79.12718,930.26636
"4353",79.080795,930.27966
"4354",79.029526,930.29297
"4355",78.97093,930.3063
"4356",78.91234,930.3196
"4357",78.856186,930.3329
"4358",78.80736,930.3462
"4359",78.77318,930.3595
"4360",78.77806,930.3728
"4361",78.86595,930.3861
"4362",79.080795,930.3994
"4363",79.4519,930.4127
"4364",79.9646,930.426
"4365",80.56275,930.43933
"4366",81.15114,930.45264
"4367",81.64431,930.46594
"4368",81.97635,930.47925
"4369",82.127716,930.49255
"4370",82.12039,930.50586
"4371",81.991,930.51917
"4372",81.7908,930.5325
"4373",81.5613,930.5458
"4374",81.33425,930.5591
"4375",81.126724,930.5724
"4376",80.94118,930.5857
"4377",80.765396,930.599
"4378",80.58961,930.6123
"4379",80.4065,930.6256
"4380",80.21362,930.6389
"4381",80.02075,930.6522
"4382",79.82788,930.6655
"4383",79.656975,930.67883
"4384",79.51293,930.69214
"4385",79.40795,930.70544
"4386",79.34692,930.71875
"4387",79.32006,930.73206
"4388",79.32006,930.74536
"4389",79.33227,930.75867
"4390",79.33959,930.772
"4391",79.33959,930.7853
"4392",79.32494,930.7986
"4393",79.29809,930.8119
"4394",79.259026,930.8252
"4395",79.21019,930.8385
"4396",79.15404,930.8518
"4397",79.093,930.8651
"4398",79.029526,930.8784
"4399",78.96849,930.8917
"4400",78.91966,930.905
"4401",78.905014,930.91833
"4402",78.96605,930.93164
"4403",79.14671,930.94495
"4404",79.47387,930.95825
"4405",79.9353,930.97156
"4406",80.479744,930.98486
"4407",81.02174,930.99817
"4408",81.47585,931.0115
"4409",81.77615,931.0248
"4410",81.90799,931.0381
"4411",81.89578,931.0514
"4412",81.77127,931.0647
"4413",81.583275,931.078
"4414",81.36599,931.0913
"4415",81.15114,931.1046
"4416",80.9485,931.1179
"4417",80.765396,931.1312
"4418",80.59937,931.14453
"4419",80.43824,931.15784
"4420",80.26734,931.17114
"4421",80.08179,931.18445
"4422",79.89136,931.19775
"4423",79.70092,931.21106
"4424",79.53246,931.22437
"4425",79.3933,931.2377
"4426",79.259026,931.251
"4427",79.09056,931.2643
"4428",78.86839,931.2776
"4429",78.63401,931.2909
"4430",78.45335,931.3042
"4431",78.35325,931.3175
"4432",78.28489,931.3308
"4433",78.16525,931.3441
"4434",77.92355,931.3574
"4435",77.574425,931.3707
"4436",77.37911,931.38403
"4437",77.659874,931.39734
"4438",78.54368,931.41064
"4439",79.85962,931.42395
"4440",81.28054,931.43726
"4441",82.48173,931.45056
"4442",83.245895,931.46387
"4443",83.595024,931.4772
"4444",83.73174,931.4905
"4445",83.897766,931.5038
"4446",84.1712,931.5171
"4447",84.50324,931.5304
"4448",84.771805,931.5437
"4449",84.87923,931.557
"4450",84.76448,931.5703
"4451",84.422676,931.5836
"4452",83.9173,931.5969
"4453",83.34356,931.6102
"4454",82.78935,931.62354
"4455",82.320595,931.63684
"4456",81.95438,931.65015
"4457",81.671165,931.66345
"4458",81.44167,931.67676
"4459",81.25124,931.69006
"4460",81.077896,931.70337
"4461",80.89723,931.7167
"4462",80.68482,931.73
"4463",80.44312,931.7433
"4464",80.181885,931.7566
"4465",79.91577,931.7699
"4466",79.67162,931.7832
"4467",79.45678,931.7965
"4468",79.281,931.8098
"4469",79.14671,931.8231
"4470",79.05394,931.8364
"4471",78.99779,931.84973
"4472",78.975815,931.86304
"4473",78.975815,931.87634
"4474",78.98802,931.88965
"4475",79.00267,931.90295
"4476",79.00755,931.91626
"4477",78.98802,931.92957
"4478",78.941635,931.9429
"4479",78.873276,931.9562
"4480",78.80003,931.9695
"4481",78.768295,931.9828
"4482",78.82445,931.9961
"4483",79.01976,932.0094
"4484",79.361565,932.0227
"4485",79.81323,932.036
"4486",80.31129,932.0493
"4487",80.7776,932.0626
"4488",81.143814,932.0759
"4489",81.38064,932.08923
"4490",81.49294,932.10254
"4491",81.50515,932.11584
"4492",81.44167,932.12915
"4493",81.33181,932.14246
"4494",81.197525,932.15576
"4495",81.05104,932.16907
"4496",80.902115,932.1824
"4497",80.75319,932.1957
"4498",80.59693,932.209
"4499",80.430916,932.2223
"4500",80.24292,932.2356
"4501",80.04028,932.2489
"4502",79.82788,932.2622
"4503",79.62035,932.2755
"4504",79.43969,932.2888
"4505",79.30053,932.3021
"4506",79.20775,932.3154
"4507",79.15648,932.32874
"4508",79.14183,932.34204
"4509",79.149155,932.35535
"4510",79.166245,932.36865
"4511",79.17601,932.38196
"4512",79.183334,932.39526
"4513",79.17601,932.40857
"4514",79.15404,932.4219
"4515",79.11742,932.4352
"4516",79.07103,932.4485
"4517",79.01976,932.4618
"4518",78.9807,932.4751
"4519",78.992905,932.4884
"4520",79.097885,932.5017
"4521",79.33227,932.515
"4522",79.69604,932.5283
"4523",80.164795,932.5416
"4524",80.672615,932.55493
"4525",81.13893,932.56824
"4526",81.497826,932.58154
"4527",81.71999,932.59485
"4528",81.80301,932.60815
"4529",81.77371,932.62146
"4530",81.668724,932.63477
"4531",81.51736,932.6481
"4532",81.34402,932.6614
"4533",81.163345,932.6747
"4534",80.9778,932.688
"4535",80.78981,932.7013
"4536",80.59449,932.7146
"4537",80.38941,932.7279
"4538",80.181885,932.7412
"4539",79.97681,932.7545
"4540",79.783936,932.7678
"4541",79.61791,932.7811
"4542",79.47875,932.79443
"4543",79.36889,932.80774
"4544",79.293205,932.82104
"4545",79.24193,932.83435
"4546",79.20775,932.84766
"4547",79.183334,932.86096
"4548",79.166245,932.87427
"4549",79.14183,932.8876
"4550",79.11009,932.9009
"4551",79.06615,932.9142
"4552",79.00755,932.9275
"4553",78.93675,932.9408
"4554",78.86107,932.9541
"4555",78.79027,932.9674
"4556",78.746315,932.9807
"4557",78.77318,932.994
"4558",78.91234,933.0073
"4559",79.19066,933.0206
"4560",79.60082,933.03394
"4561",80.10132,933.04724
"4562",80.618904,933.06055
"4563",81.07057,933.07385
"4564",81.40261,933.08716
"4565",81.59304,933.10046
"4566",81.65652,933.1138
"4567",81.62722,933.1271
"4568",81.54421,933.1404
"4569",81.43435,933.1537
"4570",81.31228,933.167
"4571",81.180435,933.1803
"4572",81.03639,933.1936
"4573",80.87282,933.2069
"4574",80.68238,933.2202
"4575",80.47242,933.2335
