"","ppg","time"
"1",78.09689,421.56372
"2",78.065155,421.57715
"3",78.06027,421.59058
"4",78.10666,421.604
"5",78.23361,421.61743
"6",78.467995,421.63086
"7",78.819565,421.6443
"8",79.26147,421.6577
"9",79.75952,421.67114
"10",80.257576,421.68457
"11",80.709236,421.698
"12",81.08766,421.71143
"13",81.3782,421.72485
"14",81.57595,421.73828
"15",81.688255,421.7517
"16",81.72732,421.76514
"17",81.71267,421.77856
"18",81.654076,421.792
"19",81.56374,421.80542
"20",81.444115,421.81885
"21",81.30251,421.83228
"22",81.143814,421.8457
"23",80.970474,421.85913
"24",80.80446,421.87256
"25",80.65797,421.886
"26",80.54566,421.8994
"27",80.46998,421.91284
"28",80.4358,421.92627
"29",80.428474,421.9397
"30",80.43824,421.95312
"31",80.448006,421.96655
"32",80.448006,421.97998
"33",80.42115,421.9934
"34",80.360115,422.00684
"35",80.274666,422.02026
"36",80.15991,422.0337
"37",80.02319,422.04712
"38",79.87427,422.06055
"39",79.71801,422.07397
"40",79.56176,422.0874
"41",79.40795,422.10083
"42",79.25414,422.11426
"43",79.10765,422.1277
"44",78.96849,422.1411
"45",78.836655,422.15454
"46",78.71458,422.16797
"47",78.607155,422.1814
"48",78.51194,422.19482
"49",78.42405,422.20825
"50",78.34104,422.22168
"51",78.26536,422.2351
"52",78.19699,422.24854
"53",78.1384,422.26196
"54",78.08469,422.2754
"55",78.0383,422.28882
"56",77.98947,422.30225
"57",77.943085,422.31567
"58",77.90158,422.3291
"59",77.86008,422.34253
"60",77.821014,422.35596
"61",77.789276,422.3694
"62",77.75998,422.3828
"63",77.73556,422.39624
"64",77.72335,422.40967
"65",77.73556,422.4231
"66",77.79904,422.43652
"67",77.945526,422.44995
"68",78.20676,422.46338
"69",78.59251,422.4768
"70",79.08324,422.49023
"71",79.639885,422.50366
"72",80.2063,422.5171
"73",80.72877,422.53052
"74",81.17067,422.54395
"75",81.512474,422.55737
"76",81.74929,422.5708
"77",81.89334,422.58423
"78",81.95682,422.59766
"79",81.95926,422.61108
"80",81.9202,422.6245
"81",81.849396,422.63794
"82",81.75418,422.65137
"83",81.63943,422.6648
"84",81.50271,422.67822
"85",81.35134,422.69165
"86",81.19264,422.70508
"87",81.04616,422.7185
"88",80.919205,422.73193
"89",80.81911,422.74536
"90",80.75319,422.7588
"91",80.71656,422.77222
"92",80.70435,422.78564
"93",80.70191,422.79907
"94",80.69703,422.8125
"95",80.672615,422.82593
"96",80.621346,422.83936
"97",80.54078,422.85278
"98",80.43336,422.8662
"99",80.306404,422.87964
"100",80.164795,422.89307
"101",80.01587,422.9065
"102",79.86206,422.91992
"103",79.70092,422.93335
"104",79.54223,422.94678
"105",79.38842,422.9602
"106",79.24193,422.97363
"107",79.10277,422.98706
"108",78.97093,423.0005
"109",78.84886,423.01392
"110",78.73411,423.02734
"111",78.626686,423.04077
"112",78.53147,423.0542
"113",78.44358,423.06763
"114",78.3679,423.08105
"115",78.30686,423.09448
"116",78.25559,423.1079
"117",78.20676,423.12134
"118",78.16525,423.13477
"119",78.13107,423.1482
"120",78.09445,423.16162
"121",78.05295,423.17505
"122",78.01633,423.18848
"123",77.979706,423.2019
"124",77.943085,423.21533
"125",77.90402,423.22876
"126",77.86984,423.2422
"127",77.840546,423.2556
"128",77.80881,423.26904
"129",77.77951,423.28247
"130",77.76486,423.2959
"131",77.77707,423.30933
"132",77.840546,423.32275
"133",77.98215,423.33618
"134",78.23605,423.3496
"135",78.61204,423.36304
"136",79.093,423.37646
"137",79.64233,423.3899
"138",80.218506,423.40332
"139",80.762955,423.41675
"140",81.22926,423.43018
"141",81.59548,423.4436
"142",81.85672,423.45703
"143",82.01785,423.47046
"144",82.091095,423.4839
"145",82.10086,423.4973
"146",82.05936,423.51074
"147",81.98367,423.52417
"148",81.881134,423.5376
"149",81.75906,423.55103
"150",81.619896,423.56445
"151",81.47097,423.57788
"152",81.31228,423.5913
"153",81.15358,423.60474
"154",81.00954,423.61816
"155",80.89235,423.6316
"156",80.80446,423.64502
"157",80.74586,423.65845
"158",80.71412,423.67188
"159",80.70191,423.6853
"160",80.689705,423.69873
"161",80.67017,423.71216
"162",80.63355,423.7256
"163",80.567635,423.739
"164",80.47486,423.75244
"165",80.360115,423.76587
"166",80.22583,423.7793
"167",80.08423,423.79272
"168",79.93286,423.80615
"169",79.783936,423.81958
"170",79.63256,423.833
"171",79.483635,423.84644
"172",79.33715,423.85986
"173",79.19798,423.8733
"174",79.063705,423.88672
"175",78.93919,423.90015
"176",78.82689,423.91357
"177",78.72434,423.927
"178",78.63157,423.94043
"179",78.551,423.95386
"180",78.4802,423.9673
"181",78.416725,423.9807
"182",78.35813,423.99414
"183",78.30686,424.00757
"184",78.26292,424.021
"185",78.21896,424.03442
"186",78.1799,424.04785
"187",78.14084,424.06128
"188",78.10666,424.0747
"189",78.07492,424.08813
"190",78.05051,424.10156
"191",78.030975,424.115
"192",78.011444,424.12842
"193",77.99191,424.14185
"194",77.97238,424.15527
"195",77.95285,424.1687
"196",77.93332,424.18213
"197",77.92844,424.19556
"198",77.94797,424.20898
"199",78.02121,424.2224
"200",78.17502,424.23584
"201",78.43137,424.24927
"202",78.802475,424.2627
"203",79.273674,424.27612
"204",79.81079,424.28955
"205",80.35767,424.30298
"206",80.867935,424.3164
"207",81.29763,424.32983
"208",81.6321,424.34326
"209",81.8616,424.3567
"210",81.99832,424.37012
"211",82.05936,424.38354
"212",82.06424,424.39697
"213",82.022736,424.4104
"214",81.94217,424.42383
"215",81.832306,424.43726
"216",81.69802,424.45068
"217",81.54665,424.4641
"218",81.3782,424.47754
"219",81.20485,424.49097
"220",81.03883,424.5044
"221",80.88991,424.51782
"222",80.76784,424.53125
"223",80.67994,424.54468
"224",80.62867,424.5581
"225",80.601814,424.57153
"226",80.58961,424.58496
"227",80.57984,424.5984
"228",80.567635,424.61182
"229",80.53834,424.62524
"230",80.48707,424.63867
"231",80.413826,424.6521
"232",80.31373,424.66553
"233",80.19653,424.67896
"234",80.06714,424.69238
"235",79.93042,424.7058
"236",79.7937,424.71924
"237",79.65942,424.73267
"238",79.52758,424.7461
"239",79.395744,424.75952
"240",79.27123,424.77295
"241",79.149155,424.78638
"242",79.03441,424.7998
"243",78.92943,424.81323
"244",78.836655,424.82666
"245",78.75365,424.8401
"246",78.68528,424.85352
"247",78.624245,424.86694
"248",78.56809,424.88037
"249",78.51682,424.8938
"250",78.46555,424.90723
"251",78.416725,424.92065
"252",78.37278,424.93408
"253",78.33616,424.9475
"254",78.3093,424.96094
"255",78.294655,424.97437
"256",78.28001,424.9878
"257",78.26536,425.00122
"258",78.25071,425.01465
"259",78.23117,425.02808
"260",78.21408,425.0415
"261",78.19943,425.05493
"262",78.18967,425.06836
"263",78.1799,425.0818
"264",78.17502,425.0952
"265",78.187225,425.10864
"266",78.22873,425.12207
"267",78.32639,425.1355
"268",78.5095,425.14893
"269",78.79759,425.16235
"270",79.19066,425.17578
"271",79.66186,425.1892
"272",80.177,425.20264
"273",80.68726,425.21606
"274",81.1487,425.2295
"275",81.52712,425.24292
"276",81.81766,425.25635
"277",82.01053,425.26978
"278",82.11551,425.2832
"279",82.144806,425.29663
"280",82.11551,425.31006
"281",82.039825,425.3235
"282",81.92996,425.3369
"283",81.79324,425.35034
"284",81.64675,425.36377
"285",81.48318,425.3772
"286",81.31716,425.39062
"287",81.15602,425.40405
"288",81.004654,425.41748
"289",80.87038,425.4309
"290",80.762955,425.44434
"291",80.67994,425.45776
"292",80.62623,425.4712
"293",80.59693,425.48462
"294",80.58228,425.49805
"295",80.56519,425.51147
"296",80.54566,425.5249
"297",80.50904,425.53833
"298",80.45533,425.55176
"299",80.38941,425.5652
"300",80.306404,425.5786
"301",80.20874,425.59204
"302",80.093994,425.60547
"303",79.96704,425.6189
"304",79.835205,425.63232
"305",79.7058,425.64575
"306",79.58129,425.65918
"307",79.45922,425.6726
"308",79.344475,425.68604
"309",79.234604,425.69946
"310",79.13451,425.7129
"311",79.04173,425.72632
"312",78.96361,425.73975
"313",78.89281,425.75317
"314",78.83177,425.7666
"315",78.77074,425.78003
"316",78.71458,425.79346
"317",78.66331,425.8069
"318",78.624245,425.8203
"319",78.58762,425.83374
"320",78.55833,425.84717
"321",78.53391,425.8606
"322",78.5095,425.87402
"323",78.49241,425.88745
"324",78.47288,425.90088
"325",78.45335,425.9143
"326",78.4387,425.92773
"327",78.42405,425.94116
"328",78.4094,425.9546
"329",78.40208,425.96802
"330",78.397194,425.98145
"331",78.399635,425.99487
"332",78.4094,426.0083
"333",78.44114,426.02173
"334",78.5095,426.03516
"335",78.641335,426.04858
"336",78.86351,426.062
"337",79.18089,426.07544
"338",79.588615,426.08887
"339",80.05737,426.1023
"340",80.54322,426.11572
"341",81.00221,426.12915
"342",81.40017,426.14258
"343",81.71023,426.156
"344",81.92264,426.16943
"345",82.04959,426.18286
"346",82.10086,426.1963
"347",82.091095,426.20972
"348",82.0325,426.22314
"349",81.94217,426.23657
"350",81.82498,426.25
"351",81.6907,426.26343
"352",81.53933,426.27686
"353",81.38308,426.29028
"354",81.21706,426.3037
"355",81.05104,426.31714
"356",80.902115,426.33057
"357",80.77272,426.344
"358",80.672615,426.35742
"359",80.6067,426.37085
"360",80.570076,426.38428
"361",80.550545,426.3977
"362",80.53834,426.41113
"363",80.52369,426.42456
"364",80.499275,426.438
"365",80.462654,426.45142
"366",80.411385,426.46484
"367",80.34547,426.47827
"368",80.2649,426.4917
"369",80.17456,426.50513
"370",80.07446,426.51855
"371",79.96704,426.53198
"372",79.85718,426.5454
"373",79.74731,426.55884
"374",79.64233,426.57227
"375",79.54223,426.5857
"376",79.44457,426.59912
"377",79.3518,426.61255
"378",79.26391,426.62598
"379",79.18089,426.6394
"380",79.10521,426.65283
"381",79.03441,426.66626
"382",78.97093,426.6797
"383",78.91234,426.6931
"384",78.86107,426.70654
"385",78.81468,426.71997
"386",78.77562,426.7334
"387",78.746315,426.74683
"388",78.7219,426.76025
"389",78.69993,426.77368
"390",78.675514,426.7871
"391",78.6511,426.80054
"392",78.626686,426.81396
"393",78.6096,426.8274
"394",78.59739,426.84082
"395",78.58518,426.85425
"396",78.572975,426.86768
"397",78.56077,426.8811
"398",78.551,426.89453
"399",78.54612,426.90796
"400",78.57053,426.9214
"401",78.63889,426.9348
"402",78.77318,426.94824
"403",78.992905,426.96167
"404",79.30297,426.9751
"405",79.691154,426.98853
"406",80.130615,427.00195
"407",80.584724,427.01538
"408",81.01442,427.0288
"409",81.38552,427.04224
"410",81.67849,427.05566
"411",81.88846,427.0691
"412",82.01297,427.08252
"413",82.06912,427.09595
"414",82.06424,427.10938
"415",82.01785,427.1228
"416",81.93973,427.13623
"417",81.829865,427.14966
"418",81.69802,427.1631
"419",81.54665,427.1765
"420",81.38064,427.18994
"421",81.20973,427.20337
"422",81.0486,427.2168
"423",80.902115,427.23022
"424",80.780045,427.24365
"425",80.68482,427.25708
"426",80.61402,427.2705
"427",80.570076,427.28394
"428",80.5481,427.29736
"429",80.53834,427.3108
"430",80.52857,427.32422
"431",80.51148,427.33765
"432",80.482185,427.35107
"433",80.43824,427.3645
"434",80.37476,427.37793
"435",80.30152,427.39136
"436",80.216064,427.4048
"437",80.12329,427.4182
"438",80.02075,427.43164
"439",79.91821,427.44507
"440",79.81079,427.4585
"441",79.70336,427.47192
"442",79.59838,427.48535
"443",79.49096,427.49878
"444",79.38842,427.5122
"445",79.28832,427.52563
"446",79.200424,427.53906
"447",79.11986,427.5525
"448",79.0515,427.56592
"449",78.99046,427.57935
"450",78.93431,427.59277
"451",78.88304,427.6062
"452",78.83421,427.61963
"453",78.79027,427.63306
"454",78.75365,427.64648
"455",78.729225,427.6599
"456",78.709694,427.67334
"457",78.69016,427.68677
"458",78.67063,427.7002
"459",78.64866,427.71362
"460",78.624245,427.72705
"461",78.60471,427.74048
"462",78.58518,427.7539
"463",78.57053,427.76733
"464",78.55833,427.78076
"465",78.55833,427.7942
"466",78.5803,427.80762
"467",78.643776,427.82104
"468",78.77074,427.83447
"469",78.97826,427.8479
"470",79.276115,427.86133
"471",79.65453,427.87476
"472",80.08667,427.88818
"473",80.54078,427.9016
"474",80.9778,427.91504
"475",81.36599,427.92847
"476",81.68093,427.9419
"477",81.917755,427.95532
"478",82.07156,427.96875
"479",82.14969,427.98218
"480",82.17166,427.9956
"481",82.13992,428.00903
"482",82.06668,428.02246
"483",81.95438,428.0359
"484",81.81766,428.04932
"485",81.65896,428.06274
"486",81.4905,428.07617
"487",81.322044,428.0896
"488",81.16579,428.10303
"489",81.02907,428.11646
"490",80.91676,428.12988
"491",80.82643,428.1433
"492",80.75563,428.15674
"493",80.706795,428.17017
"494",80.67506,428.1836
"495",80.655525,428.19702
"496",80.64576,428.21045
"497",80.63355,428.22388
"498",80.61402,428.2373
"499",80.57496,428.25073
"500",80.51881,428.26416
"501",80.445564,428.2776
"502",80.36256,428.29102
"503",80.272224,428.30444
"504",80.181885,428.31787
"505",80.08667,428.3313
"506",79.98901,428.34473
"507",79.89136,428.35815
"508",79.7937,428.37158
"509",79.691154,428.385
"510",79.5935,428.39844
"511",79.500725,428.41187
"512",79.415276,428.4253
"513",79.32983,428.43872
"514",79.2517,428.45215
"515",79.17601,428.46558
"516",79.11009,428.479
"517",79.04906,428.49243
"518",78.995346,428.50586
"519",78.94896,428.5193
"520",78.9099,428.5327
"521",78.87816,428.54614
"522",78.8513,428.55957
"523",78.83177,428.573
"524",78.81224,428.58643
"525",78.79271,428.59985
"526",78.768295,428.61328
"527",78.746315,428.6267
"528",78.72678,428.64014
"529",78.71458,428.65356
"530",78.709694,428.667
"531",78.712135,428.68042
"532",78.74387,428.69385
"533",78.82445,428.70728
"534",78.97826,428.7207
"535",79.219955,428.73413
"536",79.554436,428.74756
"537",79.96704,428.761
"538",80.42115,428.7744
"539",80.8777,428.78784
"540",81.30251,428.80127
"541",81.6614,428.8147
"542",81.93729,428.82812
"543",82.127716,428.84155
"544",82.24246,428.85498
"545",82.286415,428.8684
"546",82.27665,428.88184
"547",82.22049,428.89526
"548",82.12283,428.9087
"549",81.99832,428.92212
"550",81.85184,428.93555
"551",81.69314,428.94897
"552",81.52468,428.9624
"553",81.36111,428.97583
"554",81.20973,428.98926
"555",81.075455,429.0027
"556",80.96559,429.0161
"557",80.885025,429.02954
"558",80.833755,429.04297
"559",80.80446,429.0564
"560",80.79225,429.06982
"561",80.78737,429.08325
"562",80.7776,429.09668
"563",80.75563,429.1101
"564",80.71656,429.12354
"565",80.66285,429.13696
"566",80.59205,429.1504
"567",80.50904,429.16382
"568",80.41627,429.17725
"569",80.31373,429.19067
"570",80.2063,429.2041
"571",80.09888,429.21753
"572",79.98657,429.23096
"573",79.87915,429.2444
"574",79.77417,429.2578
"575",79.67162,429.27124
"576",79.569084,429.28467
"577",79.47143,429.2981
"578",79.378654,429.31152
"579",79.29809,429.32495
"580",79.22484,429.33838
"581",79.15648,429.3518
"582",79.093,429.36523
"583",79.03197,429.37866
"584",78.96849,429.3921
"585",78.9099,429.40552
"586",78.86107,429.41895
"587",78.82445,429.43237
"588",78.79515,429.4458
"589",78.77074,429.45923
"590",78.746315,429.47266
"591",78.7219,429.48608
"592",78.692604,429.4995
"593",78.66331,429.51294
"594",78.63889,429.52637
"595",78.63401,429.5398
"596",78.6511,429.55322
"597",78.709694,429.56665
"598",78.83421,429.58008
"599",79.03441,429.5935
"600",79.32006,429.60693
"601",79.69604,429.62036
"602",80.13794,429.6338
"603",80.604256,429.64722
"604",81.058365,429.66064
"605",81.463646,429.67407
"606",81.78836,429.6875
"607",82.02518,429.70093
"608",82.1741,429.71436
"609",82.247345,429.72778
"610",82.262,429.7412
"611",82.22537,429.75464
"612",82.14725,429.76807
"613",82.04227,429.7815
"614",81.91043,429.79492
"615",81.76395,429.80835
"616",81.602806,429.82178
"617",81.43923,429.8352
"618",81.27566,429.84863
"619",81.129166,429.86206
"620",81.007095,429.8755
"621",80.90944,429.88892
"622",80.84108,429.90234
"623",80.80446,429.91577
"624",80.78981,429.9292
"625",80.780045,429.94263
"626",80.77272,429.95605
"627",80.75807,429.96948
"628",80.72877,429.9829
"629",80.68238,429.99634
"630",80.618904,430.00977
"631",80.53834,430.0232
"632",80.44068,430.03662
"633",80.33082,430.05005
"634",80.21362,430.06348
"635",80.093994,430.0769
"636",79.971924,430.09033
"637",79.852295,430.10376
"638",79.73998,430.1172
"639",79.63256,430.1306
"640",79.53246,430.14404
"641",79.43969,430.15747
"642",79.3518,430.1709
"643",79.26879,430.18433
"644",79.19066,430.19775
"645",79.11009,430.21118
"646",79.03197,430.2246
"647",78.96117,430.23804
"648",78.89525,430.25146
"649",78.839096,430.2649
"650",78.79515,430.27832
"651",78.76097,430.29175
"652",78.729225,430.30518
"653",78.70237,430.3186
"654",78.67063,430.33203
"655",78.63889,430.34546
"656",78.61204,430.3589
"657",78.58518,430.3723
"658",78.56809,430.38574
"659",78.56321,430.39917
"660",78.58762,430.4126
"661",78.66331,430.42603
"662",78.81224,430.43945
"663",79.04906,430.45288
"664",79.37133,430.4663
"665",79.77173,430.47974
"666",80.218506,430.49316
"667",80.672615,430.5066
"668",81.09987,430.52002
"669",81.46853,430.53345
"670",81.75418,430.54688
"671",81.951935,430.5603
"672",82.0618,430.57373
"673",82.09598,430.58716
"674",82.07156,430.6006
"675",82.00076,430.614
"676",81.898224,430.62744
"677",81.76639,430.64087
"678",81.619896,430.6543
"679",81.45876,430.66772
"680",81.29519,430.68115
"681",81.13893,430.69458
"682",80.99489,430.708
"683",80.8777,430.72144
"684",80.79225,430.73486
"685",80.73609,430.7483
"686",80.709236,430.76172
"687",80.706795,430.77515
"688",80.71412,430.78857
"689",80.71656,430.802
"690",80.71168,430.81543
"691",80.69459,430.82886
"692",80.65797,430.8423
"693",80.604256,430.8557
"694",80.533455,430.86914
"695",80.445564,430.88257
"696",80.343025,430.896
"697",80.23071,430.90942
"698",80.111084,430.92285
"699",79.98901,430.93628
"700",79.87427,430.9497
"701",79.76196,430.96313
"702",79.65453,430.97656
"703",79.551994,430.99
"704",79.449455,431.00342
"705",79.34936,431.01685
"706",79.259026,431.03027
"707",79.18089,431.0437
"708",79.11009,431.05713
"709",79.044174,431.07056
"710",78.98558,431.08398
"711",78.92943,431.0974
"712",78.87572,431.11084
"713",78.82933,431.12427
"714",78.79027,431.1377
"715",78.75365,431.15112
"716",78.71946,431.16455
"717",78.68772,431.17798
"718",78.65354,431.1914
"719",78.626686,431.20483
"720",78.59983,431.21826
"721",78.58762,431.2317
"722",78.60471,431.24512
"723",78.67307,431.25854
"724",78.81224,431.27197
"725",79.03929,431.2854
"726",79.34936,431.29883
"727",79.73266,431.31226
"728",80.15747,431.32568
"729",80.59449,431.3391
"730",81.004654,431.35254
"731",81.35134,431.36597
"732",81.617455,431.3794
"733",81.795685,431.39282
"734",81.88846,431.40625
"735",81.90799,431.41968
"736",81.87381,431.4331
"737",81.79813,431.44653
"738",81.69314,431.45996
"739",81.55886,431.4734
"740",81.40505,431.48682
"741",81.23659,431.50024
"742",81.06813,431.51367
"743",80.90944,431.5271
"744",80.7776,431.54053
"745",80.6775,431.55396
"746",80.61646,431.56738
"747",80.58961,431.5808
"748",80.587166,431.59424
"749",80.59937,431.60767
"750",80.618904,431.6211
"751",80.635994,431.63452
"752",80.64088,431.64795
"753",80.62623,431.66138
"754",80.59205,431.6748
"755",80.533455,431.68823
"756",80.45533,431.70166
"757",80.360115,431.7151
"758",80.2478,431.72852
"759",80.130615,431.74194
"760",80.01099,431.75537
"761",79.89136,431.7688
"762",79.77417,431.78223
"763",79.6643,431.79565
"764",79.55688,431.80908
"765",79.449455,431.8225
"766",79.34936,431.83594
"767",79.256584,431.84937
"768",79.168686,431.8628
"769",79.093,431.87622
"770",79.02464,431.88965
"771",78.96849,431.90308
"772",78.91966,431.9165
"773",78.87572,431.92993
"774",78.83177,431.94336
"775",78.78783,431.9568
"776",78.746315,431.9702
"777",78.70481,431.98364
"778",78.66575,431.99707
"779",78.63157,432.0105
"780",78.607155,432.02393
"781",78.59251,432.03735
"782",78.59495,432.05078
"783",78.63157,432.0642
"784",78.7219,432.07764
"785",78.88304,432.09106
"786",79.11986,432.1045
"787",79.43725,432.11792
"788",79.815674,432.13135
"789",80.22827,432.14478
"790",80.63355,432.1582
"791",81.00221,432.17163
"792",81.304955,432.18506
"793",81.52712,432.1985
"794",81.66384,432.2119
"795",81.71755,432.22534
"796",81.705345,432.23877
"797",81.64187,432.2522
"798",81.532005,432.26562
"799",81.392845,432.27905
"800",81.231705,432.29248
"801",81.058365,432.3059
"802",80.88014,432.31934
"803",80.706795,432.33276
"804",80.56031,432.3462
"805",80.448006,432.35962
"806",80.36744,432.37305
"807",80.325935,432.38647
"808",80.31373,432.3999
"809",80.32105,432.41333
"810",80.33326,432.42676
"811",80.35035,432.4402
"812",80.34791,432.46704
"813",80.323494,432.48047
"814",80.27955,432.4939
"815",80.21362,432.50732
"816",80.13306,432.52075
"817",80.04028,432.53418
"818",79.937744,432.5476
"819",79.83276,432.56104
"820",79.727776,432.57446
"821",79.62524,432.5879
"822",79.52758,432.60132
"823",79.429924,432.61475
"824",79.33471,432.62817
"825",79.237045,432.6416
"826",79.14671,432.65503
"827",79.061264,432.66846
"828",78.97826,432.6819
"829",78.90013,432.6953
"830",78.83177,432.70874
"831",78.77074,432.72217
"832",78.72434,432.7356
"833",78.68772,432.74902
"834",78.660866,432.76245
"835",78.63401,432.77588
"836",78.607155,432.7893
"837",78.5803,432.80273
"838",78.553444,432.81616
"839",78.538795,432.8296
"840",78.54612,432.84302
"841",78.590065,432.85645
"842",78.68772,432.86987
"843",78.86107,432.8833
"844",79.11742,432.89673
"845",79.449455,432.91016
"846",79.835205,432.92358
"847",80.24292,432.937
"848",80.63355,432.95044
"849",80.9778,432.96387
"850",81.25613,432.9773
"851",81.45876,432.99072
"852",81.58816,433.00415
"853",81.64675,433.01758
"854",81.64431,433.031
"855",81.58572,433.04443
"856",81.48562,433.05786
"857",81.35378,433.0713
"858",81.197525,433.08472
"859",81.03395,433.09814
"860",80.87038,433.11157
"861",80.71656,433.125
"862",80.584724,433.13843
"863",80.479744,433.15186
"864",80.411385,433.16528
"865",80.37965,433.1787
"866",80.37965,433.19214
"867",80.40162,433.20557
"868",80.43824,433.219
"869",80.47486,433.23242
"870",80.50172,433.24585
"871",80.51148,433.25928
"872",80.49683,433.2727
"873",80.45777,433.28613
"874",80.396736,433.29956
"875",80.323494,433.313
"876",80.23804,433.32642
"877",80.14282,433.33984
"878",80.042725,433.35327
"879",79.937744,433.3667
"880",79.83032,433.38013
"881",79.725334,433.39355
"882",79.62768,433.40698
"883",79.534904,433.4204
"884",79.43969,433.43384
"885",79.34692,433.44727
"886",79.259026,433.4607
"887",79.17845,433.47412
"888",79.10277,433.48755
"889",79.04173,433.50098
"890",78.98558,433.5144
"891",78.93187,433.52783
"892",78.88548,433.54126
"893",78.8513,433.5547
"894",78.84154,433.5681
"895",78.87572,433.58154
"896",78.97093,433.59497
"897",79.12962,433.6084
"898",79.35912,433.62183
"899",79.65209,433.63525
"900",79.9939,433.64868
"901",80.35279,433.6621
"902",80.70191,433.67554
"903",81.01442,433.68896
"904",81.26589,433.7024
"905",81.444115,433.71582
"906",81.54665,433.72925
"907",81.57839,433.74268
"908",81.55154,433.7561
"909",81.478294,433.76953
"910",81.36599,433.78296
"911",81.22194,433.7964
"912",81.06325,433.8098
"913",80.89479,433.82324
"914",80.72877,433.83667
"915",80.57252,433.8501
"916",80.448006,433.86353
"917",80.35523,433.87695
"918",80.306404,433.89038
"919",80.29664,433.9038
"920",80.31861,433.91724
"921",80.35767,433.93066
"922",80.40162,433.9441
"923",80.43824,433.95752
"924",80.45777,433.97095
"925",80.45533,433.98438
"926",80.428474,433.9978
"927",80.37965,434.01123
"928",80.31373,434.02466
"929",80.233154,434.0381
"930",80.14038,434.0515
"931",80.04028,434.06494
"932",79.93286,434.07837
"933",79.82544,434.0918
"934",79.71313,434.10522
"935",79.605705,434.11865
"936",79.50317,434.13208
"937",79.40551,434.1455
"938",79.31518,434.15894
"939",79.22972,434.17236
"940",79.149155,434.1858
"941",79.07591,434.19922
"942",79.01488,434.21265
"943",78.975815,434.22607
"944",78.97093,434.2395
"945",79.01732,434.25293
"946",79.13451,434.26636
"947",79.327385,434.2798
"948",79.59594,434.2932
"949",79.9353,434.30664
"950",80.308846,434.32007
"951",80.69215,434.3335
"952",81.04372,434.34692
"953",81.339134,434.36035
"954",81.55886,434.37378
"955",81.69558,434.3872
"956",81.75418,434.40063
"957",81.74929,434.41406
"958",81.6907,434.4275
"959",81.58816,434.44092
"960",81.45632,434.45435
"961",81.29763,434.46777
"962",81.12184,434.4812
"963",80.94118,434.49463
"964",80.765396,434.50806
"965",80.61158,434.52148
"966",80.48951,434.5349
"967",80.40894,434.54834
"968",80.37232,434.56177
"969",80.37476,434.5752
"970",80.40406,434.58862
"971",80.445564,434.60205
"972",80.48463,434.61548
"973",80.51148,434.6289
"974",80.51881,434.64233
"975",80.49683,434.65576
"976",80.45289,434.6692
"977",80.38453,434.68262
"978",80.2942,434.69604
"979",80.18677,434.70947
"980",80.07202,434.7229
"981",79.95239,434.73633
"982",79.83032,434.74976
"983",79.71801,434.76318
"984",79.603264,434.7766
"985",79.49096,434.79004
"986",79.38354,434.80347
"987",79.281,434.8169
"988",79.18089,434.83032
"989",79.09056,434.84375
"990",79.01976,434.85718
"991",78.97093,434.8706
"992",78.96117,434.88403
"993",79.01488,434.89746
"994",79.151596,434.9109
"995",79.37621,434.92432
"996",79.691154,434.93774
"997",80.07202,434.95117
"998",80.49439,434.9646
"999",80.907,434.97803
"1000",81.28298,434.99146
"1001",81.58572,435.00488
"1002",81.81033,435.0183
"1003",81.94949,435.03174
"1004",82.01297,435.04517
"1005",82.01053,435.0586
"1006",81.95682,435.07202
"1007",81.85672,435.08545
"1008",81.71511,435.09888
"1009",81.54421,435.1123
"1010",81.356224,435.12573
"1011",81.15846,435.13916
"1012",80.972916,435.1526
"1013",80.80446,435.16602
"1014",80.67017,435.17944
"1015",80.57496,435.19287
"1016",80.52125,435.2063
"1017",80.50172,435.21973
"1018",80.50904,435.23315
"1019",80.53101,435.24658
"1020",80.552986,435.26
"1021",80.56275,435.27344
"1022",80.54566,435.28687
"1023",80.50172,435.3003
"1024",80.430916,435.31372
"1025",80.3357,435.32715
"1026",80.22095,435.34058
"1027",80.09155,435.354
"1028",79.957275,435.36743
"1029",79.81323,435.38086
"1030",79.66674,435.3943
"1031",79.5227,435.4077
"1032",79.38842,435.42114
"1033",79.26391,435.43457
"1034",79.14671,435.448
"1035",79.03685,435.46143
"1036",78.93187,435.47485
"1037",78.83421,435.48828
"1038",78.751205,435.5017
"1039",78.692604,435.51514
"1040",78.675514,435.52856
"1041",78.7219,435.542
"1042",78.84642,435.55542
"1043",79.06615,435.56885
"1044",79.378654,435.58228
"1045",79.76929,435.5957
"1046",80.20874,435.60913
"1047",80.65308,435.62256
"1048",81.06325,435.636
"1049",81.40505,435.6494
"1050",81.671165,435.66284
"1051",81.85428,435.67627
"1052",81.95438,435.6897
"1053",81.988556,435.70312
"1054",81.969025,435.71655
"1055",81.89578,435.72998
"1056",81.78348,435.7434
"1057",81.64187,435.75684
"1058",81.480736,435.77026
"1059",81.30984,435.7837
"1060",81.13893,435.79712
"1061",80.97536,435.81055
"1062",80.831314,435.82397
"1063",80.72144,435.8374
"1064",80.64576,435.85083
"1065",80.601814,435.86426
"1066",80.58961,435.8777
"1067",80.59205,435.8911
"1068",80.59449,435.90454
"1069",80.58228,435.91797
"1070",80.552986,435.9314
"1071",80.499275,435.94482
"1072",80.41871,435.95825
"1073",80.31617,435.97168
"1074",80.19409,435.9851
"1075",80.05493,435.99854
"1076",79.903564,436.01196
"1077",79.74975,436.0254
"1078",79.5935,436.03882
"1079",79.43725,436.05225
"1080",79.28344,436.06567
"1081",79.13695,436.0791
"1082",78.99779,436.09253
"1083",78.86595,436.10596
"1084",78.74387,436.1194
"1085",78.63401,436.1328
"1086",78.536354,436.14624
"1087",78.45579,436.15967
"1088",78.397194,436.1731
"1089",78.37278,436.18652
"1090",78.40208,436.19995
"1091",78.5095,436.21338
"1092",78.709694,436.2268
"1093",79.009995,436.24023
"1094",79.40063,436.25366
"1095",79.85474,436.2671
"1096",80.325935,436.28052
"1097",80.7776,436.29395
"1098",81.17067,436.30737
"1099",81.48806,436.3208
"1100",81.71511,436.33423
"1101",81.85916,436.34766
"1102",81.9324,436.36108
"1103",81.94705,436.3745
"1104",81.91043,436.38794
"1105",81.832306,436.40137
"1106",81.722435,436.4148
"1107",81.583275,436.42822
"1108",81.42458,436.44165
"1109",81.24635,436.45508
"1110",81.07301,436.4685
"1111",80.91432,436.48193
"1112",80.780045,436.49536
"1113",80.67994,436.5088
"1114",80.61402,436.52222
"1115",80.57496,436.53564
"1116",80.552986,436.54907
"1117",80.533455,436.5625
"1118",80.5066,436.57593
"1119",80.46754,436.58936
"1120",80.4065,436.60278
"1121",80.32105,436.6162
"1122",80.21362,436.62964
"1123",80.08667,436.64307
"1124",79.94507,436.6565
"1125",79.798584,436.66992
"1126",79.64721,436.68335
"1127",79.48852,436.69678
"1128",79.32983,436.7102
"1129",79.1638,436.72363
"1130",79.00023,436.73706
"1131",78.84398,436.7505
"1132",78.70237,436.76392
"1133",78.57542,436.77734
"1134",78.46311,436.79077
"1135",78.363014,436.8042
"1136",78.27268,436.81763
"1137",78.18967,436.83105
"1138",78.11154,436.84448
"1139",78.04074,436.8579
"1140",77.97482,436.87134
"1141",77.91379,436.88477
"1142",77.855194,436.8982
"1143",77.806366,436.91162
"1144",77.7673,436.92505
"1145",77.74532,436.93848
"1146",77.76242,436.9519
"1147",77.840546,436.96533
"1148",77.99924,436.97876
"1149",78.26292,436.9922
"1150",78.63401,437.0056
"1151",79.097885,437.01904
"1152",79.61547,437.03247
"1153",80.15015,437.0459
"1154",80.655525,437.05933
"1155",81.09743,437.07275
"1156",81.45388,437.08618
"1157",81.71511,437.0996
"1158",81.88602,437.11304
"1159",81.98123,437.12646
"1160",82.01785,437.1399
"1161",82.00809,437.15332
"1162",81.96414,437.16675
"1163",81.88846,437.18018
"1164",81.78348,437.1936
"1165",81.64919,437.20703
"1166",81.495384,437.22046
"1167",81.33425,437.2339
"1168",81.180435,437.2473
"1169",81.04616,437.26074
"1170",80.94118,437.27417
"1171",80.87282,437.2876
"1172",80.831314,437.30103
"1173",80.8069,437.31445
"1174",80.78737,437.32788
"1175",80.75563,437.3413
"1176",80.70191,437.35474
"1177",80.62867,437.36816
"1178",80.533455,437.3816
"1179",80.41627,437.39502
"1180",80.28443,437.40845
"1181",80.13794,437.42188
"1182",79.97925,437.4353
"1183",79.80835,437.44873
"1184",79.635,437.46216
"1185",79.4641,437.4756
"1186",79.293205,437.489
"1187",79.12718,437.50244
"1188",78.96849,437.51587
"1189",78.819565,437.5293
"1190",78.6804,437.54272
"1191",78.553444,437.55615
"1192",78.4387,437.56958
"1193",78.33616,437.583
"1194",78.24338,437.59644
"1195",78.16281,437.60986
"1196",78.08469,437.6233
"1197",78.01633,437.63672
"1198",77.95041,437.65015
"1199",77.891815,437.66357
"1200",77.838104,437.677
"1201",77.79172,437.69043
"1202",77.747765,437.70386
"1203",77.7087,437.7173
"1204",77.66964,437.7307
"1205",77.63546,437.74414
"1206",77.59884,437.75757
"1207",77.55978,437.771
"1208",77.51827,437.78442
"1209",77.48165,437.79785
"1210",77.45724,437.81128
"1211",77.471886,437.8247
"1212",77.54757,437.83813
"1213",77.71847,437.85156
"1214",78.00168,437.865
"1215",78.40208,437.87842
"1216",78.907455,437.89185
"1217",79.48119,437.90527
"1218",80.07202,437.9187
"1219",80.635994,437.93213
"1220",81.129166,437.94556
"1221",81.53445,437.95898
"1222",81.84207,437.9724
"1223",82.056915,437.98584
"1224",82.18875,437.99927
"1225",82.25956,438.0127
"1226",82.28397,438.02612
"1227",82.27177,438.03955
"1228",82.230255,438.05298
"1229",82.16434,438.0664
"1230",82.06668,438.07983
"1231",81.94461,438.09326
"1232",81.80301,438.1067
"1233",81.65652,438.12012
"1234",81.514915,438.13354
"1235",81.39773,438.14697
"1236",81.304955,438.1604
"1237",81.24147,438.17383
"1238",81.19997,438.18726
"1239",81.16823,438.20068
"1240",81.126724,438.2141
"1241",81.07301,438.22754
"1242",80.99733,438.24097
"1243",80.89967,438.2544
"1244",80.782486,438.26782
"1245",80.64332,438.28125
"1246",80.482185,438.29468
"1247",80.306404,438.3081
"1248",80.12085,438.32153
"1249",79.93286,438.33496
"1250",79.74731,438.3484
"1251",79.56664,438.36182
"1252",79.3933,438.37524
"1253",79.22728,438.38867
"1254",79.06859,438.4021
"1255",78.91722,438.41553
"1256",78.77562,438.42896
"1257",78.643776,438.44238
"1258",78.52659,438.4558
"1259",78.42161,438.46924
"1260",78.328835,438.48267
"1261",78.24338,438.4961
"1262",78.167694,438.50952
"1263",78.09445,438.52295
"1264",78.030975,438.53638
"1265",77.96994,438.5498
"1266",77.91623,438.56323
"1267",77.86252,438.57666
"1268",77.81613,438.5901
"1269",77.769745,438.60352
"1270",77.72335,438.61694
"1271",77.67696,438.63037
"1272",77.63546,438.6438
"1273",77.5964,438.65723
"1274",77.55978,438.67065
"1275",77.52071,438.68408
"1276",77.486534,438.6975
"1277",77.45724,438.71094
"1278",77.44991,438.72437
"1279",77.48165,438.7378
"1280",77.58663,438.75122
"1281",77.786835,438.76465
"1282",78.101776,438.77808
"1283",78.52903,438.7915
"1284",79.0515,438.80493
"1285",79.63012,438.81836
"1286",80.22095,438.8318
"1287",80.77516,438.8452
"1288",81.26589,438.85864
"1289",81.668724,438.87207
"1290",81.97879,438.8855
"1291",82.193634,438.89893
"1292",82.3328,438.91235
"1293",82.406044,438.92578
"1294",82.42802,438.9392
"1295",82.408485,438.95264
"1296",82.354774,438.96606
"1297",82.262,438.9795
"1298",82.13992,438.99292
"1299",81.99832,439.00635
"1300",81.84451,439.01978
"1301",81.70046,439.0332
"1302",81.57107,439.04663
"1303",81.46853,439.06006
"1304",81.3904,439.0735
"1305",81.33669,439.0869
"1306",81.29763,439.10034
"1307",81.26589,439.11377
"1308",81.22438,439.1272
"1309",81.17555,439.14062
"1310",81.10475,439.15405
"1311",81.01198,439.16748
"1312",80.89479,439.1809
"1313",80.75807,439.19434
"1314",80.604256,439.20776
"1315",80.44068,439.2212
"1316",80.26734,439.23462
"1317",80.096436,439.24805
"1318",79.923096,439.26147
"1319",79.75464,439.2749
"1320",79.59106,439.28833
"1321",79.429924,439.30176
"1322",79.276115,439.3152
"1323",79.132065,439.3286
"1324",78.99779,439.34204
"1325",78.87572,439.35547
"1326",78.765854,439.3689
"1327",78.658424,439.38232
"1328",78.56077,439.39575
"1329",78.470436,439.40918
"1330",78.38987,439.4226
"1331",78.314186,439.43604
"1332",78.24826,439.44946
"1333",78.187225,439.4629
"1334",78.12619,439.47632
"1335",78.07004,439.48975
"1336",78.01877,439.50317
"1337",77.96994,439.5166
"1338",77.92355,439.53003
"1339",77.88205,439.54346
"1340",77.838104,439.5569
"1341",77.79172,439.5703
"1342",77.747765,439.58374
"1343",77.7087,439.59717
"1344",77.67208,439.6106
"1345",77.65011,439.62402
"1346",77.65255,439.63745
"1347",77.69405,439.65088
"1348",77.803925,439.6643
"1349",78.009,439.67773
"1350",78.31907,439.69116
"1351",78.73655,439.7046
"1352",79.24193,439.71802
"1353",79.801025,439.73145
"1354",80.365,439.74487
"1355",80.89967,439.7583
"1356",81.375755,439.77173
"1357",81.76883,439.78516
"1358",82.07156,439.79858
"1359",82.27909,439.812
"1360",82.406044,439.82544
"1361",82.4622,439.83887
"1362",82.4622,439.8523
"1363",82.41337,439.86572
"1364",82.32548,439.87915
"1365",82.210724,439.89258
"1366",82.07889,439.906
"1367",81.934845,439.91943
"1368",81.78348,439.93286
"1369",81.64187,439.9463
"1370",81.51736,439.95972
"1371",81.41482,439.97314
"1372",81.32937,439.98657
"1373",81.270775,440
"1374",81.234146,440.01343
"1375",81.20485,440.02686
"1376",81.17311,440.04028
"1377",81.129166,440.0537
"1378",81.06813,440.06714
"1379",80.990005,440.08057
"1380",80.885025,440.094
"1381",80.762955,440.10742
"1382",80.62379,440.12085
"1383",80.47242,440.13428
"1384",80.306404,440.1477
"1385",80.1355,440.16113
"1386",79.95972,440.17456
"1387",79.79126,440.188
"1388",79.62524,440.20142
"1389",79.46899,440.21484
"1390",79.3225,440.22827
"1391",79.18822,440.2417
"1392",79.05882,440.25513
"1393",78.93431,440.26855
"1394",78.81712,440.28198
"1395",78.70481,440.2954
"1396",78.60227,440.30884
"1397",78.504616,440.32227
"1398",78.42405,440.3357
"1399",78.35081,440.34912
"1400",78.28489,440.36255
"1401",78.22385,440.37598
"1402",78.170135,440.3894
"1403",78.116425,440.40283
"1404",78.0676,440.41626
"1405",78.02365,440.4297
"1406",77.979706,440.4431
"1407",77.9382,440.45654
"1408",77.89914,440.46997
"1409",77.86496,440.4834
"1410",77.83078,440.49683
"1411",77.7966,440.51025
"1412",77.7673,440.52368
"1413",77.74532,440.5371
"1414",77.747765,440.55054
"1415",77.79416,440.56396
"1416",77.91135,440.5774
"1417",78.12375,440.59082
"1418",78.43626,440.60425
"1419",78.84398,440.61768
"1420",79.32983,440.6311
"1421",79.852295,440.64453
"1422",80.377205,440.65796
"1423",80.867935,440.6714
"1424",81.30007,440.6848
"1425",81.654076,440.69824
"1426",81.92264,440.71167
"1427",82.11063,440.7251
"1428",82.22293,440.73853
"1429",82.269325,440.75195
"1430",82.262,440.76538
"1431",82.213165,440.7788
"1432",82.13016,440.79224
"1433",82.020294,440.80566
"1434",81.8909,440.8191
"1435",81.74929,440.83252
"1436",81.59792,440.84595
"1437",81.45632,440.85938
"1438",81.32937,440.8728
"1439",81.22682,440.88623
"1440",81.1487,440.89966
"1441",81.10231,440.9131
"1442",81.07301,440.9265
"1443",81.0486,440.93994
"1444",81.02174,440.95337
"1445",80.987564,440.9668
"1446",80.93385,440.98022
"1447",80.85817,440.99365
"1448",80.765396,441.00708
"1449",80.655525,441.0205
"1450",80.53101,441.03394
"1451",80.396736,441.04736
"1452",80.255135,441.0608
"1453",80.1062,441.07422
"1454",79.954834,441.08765
"1455",79.80347,441.10107
"1456",79.65209,441.1145
"1457",79.50805,441.12793
"1458",79.36645,441.14136
"1459",79.234604,441.1548
"1460",79.114975,441.1682
"1461",79.00023,441.18164
"1462",78.890366,441.19507
"1463",78.78783,441.2085
"1464",78.695045,441.22192
"1465",78.607155,441.23535
"1466",78.536354,441.24878
"1467",78.48264,441.2622
"1468",78.44358,441.27563
"1469",78.41917,441.28906
"1470",78.40696,441.3025
"1471",78.39475,441.31592
"1472",78.37034,441.32935
"1473",78.33616,441.34277
"1474",78.28977,441.3562
"1475",78.22873,441.36963
"1476",78.17258,441.38306
"1477",78.12131,441.39648
"1478",78.07492,441.4099
"1479",78.03586,441.42334
"1480",77.99924,441.43677
"1481",77.977264,441.4502
"1482",77.98459,441.46362
"1483",78.04562,441.47705
"1484",78.184784,441.49048
"1485",78.42161,441.5039
"1486",78.75853,441.51733
"1487",79.183334,441.53076
"1488",79.66674,441.5442
"1489",80.177,441.55762
"1490",80.66773,441.57104
"1491",81.11452,441.58447
"1492",81.49294,441.5979
"1493",81.79324,441.61133
"1494",82.01785,441.62476
"1495",82.17166,441.63818
"1496",82.25468,441.6516
"1497",82.27909,441.66504
"1498",82.25468,441.67847
"1499",82.18631,441.6919
"1500",82.08621,441.70532
"1501",81.9617,441.71875
"1502",81.8201,441.73218
"1503",81.66384,441.7456
"1504",81.50759,441.75903
"1505",81.36111,441.77246
"1506",81.24147,441.7859
"1507",81.15114,441.79932
"1508",81.094986,441.81274
"1509",81.06081,441.82617
"1510",81.03883,441.8396
"1511",81.01442,441.85303
"1512",80.98512,441.86646
"1513",80.94362,441.87988
"1514",80.88747,441.8933
"1515",80.814224,441.90674
"1516",80.726326,441.92017
"1517",80.621346,441.9336
"1518",80.50172,441.94702
"1519",80.36988,441.96045
"1520",80.235596,441.97388
"1521",80.10132,441.9873
"1522",79.9646,442.00073
"1523",79.82544,442.01416
"1524",79.68627,442.0276
"1525",79.54711,442.04102
"1526",79.41039,442.05444
"1527",79.281,442.06787
"1528",79.1638,442.0813
"1529",79.05394,442.09473
"1530",78.94896,442.10815
"1531",78.8513,442.12158
"1532",78.75609,442.135
"1533",78.66819,442.14844
"1534",78.58762,442.16187
"1535",78.51682,442.1753
"1536",78.45335,442.18872
"1537",78.39231,442.20215
"1538",78.33616,442.21558
"1539",78.28245,442.229
"1540",78.23605,442.24243
"1541",78.19455,442.25586
"1542",78.15793,442.2693
"1543",78.12375,442.2827
"1544",78.09201,442.29614
"1545",78.06027,442.30957
"1546",78.030975,442.323
"1547",78.011444,442.33643
"1548",78.013885,442.34985
"1549",78.06271,442.36328
"1550",78.17502,442.3767
"1551",78.37766,442.39014
"1552",78.677956,442.40356
"1553",79.063705,442.417
"1554",79.5227,442.43042
"1555",80.02075,442.44385
"1556",80.51881,442.45728
"1557",80.98268,442.4707
"1558",81.38552,442.48413
"1559",81.71511,442.49756
"1560",81.96658,442.511
"1561",82.13992,442.5244
"1562",82.2449,442.53784
"1563",82.28886,442.55127
"1564",82.28153,442.5647
"1565",82.230255,442.57812
"1566",82.142365,442.59155
"1567",82.02762,442.60498
"1568",81.8909,442.6184
"1569",81.74197,442.63184
"1570",81.59304,442.64526
"1571",81.45388,442.6587
"1572",81.33181,442.67212
"1573",81.231705,442.68555
"1574",81.15114,442.69897
"1575",81.0901,442.7124
"1576",81.041275,442.72583
"1577",81.00221,442.73926
"1578",80.972916,442.7527
"1579",80.94606,442.7661
"1580",80.91188,442.77954
"1581",80.85817,442.79297
"1582",80.782486,442.8064
"1583",80.68482,442.81982
"1584",80.570076,442.83325
"1585",80.445564,442.84668
"1586",80.31373,442.8601
"1587",80.181885,442.87354
"1588",80.045166,442.88696
"1589",79.903564,442.9004
"1590",79.764404,442.91382
"1591",79.62524,442.92725
"1592",79.483635,442.94067
"1593",79.34692,442.9541
"1594",79.21263,442.96753
"1595",79.09056,442.98096
"1596",78.97337,442.9944
"1597",78.86839,443.0078
"1598",78.77562,443.02124
"1599",78.68772,443.03467
"1600",78.607155,443.0481
"1601",78.53147,443.06152
"1602",78.46067,443.07495
"1603",78.399635,443.08838
"1604",78.34348,443.1018
"1605",78.294655,443.11523
"1606",78.25559,443.12866
"1607",78.21896,443.1421
"1608",78.187225,443.15552
"1609",78.153046,443.16895
"1610",78.118866,443.18237
"1611",78.082245,443.1958
"1612",78.05539,443.20923
"1613",78.04562,443.22266
"1614",78.07736,443.23608
"1615",78.170135,443.2495
"1616",78.348366,443.26294
"1617",78.6218,443.27637
"1618",78.98802,443.2898
"1619",79.432365,443.30322
"1620",79.923096,443.31665
"1621",80.42115,443.33008
"1622",80.88747,443.3435
"1623",81.30007,443.35693
"1624",81.64187,443.37036
"1625",81.91043,443.3838
"1626",82.10574,443.39722
"1627",82.23514,443.41064
"1628",82.30595,443.42407
"1629",82.32792,443.4375
"1630",82.30106,443.45093
"1631",82.23514,443.46436
"1632",82.142365,443.47778
"1633",82.02518,443.4912
"1634",81.89334,443.50464
"1635",81.75662,443.51807
"1636",81.62478,443.5315
"1637",81.50515,443.54492
"1638",81.40749,443.55835
"1639",81.32693,443.57178
"1640",81.26589,443.5852
"1641",81.2195,443.59863
"1642",81.18532,443.61206
"1643",81.15114,443.6255
"1644",81.1194,443.63892
"1645",81.08034,443.65234
"1646",81.024185,443.66577
"1647",80.953384,443.6792
"1648",80.867935,443.69263
"1649",80.76784,443.70605
"1650",80.655525,443.71948
"1651",80.53101,443.7329
"1652",80.396736,443.74634
"1653",80.25025,443.75977
"1654",80.09888,443.7732
"1655",79.94995,443.78662
"1656",79.80591,443.80005
"1657",79.67162,443.81348
"1658",79.54223,443.8269
"1659",79.415276,443.84033
"1660",79.293205,443.85376
"1661",79.17113,443.8672
"1662",79.05638,443.8806
"1663",78.94896,443.89404
"1664",78.856186,443.90747
"1665",78.768295,443.9209
"1666",78.692604,443.93433
"1667",78.6218,443.94775
"1668",78.551,443.96118
"1669",78.485085,443.9746
"1670",78.42161,443.98804
"1671",78.365456,444.00146
"1672",78.31663,444.0149
"1673",78.27512,444.02832
"1674",78.23605,444.04175
"1675",78.19943,444.05518
"1676",78.167694,444.0686
"1677",78.14816,444.08203
"1678",78.15549,444.09546
"1679",78.204315,444.1089
"1680",78.31663,444.1223
"1681",78.504616,444.13574
"1682",78.77318,444.14917
"1683",79.12962,444.1626
"1684",79.54955,444.17603
"1685",80.008545,444.18945
"1686",80.47242,444.20288
"1687",80.90944,444.2163
"1688",81.290306,444.22974
"1689",81.60525,444.24316
"1690",81.849396,444.2566
"1691",82.020294,444.27002
"1692",82.127716,444.28345
"1693",82.178986,444.29688
"1694",82.18143,444.3103
"1695",82.142365,444.32373
"1696",82.06912,444.33716
"1697",81.96414,444.3506
"1698",81.83963,444.364
"1699",81.70046,444.37744
"1700",81.5613,444.39087
"1701",81.43435,444.4043
"1702",81.32693,444.41772
"1703",81.24147,444.43115
"1704",81.17799,444.44458
"1705",81.13405,444.458
"1706",81.10475,444.47144
"1707",81.08766,444.48486
"1708",81.07301,444.4983
"1709",81.05348,444.51172
"1710",81.02174,444.52515
"1711",80.96559,444.53857
"1712",80.88991,444.552
"1713",80.797134,444.56543
"1714",80.69215,444.57886
"1715",80.57496,444.5923
"1716",80.45289,444.6057
"1717",80.32105,444.61914
"1718",80.184326,444.63257
"1719",80.03784,444.646
"1720",79.8938,444.65942
"1721",79.7522,444.67285
"1722",79.61791,444.68628
"1723",79.4934,444.6997
"1724",79.378654,444.71313
"1725",79.26635,444.72656
"1726",79.15404,444.74
"1727",79.046616,444.75342
"1728",78.94408,444.76685
"1729",78.853745,444.78027
"1730",78.77318,444.7937
"1731",78.70481,444.80713
"1732",78.641335,444.82056
"1733",78.57786,444.83398
"1734",78.51438,444.8474
"1735",78.45335,444.86084
"1736",78.397194,444.87427
"1737",78.345924,444.8877
"1738",78.30198,444.90112
"1739",78.260475,444.91455
"1740",78.23117,444.92798
"1741",78.221405,444.9414
"1742",78.25071,444.95483
"1743",78.33372,444.96826
"1744",78.48997,444.9817
"1745",78.72434,444.99512
"1746",79.03685,445.00854
"1747",79.41772,445.02197
"1748",79.835205,445.0354
"1749",80.26246,445.04883
"1750",80.672615,445.06226
"1751",81.03151,445.07568
"1752",81.32693,445.0891
"1753",81.55154,445.10254
"1754",81.70779,445.11597
"1755",81.795685,445.1294
"1756",81.82742,445.14282
"1757",81.81033,445.15625
"1758",81.75174,445.16968
"1759",81.6614,445.1831
"1760",81.549095,445.19653
"1761",81.41726,445.20996
"1762",81.27322,445.2234
"1763",81.13161,445.23682
"1764",80.99489,445.25024
"1765",80.88258,445.26367
"1766",80.79469,445.2771
"1767",80.743416,445.29053
"1768",80.72144,445.30396
"1769",80.71412,445.31738
"1770",80.71412,445.3308
"1771",80.71412,445.34424
"1772",80.706795,445.35767
"1773",80.68482,445.3711
"1774",80.64576,445.38452
"1775",80.59449,445.39795
"1776",80.52125,445.41138
"1777",80.430916,445.4248
"1778",80.323494,445.43823
"1779",80.2063,445.45166
"1780",80.079346,445.4651
"1781",79.94995,445.47852
"1782",79.82056,445.49194
"1783",79.68871,445.50537
"1784",79.55932,445.5188
"1785",79.432365,445.53223
"1786",79.310295,445.54565
"1787",79.1931,445.55908
"1788",79.078354,445.5725
"1789",78.97826,445.58594
"1790",78.890366,445.59937
"1791",78.80736,445.6128
"1792",78.73167,445.62622
"1793",78.658424,445.63965
"1794",78.58762,445.65308
"1795",78.521706,445.6665
"1796",78.46555,445.67993
"1797",78.416725,445.69336
"1798",78.37522,445.7068
"1799",78.3386,445.7202
"1800",78.29954,445.73364
"1801",78.26536,445.74707
"1802",78.24826,445.7605
"1803",78.26536,445.77393
"1804",78.34104,445.78735
"1805",78.48997,445.80078
"1806",78.7219,445.8142
"1807",79.03197,445.82764
"1808",79.40307,445.84106
"1809",79.801025,445.8545
"1810",80.201416,445.86792
"1811",80.57496,445.88135
"1812",80.902115,445.89478
"1813",81.16579,445.9082
"1814",81.36355,445.92163
"1815",81.48562,445.93506
"1816",81.53933,445.9485
"1817",81.53445,445.9619
"1818",81.48318,445.97534
"1819",81.3904,445.98877
"1820",81.270775,446.0022
"1821",81.13405,446.01562
"1822",80.987564,446.02905
"1823",80.84108,446.04248
"1824",80.70435,446.0559
"1825",80.587166,446.06934
"1826",80.49683,446.08276
"1827",80.43336,446.0962
"1828",80.396736,446.10962
"1829",80.38697,446.12305
"1830",80.396736,446.13647
"1831",80.413826,446.1499
"1832",80.43336,446.16333
"1833",80.448006,446.17676
"1834",80.45289,446.1902
"1835",80.43336,446.2036
"1836",80.394295,446.21704
"1837",80.33814,446.23047
"1838",80.2649,446.2439
"1839",80.17212,446.25732
"1840",80.07202,446.27075
"1841",79.9646,446.28418
"1842",79.84985,446.2976
"1843",79.727776,446.31104
"1844",79.603264,446.32446
"1845",79.483635,446.3379
"1846",79.36889,446.35132
"1847",79.26391,446.36475
"1848",79.1638,446.37817
"1849",79.07103,446.3916
"1850",78.9807,446.40503
"1851",78.89525,446.41846
"1852",78.8098,446.4319
"1853",78.73167,446.4453
"1854",78.66575,446.45874
"1855",78.607155,446.47217
"1856",78.553444,446.4856
"1857",78.5095,446.49902
"1858",78.47776,446.51245
"1859",78.46311,446.52588
"1860",78.470436,446.5393
"1861",78.52903,446.55273
"1862",78.6511,446.56616
"1863",78.84398,446.5796
"1864",79.11253,446.59302
"1865",79.44457,446.60645
"1866",79.82056,446.61987
"1867",80.21362,446.6333
"1868",80.58961,446.64673
"1869",80.92653,446.66016
"1870",81.21217,446.67358
"1871",81.43435,446.687
"1872",81.58572,446.70044
"1873",81.67361,446.71387
"1874",81.7029,446.7273
"1875",81.67849,446.74072
"1876",81.60525,446.75415
"1877",81.495384,446.76758
"1878",81.358665,446.781
"1879",81.20485,446.79443
"1880",81.05104,446.80786
"1881",80.907,446.8213
"1882",80.78493,446.83472
"1883",80.68726,446.84814
"1884",80.618904,446.86157
"1885",80.58228,446.875
"1886",80.57252,446.88843
"1887",80.57984,446.90186
"1888",80.59937,446.91528
"1889",80.618904,446.9287
"1890",80.62867,446.94214
"1891",80.62379,446.95557
"1892",80.601814,446.969
"1893",80.56275,446.98242
"1894",80.499275,446.99585
"1895",80.42115,447.00928
"1896",80.32838,447.0227
"1897",80.22339,447.03613
"1898",80.11597,447.04956
"1899",80.0061,447.063
"1900",79.888916,447.07642
"1901",79.77173,447.08984
"1902",79.65453,447.10327
"1903",79.54223,447.1167
"1904",79.432365,447.13013
"1905",79.327385,447.14355
"1906",79.22728,447.15698
"1907",79.13451,447.1704
"1908",79.044174,447.18384
"1909",78.96117,447.19727
"1910",78.88304,447.2107
"1911",78.8098,447.22412
"1912",78.74143,447.23755
"1913",78.68284,447.25098
"1914",78.63157,447.2644
"1915",78.61204,447.27783
"1916",78.63401,447.29126
"1917",78.71702,447.3047
"1918",78.87816,447.3181
"1919",79.12718,447.33154
"1920",79.45678,447.34497
"1921",79.852295,447.3584
"1922",80.27955,447.37183
"1923",80.709236,447.38525
"1924",81.10719,447.39868
"1925",81.45144,447.4121
"1926",81.72732,447.42554
"1927",81.93729,447.43896
"1928",82.08133,447.4524
"1929",82.159454,447.46582
"1930",82.178986,447.47925
"1931",82.144806,447.49268
"1932",82.06424,447.5061
"1933",81.94705,447.51953
"1934",81.812775,447.53296
"1935",81.6614,447.5464
"1936",81.51003,447.5598
"1937",81.36843,447.57324
"1938",81.24391,447.58667
"1939",81.146255,447.6001
"1940",81.08278,447.61353
"1941",81.05104,447.62695
"1942",81.04616,447.64038
"1943",81.05592,447.6538
"1944",81.06569,447.66724
"1945",81.07301,447.68066
"1946",81.06325,447.6941
"1947",81.03395,447.70752
"1948",80.987564,447.72095
"1949",80.919205,447.73438
"1950",80.82887,447.7478
"1951",80.723885,447.76123
"1952",80.60914,447.77466
"1953",80.482185,447.7881
"1954",80.35035,447.8015
"1955",80.21118,447.81494
"1956",80.07202,447.82837
"1957",79.92798,447.8418
"1958",79.78882,447.85522
"1959",79.656975,447.86865
"1960",79.534904,447.88208
"1961",79.415276,447.8955
"1962",79.30297,447.90894
"1963",79.19798,447.92236
"1964",79.097885,447.9358
"1965",79.00511,447.94922
"1966",78.91966,447.96265
"1967",78.84154,447.97607
"1968",78.77318,447.9895
"1969",78.72678,448.00293
"1970",78.71458,448.01636
"1971",78.75853,448.0298
"1972",78.870834,448.0432
"1973",79.06615,448.05664
"1974",79.33959,448.07007
"1975",79.67162,448.0835
"1976",80.0354,448.09692
"1977",80.4065,448.11035
"1978",80.75563,448.12378
"1979",81.06081,448.1372
"1980",81.31472,448.15063
"1981",81.50271,448.16406
"1982",81.62478,448.1775
"1983",81.68093,448.19092
"1984",81.67849,448.20435
"1985",81.6321,448.21777
"1986",81.54421,448.2312
"1987",81.42214,448.24463
"1988",81.27566,448.25806
"1989",81.11696,448.27148
"1990",80.955826,448.2849
"1991",80.80934,448.29834
"1992",80.689705,448.31177
"1993",80.59937,448.3252
"1994",80.54078,448.33862
"1995",80.51148,448.35205
"1996",80.51148,448.36548
"1997",80.52613,448.3789
"1998",80.552986,448.39233
"1999",80.57252,448.40576
"2000",80.58228,448.4192
"2001",80.57252,448.43262
"2002",80.5359,448.44604
"2003",80.479744,448.45947
"2004",80.4065,448.4729
"2005",80.31617,448.48633
"2006",80.21118,448.49976
"2007",80.096436,448.51318
"2008",79.974365,448.5266
"2009",79.84741,448.54004
"2010",79.72045,448.55347
"2011",79.5935,448.5669
"2012",79.46166,448.58032
"2013",79.33227,448.59375
"2014",79.20775,448.60718
"2015",79.08812,448.6206
"2016",78.975815,448.63403
"2017",78.87816,448.64746
"2018",78.802475,448.6609
"2019",78.75609,448.67432
"2020",78.76097,448.68774
"2021",78.83421,448.70117
"2022",78.99046,448.7146
"2023",79.23216,448.72803
"2024",79.54955,448.74146
"2025",79.91089,448.75488
"2026",80.289314,448.7683
"2027",80.65064,448.78174
"2028",80.98024,448.79517
"2029",81.253685,448.8086
"2030",81.46609,448.82202
"2031",81.617455,448.83545
"2032",81.70779,448.84888
"2033",81.739525,448.8623
"2034",81.71023,448.87573
"2035",81.634544,448.88916
"2036",81.5198,448.9026
"2037",81.373314,448.91602
"2038",81.20485,448.92944
"2039",81.03395,448.94287
"2040",80.87282,448.9563
"2041",80.73121,448.96973
"2042",80.62379,448.98315
"2043",80.55543,448.99658
"2044",80.52369,449.01
"2045",80.52369,449.02344
"2046",80.5481,449.03687
"2047",80.5774,449.0503
"2048",80.59693,449.06372
"2049",80.604256,449.07715
"2050",80.584724,449.09058
"2051",80.54078,449.104
"2052",80.47486,449.11743
"2053",80.38697,449.13086
"2054",80.28687,449.1443
"2055",80.177,449.1577
"2056",80.05493,449.17114
"2057",79.923096,449.18457
"2058",79.78638,449.198
"2059",79.64721,449.21143
"2060",79.50561,449.22485
"2061",79.36645,449.23828
"2062",79.237045,449.2517
"2063",79.11009,449.26514
"2064",78.99779,449.27856
"2065",78.905014,449.292
"2066",78.84886,449.30542
"2067",78.84398,449.31885
"2068",78.9099,449.33228
"2069",79.05882,449.3457
"2070",79.29565,449.35913
"2071",79.61303,449.37256
"2072",79.98657,449.386
"2073",80.38453,449.3994
"2074",80.780045,449.41284
"2075",81.146255,449.42627
"2076",81.45876,449.4397
"2077",81.70046,449.45312
"2078",81.87137,449.46655
"2079",81.969025,449.47998
"2080",82.00076,449.4934
"2081",81.971466,449.50684
"2082",81.898224,449.52026
"2083",81.78348,449.5337
"2084",81.634544,449.54712
"2085",81.461205,449.56055
"2086",81.2781,449.57397
"2087",81.10231,449.5874
"2088",80.9485,449.60083
"2089",80.831314,449.61426
"2090",80.75075,449.6277
"2091",80.71168,449.6411
"2092",80.706795,449.65454
"2093",80.719,449.66797
"2094",80.73365,449.6814
"2095",80.73609,449.69482
"2096",80.719,449.70825
"2097",80.6775,449.72168
"2098",80.61158,449.7351
"2099",80.52369,449.74854
"2100",80.41871,449.76196
"2101",80.29664,449.7754
"2102",80.16724,449.78882
"2103",80.02319,449.80225
"2104",79.871826,449.81567
"2105",79.71801,449.8291
"2106",79.55932,449.84253
"2107",79.40063,449.85596
"2108",79.24681,449.8694
"2109",79.10033,449.8828
"2110",78.97337,449.89624
"2111",78.870834,449.90967
"2112",78.81468,449.9231
"2113",78.82201,449.93652
"2114",78.905014,449.94995
"2115",79.07347,449.96338
"2116",79.32983,449.9768
"2117",79.66674,449.99023
"2118",80.06714,450.00366
"2119",80.50172,450.0171
"2120",80.94118,450.03052
"2121",81.356224,450.04395
"2122",81.71755,450.05737
"2123",82.003204,450.0708
"2124",82.2034,450.08423
"2125",82.32548,450.09766
"2126",82.37675,450.11108
"2127",82.36698,450.1245
"2128",82.29862,450.13794
"2129",82.18143,450.15137
"2130",82.02518,450.1648
"2131",81.83719,450.17822
"2132",81.62966,450.19165
"2133",81.4197,450.20508
"2134",81.22682,450.2185
"2135",81.058365,450.23193
"2136",80.92897,450.24536
"2137",80.84596,450.2588
"2138",80.797134,450.27222
"2139",80.77272,450.28564
"2140",80.75563,450.29907
"2141",80.73121,450.3125
"2142",80.689705,450.32593
"2143",80.62867,450.33936
"2144",80.54322,450.35278
"2145",80.4358,450.3662
"2146",80.30152,450.37964
"2147",80.15259,450.39307
"2148",79.98901,450.4065
"2149",79.823,450.41992
"2150",79.65209,450.43335
"2151",79.483635,450.44678
"2152",79.31518,450.4602
"2153",79.14427,450.47363
"2154",78.975815,450.48706
"2155",78.81224,450.5005
"2156",78.65598,450.51392
"2157",78.5095,450.52734
"2158",78.37766,450.54077
"2159",78.260475,450.5542
"2160",78.167694,450.56763
"2161",78.118866,450.58105
"2162",78.135956,450.59448
"2163",78.238495,450.6079
"2164",78.43626,450.62134
"2165",78.73655,450.63477
"2166",79.132065,450.6482
"2167",79.5935,450.66162
"2168",80.08667,450.67505
"2169",80.57252,450.68848
"2170",81.0193,450.7019
"2171",81.40261,450.71533
"2172",81.71023,450.72876
"2173",81.94217,450.7422
"2174",82.1033,450.7556
"2175",82.19119,450.76904
"2176",82.21561,450.78247
"2177",82.178986,450.7959
"2178",82.08865,450.80933
"2179",81.951935,450.82275
"2180",81.78348,450.83618
"2181",81.59548,450.8496
"2182",81.39773,450.86304
"2183",81.20729,450.87646
"2184",81.03883,450.8899
"2185",80.89967,450.90332
"2186",80.79225,450.91675
"2187",80.71656,450.93018
"2188",80.66529,450.9436
"2189",80.62379,450.95703
"2190",80.584724,450.97046
"2191",80.5359,450.9839
"2192",80.46754,450.9973
"2193",80.37476,451.01074
"2194",80.257576,451.02417
"2195",80.11841,451.0376
"2196",79.954834,451.05103
"2197",79.77661,451.06445
"2198",79.586174,451.07788
"2199",79.39086,451.0913
"2200",79.19798,451.10474
"2201",79.00755,451.11816
"2202",78.82445,451.1316
"2203",78.64866,451.14502
"2204",78.48264,451.15845
"2205",78.331276,451.17188
"2206",78.19211,451.1853
"2207",78.065155,451.19873
"2208",77.95041,451.21216
"2209",77.84787,451.2256
"2210",77.75998,451.239
"2211",77.68185,451.25244
"2212",77.61837,451.26587
"2213",77.55978,451.2793
"2214",77.506065,451.29272
"2215",77.44991,451.30615
"2216",77.3962,451.31958
"2217",77.36202,451.333
"2218",77.35714,451.34644
"2219",77.40353,451.35986
"2220",77.52804,451.3733
"2221",77.75754,451.38672
"2222",78.09689,451.40015
"2223",78.54124,451.41357
"2224",79.07347,451.427
"2225",79.65209,451.44043
"2226",80.22583,451.45386
"2227",80.762955,451.4673
"2228",81.234146,451.4807
"2229",81.62478,451.49414
"2230",81.92264,451.50757
"2231",82.13992,451.521
"2232",82.286415,451.53442
"2233",82.3621,451.54785
"2234",82.37675,451.56128
"2235",82.34501,451.5747
"2236",82.266884,451.58813
"2237",82.144806,451.60156
"2238",81.99344,451.615
"2239",81.82254,451.62842
"2240",81.64431,451.64185
"2241",81.47097,451.65527
"2242",81.3196,451.6687
"2243",81.19264,451.68213
"2244",81.09743,451.69556
"2245",81.02663,451.70898
"2246",80.970474,451.7224
"2247",80.91676,451.73584
"2248",80.85329,451.74927
"2249",80.77028,451.7627
"2250",80.65797,451.77612
"2251",80.52125,451.78955
"2252",80.36256,451.80298
"2253",80.19165,451.8164
"2254",80.008545,451.82983
"2255",79.82056,451.84326
"2256",79.622795,451.8567
"2257",79.42016,451.87012
"2258",79.21507,451.88354
"2259",79.012436,451.89697
"2260",78.81712,451.9104
"2261",78.63401,451.92383
"2262",78.467995,451.93726
"2263",78.31907,451.95068
"2264",78.18234,451.9641
"2265",78.06027,451.97754
"2266",77.95041,451.99097
"2267",77.85031,452.0044
"2268",77.75998,452.01782
"2269",77.679405,452.03125
"2270",77.60372,452.04468
"2271",77.5378,452.0581
"2272",77.47677,452.07153
"2273",77.4255,452.08496
"2274",77.37179,452.0984
"2275",77.31808,452.11182
"2276",77.27169,452.12524
"2277",77.225296,452.13867
"2278",77.17403,452.1521
"2279",77.13008,452.16553
"2280",77.103226,452.17896
"2281",77.11299,452.19238
"2282",77.188675,452.2058
"2283",77.35958,452.21924
"2284",77.64767,452.23267
"2285",78.05539,452.2461
"2286",78.57053,452.25952
"2287",79.15892,452.27295
"2288",79.78638,452.28638
"2289",80.40162,452.2998
"2290",80.96803,452.31323
"2291",81.461205,452.32666
"2292",81.864044,452.3401
"2293",82.16922,452.35352
"2294",82.38651,452.36694
"2295",82.52323,452.38037
"2296",82.59647,452.3938
"2297",82.61356,452.40723
"2298",82.581825,452.42065
"2299",82.50858,452.43408
"2300",82.39384,452.4475
"2301",82.2449,452.46094
"2302",82.074005,452.47437
"2303",81.89334,452.4878
"2304",81.722435,452.50122
"2305",81.57351,452.51465
"2306",81.45144,452.52808
"2307",81.358665,452.5415
"2308",81.287865,452.55493
"2309",81.231705,452.56836
"2310",81.17799,452.5818
"2311",81.11696,452.5952
"2312",81.03639,452.60864
"2313",80.93141,452.62207
"2314",80.797134,452.6355
"2315",80.635994,452.64893
"2316",80.45289,452.66235
"2317",80.25269,452.67578
"2318",80.042725,452.6892
"2319",79.82544,452.70264
"2320",79.61303,452.71606
"2321",79.41039,452.7295
"2322",79.21507,452.74292
"2323",79.029526,452.75635
"2324",78.8513,452.76978
"2325",78.68528,452.7832
"2326",78.52903,452.79663
"2327",78.38499,452.81006
"2328",78.25071,452.8235
"2329",78.133514,452.8369
"2330",78.02365,452.85034
"2331",77.92111,452.86377
"2332",77.82834,452.8772
"2333",77.747765,452.89062
"2334",77.67452,452.90405
"2335",77.611046,452.91748
"2336",77.55001,452.9309
"2337",77.49874,452.94434
"2338",77.452354,452.95776
"2339",77.40597,452.9712
"2340",77.36202,452.98462
"2341",77.315636,452.99805
"2342",77.27169,453.01147
"2343",77.22041,453.0249
"2344",77.16914,453.03833
"2345",77.12764,453.05176
"2346",77.10811,453.0652
"2347",77.12764,453.0786
"2348",77.21797,453.09204
"2349",77.40841,453.10547
"2350",77.71603,453.1189
"2351",78.14572,453.13232
"2352",78.68772,453.14575
"2353",79.30785,453.15918
"2354",79.957275,453.1726
"2355",80.59693,453.18604
"2356",81.17555,453.19946
"2357",81.668724,453.2129
"2358",82.0618,453.22632
"2359",82.34989,453.23975
"2360",82.545204,453.25317
"2361",82.66239,453.2666
"2362",82.71122,453.28003
"2363",82.701454,453.29346
"2364",82.6453,453.3069
"2365",82.55009,453.3203
"2366",82.42069,453.33374
"2367",82.262,453.34717
"2368",82.08377,453.3606
"2369",81.898224,453.37402
"2370",81.722435,453.38745
"2371",81.56374,453.40088
"2372",81.43679,453.4143
"2373",81.34402,453.42773
"2374",81.27566,453.44116
"2375",81.22682,453.4546
"2376",81.180435,453.46802
"2377",81.126724,453.48145
"2378",81.05592,453.49487
"2379",80.95827,453.5083
"2380",80.833755,453.52173
"2381",80.68482,453.53516
"2382",80.51881,453.54858
"2383",80.33814,453.562
"2384",80.15015,453.57544
"2385",79.95972,453.58887
"2386",79.766846,453.6023
"2387",79.57397,453.61572
"2388",79.381096,453.62915
"2389",79.19066,453.64258
"2390",79.00755,453.656
"2391",78.839096,453.66943
"2392",78.6804,453.68286
"2393",78.54124,453.6963
"2394",78.416725,453.70972
"2395",78.30198,453.72314
"2396",78.19455,453.73657
"2397",78.099335,453.75
"2398",78.009,453.76343
"2399",77.925995,453.77686
"2400",77.84543,453.79028
"2401",77.77707,453.8037
"2402",77.713585,453.81714
"2403",77.659874,453.83057
"2404",77.611046,453.844
"2405",77.5671,453.85742
"2406",77.52804,453.87085
"2407",77.488976,453.88428
"2408",77.44991,453.8977
"2409",77.41329,453.91113
"2410",77.37667,453.92456
"2411",77.34005,453.938
"2412",77.32296,453.95142
"2413",77.33761,453.96484
"2414",77.41085,453.97827
"2415",77.576866,453.9917
"2416",77.86252,454.00513
"2417",78.27512,454.01855
"2418",78.802475,454.03198
"2419",79.415276,454.0454
"2420",80.059814,454.05884
"2421",80.69215,454.07227
"2422",81.26833,454.0857
"2423",81.75174,454.09912
"2424",82.13748,454.11255
"2425",82.41825,454.12598
"2426",82.59403,454.1394
"2427",82.67704,454.15283
"2428",82.69169,454.16626
"2429",82.6453,454.1797
"2430",82.55009,454.1931
"2431",82.41825,454.20654
"2432",82.25712,454.21997
"2433",82.07156,454.2334
"2434",81.87625,454.24683
"2435",81.67605,454.26025
"2436",81.48806,454.27368
"2437",81.32937,454.2871
"2438",81.20241,454.30054
"2439",81.109634,454.31396
"2440",81.04616,454.3274
"2441",81.00221,454.34082
"2442",80.96803,454.35425
"2443",80.93141,454.36768
"2444",80.8777,454.3811
"2445",80.80202,454.39453
"2446",80.69947,454.40796
"2447",80.570076,454.4214
"2448",80.41871,454.4348
"2449",80.257576,454.44824
"2450",80.08667,454.46167
"2451",79.90845,454.4751
"2452",79.727776,454.48853
"2453",79.551994,454.50195
"2454",79.381096,454.51538
"2455",79.21507,454.5288
"2456",79.05638,454.54224
"2457",78.9099,454.55566
"2458",78.768295,454.5691
"2459",78.63645,454.58252
"2460",78.51194,454.59595
"2461",78.399635,454.60938
"2462",78.2971,454.6228
"2463",78.204315,454.63623
"2464",78.118866,454.64966
"2465",78.04562,454.6631
"2466",77.98215,454.6765
"2467",77.92355,454.68994
"2468",77.874725,454.70337
"2469",77.83078,454.7168
"2470",77.79172,454.73022
"2471",77.7551,454.74365
"2472",77.72335,454.75708
"2473",77.68917,454.7705
"2474",77.65499,454.78394
"2475",77.61837,454.79736
"2476",77.58175,454.8108
"2477",77.55245,454.82422
"2478",77.5378,454.83765
"2479",77.557335,454.85107
"2480",77.63058,454.8645
"2481",77.79172,454.87793
"2482",78.06027,454.89136
"2483",78.45335,454.9048
"2484",78.95384,454.9182
"2485",79.53979,454.93164
"2486",80.15991,454.94507
"2487",80.765396,454.9585
"2488",81.31228,454.97192
"2489",81.77615,454.98535
"2490",82.13504,454.99878
"2491",82.388954,455.0122
"2492",82.54276,455.02563
"2493",82.616005,455.03906
"2494",82.616005,455.0525
"2495",82.562294,455.06592
"2496",82.459755,455.07935
"2497",82.320595,455.09277
"2498",82.14725,455.1062
"2499",81.95438,455.11963
"2500",81.75418,455.13306
"2501",81.55642,455.14648
"2502",81.373314,455.1599
"2503",81.21706,455.17334
"2504",81.09743,455.18677
"2505",81.00954,455.2002
"2506",80.95094,455.21362
"2507",80.91188,455.22705
"2508",80.88014,455.24048
"2509",80.84352,455.2539
"2510",80.79225,455.26733
"2511",80.723885,455.28076
"2512",80.635994,455.2942
"2513",80.52613,455.30762
"2514",80.40162,455.32104
"2515",80.26002,455.33447
"2516",80.1062,455.3479
"2517",79.94751,455.36133
"2518",79.78638,455.37476
"2519",79.622795,455.38818
"2520",79.466545,455.4016
"2521",79.31518,455.41504
"2522",79.17113,455.42847
"2523",79.03197,455.4419
"2524",78.90257,455.45532
"2525",78.77806,455.46875
"2526",78.660866,455.48218
"2527",78.55833,455.4956
"2528",78.46067,455.50903
"2529",78.37522,455.52246
"2530",78.2971,455.5359
"2531",78.221405,455.54932
"2532",78.150604,455.56274
"2533",78.08469,455.57617
"2534",78.02365,455.5896
"2535",77.97482,455.60303
"2536",77.93088,455.61646
"2537",77.8967,455.62988
"2538",77.86496,455.6433
"2539",77.83566,455.65674
"2540",77.80881,455.67017
"2541",77.78439,455.6836
"2542",77.76242,455.69702
"2543",77.74532,455.71045
"2544",77.733116,455.72388
"2545",77.74288,455.7373
"2546",77.79904,455.75073
"2547",77.92844,455.76416
"2548",78.16037,455.7776
"2549",78.51438,455.79102
"2550",78.98314,455.80444
"2551",79.53979,455.81787
"2552",80.14282,455.8313
"2553",80.740974,455.84473
"2554",81.290306,455.85815
"2555",81.75418,455.87158
"2556",82.11795,455.885
"2557",82.371864,455.89844
"2558",82.528114,455.91187
"2559",82.598915,455.9253
"2560",82.59403,455.93872
"2561",82.53544,455.95215
"2562",82.43046,455.96558
"2563",82.286415,455.979
"2564",82.108185,455.99243
"2565",81.90799,456.00586
"2566",81.69558,456.0193
"2567",81.48318,456.0327
"2568",81.28542,456.04614
"2569",81.11452,456.05957
"2570",80.98024,456.073
"2571",80.8777,456.08643
"2572",80.8069,456.09985
"2573",80.75807,456.11328
"2574",80.726326,456.1267
"2575",80.69459,456.14014
"2576",80.66285,456.15356
"2577",80.61402,456.167
"2578",80.5481,456.18042
"2579",80.462654,456.19385
"2580",80.35523,456.20728
"2581",80.233154,456.2207
"2582",80.09888,456.23413
"2583",79.957275,456.24756
"2584",79.818115,456.261
"2585",79.67895,456.2744
"2586",79.537346,456.28784
"2587",79.398186,456.30127
"2588",79.26147,456.3147
"2589",79.12474,456.32812
"2590",78.995346,456.34155
"2591",78.87572,456.35498
"2592",78.76341,456.3684
"2593",78.66331,456.38184
"2594",78.57053,456.39526
"2595",78.485085,456.4087
"2596",78.40452,456.42212
"2597",78.331276,456.43555
"2598",78.26536,456.44897
"2599",78.21164,456.4624
"2600",78.16037,456.47583
"2601",78.12375,456.48926
"2602",78.08957,456.5027
"2603",78.05539,456.5161
"2604",78.02121,456.52954
"2605",77.98703,456.54297
"2606",77.95041,456.5564
"2607",77.91867,456.56982
"2608",77.88937,456.58325
"2609",77.87961,456.59668
"2610",77.8967,456.6101
"2611",77.95285,456.62354
"2612",78.07492,456.63696
"2613",78.28001,456.6504
"2614",78.58762,456.66382
"2615",79.00023,456.67725
"2616",79.50561,456.69067
"2617",80.06714,456.7041
"2618",80.64332,456.71753
"2619",81.18776,456.73096
"2620",81.6614,456.7444
"2621",82.04227,456.7578
"2622",82.320595,456.77124
"2623",82.49882,456.78467
"2624",82.58427,456.7981
"2625",82.59159,456.81152
"2626",82.533,456.82495
"2627",82.42069,456.83838
"2628",82.266884,456.8518
"2629",82.08133,456.86523
"2630",81.87381,456.87866
"2631",81.654076,456.8921
"2632",81.427025,456.90552
"2633",81.20973,456.91895
"2634",81.01198,456.93237
"2635",80.84108,456.9458
"2636",80.70435,456.95923
"2637",80.6067,456.97266
"2638",80.54566,456.98608
"2639",80.51392,456.9995
"2640",80.499275,457.01294
"2641",80.479744,457.02637
"2642",80.448006,457.0398
"2643",80.394295,457.05322
"2644",80.31861,457.06665
"2645",80.22827,457.08008
"2646",80.12329,457.0935
"2647",80.01343,457.10693
"2648",79.8938,457.12036
"2649",79.76929,457.1338
"2650",79.63744,457.14722
"2651",79.50317,457.16064
"2652",79.37133,457.17407
"2653",79.24193,457.1875
"2654",79.114975,457.20093
"2655",78.992905,457.21436
"2656",78.87816,457.22778
"2657",78.77074,457.2412
"2658",78.675514,457.25464
"2659",78.590065,457.26807
"2660",78.51194,457.2815
"2661",78.43626,457.29492
"2662",78.365456,457.30835
"2663",78.30442,457.32178
"2664",78.25315,457.3352
"2665",78.21164,457.34863
"2666",78.18234,457.36206
"2667",78.15793,457.3755
"2668",78.13107,457.38892
"2669",78.101776,457.40234
"2670",78.07004,457.41577
"2671",78.04562,457.4292
"2672",78.02609,457.44263
"2673",78.01633,457.45605
"2674",78.02365,457.46948
"2675",78.06027,457.4829
"2676",78.1384,457.49634
"2677",78.29221,457.50977
"2678",78.538795,457.5232
"2679",78.887924,457.53662
"2680",79.33471,457.55005
"2681",79.85474,457.56348
"2682",80.40406,457.5769
"2683",80.95094,457.59033
"2684",81.45388,457.60376
"2685",81.87869,457.6172
"2686",82.210724,457.6306
"2687",82.442665,457.64404
"2688",82.5745,457.65747
"2689",82.61845,457.6709
"2690",82.58915,457.68433
"2691",82.50614,457.69775
"2692",82.38163,457.71118
"2693",82.22293,457.7246
"2694",82.037384,457.73804
"2695",81.83475,457.75146
"2696",81.62722,457.7649
"2697",81.4197,457.77832
"2698",81.231705,457.79175
"2699",81.06813,457.80518
"2700",80.94118,457.8186
"2701",80.84596,457.83203
"2702",80.782486,457.84546
"2703",80.743416,457.8589
"2704",80.723885,457.8723
"2705",80.706795,457.88574
"2706",80.68482,457.89917
"2707",80.65064,457.9126
"2708",80.59693,457.92603
"2709",80.52613,457.93945
"2710",80.4358,457.95288
"2711",80.3357,457.9663
"2712",80.22583,457.97974
"2713",80.1062,457.99316
"2714",79.97925,458.0066
"2715",79.84985,458.02002
"2716",79.72045,458.03345
"2717",79.5935,458.04688
"2718",79.46899,458.0603
"2719",79.3518,458.07373
"2720",79.237045,458.08716
"2721",79.12962,458.1006
"2722",79.027084,458.114
"2723",78.92943,458.12744
"2724",78.84154,458.14087
"2725",78.76097,458.1543
"2726",78.68528,458.16772
"2727",78.61204,458.18115
"2728",78.54856,458.19458
"2729",78.49485,458.208
"2730",78.44602,458.22144
"2731",78.40208,458.23486
"2732",78.365456,458.2483
"2733",78.33372,458.26172
"2734",78.30686,458.27515
"2735",78.277565,458.28857
"2736",78.25559,458.302
"2737",78.24582,458.31543
"2738",78.25559,458.32886
"2739",78.30442,458.3423
"2740",78.41917,458.3557
"2741",78.6218,458.36914
"2742",78.93187,458.38257
"2743",79.34936,458.396
"2744",79.852295,458.40942
"2745",80.4065,458.42285
"2746",80.96803,458.43628
"2747",81.4905,458.4497
"2748",81.94217,458.46313
"2749",82.29862,458.47656
"2750",82.55497,458.49
"2751",82.71122,458.50342
"2752",82.777145,458.51685
"2753",82.76982,458.53027
"2754",82.69901,458.5437
"2755",82.58427,458.55713
"2756",82.43534,458.57056
"2757",82.262,458.58398
"2758",82.06668,458.5974
"2759",81.85672,458.61084
"2760",81.651634,458.62427
"2761",81.45144,458.6377
"2762",81.27322,458.65112
"2763",81.11696,458.66455
"2764",80.99733,458.67798
"2765",80.91188,458.6914
"2766",80.85573,458.70483
"2767",80.816666,458.71826
"2768",80.78981,458.7317
"2769",80.762955,458.74512
"2770",80.719,458.75854
"2771",80.66041,458.77197
"2772",80.58228,458.7854
"2773",80.48463,458.79883
"2774",80.377205,458.81226
"2775",80.26002,458.82568
"2776",80.13306,458.8391
"2777",80.00366,458.85254
"2778",79.871826,458.86597
"2779",79.73998,458.8794
"2780",79.605705,458.89282
"2781",79.47875,458.90625
"2782",79.35668,458.91968
"2783",79.23949,458.9331
"2784",79.12962,458.94653
"2785",79.02464,458.95996
"2786",78.922104,458.9734
"2787",78.82689,458.98682
"2788",78.73899,459.00024
"2789",78.65354,459.01367
"2790",78.5803,459.0271
"2791",78.51438,459.04053
"2792",78.45579,459.05396
"2793",78.40208,459.06738
"2794",78.35569,459.0808
"2795",78.314186,459.09424
"2796",78.277565,459.10767
"2797",78.24338,459.1211
"2798",78.21164,459.13452
"2799",78.184784,459.14795
"2800",78.16281,459.16138
"2801",78.153046,459.1748
"2802",78.16281,459.18823
"2803",78.21408,459.20166
"2804",78.328835,459.2151
"2805",78.53147,459.22852
"2806",78.84154,459.24194
"2807",79.259026,459.25537
"2808",79.76196,459.2688
"2809",80.31861,459.28223
"2810",80.88014,459.29565
"2811",81.40505,459.30908
"2812",81.85428,459.3225
"2813",82.210724,459.33594
"2814",82.4622,459.34937
"2815",82.61112,459.3628
"2816",82.67216,459.37622
"2817",82.65751,459.38965
"2818",82.58671,459.40308
"2819",82.47196,459.4165
"2820",82.32304,459.42993
"2821",82.14725,459.44336
"2822",81.95926,459.4568
"2823",81.75906,459.4702
"2824",81.55886,459.48364
"2825",81.37087,459.49707
"2826",81.20729,459.5105
"2827",81.06569,459.52393
"2828",80.955826,459.53735
"2829",80.87526,459.55078
"2830",80.82399,459.5642
"2831",80.79225,459.57764
"2832",80.765396,459.59106
"2833",80.740974,459.6045
"2834",80.70191,459.61792
"2835",80.65064,459.63135
"2836",80.58228,459.64478
"2837",80.49195,459.6582
"2838",80.38941,459.67163
"2839",80.274666,459.68506
"2840",80.15259,459.6985
"2841",80.02075,459.7119
"2842",79.88159,459.72534
"2843",79.742424,459.73877
"2844",79.60082,459.7522
"2845",79.45922,459.76562
"2846",79.327385,459.77905
"2847",79.21019,459.79248
"2848",79.10277,459.8059
"2849",78.99779,459.81934
"2850",78.90013,459.83276
"2851",78.80003,459.8462
"2852",78.70725,459.85962
"2853",78.61936,459.87305
"2854",78.54612,459.88647
"2855",78.4802,459.8999
"2856",78.42405,459.91333
"2857",78.37034,459.92676
"2858",78.32151,459.9402
"2859",78.27512,459.9536
"2860",78.23361,459.96704
"2861",78.19699,459.98047
"2862",78.16037,459.9939
"2863",78.12863,460.00732
"2864",78.10666,460.02075
"2865",78.10666,460.03418
"2866",78.15793,460.0476
"2867",78.28001,460.06104
"2868",78.487526,460.07446
"2869",78.79271,460.0879
"2870",79.19798,460.10132
"2871",79.674065,460.11475
"2872",80.18921,460.12817
"2873",80.70435,460.1416
"2874",81.17555,460.15503
"2875",81.57107,460.16846
"2876",81.87137,460.1819
"2877",82.07889,460.1953
"2878",82.196075,460.20874
"2879",82.230255,460.22217
"2880",82.19852,460.2356
"2881",82.11795,460.24902
"2882",81.991,460.26245
"2883",81.829865,460.27588
"2884",81.64919,460.2893
"2885",81.45388,460.30273
"2886",81.25124,460.31616
"2887",81.06081,460.3296
"2888",80.89235,460.34302
"2889",80.75075,460.35645
"2890",80.64332,460.36987
"2891",80.567635,460.3833
"2892",80.52613,460.39673
"2893",80.50416,460.41016
"2894",80.49683,460.42358
"2895",80.48951,460.437
"2896",80.47242,460.45044
"2897",80.44312,460.46387
"2898",80.40162,460.4773
"2899",80.34058,460.49072
"2900",80.26978,460.50415
"2901",80.181885,460.51758
"2902",80.076904,460.531
"2903",79.95972,460.54443
"2904",79.83765,460.55786
"2905",79.710686,460.5713
"2906",79.586174,460.58472
"2907",79.46166,460.59814
"2908",79.34203,460.61157
"2909",79.2224,460.625
"2910",79.10765,460.63843
"2911",79.00023,460.65186
"2912",78.89769,460.66528
"2913",78.8098,460.6787
"2914",78.73167,460.69214
"2915",78.658424,460.70557
"2916",78.590065,460.719
"2917",78.52903,460.73242
"2918",78.47288,460.74585
"2919",78.42405,460.75928
"2920",78.380104,460.7727
"2921",78.3386,460.78613
"2922",78.30686,460.79956
"2923",78.277565,460.813
"2924",78.25559,460.82642
"2925",78.24338,460.83984
"2926",78.25071,460.85327
"2927",78.294655,460.8667
"2928",78.39231,460.88013
"2929",78.572975,460.89355
"2930",78.84642,460.90698
"2931",79.21263,460.9204
"2932",79.65209,460.93384
"2933",80.13306,460.94727
"2934",80.61402,460.9607
"2935",81.05592,460.97412
"2936",81.427025,460.98755
"2937",81.71267,461.00098
"2938",81.90555,461.0144
"2939",82.00809,461.02783
"2940",82.0325,461.04126
"2941",81.99344,461.0547
"2942",81.900665,461.0681
"2943",81.76395,461.08154
"2944",81.600365,461.09497
"2945",81.41238,461.1084
"2946",81.2195,461.12183
"2947",81.03395,461.13525
"2948",80.85817,461.14868
"2949",80.706795,461.1621
"2950",80.58961,461.17554
"2951",80.50904,461.18896
"2952",80.45777,461.2024
"2953",80.4358,461.21582
"2954",80.44068,461.22925
"2955",80.45533,461.24268
"2956",80.46754,461.2561
"2957",80.47486,461.26953
"2958",80.462654,461.28296
"2959",80.428474,461.2964
"2960",80.37476,461.3098
"2961",80.30396,461.32324
"2962",80.22095,461.33667
"2963",80.130615,461.3501
"2964",80.03784,461.36353
"2965",79.9353,461.37695
"2966",79.82788,461.39038
"2967",79.710686,461.4038
"2968",79.59594,461.41724
"2969",79.47875,461.43066
"2970",79.36645,461.4441
"2971",79.256584,461.45752
"2972",79.15404,461.47095
"2973",79.061264,461.48438
"2974",78.97826,461.4978
"2975",78.905014,461.51123
"2976",78.84154,461.52466
"2977",78.785385,461.5381
"2978",78.73167,461.5515
"2979",78.675514,461.56494
"2980",78.61936,461.57837
"2981",78.56565,461.5918
"2982",78.521706,461.60522
"2983",78.485085,461.61865
"2984",78.467995,461.63208
"2985",78.487526,461.6455
"2986",78.56077,461.65894
"2987",78.70725,461.67236
"2988",78.93675,461.6858
"2989",79.25414,461.69922
"2990",79.64721,461.71265
"2991",80.09155,461.72607
"2992",80.550545,461.7395
"2993",80.990005,461.75293
"2994",81.375755,461.76636
"2995",81.68093,461.7798
"2996",81.898224,461.7932
"2997",82.020294,461.80664
"2998",82.06424,461.82007
"2999",82.03494,461.8335
"3000",81.951935,461.84692
"3001",81.82254,461.86035
"3002",81.66384,461.87378
"3003",81.480736,461.8872
"3004",81.29275,461.90063
"3005",81.09987,461.91406
"3006",80.921646,461.9275
"3007",80.76784,461.94092
"3008",80.6482,461.95435
"3009",80.56275,461.96777
"3010",80.51392,461.9812
"3011",80.49195,461.99463
"3012",80.49195,462.00806
"3013",80.499275,462.02148
"3014",80.50416,462.0349
"3015",80.50416,462.04834
"3016",80.48951,462.06177
"3017",80.465096,462.0752
"3018",80.42359,462.08862
"3019",80.365,462.10205
"3020",80.28687,462.11548
"3021",80.198975,462.1289
"3022",80.10132,462.14233
"3023",79.991455,462.15576
"3024",79.88403,462.1692
"3025",79.77173,462.18262
"3026",79.65942,462.19604
"3027",79.54711,462.20947
"3028",79.43725,462.2229
"3029",79.32983,462.23633
"3030",79.23216,462.24976
"3031",79.13939,462.26318
"3032",79.046616,462.2766
"3033",78.958725,462.29004
"3034",78.8806,462.30347
"3035",78.81224,462.3169
"3036",78.74876,462.33032
"3037",78.69016,462.34375
"3038",78.63889,462.35718
"3039",78.590065,462.3706
"3040",78.553444,462.38403
"3041",78.54124,462.39746
"3042",78.57053,462.4109
"3043",78.66819,462.42432
"3044",78.84398,462.43774
"3045",79.10277,462.45117
"3046",79.44457,462.4646
"3047",79.84497,462.47803
"3048",80.27711,462.49146
"3049",80.70191,462.50488
"3050",81.092545,462.5183
"3051",81.4197,462.53174
"3052",81.66628,462.54517
"3053",81.82254,462.5586
"3054",81.898224,462.57202
"3055",81.898224,462.58545
"3056",81.83963,462.59888
"3057",81.7322,462.6123
"3058",81.5906,462.62573
"3059",81.42214,462.63916
"3060",81.23903,462.6526
"3061",81.05104,462.66602
"3062",80.867935,462.67944
"3063",80.706795,462.69287
"3064",80.57252,462.7063
"3065",80.46754,462.71973
"3066",80.396736,462.73315
"3067",80.360115,462.74658
"3068",80.34791,462.76
"3069",80.35767,462.77344
"3070",80.377205,462.78687
"3071",80.394295,462.8003
"3072",80.40162,462.81372
"3073",80.394295,462.82715
"3074",80.365,462.84058
"3075",80.31373,462.854
"3076",80.24292,462.86743
"3077",80.15991,462.88086
"3078",80.0647,462.8943
"3079",79.957275,462.9077
"3080",79.84497,462.92114
"3081",79.73266,462.93457
"3082",79.62035,462.948
"3083",79.51049,462.96143
"3084",79.40551,462.97485
"3085",79.30541,462.98828
"3086",79.20775,463.0017
"3087",79.114975,463.01514
"3088",79.029526,463.02856
"3089",78.94896,463.042
"3090",78.870834,463.05542
"3091",78.802475,463.06885
"3092",78.73411,463.08228
"3093",78.67307,463.0957
"3094",78.62913,463.10913
"3095",78.6096,463.12256
"3096",78.624245,463.136
"3097",78.69016,463.1494
"3098",78.82445,463.16284
"3099",79.03929,463.17627
"3100",79.33471,463.1897
"3101",79.70092,463.20312
"3102",80.1062,463.21655
"3103",80.516365,463.22998
"3104",80.902115,463.2434
"3105",81.22682,463.25684
"3106",81.47585,463.27026
"3107",81.64431,463.2837
"3108",81.73708,463.29712
"3109",81.75662,463.31055
"3110",81.71267,463.32397
"3111",81.61257,463.3374
"3112",81.47097,463.35083
"3113",81.30007,463.36426
"3114",81.11452,463.3777
"3115",80.92653,463.3911
"3116",80.75807,463.40454
"3117",80.60914,463.41797
"3118",80.48951,463.4314
"3119",80.4065,463.44482
"3120",80.360115,463.45825
"3121",80.343025,463.47168
"3122",80.35523,463.4851
"3123",80.38453,463.49854
"3124",80.42115,463.51196
"3125",80.45533,463.5254
"3126",80.47486,463.53882
"3127",80.47486,463.55225
"3128",80.448006,463.56567
"3129",80.396736,463.5791
"3130",80.325935,463.59253
"3131",80.24292,463.60596
"3132",80.15015,463.6194
"3133",80.05005,463.6328
"3134",79.94263,463.64624
"3135",79.83276,463.65967
"3136",79.72045,463.6731
"3137",79.60815,463.68652
"3138",79.49584,463.69995
"3139",79.39086,463.71338
"3140",79.293205,463.7268
"3141",79.19554,463.74023
"3142",79.10277,463.75366
"3143",79.027084,463.7671
"3144",78.96849,463.78052
"3145",78.94652,463.79395
"3146",78.9807,463.80737
"3147",79.08812,463.8208
"3148",79.276115,463.83423
"3149",79.54223,463.84766
"3150",79.87671,463.86108
"3151",80.255135,463.8745
"3152",80.64576,463.88794
"3153",81.01442,463.90137
"3154",81.33425,463.9148
"3155",81.58572,463.92822
"3156",81.75906,463.94165
"3157",81.85916,463.95508
"3158",81.88846,463.9685
"3159",81.85428,463.98193
"3160",81.761505,463.99536
"3161",81.62234,464.0088
"3162",81.446556,464.02222
"3163",81.25124,464.03564
"3164",81.05104,464.04907
"3165",80.86305,464.0625
"3166",80.70191,464.07593
"3167",80.5774,464.08936
"3168",80.49439,464.10278
"3169",80.46021,464.1162
"3170",80.46021,464.12964
"3171",80.48463,464.14307
"3172",80.52125,464.1565
"3173",80.552986,464.16992
"3174",80.57252,464.18335
"3175",80.5774,464.19678
"3176",80.56031,464.2102
"3177",80.516365,464.22363
"3178",80.45289,464.23706
"3179",80.36744,464.2505
"3180",80.26978,464.26392
"3181",80.16235,464.27734
"3182",80.045166,464.29077
"3183",79.923096,464.3042
"3184",79.798584,464.31763
"3185",79.67162,464.33105
"3186",79.53979,464.34448
"3187",79.40551,464.3579
"3188",79.273674,464.37134
"3189",79.15892,464.38477
"3190",79.063705,464.3982
"3191",79.01976,464.41162
"3192",79.04906,464.42505
"3193",79.166245,464.43848
"3194",79.38354,464.4519
"3195",79.69604,464.46533
"3196",80.08667,464.47876
"3197",80.52613,464.4922
"3198",80.972916,464.5056
"3199",81.3904,464.51904
"3200",81.74929,464.53247
"3201",82.01541,464.5459
"3202",82.18387,464.55933
"3203",82.25956,464.57275
"3204",82.252235,464.58618
"3205",82.178986,464.5996
"3206",82.04959,464.61304
"3207",81.87869,464.62646
"3208",81.671165,464.6399
"3209",81.444115,464.65332
"3210",81.21217,464.66675
"3211",80.99245,464.68018
"3212",80.80934,464.6936
"3213",80.67017,464.70703
"3214",80.5774,464.72046
"3215",80.52857,464.7339
"3216",80.51392,464.7473
"3217",80.51881,464.76074
"3218",80.53101,464.77417
"3219",80.53834,464.7876
"3220",80.533455,464.80103
"3221",80.5066,464.81445
"3222",80.45777,464.82788
"3223",80.38209,464.8413
"3224",80.28443,464.85474
"3225",80.16968,464.86816
"3226",80.03784,464.8816
"3227",79.89868,464.89502
"3228",79.7522,464.90845
"3229",79.605705,464.92188
"3230",79.45922,464.9353
"3231",79.310295,464.94873
"3232",79.1638,464.96216
"3233",79.02464,464.9756
"3234",78.89769,464.989
"3235",78.79759,465.00244
"3236",78.74876,465.01587
"3237",78.77074,465.0293
"3238",78.887924,465.04272
"3239",79.114975,465.05615
"3240",79.45678,465.06958
"3241",79.89624,465.083
"3242",80.39918,465.09644
"3243",80.92409,465.10986
"3244",81.4197,465.1233
"3245",81.849396,465.13672
"3246",82.18875,465.15015
"3247",82.423134,465.16357
"3248",82.55253,465.177
"3249",82.58915,465.19043
"3250",82.547646,465.20386
"3251",82.43778,465.2173
"3252",82.27421,465.2307
"3253",82.07156,465.24414
"3254",81.83963,465.25757
"3255",81.600365,465.271
"3256",81.36111,465.28442
"3257",81.143814,465.29785
"3258",80.955826,465.31128
"3259",80.80934,465.3247
"3260",80.70191,465.33813
"3261",80.63355,465.35156
"3262",80.59937,465.365
"3263",80.584724,465.37842
"3264",80.5774,465.39185
"3265",80.56275,465.40527
"3266",80.52613,465.4187
"3267",80.45777,465.43213
"3268",80.360115,465.44556
"3269",80.235596,465.45898
"3270",80.09155,465.4724
"3271",79.93042,465.48584
"3272",79.75708,465.49927
"3273",79.57397,465.5127
"3274",79.39086,465.52612
"3275",79.20775,465.53955
"3276",79.029526,465.55298
"3277",78.86107,465.5664
"3278",78.70481,465.57983
"3279",78.55833,465.59326
"3280",78.42893,465.6067
"3281",78.32151,465.62012
"3282",78.25315,465.63354
"3283",78.25315,465.64697
"3284",78.345924,465.6604
"3285",78.56077,465.67383
"3286",78.905014,465.68726
"3287",79.36645,465.70068
"3288",79.91333,465.7141
"3289",80.49195,465.72754
"3290",81.04616,465.74097
"3291",81.532005,465.7544
"3292",81.92508,465.76782
"3293",82.20584,465.78125
"3294",82.38163,465.79468
"3295",82.46464,465.8081
"3296",82.46952,465.82153
"3297",82.406044,465.83496
"3298",82.286415,465.8484
"3299",82.12283,465.86182
"3300",81.92264,465.87524
"3301",81.69802,465.88867
"3302",81.463646,465.9021
"3303",81.231705,465.91553
"3304",81.01686,465.92896
"3305",80.833755,465.94238
"3306",80.69215,465.9558
"3307",80.59937,465.96924
"3308",80.550545,465.98267
"3309",80.53101,465.9961
"3310",80.52369,466.00952
"3311",80.5066,466.02295
"3312",80.46754,466.03638
"3313",80.396736,466.0498
"3314",80.289314,466.06323
"3315",80.147705,466.07666
"3316",79.98657,466.0901
"3317",79.80835,466.10352
"3318",79.62035,466.11694
"3319",79.42748,466.13037
"3320",79.234604,466.1438
"3321",79.044174,466.15723
"3322",78.85863,466.17065
"3323",78.6804,466.18408
"3324",78.51194,466.1975
"3325",78.363014,466.21094
"3326",78.22629,466.22437
"3327",78.10422,466.2378
"3328",77.99191,466.25122
"3329",77.88937,466.26465
"3330",77.79416,466.27808
"3331",77.713585,466.2915
"3332",77.67208,466.30493
"3333",77.68673,466.31836
"3334",77.7966,466.3318
"3335",78.02365,466.3452
"3336",78.38499,466.35864
"3337",78.86839,466.37207
"3338",79.43969,466.3855
"3339",80.045166,466.39893
"3340",80.63355,466.41235
"3341",81.15602,466.42578
"3342",81.583275,466.4392
"3343",81.90311,466.45264
"3344",82.11307,466.46606
"3345",82.22781,466.4795
"3346",82.26444,466.49292
"3347",82.24002,466.50635
"3348",82.16678,466.51978
"3349",82.056915,466.5332
"3350",81.90799,466.54663
"3351",81.72732,466.56006
"3352",81.52224,466.5735
"3353",81.30251,466.5869
"3354",81.092545,466.60034
"3355",80.902115,466.61377
"3356",80.7483,466.6272
"3357",80.64088,466.64062
"3358",80.57252,466.65405
"3359",80.53834,466.66748
"3360",80.516365,466.6809
"3361",80.49195,466.69434
"3362",80.44068,466.70776
"3363",80.365,466.7212
"3364",80.255135,466.73462
"3365",80.11597,466.74805
"3366",79.94751,466.76147
"3367",79.766846,466.7749
"3368",79.57397,466.78833
"3369",79.37621,466.80176
"3370",79.183334,466.8152
"3371",79.00023,466.8286
"3372",78.82201,466.84204
"3373",78.6511,466.85547
"3374",78.487526,466.8689
"3375",78.33372,466.88232
"3376",78.19211,466.89575
"3377",78.05783,466.90918
"3378",77.93576,466.9226
"3379",77.82834,466.93604
"3380",77.73556,466.94946
"3381",77.65499,466.9629
"3382",77.58663,466.97632
"3383",77.53048,466.98975
"3384",77.47921,467.00317
"3385",77.435265,467.0166
"3386",77.38644,467.03003
"3387",77.34005,467.04346
"3388",77.29366,467.0569
"3389",77.24727,467.0703
"3390",77.21309,467.08374
"3391",77.21553,467.09717
"3392",77.2839,467.1106
"3393",77.44503,467.12402
"3394",77.733116,467.13745
"3395",78.15793,467.15088
"3396",78.70481,467.1643
"3397",79.33715,467.17773
"3398",79.99634,467.19116
"3399",80.62623,467.2046
"3400",81.17799,467.21802
"3401",81.62234,467.23145
"3402",81.95438,467.24487
"3403",82.178986,467.2583
"3404",82.31327,467.27173
"3405",82.37675,467.28516
"3406",82.37919,467.29858
"3407",82.337685,467.312
"3408",82.252235,467.32544
"3409",82.125275,467.33887
"3410",81.96414,467.3523
"3411",81.778595,467.36572
"3412",81.57839,467.37915
"3413",81.38308,467.39258
"3414",81.20729,467.406
"3415",81.06325,467.41943
"3416",80.95094,467.43286
"3417",80.87282,467.4463
"3418",80.81911,467.45972
"3419",80.7776,467.47314
"3420",80.73609,467.48657
"3421",80.67994,467.5
"3422",80.59937,467.51343
"3423",80.49439,467.52686
"3424",80.35523,467.54028
"3425",80.19409,467.5537
"3426",80.01587,467.56714
"3427",79.82788,467.58057
"3428",79.63256,467.594
"3429",79.43969,467.60742
"3430",79.24925,467.62085
"3431",79.06615,467.63428
"3432",78.890366,467.6477
"3433",78.72678,467.66113
"3434",78.57542,467.67456
"3435",78.433815,467.688
"3436",78.30198,467.70142
"3437",78.18234,467.71484
"3438",78.07248,467.72827
"3439",77.97482,467.7417
"3440",77.891815,467.75513
"3441",77.821014,467.76855
"3442",77.75998,467.78198
"3443",77.70382,467.7954
"3444",77.65499,467.80884
"3445",77.60616,467.82227
"3446",77.55978,467.8357
"3447",77.51583,467.84912
"3448",77.47677,467.86255
"3449",77.437706,467.87598
"3450",77.40353,467.8894
"3451",77.36935,467.90283
"3452",77.33761,467.91626
"3453",77.30343,467.9297
"3454",77.27169,467.9431
"3455",77.2546,467.95654
"3456",77.26925,467.96997
"3457",77.347374,467.9834
"3458",77.52804,467.99683
"3459",77.84787,468.01025
"3460",78.3093,468.02368
"3461",78.90257,468.0371
"3462",79.57885,468.05054
"3463",80.274666,468.06396
"3464",80.92897,468.0774
"3465",81.4905,468.09082
"3466",81.934845,468.10425
"3467",82.252235,468.11768
"3468",82.45243,468.1311
"3469",82.55741,468.14453
"3470",82.58671,468.15796
"3471",82.562294,468.1714
"3472",82.493935,468.1848
"3473",82.39628,468.19824
"3474",82.266884,468.21167
"3475",82.10574,468.2251
"3476",81.91531,468.23853
"3477",81.71023,468.25195
"3478",81.50271,468.26538
"3479",81.31472,468.2788
"3480",81.15602,468.29224
"3481",81.041275,468.30566
"3482",80.96315,468.3191
"3483",80.91676,468.33252
"3484",80.88014,468.34595
"3485",80.84108,468.35938
"3486",80.782486,468.3728
"3487",80.70191,468.38623
"3488",80.59449,468.39966
"3489",80.46021,468.4131
"3490",80.306404,468.4265
"3491",80.14038,468.43994
"3492",79.96216,468.45337
"3493",79.77661,468.4668
"3494",79.5935,468.48022
"3495",79.41039,468.49365
"3496",79.23216,468.50708
"3497",79.05882,468.5205
"3498",78.89525,468.53394
"3499",78.74143,468.54736
"3500",78.59983,468.5608
"3501",78.47532,468.57422
"3502",78.363014,468.58765
"3503",78.260475,468.60107
"3504",78.170135,468.6145
"3505",78.08957,468.62793
"3506",78.013885,468.64136
"3507",77.945526,468.6548
"3508",77.88205,468.6682
"3509",77.82834,468.68164
"3510",77.78195,468.69507
"3511",77.74044,468.7085
"3512",77.70626,468.72192
"3513",77.67696,468.73535
"3514",77.64034,468.74878
"3515",77.60372,468.7622
"3516",77.55978,468.77563
"3517",77.51827,468.78906
"3518",77.47677,468.8025
"3519",77.44503,468.81592
"3520",77.41573,468.82935
"3521",77.39864,468.84277
"3522",77.40353,468.8562
"3523",77.44503,468.86963
"3524",77.557335,468.88306
"3525",77.77463,468.89648
"3526",78.12619,468.9099
"3527",78.6218,468.92334
"3528",79.237045,468.93677
"3529",79.923096,468.9502
"3530",80.61158,468.96362
"3531",81.23903,468.97705
"3532",81.75906,468.99048
"3533",82.15213,469.0039
"3534",82.41337,469.01733
"3535",82.564735,469.03076
"3536",82.62577,469.0442
"3537",82.62333,469.05762
"3538",82.56718,469.07104
"3539",82.47196,469.08447
"3540",82.34745,469.0979
"3541",82.196075,469.11133
"3542",82.01785,469.12476
"3543",81.829865,469.13818
"3544",81.636986,469.1516
"3545",81.45144,469.16504
"3546",81.28542,469.17847
"3547",81.143814,469.1919
"3548",81.03883,469.20532
"3549",80.96315,469.21875
"3550",80.91676,469.23218
"3551",80.88258,469.2456
"3552",80.850845,469.25903
"3553",80.80446,469.27246
"3554",80.73365,469.2859
"3555",80.63355,469.29932
"3556",80.50904,469.31274
"3557",80.365,469.32617
"3558",80.201416,469.3396
"3559",80.03052,469.35303
"3560",79.85718,469.36646
"3561",79.68139,469.37988
"3562",79.50561,469.3933
"3563",79.33715,469.40674
"3564",79.17357,469.42017
"3565",79.012436,469.4336
"3566",78.86595,469.44702
"3567",78.73167,469.46045
"3568",78.6096,469.47388
"3569",78.49485,469.4873
"3570",78.397194,469.50073
"3571",78.3093,469.51416
"3572",78.23117,469.5276
"3573",78.16037,469.54102
"3574",78.09689,469.55444
"3575",78.04074,469.56787
"3576",77.98703,469.5813
"3577",77.93576,469.59473
"3578",77.88937,469.60815
"3579",77.84543,469.62158
"3580",77.80148,469.635
"3581",77.75998,469.64844
"3582",77.72579,469.66187
"3583",77.69405,469.6753
"3584",77.66476,469.68872
"3585",77.64034,469.70215
"3586",77.62081,469.71558
"3587",77.60372,469.729
"3588",77.593956,469.74243
"3589",77.60128,469.75586
"3590",77.645226,469.7693
"3591",77.76486,469.7827
"3592",77.99191,469.79614
"3593",78.35081,469.80957
"3594",78.84154,469.823
"3595",79.43725,469.83643
"3596",80.08423,469.84985
"3597",80.71412,469.86328
"3598",81.27566,469.8767
"3599",81.72488,469.89014
"3600",82.05203,469.90356
"3601",82.262,469.917
"3602",82.371864,469.93042
"3603",82.4036,469.94385
"3604",82.371864,469.95728
"3605",82.29618,469.9707
"3606",82.18631,469.98413
"3607",82.05203,469.99756
"3608",81.89578,470.011
"3609",81.722435,470.0244
"3610",81.53933,470.03784
"3611",81.35378,470.05127
"3612",81.180435,470.0647
"3613",81.03151,470.07812
"3614",80.91676,470.09155
"3615",80.84108,470.10498
"3616",80.79469,470.1184
"3617",80.77516,470.13184
"3618",80.765396,470.14526
"3619",80.7483,470.1587
"3620",80.71412,470.17212
"3621",80.655525,470.18555
"3622",80.570076,470.19897
"3623",80.46021,470.2124
"3624",80.33082,470.22583
"3625",80.18677,470.23926
"3626",80.03784,470.2527
"3627",79.87915,470.2661
"3628",79.71801,470.27954
"3629",79.56664,470.29297
"3630",79.42016,470.3064
"3631",79.281,470.31982
"3632",79.151596,470.33325
"3633",79.03441,470.34668
"3634",78.92699,470.3601
"3635",78.83421,470.37354
"3636",78.751205,470.38696
"3637",78.677956,470.4004
"3638",78.6096,470.41382
"3639",78.54124,470.42725
"3640",78.47532,470.44067
"3641",78.41184,470.4541
"3642",78.348366,470.46753
"3643",78.28733,470.48096
"3644",78.22873,470.4944
"3645",78.17258,470.5078
"3646",78.118866,470.52124
"3647",78.07004,470.53467
"3648",78.030975,470.5481
"3649",77.99924,470.56152
"3650",77.97238,470.57495
"3651",77.94797,470.58838
"3652",77.92844,470.6018
"3653",77.908905,470.61523
"3654",77.89426,470.62866
"3655",77.89426,470.6421
"3656",77.93088,470.65552
"3657",78.02365,470.66895
"3658",78.19943,470.68237
"3659",78.487526,470.6958
"3660",78.90013,470.70923
"3661",79.41772,470.72266
"3662",80.0061,470.73608
"3663",80.60914,470.7495
"3664",81.16823,470.76294
"3665",81.634544,470.77637
"3666",81.988556,470.7898
"3667",82.22781,470.80322
"3668",82.35966,470.81665
"3669",82.41093,470.83008
"3670",82.39628,470.8435
"3671",82.3328,470.85693
"3672",82.230255,470.87036
"3673",82.09598,470.8838
"3674",81.934845,470.89722
"3675",81.761505,470.91064
"3676",81.58083,470.92407
"3677",81.40017,470.9375
"3678",81.231705,470.95093
"3679",81.08522,470.96436
"3680",80.96559,470.97778
"3681",80.88014,470.9912
"3682",80.82643,471.00464
"3683",80.80202,471.01807
"3684",80.78981,471.0315
"3685",80.7776,471.04492
"3686",80.75807,471.05835
"3687",80.71656,471.07178
"3688",80.65308,471.0852
"3689",80.56519,471.09863
"3690",80.46021,471.11206
"3691",80.33814,471.1255
"3692",80.20874,471.13892
"3693",80.06958,471.15234
"3694",79.92554,471.16577
"3695",79.77661,471.1792
"3696",79.63012,471.19263
"3697",79.48852,471.20605
"3698",79.35424,471.21948
"3699",79.23216,471.2329
"3700",79.11253,471.24634
"3701",79.00023,471.25977
"3702",78.89281,471.2732
"3703",78.79271,471.28662
"3704",78.69993,471.30005
"3705",78.61936,471.31348
"3706",78.54368,471.3269
"3707",78.47776,471.34033
"3708",78.41428,471.35376
"3709",78.35081,471.3672
"3710",78.2971,471.3806
"3711",78.25071,471.39404
"3712",78.21164,471.40747
"3713",78.1799,471.4209
"3714",78.15549,471.43433
"3715",78.135956,471.44775
"3716",78.118866,471.46118
"3717",78.099335,471.4746
"3718",78.07736,471.48804
"3719",78.05783,471.50146
"3720",78.04074,471.5149
"3721",78.03342,471.52832
"3722",78.048065,471.54175
"3723",78.10422,471.55518
"3724",78.22385,471.5686
"3725",78.43626,471.58203
"3726",78.75365,471.59546
"3727",79.17845,471.6089
"3728",79.68383,471.6223
"3729",80.233154,471.63574
"3730",80.77516,471.64917
"3731",81.26833,471.6626
"3732",81.67361,471.67603
"3733",81.98367,471.68945
"3734",82.18875,471.70288
"3735",82.30106,471.7163
"3736",82.337685,471.72974
"3737",82.31083,471.74316
"3738",82.23514,471.7566
"3739",82.125275,471.77002
"3740",81.986115,471.78345
"3741",81.82254,471.79688
"3742",81.64675,471.8103
"3743",81.46609,471.82373
"3744",81.287865,471.83716
"3745",81.12428,471.8506
"3746",80.98268,471.864
"3747",80.87282,471.87744
"3748",80.78737,471.89087
"3749",80.73853,471.9043
"3750",80.71656,471.91772
"3751",80.706795,471.93115
"3752",80.69947,471.94458
"3753",80.68726,471.958
"3754",80.655525,471.97144
"3755",80.604256,471.98486
"3756",80.52857,471.9983
"3757",80.430916,472.01172
"3758",80.31861,472.02515
"3759",80.19409,472.03857
"3760",80.06714,472.052
"3761",79.9353,472.06543
"3762",79.801025,472.07886
"3763",79.6643,472.0923
"3764",79.53002,472.1057
"3765",79.40063,472.11914
"3766",79.281,472.13257
"3767",79.17357,472.146
"3768",79.07103,472.15942
"3769",78.9807,472.17285
"3770",78.89769,472.18628
"3771",78.81712,472.1997
"3772",78.74387,472.21313
"3773",78.6804,472.22656
"3774",78.6218,472.24
"3775",78.56565,472.25342
"3776",78.51438,472.26685
"3777",78.47288,472.28027
"3778",78.4387,472.2937
"3779",78.40696,472.30713
"3780",78.37522,472.32056
"3781",78.345924,472.33398
"3782",78.314186,472.3474
"3783",78.28245,472.36084
"3784",78.25315,472.37427
"3785",78.22629,472.3877
"3786",78.204315,472.40112
"3787",78.19211,472.41455
"3788",78.19699,472.42798
"3789",78.23117,472.4414
"3790",78.32151,472.45483
"3791",78.48997,472.46826
"3792",78.75609,472.4817
"3793",79.1223,472.49512
"3794",79.58373,472.50854
"3795",80.10132,472.52197
"3796",80.63355,472.5354
"3797",81.129166,472.54883
"3798",81.55642,472.56226
"3799",81.89334,472.57568
"3800",82.13016,472.5891
"3801",82.269325,472.60254
"3802",82.33036,472.61597
"3803",82.32304,472.6294
"3804",82.262,472.64282
"3805",82.161896,472.65625
"3806",82.03494,472.66968
"3807",81.88602,472.6831
"3808",81.722435,472.69653
"3809",81.549095,472.70996
"3810",81.375755,472.7234
"3811",81.21217,472.73682
"3812",81.06325,472.75024
"3813",80.94118,472.76367
"3814",80.84596,472.7771
"3815",80.780045,472.79053
"3816",80.743416,472.80396
"3817",80.723885,472.81738
"3818",80.719,472.8308
"3819",80.71412,472.84424
"3820",80.69703,472.85767
"3821",80.65797,472.8711
"3822",80.59693,472.88452
"3823",80.51392,472.89795
"3824",80.40894,472.91138
"3825",80.29664,472.9248
"3826",80.177,472.93823
"3827",80.05493,472.95166
"3828",79.93286,472.9651
"3829",79.81323,472.97852
"3830",79.68871,472.99194
"3831",79.569084,473.00537
"3832",79.45678,473.0188
"3833",79.34936,473.03223
"3834",79.24437,473.04565
"3835",79.14671,473.05908
"3836",79.05394,473.0725
"3837",78.96361,473.08594
"3838",78.87816,473.09937
"3839",78.79759,473.1128
"3840",78.72678,473.12622
"3841",78.660866,473.13965
"3842",78.60471,473.15308
"3843",78.55833,473.1665
"3844",78.521706,473.17993
"3845",78.485085,473.19336
"3846",78.44846,473.2068
"3847",78.4094,473.2202
"3848",78.37034,473.23364
"3849",78.33616,473.24707
"3850",78.30686,473.2605
"3851",78.28489,473.27393
"3852",78.2678,473.28735
"3853",78.25315,473.30078
"3854",78.25315,473.3142
"3855",78.28001,473.32764
"3856",78.35081,473.34106
"3857",78.485085,473.3545
"3858",78.70481,473.36792
"3859",79.01976,473.38135
"3860",79.42504,473.39478
"3861",79.90845,473.4082
"3862",80.428474,473.42163
"3863",80.94118,473.43506
"3864",81.409935,473.4485
"3865",81.80789,473.4619
"3866",82.11551,473.47534
"3867",82.32792,473.48877
"3868",82.45243,473.5022
"3869",82.5037,473.51562
"3870",82.49149,473.52905
"3871",82.42802,473.54248
"3872",82.32548,473.5559
"3873",82.193634,473.56934
"3874",82.039825,473.58276
"3875",81.86893,473.5962
"3876",81.688255,473.60962
"3877",81.50759,473.62305
"3878",81.339134,473.63647
"3879",81.1902,473.6499
"3880",81.06813,473.66333
"3881",80.972916,473.67676
"3882",80.90944,473.6902
"3883",80.86549,473.7036
"3884",80.8362,473.71704
"3885",80.8069,473.73047
"3886",80.77516,473.7439
"3887",80.73121,473.75732
"3888",80.672615,473.77075
"3889",80.59937,473.78418
"3890",80.51148,473.7976
"3891",80.413826,473.81104
"3892",80.30152,473.82446
"3893",80.18677,473.8379
"3894",80.0647,473.85132
"3895",79.94507,473.86475
"3896",79.82788,473.87817
"3897",79.71313,473.8916
"3898",79.59838,473.90503
"3899",79.47875,473.91846
"3900",79.361565,473.9319
"3901",79.24681,473.9453
"3902",79.13939,473.95874
"3903",79.04173,473.97217
"3904",78.9514,473.9856
"3905",78.870834,473.99902
"3906",78.80003,474.01245
"3907",78.73411,474.02588
"3908",78.67307,474.0393
"3909",78.61936,474.05273
"3910",78.56565,474.06616
"3911",78.51194,474.0796
"3912",78.46067,474.09302
"3913",78.41917,474.10645
"3914",78.38499,474.11987
"3915",78.35569,474.1333
"3916",78.32639,474.14673
"3917",78.29954,474.16016
"3918",78.27512,474.17358
"3919",78.24826,474.187
"3920",78.23117,474.20044
"3921",78.22873,474.21387
"3922",78.25803,474.2273
"3923",78.33616,474.24072
"3924",78.48997,474.25415
"3925",78.73899,474.26758
"3926",79.08324,474.281
"3927",79.51537,474.29443
"3928",80.008545,474.30786
"3929",80.53101,474.3213
"3930",81.041275,474.33472
"3931",81.50515,474.34814
"3932",81.89334,474.36157
"3933",82.19119,474.375
"3934",82.391396,474.38843
"3935",82.5037,474.40186
"3936",82.54276,474.41528
"3937",82.51835,474.4287
"3938",82.44755,474.44214
"3939",82.340126,474.45557
"3940",82.20584,474.469
"3941",82.04959,474.48242
"3942",81.881134,474.49585
"3943",81.705345,474.50928
"3944",81.529564,474.5227
"3945",81.36599,474.53613
"3946",81.22438,474.54956
"3947",81.10719,474.563
"3948",81.0193,474.57642
"3949",80.955826,474.58984
"3950",80.90944,474.60327
"3951",80.87282,474.6167
"3952",80.84352,474.63013
"3953",80.80934,474.64355
"3954",80.765396,474.65698
"3955",80.706795,474.6704
"3956",80.63355,474.68384
"3957",80.54322,474.69727
"3958",80.4358,474.7107
"3959",80.31861,474.72412
"3960",80.19653,474.73755
"3961",80.07446,474.75098
"3962",79.95239,474.7644
"3963",79.83276,474.77783
"3964",79.71557,474.79126
"3965",79.60082,474.8047
"3966",79.48852,474.8181
"3967",79.37621,474.83154
"3968",79.26879,474.84497
"3969",79.168686,474.8584
"3970",79.078354,474.87183
"3971",78.99046,474.88525
"3972",78.905014,474.89868
"3973",78.82689,474.9121
"3974",78.75609,474.92554
"3975",78.69016,474.93896
"3976",78.63157,474.9524
"3977",78.5803,474.96582
"3978",78.53147,474.97925
"3979",78.485085,474.99268
"3980",78.44358,475.0061
"3981",78.40696,475.01953
"3982",78.37278,475.03296
"3983",78.3386,475.0464
"3984",78.30686,475.0598
"3985",78.28245,475.07324
"3986",78.26536,475.08667
"3987",78.26536,475.1001
"3988",78.29954,475.11353
"3989",78.38499,475.12695
"3990",78.538795,475.14038
"3991",78.7805,475.1538
"3992",79.114975,475.16724
"3993",79.54467,475.18066
"3994",80.0354,475.1941
"3995",80.55787,475.20752
"3996",81.06569,475.22095
"3997",81.51736,475.23438
"3998",81.88846,475.2478
"3999",82.16678,475.26123
"4000",82.35233,475.27466
"4001",82.45243,475.2881
"4002",82.48173,475.3015
"4003",82.45487,475.31494
"4004",82.37675,475.32837
"4005",82.25712,475.3418
"4006",82.10574,475.35522
"4007",81.934845,475.36865
"4008",81.75174,475.38208
"4009",81.56863,475.3955
"4010",81.39529,475.40894
"4011",81.24147,475.42236
"4012",81.11452,475.4358
"4013",81.01686,475.44922
"4014",80.94606,475.46265
"4015",80.89967,475.47607
"4016",80.87038,475.4895
"4017",80.848404,475.50293
"4018",80.82399,475.51636
"4019",80.79225,475.5298
"4020",80.75075,475.5432
"4021",80.69703,475.55664
"4022",80.62623,475.57007
"4023",80.54322,475.5835
"4024",80.448006,475.59692
"4025",80.343025,475.61035
"4026",80.233154,475.62378
"4027",80.11597,475.6372
"4028",79.9939,475.65063
"4029",79.8645,475.66406
"4030",79.7351,475.6775
"4031",79.605705,475.69092
"4032",79.48608,475.70435
"4033",79.37133,475.71777
"4034",79.26635,475.7312
"4035",79.166245,475.74463
"4036",79.07103,475.75806
"4037",78.97826,475.77148
"4038",78.89525,475.7849
"4039",78.819565,475.79834
"4040",78.75365,475.81177
"4041",78.695045,475.8252
"4042",78.641335,475.83862
"4043",78.58762,475.85205
"4044",78.536354,475.86548
"4045",78.487526,475.8789
"4046",78.44358,475.89233
"4047",78.40452,475.90576
"4048",78.37034,475.9192
"4049",78.34104,475.93262
"4050",78.31663,475.94604
"4051",78.29954,475.95947
"4052",78.30198,475.9729
"4053",78.34104,475.98633
"4054",78.433815,475.99976
"4055",78.59495,476.01318
"4056",78.84154,476.0266
"4057",79.17845,476.04004
"4058",79.588615,476.05347
"4059",80.04761,476.0669
"4060",80.51881,476.08032
"4061",80.96559,476.09375
"4062",81.358665,476.10718
"4063",81.67605,476.1206
"4064",81.90555,476.13403
"4065",82.054474,476.14746
"4066",82.12283,476.1609
"4067",82.12039,476.17432
"4068",82.0618,476.18774
"4069",81.9617,476.20117
"4070",81.82742,476.2146
"4071",81.668724,476.22803
"4072",81.495384,476.24146
"4073",81.31716,476.25488
"4074",81.14137,476.2683
"4075",80.9778,476.28174
"4076",80.84108,476.29517
"4077",80.73121,476.3086
"4078",80.65308,476.32202
"4079",80.59937,476.33545
"4080",80.57496,476.34888
"4081",80.56519,476.3623
"4082",80.567635,476.37573
"4083",80.567635,476.38916
"4084",80.56031,476.4026
"4085",80.53101,476.41602
"4086",80.48707,476.42944
"4087",80.42359,476.44287
"4088",80.35035,476.4563
"4089",80.26002,476.46973
"4090",80.164795,476.48315
"4091",80.0647,476.49658
"4092",79.957275,476.51
"4093",79.84497,476.52344
"4094",79.73022,476.53687
"4095",79.61547,476.5503
"4096",79.50317,476.56372
"4097",79.39086,476.57715
"4098",79.28588,476.59058
"4099",79.185776,476.604
"4100",79.09544,476.61743
"4101",79.00511,476.63086
"4102",78.924545,476.6443
"4103",78.84886,476.6577
"4104",78.77806,476.67114
"4105",78.709694,476.68457
"4106",78.65354,476.698
"4107",78.60227,476.71143
"4108",78.555885,476.72485
"4109",78.51194,476.73828
"4110",78.47288,476.7517
"4111",78.43626,476.76514
"4112",78.40696,476.77856
"4113",78.38499,476.792
"4114",78.382545,476.80542
"4115",78.40452,476.81885
"4116",78.46555,476.83228
"4117",78.58762,476.8457
"4118",78.785385,476.85913
"4119",79.06615,476.87256
"4120",79.42748,476.886
"4121",79.84497,476.8994
"4122",80.28199,476.91284
"4123",80.709236,476.92627
"4124",81.094986,476.9397
"4125",81.41482,476.95312
"4126",81.6614,476.96655
"4127",81.829865,476.97998
"4128",81.92264,476.9934
"4129",81.951935,477.00684
"4130",81.9202,477.02026
"4131",81.83719,477.0337
"4132",81.71511,477.04712
"4133",81.566185,477.06055
"4134",81.392845,477.07397
"4135",81.214615,477.0874
"4136",81.03639,477.10083
"4137",80.87282,477.11426
"4138",80.73121,477.1277
"4139",80.61402,477.1411
"4140",80.533455,477.15454
"4141",80.48707,477.16797
"4142",80.462654,477.1814
"4143",80.46021,477.19482
"4144",80.46998,477.20825
"4145",80.47486,477.22168
"4146",80.46754,477.2351
"4147",80.45045,477.24854
"4148",80.42115,477.26196
"4149",80.37232,477.2754
"4150",80.308846,477.28882
"4151",80.22827,477.30225
"4152",80.1355,477.31567
"4153",80.0354,477.3291
"4154",79.93286,477.34253
"4155",79.83032,477.35596
"4156",79.725334,477.3694
"4157",79.62035,477.3828
"4158",79.51049,477.39624
"4159",79.40063,477.40967
"4160",79.29809,477.4231
"4161",79.200424,477.43652
"4162",79.10765,477.44995
"4163",79.01976,477.46338
"4164",78.941635,477.4768
"4165",78.870834,477.49023
"4166",78.80492,477.50366
"4167",78.74387,477.5171
"4168",78.68772,477.53052
"4169",78.63401,477.54395
"4170",78.58762,477.55737
"4171",78.54612,477.5708
"4172",78.51194,477.58423
"4173",78.48997,477.59766
"4174",78.485085,477.61108
"4175",78.49973,477.6245
"4176",78.555885,477.63794
"4177",78.67307,477.65137
"4178",78.86107,477.6648
"4179",79.12718,477.67822
"4180",79.4641,477.69165
"4181",79.85474,477.70508
"4182",80.26734,477.7185
"4183",80.67017,477.73193
"4184",81.03151,477.74536
"4185",81.33669,477.7588
"4186",81.57107,477.77222
"4187",81.73464,477.78564
"4188",81.82742,477.79907
"4189",81.85184,477.8125
"4190",81.82254,477.82593
"4191",81.74685,477.83936
"4192",81.62478,477.85278
"4193",81.47097,477.8662
"4194",81.30007,477.87964
"4195",81.12184,477.89307
"4196",80.9485,477.9065
"4197",80.79225,477.91992
"4198",80.65797,477.93335
"4199",80.552986,477.94678
"4200",80.479744,477.9602
"4201",80.43824,477.97363
"4202",80.42603,477.98706
"4203",80.4358,478.0005
"4204",80.45777,478.01392
"4205",80.47486,478.02734
"4206",80.479744,478.04077
"4207",80.46754,478.0542
"4208",80.43824,478.06763
"4209",80.394295,478.08105
"4210",80.33814,478.09448
"4211",80.26978,478.1079
"4212",80.19409,478.12134
"4213",80.111084,478.13477
"4214",80.01831,478.1482
"4215",79.920654,478.16162
"4216",79.815674,478.17505
"4217",79.708244,478.18848
"4218",79.60082,478.2019
"4219",79.4934,478.21533
"4220",79.38842,478.22876
"4221",79.28344,478.2422
"4222",79.185776,478.2556
"4223",79.093,478.26904
"4224",79.009995,478.28247
"4225",78.93675,478.2959
"4226",78.87572,478.30933
"4227",78.819565,478.32275
"4228",78.765854,478.33618
"4229",78.712135,478.3496
"4230",78.658424,478.36304
"4231",78.61936,478.37646
"4232",78.607155,478.3899
"4233",78.641335,478.40332
"4234",78.73411,478.41675
"4235",78.89525,478.43018
"4236",79.12962,478.4436
"4237",79.429924,478.45703
"4238",79.77661,478.47046
"4239",80.14526,478.4839
"4240",80.50416,478.4973
"4241",80.82887,478.51074
"4242",81.09743,478.52417
"4243",81.30251,478.5376
"4244",81.444115,478.55103
"4245",81.5198,478.56445
"4246",81.53933,478.57788
"4247",81.50515,478.5913
"4248",81.42947,478.60474
"4249",81.31716,478.61816
"4250",81.18288,478.6316
"4251",81.02907,478.64502
"4252",80.87282,478.65845
"4253",80.719,478.67188
"4254",80.57496,478.6853
"4255",80.448006,478.69873
"4256",80.34791,478.71216
"4257",80.274666,478.7256
"4258",80.233154,478.739
"4259",80.218506,478.75244
"4260",80.22583,478.76587
"4261",80.25025,478.7793
"4262",80.27711,478.79272
"4263",80.2942,478.80615
"4264",80.30152,478.81958
"4265",80.2942,478.833
"4266",80.26734,478.84644
"4267",80.22339,478.85986
"4268",80.16235,478.8733
"4269",80.09155,478.88672
"4270",80.008545,478.90015
"4271",79.923096,478.91357
"4272",79.83765,478.927
"4273",79.75464,478.94043
"4274",79.67162,478.95386
"4275",79.58373,478.9673
"4276",79.49584,478.9807
"4277",79.40795,478.99414
"4278",79.31518,479.00757
"4279",79.22484,479.021
"4280",79.13939,479.03442
"4281",79.05882,479.04785
"4282",78.99046,479.06128
"4283",78.94652,479.0747
"4284",78.94408,479.08813
"4285",79.00267,479.10156
"4286",79.13451,479.115
"4287",79.344475,479.12842
"4288",79.622795,479.14185
"4289",79.95239,479.15527
"4290",80.306404,479.1687
"4291",80.66285,479.18213
"4292",80.990005,479.19556
"4293",81.27566,479.20898
"4294",81.50515,479.2224
"4295",81.66628,479.23584
"4296",81.75418,479.24927
"4297",81.78104,479.2627
"4298",81.74929,479.27612
"4299",81.67605,479.28955
"4300",81.5613,479.30298
"4301",81.42214,479.3164
"4302",81.26345,479.32983
"4303",81.09743,479.34326
"4304",80.93141,479.3567
"4305",80.780045,479.37012
"4306",80.65064,479.38354
"4307",80.5481,479.39697
"4308",80.47486,479.4104
"4309",80.428474,479.42383
"4310",80.4065,479.43726
"4311",80.4065,479.45068
"4312",80.42115,479.4641
"4313",80.4358,479.47754
"4314",80.44312,479.49097
"4315",80.43336,479.5044
"4316",80.40894,479.51782
"4317",80.365,479.53125
"4318",80.308846,479.54468
"4319",80.24292,479.5581
"4320",80.16724,479.57153
"4321",80.079346,479.58496
"4322",79.98657,479.5984
"4323",79.89136,479.61182
"4324",79.7937,479.62524
"4325",79.69848,479.63867
"4326",79.59838,479.6521
"4327",79.49584,479.66553
"4328",79.3933,479.67896
"4329",79.29809,479.69238
"4330",79.217514,479.7058
"4331",79.166245,479.71924
"4332",79.168686,479.73267
"4333",79.22972,479.7461
"4334",79.36889,479.75952
"4335",79.588615,479.77295
"4336",79.88403,479.78638
"4337",80.233154,479.7998
"4338",80.60914,479.81323
"4339",80.98268,479.82666
"4340",81.32937,479.8401
"4341",81.62722,479.85352
"4342",81.866486,479.86694
"4343",82.037384,479.88037
"4344",82.142365,479.8938
"4345",82.176544,479.90723
"4346",82.15213,479.92065
"4347",82.07889,479.93408
"4348",81.95926,479.9475
"4349",81.80545,479.96094
"4350",81.62966,479.97437
"4351",81.44167,479.9878
"4352",81.253685,480.00122
"4353",81.077896,480.01465
"4354",80.92653,480.02808
"4355",80.80934,480.0415
"4356",80.73121,480.05493
"4357",80.68726,480.06836
"4358",80.672615,480.0818
"4359",80.672615,480.0952
"4360",80.672615,480.10864
"4361",80.66773,480.12207
"4362",80.6482,480.1355
"4363",80.61646,480.14893
"4364",80.567635,480.16235
"4365",80.50416,480.17578
"4366",80.42359,480.1892
"4367",80.33326,480.20264
"4368",80.23071,480.21606
"4369",80.128174,480.2295
"4370",80.01831,480.24292
"4371",79.903564,480.25635
"4372",79.781494,480.26978
"4373",79.65453,480.2832
"4374",79.52514,480.29663
"4375",79.40063,480.31006
"4376",79.290764,480.3235
"4377",79.20531,480.3369
"4378",79.16136,480.35034
"4379",79.18089,480.36377
"4380",79.281,480.3772
"4381",79.47875,480.39062
"4382",79.75952,480.40405
"4383",80.111084,480.41748
"4384",80.50416,480.4309
"4385",80.89967,480.44434
"4386",81.27566,480.45776
"4387",81.60525,480.4712
"4388",81.87137,480.48462
"4389",82.06912,480.49805
"4390",82.20096,480.51147
"4391",82.25956,480.5249
"4392",82.25468,480.53833
"4393",82.196075,480.55176
"4394",82.08133,480.5652
"4395",81.92752,480.5786
"4396",81.739525,480.59204
"4397",81.53933,480.60547
"4398",81.33425,480.6189
"4399",81.14137,480.63232
"4400",80.970474,480.64575
"4401",80.833755,480.65918
"4402",80.73121,480.6726
"4403",80.66529,480.68604
"4404",80.62867,480.69946
"4405",80.61158,480.7129
"4406",80.601814,480.72632
"4407",80.58228,480.73975
"4408",80.550545,480.75317
"4409",80.50172,480.7666
"4410",80.4358,480.78003
"4411",80.35279,480.79346
"4412",80.257576,480.8069
"4413",80.147705,480.8203
"4414",80.02319,480.83374
"4415",79.888916,480.84717
"4416",79.75464,480.8606
"4417",79.61791,480.87402
"4418",79.48119,480.88745
"4419",79.34692,480.90088
"4420",79.219955,480.9143
"4421",79.09544,480.92773
"4422",78.98314,480.94116
"4423",78.90257,480.9546
"4424",78.870834,480.96802
"4425",78.9099,480.98145
"4426",79.03929,480.99487
"4427",79.26391,481.0083
"4428",79.58129,481.02173
"4429",79.96216,481.03516
"4430",80.377205,481.04858
"4431",80.79469,481.062
"4432",81.180435,481.07544
"4433",81.514915,481.08887
"4434",81.78592,481.1023
"4435",81.98367,481.11572
"4436",82.108185,481.12915
"4437",82.15701,481.14258
"4438",82.13748,481.156
"4439",82.05936,481.16943
"4440",81.92996,481.18286
"4441",81.76639,481.1963
"4442",81.57839,481.20972
"4443",81.38552,481.22314
"4444",81.19997,481.23657
"4445",81.03151,481.25
"4446",80.88747,481.26343
"4447",80.77028,481.27686
"4448",80.67994,481.29028
"4449",80.61402,481.3037
"4450",80.567635,481.31714
"4451",80.533455,481.33057
"4452",80.5066,481.344
"4453",80.46998,481.35742
"4454",80.42359,481.37085
"4455",80.360115,481.38428
"4456",80.272224,481.3977
"4457",80.164795,481.41113
"4458",80.042725,481.42456
"4459",79.903564,481.438
"4460",79.74975,481.45142
"4461",79.588615,481.46484
"4462",79.432365,481.47827
"4463",79.273674,481.4917
"4464",79.1223,481.50513
"4465",78.97826,481.51855
"4466",78.84154,481.53198
"4467",78.70237,481.5454
"4468",78.572975,481.55884
"4469",78.450905,481.57227
"4470",78.35569,481.5857
"4471",78.30442,481.59912
"4472",78.42405,481.62598
"4473",78.641335,481.6394
"4474",78.96849,481.65283
"4475",79.38354,481.66626
"4476",79.86206,481.6797
"4477",80.360115,481.6931
"4478",80.83864,481.70654
"4479",81.270775,481.71997
"4480",81.636986,481.7334
"4481",81.9202,481.74683
"4482",82.12283,481.76025
"4483",82.24002,481.77368
"4484",82.28886,481.7871
"4485",82.27421,481.80054
"4486",82.210724,481.81396
"4487",82.10086,481.8274
"4488",81.94949,481.84082
"4489",81.76395,481.85425
"4490",81.55886,481.86768
"4491",81.34646,481.8811
"4492",81.143814,481.89453
"4493",80.97536,481.90796
"4494",80.84352,481.9214
"4495",80.75075,481.9348
"4496",80.69459,481.94824
"4497",80.66285,481.96167
"4498",80.638435,481.9751
"4499",80.61158,481.98853
"4500",80.570076,482.00195
"4501",80.50904,482.01538
"4502",80.42359,482.0288
"4503",80.31373,482.04224
"4504",80.18921,482.05566
"4505",80.05005,482.0691
"4506",79.8938,482.08252
"4507",79.725334,482.09595
"4508",79.551994,482.10938
"4509",79.37377,482.1228
"4510",79.19798,482.13623
"4511",79.027084,482.14966
"4512",78.86351,482.1631
"4513",78.70725,482.1765
"4514",78.56077,482.18994
"4515",78.41917,482.20337
"4516",78.29221,482.2168
