"","ppg","time"
"1",80.17456,50.528564
"2",80.13306,50.541992
"3",80.096436,50.55542
"4",80.06958,50.568848
"5",80.05005,50.582275
"6",80.03784,50.595703
"7",80.03052,50.60913
"8",80.01099,50.62256
"9",79.98413,50.635986
"10",79.94507,50.649414
"11",79.89868,50.66284
"12",79.84009,50.67627
"13",79.781494,50.689697
"14",79.725334,50.703125
"15",79.68383,50.716553
"16",79.65942,50.72998
"17",79.65453,50.74341
"18",79.67162,50.756836
"19",79.70092,50.770264
"20",79.744865,50.78369
"21",79.7937,50.79712
"22",79.84741,50.810547
"23",79.906006,50.823975
"24",79.974365,50.837402
"25",80.04028,50.85083
"26",80.1062,50.864258
"27",80.17212,50.877686
"28",80.235596,50.891113
"29",80.291756,50.90454
"30",80.33814,50.91797
"31",80.37232,50.931396
"32",80.39185,50.944824
"33",80.394295,50.958252
"34",80.38209,50.97168
"35",80.34791,50.985107
"36",80.29664,50.998535
"37",80.22583,51.011963
"38",80.14526,51.02539
"39",80.059814,51.03882
"40",79.98169,51.052246
"41",79.91577,51.065674
"42",79.85718,51.0791
"43",79.801025,51.09253
"44",79.7522,51.105957
"45",79.708244,51.119385
"46",79.66918,51.132812
"47",79.63744,51.14624
"48",79.62035,51.159668
"49",79.605705,51.173096
"50",79.588615,51.186523
"51",79.569084,51.19995
"52",79.54955,51.21338
"53",79.53246,51.226807
"54",79.51537,51.240234
"55",79.49828,51.253662
"56",79.48852,51.26709
"57",79.48119,51.280518
"58",79.47875,51.293945
"59",79.48119,51.307373
"60",79.483635,51.3208
"61",79.48852,51.33423
"62",79.48608,51.347656
"63",79.48119,51.361084
"64",79.47387,51.37451
"65",79.45678,51.38794
"66",79.429924,51.401367
"67",79.38842,51.414795
"68",79.32494,51.428223
"69",79.25414,51.44165
"70",79.185776,51.45508
"71",79.12718,51.468506
"72",79.08812,51.481934
"73",79.07347,51.49536
"74",79.07591,51.50879
"75",79.093,51.522217
"76",79.11986,51.535645
"77",79.15892,51.549072
"78",79.21507,51.5625
"79",79.290764,51.575928
"80",79.38842,51.589355
"81",79.51049,51.602783
"82",79.65209,51.61621
"83",79.80591,51.62964
"84",79.95972,51.643066
"85",80.1062,51.656494
"86",80.233154,51.66992
"87",80.34058,51.68335
"88",80.430916,51.696777
"89",80.50416,51.710205
"90",80.56275,51.723633
"91",80.60914,51.73706
"92",80.64332,51.75049
"93",80.66041,51.763916
"94",80.65308,51.777344
"95",80.62867,51.79077
"96",80.58961,51.8042
"97",80.53834,51.817627
"98",80.482185,51.831055
"99",80.41627,51.844482
"100",80.34547,51.85791
"101",80.26734,51.871338
"102",80.181885,51.884766
"103",80.09888,51.898193
"104",80.02319,51.91162
"105",79.957275,51.92505
"106",79.91089,51.938477
"107",79.88159,51.951904
"108",79.871826,51.965332
"109",79.869385,51.97876
"110",79.871826,51.992188
"111",79.869385,52.005615
"112",79.85474,52.019043
"113",79.823,52.03247
"114",79.77417,52.0459
"115",79.71557,52.059326
"116",79.64965,52.072754
"117",79.58373,52.08618
"118",79.5227,52.09961
"119",79.4641,52.113037
"120",79.412834,52.126465
"121",79.36645,52.139893
"122",79.32494,52.15332
"123",79.293205,52.166748
"124",79.26391,52.180176
"125",79.234604,52.193604
"126",79.20775,52.20703
"127",79.185776,52.22046
"128",79.17357,52.233887
"129",79.17357,52.247314
"130",79.19554,52.260742
"131",79.23949,52.27417
"132",79.30297,52.287598
"133",79.38354,52.301025
"134",79.483635,52.314453
"135",79.59594,52.32788
"136",79.71313,52.34131
"137",79.83276,52.354736
"138",79.94507,52.368164
"139",80.045166,52.38159
"140",80.12573,52.39502
"141",80.19165,52.408447
"142",80.24048,52.421875
"143",80.27711,52.435303
"144",80.30396,52.44873
"145",80.32105,52.46216
"146",80.32838,52.475586
"147",80.32105,52.489014
"148",80.30396,52.50244
"149",80.272224,52.51587
"150",80.23071,52.529297
"151",80.181885,52.542725
"152",80.128174,52.556152
"153",80.07202,52.56958
"154",80.028076,52.583008
"155",80.00122,52.596436
"156",79.991455,52.609863
"157",79.99634,52.62329
"158",80.01099,52.63672
"159",80.02319,52.650146
"160",80.01587,52.663574
"161",79.98657,52.677002
"162",79.9353,52.69043
"163",79.871826,52.703857
"164",79.801025,52.717285
"165",79.73266,52.730713
"166",79.674065,52.74414
"167",79.62524,52.75757
"168",79.586174,52.770996
"169",79.55932,52.784424
"170",79.54223,52.79785
"171",79.534904,52.81128
"172",79.53246,52.824707
"173",79.537346,52.838135
"174",79.53979,52.851562
"175",79.54711,52.86499
"176",79.551994,52.878418
"177",79.554436,52.891846
"178",79.54955,52.905273
"179",79.53979,52.9187
"180",79.53002,52.93213
"181",79.520256,52.945557
"182",79.51537,52.958984
"183",79.517815,52.972412
"184",79.520256,52.98584
"185",79.53002,52.999268
"186",79.55688,53.012695
"187",79.61059,53.026123
"188",79.693596,53.03955
"189",79.801025,53.05298
"190",79.93286,53.066406
"191",80.07446,53.079834
"192",80.20874,53.09326
"193",80.325935,53.10669
"194",80.42603,53.120117
"195",80.5066,53.133545
"196",80.56275,53.146973
"197",80.59937,53.1604
"198",80.61646,53.17383
"199",80.618904,53.187256
"200",80.60914,53.200684
"201",80.58961,53.21411
"202",80.552986,53.22754
"203",80.5066,53.240967
"204",80.45045,53.254395
"205",80.38453,53.267822
"206",80.31861,53.28125
"207",80.26246,53.294678
"208",80.218506,53.308105
"209",80.19165,53.321533
"210",80.16968,53.33496
"211",80.15503,53.34839
"212",80.14038,53.361816
"213",80.12573,53.375244
"214",80.10864,53.38867
"215",80.08667,53.4021
"216",80.062256,53.415527
"217",80.042725,53.428955
"218",80.025635,53.442383
"219",80.01099,53.45581
"220",80.00366,53.46924
"221",80.0061,53.482666
"222",80.01343,53.496094
"223",80.025635,53.50952
"224",80.04761,53.52295
"225",80.079346,53.536377
"226",80.128174,53.549805
"227",80.18677,53.563232
"228",80.25269,53.57666
"229",80.31617,53.590088
"230",80.36988,53.603516
"231",80.40406,53.616943
"232",80.42359,53.63037
"233",80.43336,53.6438
"234",80.43824,53.657227
"235",80.43336,53.670654
"236",80.430916,53.684082
"237",80.428474,53.69751
"238",80.428474,53.710938
"239",80.430916,53.724365
"240",80.445564,53.737793
"241",80.462654,53.75122
"242",80.48463,53.76465
"243",80.51881,53.778076
"244",80.56275,53.791504
"245",80.62379,53.80493
"246",80.69703,53.81836
"247",80.780045,53.831787
"248",80.86549,53.845215
"249",80.95094,53.858643
"250",81.03395,53.87207
"251",81.11696,53.885498
"252",81.19508,53.898926
"253",81.26833,53.912354
"254",81.32937,53.92578
"255",81.375755,53.93921
"256",81.40261,53.952637
"257",81.41238,53.966064
"258",81.40017,53.979492
"259",81.36599,53.99292
"260",81.31228,54.006348
"261",81.23903,54.019775
"262",81.15358,54.033203
"263",81.06813,54.04663
"264",80.990005,54.06006
"265",80.919205,54.073486
"266",80.85817,54.086914
"267",80.80934,54.10034
"268",80.76784,54.11377
"269",80.73121,54.127197
"270",80.69703,54.140625
"271",80.66285,54.154053
"272",80.62379,54.16748
"273",80.58228,54.18091
"274",80.5359,54.194336
"275",80.479744,54.207764
"276",80.41871,54.22119
"277",80.35279,54.23462
"278",80.289314,54.248047
"279",80.22339,54.261475
"280",80.15991,54.274902
"281",80.093994,54.28833
"282",80.01587,54.301758
"283",79.923096,54.315186
"284",79.82056,54.328613
"285",79.710686,54.34204
"286",79.61059,54.35547
"287",79.52514,54.368896
"288",79.45678,54.382324
"289",79.40063,54.395752
"290",79.35668,54.40918
"291",79.31762,54.422607
"292",79.28588,54.436035
"293",79.26147,54.449463
"294",79.2517,54.46289
"295",79.26391,54.47632
"296",79.293205,54.489746
"297",79.34936,54.503174
"298",79.42748,54.5166
"299",79.52514,54.53003
"300",79.62768,54.543457
"301",79.73022,54.556885
"302",79.823,54.570312
"303",79.906006,54.58374
"304",79.97925,54.597168
"305",80.03784,54.610596
"306",80.08179,54.624023
"307",80.113525,54.63745
"308",80.130615,54.65088
"309",80.1355,54.664307
"310",80.13306,54.677734
"311",80.128174,54.691162
"312",80.11841,54.70459
"313",80.11841,54.718018
"314",80.12329,54.731445
"315",80.130615,54.744873
"316",80.14282,54.7583
"317",80.15503,54.77173
"318",80.164795,54.785156
"319",80.16724,54.798584
"320",80.164795,54.81201
"321",80.15503,54.82544
"322",80.1355,54.838867
"323",80.10376,54.852295
"324",80.062256,54.865723
"325",80.01343,54.87915
"326",79.9646,54.89258
"327",79.91333,54.906006
"328",79.8645,54.919434
"329",79.818115,54.93286
"330",79.77173,54.94629
"331",79.727776,54.959717
"332",79.68627,54.973145
"333",79.64233,54.986572
"334",79.59594,55
"335",79.54711,55.013428
"336",79.49828,55.026855
"337",79.4519,55.040283
"338",79.40795,55.05371
"339",79.36889,55.06714
"340",79.33715,55.080566
"341",79.310295,55.093994
"342",79.28344,55.10742
"343",79.25414,55.12085
"344",79.2224,55.134277
"345",79.19554,55.147705
"346",79.17845,55.161133
"347",79.17113,55.17456
"348",79.185776,55.18799
"349",79.22972,55.201416
"350",79.30785,55.214844
"351",79.412834,55.22827
"352",79.534904,55.2417
"353",79.66674,55.255127
"354",79.79126,55.268555
"355",79.8938,55.281982
"356",79.98413,55.29541
"357",80.05737,55.308838
"358",80.11597,55.322266
"359",80.16724,55.335693
"360",80.20874,55.34912
"361",80.2478,55.36255
"362",80.28199,55.375977
"363",80.31129,55.389404
"364",80.33814,55.402832
"365",80.36256,55.41626
"366",80.37965,55.429688
"367",80.38941,55.443115
"368",80.39918,55.456543
"369",80.40894,55.46997
"370",80.41871,55.4834
"371",80.42603,55.496826
"372",80.43824,55.510254
"373",80.448006,55.52368
"374",80.45533,55.53711
"375",80.45289,55.550537
"376",80.44312,55.563965
"377",80.42359,55.577393
"378",80.40162,55.59082
"379",80.37965,55.604248
"380",80.35767,55.617676
"381",80.33326,55.631104
"382",80.31129,55.64453
"383",80.28443,55.65796
"384",80.25025,55.671387
"385",80.21118,55.684814
"386",80.16968,55.698242
"387",80.12085,55.71167
"388",80.06958,55.725098
"389",80.01831,55.738525
"390",79.971924,55.751953
"391",79.93042,55.76538
"392",79.8938,55.77881
"393",79.85718,55.792236
"394",79.818115,55.805664
"395",79.77661,55.81909
"396",79.73754,55.83252
"397",79.70092,55.845947
"398",79.66674,55.859375
"399",79.64965,55.872803
"400",79.64477,55.88623
"401",79.66186,55.89966
"402",79.70336,55.913086
"403",79.77661,55.926514
"404",79.871826,55.93994
"405",79.98413,55.95337
"406",80.1062,55.966797
"407",80.22339,55.980225
"408",80.325935,55.993652
"409",80.411385,56.00708
"410",80.46998,56.020508
"411",80.50172,56.033936
"412",80.51148,56.047363
"413",80.51392,56.06079
"414",80.50416,56.07422
"415",80.49195,56.087646
"416",80.4773,56.101074
"417",80.45533,56.114502
"418",80.43336,56.12793
"419",80.40406,56.141357
"420",80.377205,56.154785
"421",80.35035,56.168213
"422",80.325935,56.18164
"423",80.29908,56.19507
"424",80.274666,56.208496
"425",80.24292,56.221924
"426",80.2063,56.23535
"427",80.164795,56.24878
"428",80.11841,56.262207
"429",80.06958,56.275635
"430",80.01343,56.289062
"431",79.957275,56.30249
"432",79.903564,56.315918
"433",79.85962,56.329346
"434",79.82544,56.342773
"435",79.798584,56.3562
"436",79.77417,56.36963
"437",79.73998,56.383057
"438",79.693596,56.396484
"439",79.639885,56.409912
"440",79.57885,56.42334
"441",79.51293,56.436768
"442",79.447014,56.450195
"443",79.38598,56.463623
"444",79.33715,56.47705
"445",79.30297,56.49048
"446",79.281,56.503906
"447",79.27123,56.517334
"448",79.26879,56.53076
"449",79.26879,56.54419
"450",79.27123,56.557617
"451",79.281,56.571045
"452",79.29565,56.584473
"453",79.31762,56.5979
"454",79.344475,56.61133
"455",79.378654,56.624756
"456",79.4226,56.638184
"457",79.48608,56.65161
"458",79.571526,56.66504
"459",79.68871,56.678467
"460",79.82544,56.691895
"461",79.971924,56.705322
"462",80.12085,56.71875
"463",80.257576,56.732178
"464",80.377205,56.745605
"465",80.4773,56.759033
"466",80.56275,56.77246
"467",80.63111,56.78589
"468",80.68238,56.799316
"469",80.719,56.812744
"470",80.74586,56.82617
"471",80.76051,56.8396
"472",80.77028,56.853027
"473",80.77272,56.866455
"474",80.76784,56.879883
"475",80.75075,56.89331
"476",80.723885,56.90674
"477",80.689705,56.920166
"478",80.65308,56.933594
"479",80.62623,56.94702
"480",80.604256,56.96045
"481",80.58961,56.973877
"482",80.58228,56.987305
"483",80.587166,57.000732
"484",80.59693,57.01416
"485",80.618904,57.027588
"486",80.64088,57.041016
"487",80.66041,57.054443
"488",80.66773,57.06787
"489",80.66285,57.0813
"490",80.638435,57.094727
"491",80.59937,57.108154
"492",80.5481,57.121582
"493",80.48951,57.13501
"494",80.428474,57.148438
"495",80.365,57.161865
"496",80.30396,57.175293
"497",80.2478,57.18872
"498",80.201416,57.20215
"499",80.15991,57.215576
"500",80.12573,57.229004
"501",80.096436,57.24243
"502",80.06714,57.25586
"503",80.04028,57.269287
"504",80.01587,57.282715
"505",79.9939,57.296143
"506",79.98413,57.30957
"507",79.99634,57.322998
"508",80.04028,57.336426
"509",80.12085,57.349854
"510",80.22827,57.36328
"511",80.35279,57.37671
"512",80.482185,57.390137
"513",80.601814,57.403564
"514",80.709236,57.416992
"515",80.799576,57.43042
"516",80.87038,57.443848
"517",80.92653,57.457275
"518",80.955826,57.470703
"519",80.96071,57.48413
"520",80.94118,57.49756
"521",80.89967,57.510986
"522",80.83864,57.524414
"523",80.77272,57.53784
"524",80.70435,57.55127
"525",80.638435,57.564697
"526",80.570076,57.578125
"527",80.49683,57.591553
"528",80.413826,57.60498
"529",80.31129,57.61841
"530",80.198975,57.631836
"531",80.08667,57.645264
"532",79.98169,57.65869
"533",79.886475,57.67212
"534",79.80835,57.685547
"535",79.73998,57.698975
"536",79.67895,57.712402
"537",79.62524,57.72583
"538",79.58373,57.739258
"539",79.554436,57.752686
"540",79.537346,57.766113
"541",79.52514,57.77954
"542",79.517815,57.79297
"543",79.51049,57.806396
"544",79.50805,57.819824
"545",79.50317,57.833252
"546",79.50561,57.84668
"547",79.51537,57.860107
"548",79.5227,57.873535
"549",79.52514,57.886963
"550",79.52514,57.90039
"551",79.520256,57.91382
"552",79.51049,57.927246
"553",79.500725,57.940674
"554",79.49584,57.9541
"555",79.49584,57.96753
"556",79.50805,57.980957
"557",79.53246,57.994385
"558",79.58129,58.007812
"559",79.656975,58.02124
"560",79.75952,58.034668
"561",79.87915,58.048096
"562",80.0061,58.061523
"563",80.128174,58.07495
"564",80.23804,58.08838
"565",80.323494,58.101807
"566",80.38697,58.115234
"567",80.44312,58.128662
"568",80.48707,58.14209
"569",80.52369,58.155518
"570",80.55543,58.168945
"571",80.58228,58.182373
"572",80.59937,58.1958
"573",80.6067,58.20923
"574",80.59449,58.222656
"575",80.56031,58.236084
"576",80.5066,58.24951
"577",80.43824,58.26294
"578",80.365,58.276367
"579",80.2942,58.289795
"580",80.233154,58.303223
"581",80.181885,58.31665
"582",80.13306,58.33008
"583",80.08423,58.343506
"584",80.028076,58.356934
"585",79.9646,58.37036
"586",79.89624,58.38379
"587",79.818115,58.397217
"588",79.7351,58.410645
"589",79.65453,58.424072
"590",79.571526,58.4375
"591",79.49096,58.450928
"592",79.412834,58.464355
"593",79.344475,58.477783
"594",79.27856,58.49121
"595",79.217514,58.50464
"596",79.1638,58.518066
"597",79.11742,58.531494
"598",79.07103,58.54492
"599",79.029526,58.55835
"600",78.995346,58.571777
"601",78.96361,58.585205
"602",78.93919,58.598633
"603",78.91478,58.61206
"604",78.890366,58.62549
"605",78.86595,58.638916
"606",78.84154,58.652344
"607",78.81468,58.66577
"608",78.78783,58.6792
"609",78.76341,58.692627
"610",78.74876,58.706055
"611",78.75609,58.719482
"612",78.80003,58.73291
"613",78.890366,58.746338
"614",79.03441,58.759766
"615",79.21507,58.773193
"616",79.415276,58.78662
"617",79.61791,58.80005
"618",79.80347,58.813477
"619",79.96704,58.826904
"620",80.10132,58.840332
"621",80.21362,58.85376
"622",80.29908,58.867188
"623",80.360115,58.880615
"624",80.40406,58.894043
"625",80.428474,58.90747
"626",80.430916,58.9209
"627",80.41871,58.934326
"628",80.38941,58.947754
"629",80.34791,58.96118
"630",80.30396,58.97461
"631",80.26246,58.988037
"632",80.22827,59.001465
"633",80.201416,59.014893
"634",80.184326,59.02832
"635",80.177,59.041748
"636",80.17456,59.055176
"637",80.177,59.068604
"638",80.181885,59.08203
"639",80.181885,59.09546
"640",80.16968,59.108887
"641",80.15015,59.122314
"642",80.11841,59.135742
"643",80.079346,59.14917
"644",80.03296,59.162598
"645",79.98169,59.176025
"646",79.93286,59.189453
"647",79.88159,59.20288
"648",79.84253,59.21631
"649",79.81323,59.229736
"650",79.7937,59.243164
"651",79.783936,59.25659
"652",79.77417,59.27002
"653",79.75952,59.283447
"654",79.73998,59.296875
"655",79.71313,59.310303
"656",79.68139,59.32373
"657",79.64233,59.33716
"658",79.60082,59.350586
"659",79.5642,59.364014
"660",79.534904,59.37744
"661",79.50561,59.39087
"662",79.47631,59.404297
"663",79.447014,59.417725
"664",79.41039,59.431152
"665",79.37377,59.44458
"666",79.344475,59.458008
"667",79.33959,59.471436
"668",79.364006,59.484863
"669",79.429924,59.49829
"670",79.534904,59.51172
"671",79.676506,59.525146
"672",79.835205,59.538574
"673",79.99634,59.552002
"674",80.147705,59.56543
"675",80.27955,59.578857
"676",80.38697,59.592285
"677",80.46754,59.605713
"678",80.53101,59.61914
"679",80.57984,59.63257
"680",80.60914,59.645996
"681",80.618904,59.659424
"682",80.61158,59.67285
"683",80.587166,59.68628
"684",80.54322,59.699707
"685",80.49683,59.713135
"686",80.445564,59.726562
"687",80.39918,59.73999
"688",80.35767,59.753418
"689",80.323494,59.766846
"690",80.289314,59.780273
"691",80.257576,59.7937
"692",80.233154,59.80713
"693",80.21362,59.820557
"694",80.19653,59.833984
"695",80.177,59.847412
"696",80.15503,59.86084
"697",80.128174,59.874268
"698",80.096436,59.887695
"699",80.059814,59.901123
"700",80.01831,59.91455
"701",79.974365,59.92798
"702",79.92798,59.941406
"703",79.87427,59.954834
"704",79.82788,59.96826
"705",79.78638,59.98169
"706",79.75464,59.995117
"707",79.725334,60.008545
"708",79.69848,60.021973
"709",79.67162,60.0354
"710",79.64477,60.04883
"711",79.61791,60.062256
"712",79.5935,60.075684
"713",79.57397,60.08911
"714",79.5642,60.10254
"715",79.55932,60.115967
"716",79.55932,60.129395
"717",79.56176,60.142822
"718",79.56176,60.15625
"719",79.55688,60.169678
"720",79.54711,60.183105
"721",79.537346,60.196533
"722",79.54467,60.20996
"723",79.57641,60.22339
"724",79.63744,60.236816
"725",79.73754,60.250244
"726",79.87427,60.26367
"727",80.03784,60.2771
"728",80.20874,60.290527
"729",80.37476,60.303955
"730",80.52613,60.317383
"731",80.65064,60.33081
"732",80.7483,60.34424
"733",80.82399,60.357666
"734",80.885025,60.371094
"735",80.921646,60.38452
"736",80.93141,60.39795
"737",80.91432,60.411377
"738",80.87526,60.424805
"739",80.816666,60.438232
"740",80.7483,60.45166
"741",80.68238,60.465088
"742",80.618904,60.478516
"743",80.55543,60.491943
"744",80.499275,60.50537
"745",80.45533,60.5188
"746",80.41871,60.532227
"747",80.39185,60.545654
"748",80.36988,60.559082
"749",80.34547,60.57251
"750",80.31373,60.585938
"751",80.274666,60.599365
"752",80.22827,60.612793
"753",80.177,60.62622
"754",80.12329,60.63965
"755",80.059814,60.653076
"756",79.99634,60.666504
"757",79.937744,60.67993
"758",79.87915,60.69336
"759",79.82544,60.706787
"760",79.77417,60.720215
"761",79.727776,60.733643
"762",79.68139,60.74707
"763",79.63744,60.760498
"764",79.59594,60.773926
"765",79.551994,60.787354
"766",79.50561,60.80078
"767",79.45678,60.81421
"768",79.41039,60.827637
"769",79.361565,60.841064
"770",79.31762,60.854492
"771",79.28344,60.86792
"772",79.259026,60.881348
"773",79.24925,60.894775
"774",79.26635,60.908203
"775",79.310295,60.92163
"776",79.38842,60.93506
"777",79.49828,60.948486
"778",79.635,60.961914
"779",79.79126,60.97534
"780",79.94507,60.98877
"781",80.08423,61.002197
"782",80.201416,61.015625
"783",80.291756,61.029053
"784",80.35767,61.04248
"785",80.40894,61.05591
"786",80.445564,61.069336
"787",80.465096,61.082764
"788",80.46754,61.09619
"789",80.45045,61.10962
"790",80.41871,61.123047
"791",80.37232,61.136475
"792",80.33082,61.149902
"793",80.291756,61.16333
"794",80.2649,61.176758
"795",80.24048,61.190186
"796",80.22339,61.203613
"797",80.2063,61.21704
"798",80.19165,61.23047
"799",80.17456,61.243896
"800",80.15747,61.257324
"801",80.13794,61.270752
"802",80.11597,61.28418
"803",80.09155,61.297607
"804",80.05737,61.311035
"805",80.02075,61.324463
"806",79.971924,61.33789
"807",79.91577,61.35132
"808",79.852295,61.364746
"809",79.781494,61.378174
"810",79.7058,61.3916
"811",79.62524,61.40503
"812",79.54955,61.418457
"813",79.47631,61.431885
"814",79.40551,61.445312
"815",79.344475,61.45874
"816",79.29809,61.472168
"817",79.26635,61.485596
"818",79.24681,61.499023
"819",79.24437,61.51245
"820",79.24681,61.52588
"821",79.259026,61.539307
"822",79.27123,61.552734
"823",79.28588,61.566162
"824",79.30053,61.57959
"825",79.31762,61.593018
"826",79.34203,61.606445
"827",79.37621,61.619873
"828",79.432365,61.6333
"829",79.517815,61.64673
"830",79.639885,61.660156
"831",79.7937,61.673584
"832",79.9646,61.68701
"833",80.13794,61.70044
"834",80.29908,61.713867
"835",80.44068,61.727295
"836",80.550545,61.740723
"837",80.635994,61.75415
"838",80.69703,61.76758
"839",80.73609,61.781006
"840",80.75563,61.794434
"841",80.762955,61.80786
"842",80.75075,61.82129
"843",80.726326,61.834717
"844",80.69215,61.848145
"845",80.6482,61.861572
"846",80.59937,61.875
"847",80.55543,61.888428
"848",80.51881,61.901855
"849",80.48707,61.915283
"850",80.46021,61.92871
"851",80.44068,61.94214
"852",80.42359,61.955566
"853",80.40406,61.968994
"854",80.38697,61.98242
"855",80.365,61.99585
"856",80.33326,62.009277
"857",80.291756,62.022705
"858",80.23804,62.036133
"859",80.177,62.04956
"860",80.111084,62.06299
"861",80.03784,62.076416
"862",79.957275,62.089844
"863",79.871826,62.10327
"864",79.77905,62.1167
"865",79.68871,62.130127
"866",79.605705,62.143555
"867",79.53002,62.156982
"868",79.4641,62.17041
"869",79.41039,62.183838
"870",79.364006,62.197266
"871",79.3225,62.210693
"872",79.28832,62.22412
"873",79.26147,62.23755
"874",79.237045,62.250977
"875",79.21263,62.264404
"876",79.185776,62.277832
"877",79.151596,62.29126
"878",79.11742,62.304688
"879",79.08568,62.318115
"880",79.06615,62.331543
"881",79.063705,62.34497
"882",79.093,62.3584
"883",79.168686,62.371826
"884",79.28832,62.385254
"885",79.4519,62.39868
"886",79.64477,62.41211
"887",79.84497,62.425537
"888",80.028076,62.438965
"889",80.184326,62.452393
"890",80.30396,62.46582
"891",80.38697,62.479248
"892",80.4358,62.492676
"893",80.46021,62.506104
"894",80.465096,62.51953
"895",80.45533,62.53296
"896",80.4358,62.546387
"897",80.411385,62.559814
"898",80.38209,62.573242
"899",80.34791,62.58667
"900",80.31861,62.600098
"901",80.29908,62.613525
"902",80.291756,62.626953
"903",80.2942,62.64038
"904",80.29908,62.65381
"905",80.306404,62.667236
"906",80.30396,62.680664
"907",80.291756,62.69409
"908",80.274666,62.70752
"909",80.257576,62.720947
"910",80.23071,62.734375
"911",80.201416,62.747803
"912",80.17212,62.76123
"913",80.13794,62.77466
"914",80.10376,62.788086
"915",80.06958,62.801514
"916",80.045166,62.81494
"917",80.01831,62.82837
"918",79.99634,62.841797
"919",79.971924,62.855225
"920",79.94995,62.868652
"921",79.93286,62.88208
"922",79.923096,62.895508
"923",79.91821,62.908936
"924",79.920654,62.922363
"925",79.92798,62.93579
"926",79.937744,62.94922
"927",79.94507,62.962646
"928",79.95239,62.976074
"929",79.95239,62.989502
"930",79.94507,63.00293
"931",79.937744,63.016357
"932",79.93042,63.029785
"933",79.92554,63.043213
"934",79.92798,63.05664
"935",79.94263,63.07007
"936",79.97681,63.083496
"937",80.042725,63.096924
"938",80.14038,63.11035
"939",80.272224,63.12378
"940",80.430916,63.137207
"941",80.59693,63.150635
"942",80.76051,63.164062
"943",80.90456,63.17749
"944",81.024185,63.190918
"945",81.11696,63.204346
"946",81.180435,63.217773
"947",81.22194,63.2312
"948",81.23903,63.24463
"949",81.23903,63.258057
"950",81.22438,63.271484
"951",81.197525,63.284912
"952",81.15602,63.29834
"953",81.11696,63.311768
"954",81.07301,63.325195
"955",81.03883,63.338623
"956",81.01198,63.35205
"957",80.99245,63.36548
"958",80.97536,63.378906
"959",80.95094,63.392334
"960",80.91432,63.40576
"961",80.85817,63.41919
"962",80.78493,63.432617
"963",80.69459,63.446045
"964",80.59205,63.459473
"965",80.48463,63.4729
"966",80.37965,63.48633
"967",80.28199,63.499756
"968",80.19409,63.513184
"969",80.11841,63.52661
"970",80.05249,63.54004
"971",79.991455,63.553467
"972",79.93286,63.566895
"973",79.87915,63.580322
"974",79.83032,63.59375
"975",79.783936,63.607178
"976",79.744865,63.620605
"977",79.7058,63.634033
"978",79.66918,63.64746
"979",79.62524,63.66089
"980",79.57641,63.674316
"981",79.517815,63.687744
"982",79.46166,63.70117
"983",79.40307,63.7146
"984",79.35424,63.728027
"985",79.31518,63.741455
"986",79.29565,63.754883
"987",79.290764,63.76831
"988",79.31762,63.78174
"989",79.38354,63.795166
"990",79.48852,63.808594
"991",79.62524,63.82202
"992",79.781494,63.83545
"993",79.9353,63.848877
"994",80.06714,63.862305
"995",80.16235,63.875732
"996",80.218506,63.88916
"997",80.24048,63.902588
"998",80.235596,63.916016
"999",80.20874,63.929443
"1000",80.16724,63.94287
"1001",80.11841,63.9563
"1002",80.06958,63.969727
"1003",80.01343,63.983154
"1004",79.95239,63.996582
"1005",79.8938,64.01001
"1006",79.835205,64.02344
"1007",79.783936,64.036865
"1008",79.742424,64.05029
"1009",79.72045,64.06372
"1010",79.710686,64.07715
"1011",79.71313,64.090576
"1012",79.72045,64.104004
"1013",79.725334,64.11743
"1014",79.725334,64.13086
"1015",79.710686,64.14429
"1016",79.68871,64.157715
"1017",79.656975,64.17114
"1018",79.61303,64.18457
"1019",79.5642,64.198
"1020",79.51049,64.211426
"1021",79.4519,64.22485
"1022",79.39086,64.23828
"1023",79.33227,64.25171
"1024",79.273674,64.26514
"1025",79.22484,64.278564
"1026",79.183334,64.29199
"1027",79.149155,64.30542
"1028",79.1223,64.31885
"1029",79.10033,64.332275
"1030",79.08568,64.3457
"1031",79.07347,64.35913
"1032",79.07347,64.37256
"1033",79.080795,64.38599
"1034",79.09544,64.399414
"1035",79.114975,64.41284
"1036",79.13695,64.42627
"1037",79.15404,64.4397
"1038",79.17601,64.453125
"1039",79.20531,64.46655
"1040",79.24925,64.47998
"1041",79.32006,64.49341
"1042",79.42504,64.506836
"1043",79.56176,64.52026
"1044",79.727776,64.53369
"1045",79.91089,64.54712
"1046",80.096436,64.56055
"1047",80.2649,64.573975
"1048",80.4065,64.5874
"1049",80.51392,64.60083
"1050",80.59205,64.61426
"1051",80.64332,64.627686
"1052",80.67994,64.64111
"1053",80.70435,64.65454
"1054",80.71656,64.66797
"1055",80.71412,64.6814
"1056",80.69459,64.694824
"1057",80.66285,64.70825
"1058",80.62379,64.72168
"1059",80.57984,64.73511
"1060",80.53834,64.748535
"1061",80.5066,64.76196
"1062",80.48463,64.77539
"1063",80.46754,64.78882
"1064",80.45777,64.802246
"1065",80.45045,64.815674
"1066",80.44068,64.8291
"1067",80.42603,64.84253
"1068",80.4065,64.85596
"1069",80.377205,64.869385
"1070",80.343025,64.88281
"1071",80.30152,64.89624
"1072",80.257576,64.90967
"1073",80.201416,64.923096
"1074",80.15015,64.93652
"1075",80.093994,64.94995
"1076",80.03784,64.96338
"1077",79.97925,64.97681
"1078",79.923096,64.990234
"1079",79.86694,65.00366
"1080",79.81323,65.01709
"1081",79.76196,65.03052
"1082",79.71557,65.043945
"1083",79.67895,65.05737
"1084",79.64233,65.0708
"1085",79.61059,65.08423
"1086",79.58129,65.09766
"1087",79.55688,65.111084
"1088",79.537346,65.12451
"1089",79.520256,65.13794
"1090",79.50561,65.15137
"1091",79.49096,65.164795
"1092",79.47875,65.17822
"1093",79.4641,65.19165
"1094",79.45678,65.20508
"1095",79.4519,65.218506
"1096",79.46166,65.23193
"1097",79.49584,65.24536
"1098",79.569084,65.25879
"1099",79.67895,65.27222
"1100",79.82788,65.285645
"1101",79.99878,65.29907
"1102",80.16968,65.3125
"1103",80.31617,65.32593
"1104",80.428474,65.339355
"1105",80.50416,65.35278
"1106",80.54322,65.36621
"1107",80.55543,65.37964
"1108",80.5481,65.39307
"1109",80.52613,65.406494
"1110",80.49439,65.41992
"1111",80.45533,65.43335
"1112",80.4065,65.44678
"1113",80.34791,65.460205
"1114",80.27955,65.47363
"1115",80.19653,65.48706
"1116",80.10376,65.50049
"1117",80.01099,65.513916
"1118",79.92798,65.52734
"1119",79.85718,65.54077
"1120",79.80347,65.5542
"1121",79.764404,65.56763
"1122",79.73754,65.581055
"1123",79.71557,65.59448
"1124",79.68871,65.60791
"1125",79.66186,65.62134
"1126",79.63012,65.634766
"1127",79.5935,65.64819
"1128",79.554436,65.66162
"1129",79.51537,65.67505
"1130",79.47143,65.68848
"1131",79.429924,65.701904
"1132",79.38354,65.71533
"1133",79.33715,65.72876
"1134",79.290764,65.74219
"1135",79.24193,65.755615
"1136",79.19554,65.76904
"1137",79.15404,65.78247
"1138",79.1223,65.7959
"1139",79.097885,65.809326
"1140",79.080795,65.822754
"1141",79.06859,65.83618
"1142",79.05882,65.84961
"1143",79.04906,65.86304
"1144",79.04173,65.876465
"1145",79.03685,65.88989
"1146",79.03441,65.90332
"1147",79.03441,65.91675
"1148",79.044174,65.930176
"1149",79.05394,65.9436
"1150",79.07103,65.95703
"1151",79.09056,65.97046
"1152",79.114975,65.98389
"1153",79.14427,65.997314
"1154",79.19554,66.01074
"1155",79.281,66.02417
"1156",79.412834,66.0376
"1157",79.588615,66.051025
"1158",79.7937,66.06445
"1159",80.01099,66.07788
"1160",80.21362,66.09131
"1161",80.38941,66.10474
"1162",80.52857,66.118164
"1163",80.62867,66.13159
"1164",80.69459,66.14502
"1165",80.73365,66.15845
"1166",80.75075,66.171875
"1167",80.75075,66.1853
"1168",80.73609,66.19873
"1169",80.70435,66.21216
"1170",80.66041,66.225586
"1171",80.6067,66.23901
"1172",80.550545,66.25244
"1173",80.50416,66.26587
"1174",80.46754,66.2793
"1175",80.445564,66.292725
"1176",80.43824,66.30615
"1177",80.4358,66.31958
"1178",80.44068,66.33301
"1179",80.445564,66.346436
"1180",80.448006,66.35986
"1181",80.44312,66.37329
"1182",80.42603,66.38672
"1183",80.38941,66.40015
"1184",80.34058,66.413574
"1185",80.28443,66.427
"1186",80.22095,66.44043
"1187",80.16235,66.45386
"1188",80.111084,66.467285
"1189",80.0647,66.48071
"1190",80.02075,66.49414
"1191",79.97925,66.50757
"1192",79.937744,66.520996
"1193",79.89868,66.534424
"1194",79.86206,66.54785
"1195",79.82544,66.56128
"1196",79.79126,66.57471
"1197",79.764404,66.588135
"1198",79.74731,66.60156
"1199",79.742424,66.61499
"1200",79.744865,66.62842
"1201",79.75464,66.641846
"1202",79.75464,66.65527
"1203",79.744865,66.6687
"1204",79.72289,66.68213
"1205",79.69848,66.69556
"1206",79.674065,66.708984
"1207",79.66186,66.72241
"1208",79.66674,66.73584
"1209",79.69848,66.74927
"1210",79.77173,66.762695
"1211",79.888916,66.77612
"1212",80.04761,66.78955
"1213",80.22583,66.80298
"1214",80.4065,66.81641
"1215",80.567635,66.829834
"1216",80.69947,66.84326
"1217",80.79469,66.85669
"1218",80.86305,66.87012
"1219",80.91188,66.883545
"1220",80.9485,66.89697
"1221",80.96071,66.9104
"1222",80.95094,66.92383
"1223",80.91676,66.937256
"1224",80.86549,66.95068
"1225",80.80202,66.96411
"1226",80.73609,66.97754
"1227",80.67506,66.99097
"1228",80.62379,67.004395
"1229",80.584724,67.01782
"1230",80.55787,67.03125
"1231",80.5359,67.04468
"1232",80.52125,67.058105
"1233",80.5066,67.07153
"1234",80.48707,67.08496
"1235",80.462654,67.09839
"1236",80.43336,67.11182
"1237",80.39918,67.125244
"1238",80.35279,67.13867
"1239",80.29664,67.1521
"1240",80.233154,67.16553
"1241",80.16235,67.178955
"1242",80.08667,67.19238
"1243",80.01343,67.20581
"1244",79.94263,67.21924
"1245",79.87427,67.232666
"1246",79.80591,67.24609
"1247",79.744865,67.25952
"1248",79.68627,67.27295
"1249",79.635,67.28638
"1250",79.5935,67.299805
"1251",79.55932,67.31323
"1252",79.534904,67.32666
"1253",79.51293,67.34009
"1254",79.49584,67.353516
"1255",79.47387,67.36694
"1256",79.4519,67.38037
"1257",79.42504,67.3938
"1258",79.398186,67.40723
"1259",79.38354,67.420654
"1260",79.381096,67.43408
"1261",79.395744,67.44751
"1262",79.43969,67.46094
"1263",79.517815,67.474365
"1264",79.63256,67.48779
"1265",79.781494,67.50122
"1266",79.94751,67.51465
"1267",80.12085,67.528076
"1268",80.27955,67.541504
"1269",80.41871,67.55493
"1270",80.52857,67.56836
"1271",80.60914,67.58179
"1272",80.66041,67.595215
"1273",80.68482,67.60864
"1274",80.68482,67.62207
"1275",80.66773,67.6355
"1276",80.638435,67.648926
"1277",80.601814,67.66235
"1278",80.56031,67.67578
"1279",80.5066,67.68921
"1280",80.45045,67.70264
"1281",80.38941,67.716064
"1282",80.33082,67.72949
"1283",80.27955,67.74292
"1284",80.235596,67.75635
"1285",80.2063,67.769775
"1286",80.18921,67.7832
"1287",80.17212,67.79663
"1288",80.15503,67.81006
"1289",80.13306,67.82349
"1290",80.10132,67.836914
"1291",80.0647,67.85034
"1292",80.025635,67.86377
"1293",79.98657,67.8772
"1294",79.94263,67.890625
"1295",79.89624,67.90405
"1296",79.84253,67.91748
"1297",79.783936,67.93091
"1298",79.72289,67.944336
"1299",79.65942,67.95776
"1300",79.60082,67.97119
"1301",79.54955,67.98462
"1302",79.51049,67.99805
"1303",79.47875,68.011475
"1304",79.45678,68.0249
"1305",79.43725,68.03833
"1306",79.412834,68.05176
"1307",79.378654,68.065186
"1308",79.34692,68.07861
"1309",79.32006,68.09204
"1310",79.29565,68.10547
"1311",79.27856,68.1189
"1312",79.26879,68.132324
"1313",79.25414,68.14575
"1314",79.23949,68.15918
"1315",79.22728,68.17261
"1316",79.217514,68.186035
"1317",79.21507,68.19946
"1318",79.23216,68.21289
"1319",79.273674,68.22632
"1320",79.35424,68.239746
"1321",79.47875,68.253174
"1322",79.64721,68.2666
"1323",79.84253,68.28003
"1324",80.042725,68.29346
"1325",80.22339,68.306885
"1326",80.37476,68.32031
"1327",80.48951,68.33374
"1328",80.567635,68.34717
"1329",80.61646,68.360596
"1330",80.638435,68.37402
"1331",80.635994,68.38745
"1332",80.61402,68.40088
"1333",80.57496,68.41431
"1334",80.52125,68.427734
"1335",80.45777,68.44116
"1336",80.38453,68.45459
"1337",80.30396,68.46802
"1338",80.22095,68.481445
"1339",80.14038,68.49487
"1340",80.06958,68.5083
"1341",80.01343,68.52173
"1342",79.96948,68.53516
"1343",79.94507,68.548584
"1344",79.92798,68.56201
"1345",79.91821,68.57544
"1346",79.91089,68.58887
"1347",79.90112,68.602295
"1348",79.88403,68.61572
"1349",79.86206,68.62915
"1350",79.84009,68.64258
"1351",79.815674,68.656006
"1352",79.78882,68.66943
"1353",79.76196,68.68286
"1354",79.7351,68.69629
"1355",79.71313,68.70972
"1356",79.68871,68.723145
"1357",79.66918,68.73657
"1358",79.64965,68.75
"1359",79.63256,68.76343
"1360",79.61547,68.776855
"1361",79.603264,68.79028
"1362",79.59594,68.80371
"1363",79.59594,68.81714
"1364",79.59838,68.83057
"1365",79.603264,68.843994
"1366",79.61303,68.85742
"1367",79.62768,68.87085
"1368",79.64233,68.88428
"1369",79.65942,68.897705
"1370",79.67162,68.91113
"1371",79.68383,68.92456
"1372",79.69604,68.93799
"1373",79.71557,68.951416
"1374",79.73998,68.96484
"1375",79.77173,68.97827
"1376",79.80835,68.9917
"1377",79.85474,69.00513
"1378",79.91821,69.018555
"1379",80.0061,69.03198
"1380",80.12573,69.04541
"1381",80.27955,69.05884
"1382",80.45045,69.072266
"1383",80.62623,69.08569
"1384",80.79225,69.09912
"1385",80.936295,69.11255
"1386",81.05104,69.12598
"1387",81.13161,69.139404
"1388",81.17555,69.15283
"1389",81.1902,69.16626
"1390",81.17555,69.17969
"1391",81.13649,69.193115
"1392",81.08278,69.20654
"1393",81.01686,69.21997
"1394",80.94362,69.2334
"1395",80.86061,69.246826
"1396",80.77028,69.260254
"1397",80.672615,69.27368
"1398",80.5774,69.28711
"1399",80.482185,69.30054
"1400",80.396736,69.313965
"1401",80.31617,69.32739
"1402",80.24536,69.34082
"1403",80.177,69.35425
"1404",80.10376,69.367676
"1405",80.02075,69.3811
"1406",79.93286,69.39453
"1407",79.835205,69.40796
"1408",79.727776,69.42139
"1409",79.62035,69.434814
"1410",79.517815,69.44824
"1411",79.415276,69.46167
"1412",79.31762,69.4751
"1413",79.22972,69.488525
"1414",79.149155,69.50195
"1415",79.078354,69.51538
"1416",79.0222,69.52881
"1417",78.9807,69.54224
"1418",78.94652,69.555664
"1419",78.91966,69.56909
"1420",78.90257,69.58252
"1421",78.89525,69.59595
"1422",78.89281,69.609375
"1423",78.89525,69.6228
"1424",78.89769,69.63623
"1425",78.890366,69.64966
"1426",78.87572,69.663086
"1427",78.8513,69.67651
"1428",78.82201,69.68994
"1429",78.79271,69.70337
"1430",78.77074,69.7168
"1431",78.75609,69.730225
"1432",78.75365,69.74365
"1433",78.75853,69.75708
"1434",78.77318,69.77051
"1435",78.79515,69.783936
"1436",78.819565,69.79736
"1437",78.85863,69.81079
"1438",78.92699,69.82422
"1439",79.027084,69.83765
"1440",79.16136,69.851074
"1441",79.33471,69.8645
"1442",79.53002,69.87793
"1443",79.73266,69.89136
"1444",79.92798,69.904785
"1445",80.096436,69.91821
"1446",80.22339,69.93164
"1447",80.31861,69.94507
"1448",80.37476,69.958496
"1449",80.40406,69.971924
"1450",80.4065,69.98535
"1451",80.396736,69.99878
"1452",80.37476,70.01221
"1453",80.34547,70.025635
"1454",80.31129,70.03906
"1455",80.272224,70.05249
"1456",80.22827,70.06592
"1457",80.184326,70.079346
"1458",80.13306,70.09277
"1459",80.08179,70.1062
"1460",80.03784,70.11963
"1461",80.01099,70.13306
"1462",79.99634,70.146484
"1463",79.991455,70.15991
"1464",80.00122,70.17334
"1465",80.01587,70.18677
"1466",80.028076,70.200195
"1467",80.03296,70.21362
"1468",80.0354,70.22705
"1469",80.02319,70.24048
"1470",80.0061,70.25391
"1471",79.97925,70.267334
"1472",79.94263,70.28076
"1473",79.90112,70.29419
"1474",79.85718,70.30762
"1475",79.80835,70.321045
"1476",79.75952,70.33447
"1477",79.71313,70.3479
"1478",79.66918,70.36133
"1479",79.62524,70.374756
"1480",79.57641,70.38818
"1481",79.52758,70.40161
"1482",79.47631,70.41504
"1483",79.42504,70.42847
"1484",79.378654,70.441895
"1485",79.33715,70.45532
"1486",79.30053,70.46875
"1487",79.26879,70.48218
"1488",79.2517,70.495605
"1489",79.24681,70.50903
"1490",79.27123,70.52246
"1491",79.33227,70.53589
"1492",79.44457,70.54932
"1493",79.59594,70.562744
"1494",79.77661,70.57617
"1495",79.96948,70.5896
"1496",80.14526,70.60303
"1497",80.289314,70.616455
"1498",80.394295,70.62988
"1499",80.45533,70.64331
"1500",80.479744,70.65674
"1501",80.4773,70.670166
"1502",80.45045,70.68359
"1503",80.40162,70.69702
"1504",80.343025,70.71045
"1505",80.27711,70.72388
"1506",80.21118,70.737305
"1507",80.14038,70.75073
"1508",80.06958,70.76416
"1509",80.0061,70.77759
"1510",79.94995,70.791016
"1511",79.91089,70.80444
"1512",79.886475,70.81787
"1513",79.88159,70.8313
"1514",79.88403,70.84473
"1515",79.88403,70.858154
"1516",79.87915,70.87158
"1517",79.86694,70.88501
"1518",79.84985,70.89844
"1519",79.82544,70.911865
"1520",79.7937,70.92529
"1521",79.76196,70.93872
"1522",79.725334,70.95215
"1523",79.68871,70.965576
"1524",79.65209,70.979004
"1525",79.62035,70.99243
"1526",79.59106,71.00586
"1527",79.56664,71.01929
"1528",79.54955,71.032715
"1529",79.537346,71.04614
"1530",79.534904,71.05957
"1531",79.53979,71.073
"1532",79.54711,71.086426
"1533",79.554436,71.09985
"1534",79.56176,71.11328
"1535",79.5642,71.12671
"1536",79.569084,71.14014
"1537",79.57397,71.153564
"1538",79.58129,71.16699
"1539",79.59106,71.18042
"1540",79.605705,71.19385
"1541",79.63012,71.207275
"1542",79.676506,71.2207
"1543",79.75952,71.23413
"1544",79.88159,71.24756
"1545",80.045166,71.26099
"1546",80.23071,71.274414
"1547",80.42359,71.28784
"1548",80.601814,71.30127
"1549",80.7483,71.3147
"1550",80.85817,71.328125
"1551",80.93141,71.34155
"1552",80.970474,71.35498
"1553",80.98024,71.36841
"1554",80.970474,71.381836
"1555",80.94606,71.39526
"1556",80.919205,71.40869
"1557",80.88991,71.42212
"1558",80.86061,71.43555
"1559",80.833755,71.448975
"1560",80.8069,71.4624
"1561",80.780045,71.47583
"1562",80.75563,71.48926
"1563",80.73365,71.502686
"1564",80.719,71.51611
"1565",80.709236,71.52954
"1566",80.70191,71.54297
"1567",80.69459,71.5564
"1568",80.68726,71.569824
"1569",80.67506,71.58325
"1570",80.65308,71.59668
"1571",80.62867,71.61011
"1572",80.59693,71.623535
"1573",80.56275,71.63696
"1574",80.52613,71.65039
"1575",80.48463,71.66382
"1576",80.43824,71.677246
"1577",80.38941,71.690674
"1578",80.3357,71.7041
"1579",80.28199,71.71753
"1580",80.233154,71.73096
"1581",80.184326,71.744385
"1582",80.13794,71.75781
"1583",80.096436,71.77124
"1584",80.05005,71.78467
"1585",80.01343,71.798096
"1586",79.97681,71.81152
"1587",79.95239,71.82495
"1588",79.93286,71.83838
"1589",79.923096,71.85181
"1590",79.91333,71.865234
"1591",79.90845,71.87866
"1592",79.90112,71.89209
"1593",79.89624,71.90552
"1594",79.8938,71.918945
"1595",79.906006,71.93237
"1596",79.94263,71.9458
"1597",80.0061,71.95923
"1598",80.10864,71.97266
"1599",80.24536,71.986084
"1600",80.4065,71.99951
"1601",80.5774,72.01294
"1602",80.73365,72.02637
"1603",80.86305,72.039795
"1604",80.95094,72.05322
"1605",80.99977,72.06665
"1606",81.01198,72.08008
"1607",80.99977,72.093506
"1608",80.970474,72.10693
"1609",80.93385,72.12036
"1610",80.89235,72.13379
"1611",80.848404,72.14722
"1612",80.799576,72.160645
"1613",80.740974,72.17407
"1614",80.68238,72.1875
"1615",80.618904,72.20093
"1616",80.55543,72.214355
"1617",80.50172,72.22778
"1618",80.462654,72.24121
"1619",80.43336,72.25464
"1620",80.40406,72.26807
"1621",80.377205,72.281494
"1622",80.34547,72.29492
"1623",80.306404,72.30835
"1624",80.26002,72.32178
"1625",80.2063,72.335205
"1626",80.15259,72.34863
"1627",80.08911,72.36206
"1628",80.01831,72.37549
"1629",79.937744,72.388916
"1630",79.85474,72.40234
"1631",79.77173,72.41577
"1632",79.69848,72.4292
"1633",79.639885,72.44263
"1634",79.5935,72.456055
"1635",79.56176,72.46948
"1636",79.534904,72.48291
"1637",79.51537,72.49634
"1638",79.49828,72.509766
"1639",79.48608,72.52319
"1640",79.47387,72.53662
"1641",79.4641,72.55005
"1642",79.45434,72.56348
"1643",79.44213,72.576904
"1644",79.42748,72.59033
"1645",79.415276,72.60376
"1646",79.40551,72.61719
"1647",79.3933,72.630615
"1648",79.38598,72.64404
"1649",79.381096,72.65747
"1650",79.378654,72.6709
"1651",79.38598,72.684326
"1652",79.41039,72.697754
"1653",79.45678,72.71118
"1654",79.53979,72.72461
"1655",79.65942,72.73804
"1656",79.81079,72.751465
"1657",79.97925,72.76489
"1658",80.147705,72.77832
"1659",80.29664,72.79175
"1660",80.41871,72.805176
"1661",80.50172,72.8186
"1662",80.55543,72.83203
"1663",80.584724,72.84546
"1664",80.59693,72.85889
"1665",80.59937,72.872314
"1666",80.58961,72.88574
"1667",80.570076,72.89917
"1668",80.5481,72.9126
"1669",80.52369,72.926025
"1670",80.49683,72.93945
"1671",80.46998,72.95288
"1672",80.44068,72.96631
"1673",80.413826,72.97974
"1674",80.39185,72.993164
"1675",80.377205,73.00659
"1676",80.37232,73.02002
"1677",80.37476,73.03345
"1678",80.38209,73.046875
"1679",80.38697,73.0603
"1680",80.38697,73.07373
"1681",80.37965,73.08716
"1682",80.36256,73.100586
"1683",80.33082,73.11401
"1684",80.28687,73.12744
"1685",80.23071,73.14087
"1686",80.16724,73.1543
"1687",80.10132,73.167725
"1688",80.0354,73.18115
"1689",79.971924,73.19458
"1690",79.91821,73.20801
"1691",79.869385,73.221436
"1692",79.82544,73.23486
"1693",79.783936,73.24829
"1694",79.744865,73.26172
"1695",79.7058,73.27515
"1696",79.66674,73.288574
"1697",79.63012,73.302
"1698",79.603264,73.31543
"1699",79.586174,73.32886
"1700",79.571526,73.342285
"1701",79.56176,73.35571
"1702",79.55688,73.36914
"1703",79.551994,73.38257
"1704",79.53979,73.395996
"1705",79.53002,73.409424
"1706",79.5227,73.42285
"1707",79.5227,73.43628
"1708",79.54711,73.44971
"1709",79.59838,73.463135
"1710",79.68871,73.47656
"1711",79.815674,73.48999
"1712",79.96704,73.50342
"1713",80.11841,73.516846
"1714",80.257576,73.53027
"1715",80.37232,73.5437
"1716",80.462654,73.55713
"1717",80.52369,73.57056
"1718",80.55787,73.583984
"1719",80.57252,73.59741
"1720",80.570076,73.61084
"1721",80.550545,73.62427
"1722",80.52613,73.637695
"1723",80.49195,73.65112
"1724",80.45045,73.66455
"1725",80.396736,73.67798
"1726",80.3357,73.69141
"1727",80.27711,73.704834
"1728",80.23071,73.71826
"1729",80.21118,73.73169
"1730",80.216064,73.74512
"1731",80.24048,73.758545
"1732",80.27711,73.77197
"1733",80.31129,73.7854
"1734",80.33082,73.79883
"1735",80.3357,73.812256
"1736",80.325935,73.82568
"1737",80.29908,73.83911
"1738",80.26002,73.85254
"1739",80.216064,73.86597
"1740",80.164795,73.879395
"1741",80.11597,73.89282
"1742",80.06958,73.90625
"1743",80.028076,73.91968
"1744",79.991455,73.933105
"1745",79.957275,73.94653
"1746",79.920654,73.95996
"1747",79.87671,73.97339
"1748",79.82544,73.98682
"1749",79.77173,74.000244
"1750",79.725334,74.01367
"1751",79.68383,74.0271
"1752",79.64477,74.04053
"1753",79.61303,74.053955
"1754",79.5935,74.06738
"1755",79.58373,74.08081
"1756",79.58129,74.09424
"1757",79.588615,74.107666
"1758",79.60082,74.12109
"1759",79.61791,74.13452
"1760",79.622795,74.14795
"1761",79.62524,74.16138
"1762",79.62768,74.174805
"1763",79.63744,74.18823
"1764",79.65942,74.20166
"1765",79.71557,74.21509
"1766",79.80591,74.228516
"1767",79.93286,74.24194
"1768",80.08667,74.25537
"1769",80.2478,74.2688
"1770",80.396736,74.28223
"1771",80.516365,74.295654
"1772",80.604256,74.30908
"1773",80.6482,74.32251
"1774",80.66041,74.33594
"1775",80.64576,74.349365
"1776",80.60914,74.36279
"1777",80.55543,74.37622
"1778",80.49439,74.38965
"1779",80.430916,74.403076
"1780",80.365,74.416504
"1781",80.306404,74.42993
"1782",80.255135,74.44336
"1783",80.21362,74.45679
"1784",80.19165,74.470215
"1785",80.181885,74.48364
"1786",80.19165,74.49707
"1787",80.20874,74.5105
"1788",80.233154,74.523926
"1789",80.25025,74.53735
"1790",80.26002,74.55078
"1791",80.25269,74.56421
"1792",80.23804,74.57764
"1793",80.21362,74.591064
"1794",80.184326,74.60449
"1795",80.147705,74.61792
"1796",80.1062,74.63135
"1797",80.05737,74.644775
"1798",80.00122,74.6582
"1799",79.93286,74.67163
"1800",79.852295,74.68506
"1801",79.75952,74.69849
"1802",79.66918,74.711914
"1803",79.586174,74.72534
"1804",79.51537,74.73877
"1805",79.46166,74.7522
"1806",79.4226,74.765625
"1807",79.39086,74.77905
"1808",79.364006,74.79248
"1809",79.33715,74.80591
"1810",79.310295,74.819336
"1811",79.28832,74.83276
"1812",79.27123,74.84619
"1813",79.25414,74.85962
"1814",79.24681,74.87305
"1815",79.24681,74.886475
"1816",79.25414,74.8999
"1817",79.26879,74.91333
"1818",79.28344,74.92676
"1819",79.29809,74.940186
"1820",79.31274,74.95361
"1821",79.32494,74.96704
"1822",79.33471,74.98047
"1823",79.3518,74.9939
"1824",79.398186,75.007324
"1825",79.47875,75.02075
"1826",79.59838,75.03418
"1827",79.74731,75.04761
"1828",79.91577,75.061035
"1829",80.08179,75.07446
"1830",80.23071,75.08789
"1831",80.35035,75.10132
"1832",80.44068,75.114746
"1833",80.49439,75.128174
"1834",80.516365,75.1416
"1835",80.5066,75.15503
"1836",80.479744,75.16846
"1837",80.44312,75.181885
"1838",80.40162,75.19531
"1839",80.35767,75.20874
"1840",80.31129,75.22217
"1841",80.272224,75.235596
"1842",80.23804,75.24902
"1843",80.20386,75.26245
"1844",80.17456,75.27588
"1845",80.15259,75.28931
"1846",80.13306,75.302734
"1847",80.113525,75.31616
"1848",80.09888,75.32959
"1849",80.08179,75.34302
"1850",80.06714,75.356445
"1851",80.05005,75.36987
"1852",80.02319,75.3833
"1853",79.98901,75.39673
"1854",79.94751,75.41016
"1855",79.89868,75.423584
"1856",79.84985,75.43701
"1857",79.79614,75.45044
"1858",79.73754,75.46387
"1859",79.67895,75.477295
"1860",79.61547,75.49072
"1861",79.551994,75.50415
"1862",79.4934,75.51758
"1863",79.447014,75.531006
"1864",79.41039,75.54443
"1865",79.38354,75.55786
"1866",79.35668,75.57129
"1867",79.33471,75.58472
"1868",79.310295,75.598145
"1869",79.28832,75.61157
"1870",79.26879,75.625
"1871",79.24925,75.63843
"1872",79.237045,75.651855
"1873",79.23216,75.66528
"1874",79.234604,75.67871
"1875",79.23949,75.69214
"1876",79.25414,75.70557
"1877",79.27856,75.718994
"1878",79.30785,75.73242
"1879",79.33959,75.74585
"1880",79.36645,75.75928
"1881",79.3933,75.772705
"1882",79.412834,75.78613
"1883",79.429924,75.79956
"1884",79.4519,75.81299
"1885",79.4934,75.826416
"1886",79.56176,75.83984
"1887",79.67162,75.85327
"1888",79.82056,75.8667
"1889",80.008545,75.88013
"1890",80.21118,75.893555
"1891",80.41627,75.90698
"1892",80.59449,75.92041
"1893",80.740974,75.93384
"1894",80.84352,75.947266
"1895",80.91432,75.96069
"1896",80.96071,75.97412
"1897",80.98268,75.98755
"1898",80.99245,76.00098
"1899",80.98512,76.014404
"1900",80.96559,76.02783
"1901",80.93141,76.04126
"1902",80.88991,76.05469
"1903",80.84352,76.068115
"1904",80.79225,76.08154
"1905",80.743416,76.09497
"1906",80.70191,76.1084
"1907",80.67506,76.121826
"1908",80.66041,76.135254
"1909",80.65064,76.14868
"1910",80.65064,76.16211
"1911",80.65308,76.17554
"1912",80.65064,76.188965
"1913",80.64576,76.20239
"1914",80.638435,76.21582
"1915",80.618904,76.22925
"1916",80.587166,76.242676
"1917",80.54322,76.2561
"1918",80.49439,76.26953
"1919",80.44068,76.28296
"1920",80.38697,76.29639
"1921",80.3357,76.309814
"1922",80.28687,76.32324
"1923",80.235596,76.33667
"1924",80.184326,76.3501
"1925",80.13306,76.363525
"1926",80.08423,76.37695
"1927",80.04761,76.39038
"1928",80.02319,76.40381
"1929",80.01099,76.41724
"1930",80.008545,76.430664
"1931",80.01099,76.44409
"1932",80.01099,76.45752
"1933",80.0061,76.47095
"1934",79.99878,76.484375
"1935",79.98657,76.4978
"1936",79.96948,76.51123
"1937",79.94995,76.52466
"1938",79.92798,76.538086
"1939",79.903564,76.55151
"1940",79.87915,76.56494
"1941",79.852295,76.57837
"1942",79.82544,76.5918
"1943",79.80835,76.605225
"1944",79.801025,76.61865
"1945",79.818115,76.63208
"1946",79.8645,76.64551
"1947",79.95239,76.658936
"1948",80.06714,76.67236
"1949",80.198975,76.68579
"1950",80.33082,76.69922
"1951",80.445564,76.71265
"1952",80.52857,76.726074
"1953",80.584724,76.7395
"1954",80.621346,76.75293
"1955",80.64332,76.76636
"1956",80.65797,76.779785
"1957",80.66041,76.79321
"1958",80.65064,76.80664
"1959",80.62379,76.82007
"1960",80.57984,76.833496
"1961",80.52125,76.846924
"1962",80.45289,76.86035
"1963",80.38453,76.87378
"1964",80.32105,76.88721
"1965",80.2649,76.900635
"1966",80.218506,76.91406
"1967",80.17944,76.92749
"1968",80.147705,76.94092
"1969",80.11597,76.954346
"1970",80.08423,76.96777
"1971",80.05005,76.9812
"1972",80.00366,76.99463
"1973",79.940186,77.00806
"1974",79.85962,77.021484
"1975",79.77173,77.03491
"1976",79.67895,77.04834
"1977",79.588615,77.06177
"1978",79.51293,77.075195
"1979",79.449455,77.08862
"1980",79.398186,77.10205
"1981",79.35668,77.11548
"1982",79.3225,77.12891
"1983",79.293205,77.142334
"1984",79.26879,77.15576
"1985",79.24681,77.16919
"1986",79.22484,77.18262
"1987",79.21019,77.196045
"1988",79.19798,77.20947
"1989",79.19066,77.2229
"1990",79.185776,77.23633
"1991",79.18089,77.249756
"1992",79.17845,77.26318
"1993",79.17357,77.27661
"1994",79.168686,77.29004
"1995",79.16136,77.30347
"1996",79.151596,77.316895
"1997",79.14671,77.33032
"1998",79.14183,77.34375
"1999",79.14671,77.35718
"2000",79.17113,77.370605
"2001",79.22728,77.38403
"2002",79.31518,77.39746
"2003",79.43969,77.41089
"2004",79.59594,77.42432
"2005",79.76196,77.437744
"2006",79.91821,77.45117
"2007",80.05249,77.4646
"2008",80.15259,77.47803
"2009",80.22095,77.491455
"2010",80.26002,77.50488
"2011",80.28199,77.51831
"2012",80.2942,77.53174
"2013",80.30396,77.545166
"2014",80.30152,77.55859
"2015",80.28687,77.57202
"2016",80.26002,77.58545
"2017",80.22583,77.59888
"2018",80.181885,77.612305
"2019",80.13794,77.62573
"2020",80.09888,77.63916
"2021",80.07202,77.65259
"2022",80.05249,77.666016
"2023",80.042725,77.67944
"2024",80.04028,77.69287
"2025",80.04028,77.7063
"2026",80.0354,77.71973
"2027",80.03052,77.733154
"2028",80.02075,77.74658
"2029",79.99878,77.76001
"2030",79.974365,77.77344
"2031",79.940186,77.786865
"2032",79.89136,77.80029
"2033",79.83765,77.81372
"2034",79.781494,77.82715
"2035",79.727776,77.840576
"2036",79.674065,77.854004
"2037",79.62524,77.86743
"2038",79.58129,77.88086
"2039",79.54223,77.89429
"2040",79.50805,77.907715
"2041",79.483635,77.92114
"2042",79.45678,77.93457
"2043",79.43725,77.948
"2044",79.42016,77.961426
"2045",79.40551,77.97485
"2046",79.38598,77.98828
"2047",79.37133,78.00171
"2048",79.35912,78.01514
"2049",79.34692,78.028564
"2050",79.33471,78.04199
"2051",79.31518,78.05542
"2052",79.290764,78.06885
"2053",79.256584,78.082275
"2054",79.219955,78.0957
"2055",79.185776,78.10913
"2056",79.166245,78.12256
"2057",79.17357,78.13599
"2058",79.217514,78.149414
"2059",79.30785,78.16284
"2060",79.44213,78.17627
"2061",79.61303,78.1897
"2062",79.80591,78.203125
"2063",79.9939,78.21655
"2064",80.15503,78.22998
"2065",80.28199,78.24341
"2066",80.37232,78.256836
"2067",80.43336,78.27026
"2068",80.47486,78.28369
"2069",80.499275,78.29712
"2070",80.51148,78.31055
"2071",80.51392,78.323975
"2072",80.499275,78.3374
"2073",80.47242,78.35083
"2074",80.43336,78.36426
"2075",80.38941,78.377686
"2076",80.34547,78.39111
"2077",80.308846,78.40454
"2078",80.27711,78.41797
"2079",80.25025,78.4314
"2080",80.22827,78.444824
"2081",80.20874,78.45825
"2082",80.19653,78.47168
"2083",80.18677,78.48511
"2084",80.181885,78.498535
"2085",80.17212,78.51196
"2086",80.16235,78.52539
"2087",80.14282,78.53882
"2088",80.11597,78.552246
"2089",80.08667,78.565674
"2090",80.05493,78.5791
"2091",80.02075,78.59253
"2092",79.98413,78.60596
"2093",79.94751,78.619385
"2094",79.91577,78.63281
"2095",79.888916,78.64624
"2096",79.86694,78.65967
"2097",79.852295,78.673096
"2098",79.83765,78.68652
"2099",79.82544,78.69995
"2100",79.81323,78.71338
"2101",79.801025,78.72681
"2102",79.7937,78.740234
"2103",79.7937,78.75366
"2104",79.7937,78.76709
"2105",79.798584,78.78052
"2106",79.80347,78.793945
"2107",79.80835,78.80737
"2108",79.80591,78.8208
"2109",79.798584,78.83423
"2110",79.781494,78.84766
"2111",79.75708,78.861084
"2112",79.727776,78.87451
"2113",79.69604,78.88794
"2114",79.676506,78.90137
"2115",79.68139,78.914795
"2116",79.725334,78.92822
"2117",79.81323,78.94165
"2118",79.94507,78.95508
"2119",80.09888,78.968506
"2120",80.2649,78.98193
"2121",80.42115,78.99536
"2122",80.550545,79.00879
"2123",80.65308,79.02222
"2124",80.726326,79.035645
"2125",80.77028,79.04907
"2126",80.79225,79.0625
"2127",80.80202,79.07593
"2128",80.797134,79.089355
"2129",80.78737,79.10278
"2130",80.77272,79.11621
"2131",80.75075,79.12964
"2132",80.723885,79.14307
"2133",80.69215,79.156494
"2134",80.66285,79.16992
"2135",80.62867,79.18335
"2136",80.601814,79.19678
"2137",80.57984,79.210205
"2138",80.56519,79.22363
"2139",80.552986,79.23706
"2140",80.54322,79.25049
"2141",80.533455,79.263916
"2142",80.51881,79.27734
"2143",80.49439,79.29077
"2144",80.46021,79.3042
"2145",80.411385,79.31763
"2146",80.343025,79.331055
"2147",80.26002,79.34448
"2148",80.17212,79.35791
"2149",80.08179,79.37134
"2150",79.9939,79.384766
"2151",79.91821,79.39819
"2152",79.85474,79.41162
"2153",79.80347,79.42505
"2154",79.764404,79.43848
"2155",79.73754,79.451904
"2156",79.71557,79.46533
"2157",79.693596,79.47876
"2158",79.67895,79.49219
"2159",79.67162,79.505615
"2160",79.67162,79.51904
"2161",79.68139,79.53247
"2162",79.69604,79.5459
"2163",79.710686,79.559326
"2164",79.71557,79.572754
"2165",79.71313,79.58618
"2166",79.7058,79.59961
"2167",79.691154,79.61304
"2168",79.68383,79.626465
"2169",79.69848,79.63989
"2170",79.744865,79.65332
"2171",79.823,79.66675
"2172",79.9353,79.680176
"2173",80.07202,79.6936
"2174",80.216064,79.70703
"2175",80.35767,79.72046
"2176",80.482185,79.73389
"2177",80.584724,79.747314
"2178",80.66041,79.76074
"2179",80.70435,79.77417
"2180",80.723885,79.7876
"2181",80.72877,79.801025
"2182",80.72144,79.81445
"2183",80.69947,79.82788
"2184",80.66773,79.84131
"2185",80.621346,79.85474
"2186",80.56519,79.868164
"2187",80.5066,79.88159
"2188",80.45045,79.89502
"2189",80.40162,79.90845
"2190",80.36988,79.921875
"2191",80.34547,79.9353
"2192",80.33326,79.94873
"2193",80.325935,79.96216
"2194",80.325935,79.975586
"2195",80.323494,79.98901
"2196",80.32105,80.00244
"2197",80.306404,80.01587
"2198",80.28199,80.0293
"2199",80.2478,80.042725
"2200",80.201416,80.05615
"2201",80.15503,80.06958
"2202",80.1062,80.08301
"2203",80.05737,80.096436
"2204",80.01099,80.10986
"2205",79.96948,80.12329
"2206",79.92798,80.13672
"2207",79.888916,80.15015
"2208",79.84985,80.163574
"2209",79.81323,80.177
"2210",79.783936,80.19043
"2211",79.75708,80.20386
"2212",79.73998,80.217285
"2213",79.725334,80.23071
"2214",79.71313,80.24414
"2215",79.70336,80.25757
"2216",79.691154,80.270996
"2217",79.67895,80.284424
"2218",79.66186,80.29785
"2219",79.639885,80.31128
"2220",79.61547,80.32471
"2221",79.59106,80.338135
"2222",79.571526,80.35156
"2223",79.571526,80.36499
"2224",79.59594,80.37842
"2225",79.65209,80.391846
"2226",79.744865,80.40527
"2227",79.86694,80.4187
"2228",80.01343,80.43213
"2229",80.15991,80.44556
"2230",80.29908,80.458984
"2231",80.41627,80.47241
"2232",80.499275,80.48584
"2233",80.552986,80.49927
"2234",80.57984,80.512695
"2235",80.58228,80.52612
"2236",80.57252,80.53955
"2237",80.552986,80.55298
"2238",80.52369,80.56641
"2239",80.49439,80.579834
"2240",80.46021,80.59326
"2241",80.428474,80.60669
"2242",80.39185,80.62012
"2243",80.35279,80.633545
"2244",80.31373,80.64697
"2245",80.27711,80.6604
"2246",80.2478,80.67383
"2247",80.233154,80.687256
"2248",80.233154,80.70068
"2249",80.24536,80.71411
"2250",80.26002,80.72754
"2251",80.26734,80.74097
"2252",80.2649,80.754395
"2253",80.25025,80.76782
"2254",80.22339,80.78125
"2255",80.19165,80.79468
"2256",80.15747,80.808105
"2257",80.12085,80.82153
"2258",80.079346,80.83496
"2259",80.03296,80.84839
"2260",79.97925,80.86182
"2261",79.91577,80.875244
"2262",79.84497,80.88867
"2263",79.77417,80.9021
"2264",79.708244,80.91553
"2265",79.65453,80.928955
"2266",79.61059,80.94238
"2267",79.57641,80.95581
"2268",79.551994,80.96924
"2269",79.53246,80.982666
"2270",79.520256,80.99609
"2271",79.517815,81.00952
"2272",79.52514,81.02295
"2273",79.53979,81.03638
"2274",79.56176,81.049805
"2275",79.586174,81.06323
"2276",79.61303,81.07666
"2277",79.63256,81.09009
"2278",79.64233,81.103516
"2279",79.64721,81.11694
"2280",79.64477,81.13037
"2281",79.64965,81.1438
"2282",79.67162,81.15723
"2283",79.725334,81.170654
"2284",79.80591,81.18408
"2285",79.920654,81.19751
"2286",80.05493,81.21094
"2287",80.19165,81.224365
"2288",80.31861,81.23779
"2289",80.428474,81.25122
"2290",80.51392,81.26465
"2291",80.570076,81.278076
"2292",80.601814,81.291504
"2293",80.60914,81.30493
"2294",80.59693,81.31836
"2295",80.570076,81.33179
"2296",80.5359,81.345215
"2297",80.49439,81.35864
"2298",80.448006,81.37207
"2299",80.40162,81.3855
"2300",80.34791,81.398926
"2301",80.291756,81.41235
"2302",80.24048,81.42578
"2303",80.19653,81.43921
"2304",80.16235,81.45264
"2305",80.1355,81.466064
"2306",80.11597,81.47949
"2307",80.09888,81.49292
"2308",80.08667,81.50635
"2309",80.076904,81.519775
"2310",80.06714,81.5332
"2311",80.05005,81.54663
"2312",80.02075,81.56006
"2313",79.971924,81.57349
"2314",79.91577,81.586914
"2315",79.85474,81.60034
"2316",79.79614,81.61377
"2317",79.73998,81.6272
"2318",79.69604,81.640625
"2319",79.66186,81.65405
"2320",79.635,81.66748
"2321",79.61059,81.68091
"2322",79.59106,81.694336
"2323",79.57641,81.70776
"2324",79.55932,81.72119
"2325",79.54711,81.73462
"2326",79.534904,81.74805
"2327",79.534904,81.761475
"2328",79.53979,81.7749
"2329",79.54711,81.78833
"2330",79.55688,81.80176
"2331",79.569084,81.815186
"2332",79.57397,81.82861
"2333",79.571526,81.84204
"2334",79.55932,81.85547
"2335",79.53979,81.8689
"2336",79.51049,81.882324
"2337",79.47387,81.89575
"2338",79.44457,81.90918
"2339",79.432365,81.92261
"2340",79.4519,81.936035
"2341",79.51293,81.94946
"2342",79.62035,81.96289
"2343",79.76929,81.97632
"2344",79.94507,81.989746
"2345",80.128174,82.003174
"2346",80.29908,82.0166
"2347",80.44312,82.03003
"2348",80.55543,82.04346
"2349",80.63111,82.056885
"2350",80.672615,82.07031
"2351",80.69215,82.08374
"2352",80.69459,82.09717
"2353",80.68726,82.110596
"2354",80.67017,82.12402
"2355",80.65064,82.13745
"2356",80.62379,82.15088
"2357",80.59937,82.16431
"2358",80.57496,82.177734
"2359",80.550545,82.19116
"2360",80.53101,82.20459
"2361",80.52125,82.21802
"2362",80.52125,82.231445
"2363",80.53101,82.24487
"2364",80.5481,82.2583
"2365",80.56275,82.27173
"2366",80.570076,82.28516
"2367",80.570076,82.298584
"2368",80.55787,82.31201
"2369",80.53834,82.32544
"2370",80.51392,82.33887
"2371",80.48463,82.352295
"2372",80.445564,82.36572
"2373",80.396736,82.37915
"2374",80.34547,82.39258
"2375",80.2942,82.406006
"2376",80.24536,82.41943
"2377",80.19165,82.43286
"2378",80.1355,82.44629
"2379",80.076904,82.45972
"2380",80.01343,82.473145
"2381",79.95239,82.48657
"2382",79.89868,82.5
"2383",79.84985,82.51343
"2384",79.81079,82.526855
"2385",79.783936,82.54028
"2386",79.77417,82.55371
"2387",79.77905,82.56714
"2388",79.79126,82.58057
"2389",79.798584,82.593994
"2390",79.7937,82.60742
"2391",79.77905,82.62085
"2392",79.75464,82.63428
"2393",79.727776,82.647705
"2394",79.71313,82.66113
"2395",79.71801,82.67456
"2396",79.74975,82.68799
"2397",79.815674,82.701416
"2398",79.920654,82.71484
"2399",80.05737,82.72827
"2400",80.21362,82.7417
"2401",80.37232,82.75513
"2402",80.50904,82.768555
"2403",80.61402,82.78198
"2404",80.68482,82.79541
"2405",80.726326,82.80884
"2406",80.73853,82.822266
"2407",80.73609,82.83569
"2408",80.719,82.84912
"2409",80.69215,82.86255
"2410",80.655525,82.87598
"2411",80.61158,82.889404
"2412",80.55543,82.90283
"2413",80.49195,82.91626
"2414",80.428474,82.92969
"2415",80.36744,82.943115
"2416",80.31617,82.95654
"2417",80.274666,82.96997
"2418",80.24536,82.9834
"2419",80.22339,82.996826
"2420",80.2063,83.010254
"2421",80.18677,83.02368
"2422",80.16724,83.03711
"2423",80.14282,83.05054
"2424",80.111084,83.063965
"2425",80.07446,83.07739
"2426",80.03052,83.09082
"2427",79.97925,83.10425
"2428",79.92554,83.117676
"2429",79.86694,83.1311
"2430",79.80347,83.14453
"2431",79.74731,83.15796
"2432",79.691154,83.17139
"2433",79.639885,83.184814
"2434",79.59106,83.19824
"2435",79.54711,83.21167
"2436",79.50805,83.2251
"2437",79.47387,83.238525
"2438",79.44213,83.25195
"2439",79.41772,83.26538
"2440",79.40063,83.27881
"2441",79.3933,83.29224
"2442",79.38598,83.305664
"2443",79.38354,83.31909
"2444",79.378654,83.33252
"2445",79.37377,83.34595
"2446",79.36645,83.359375
"2447",79.35912,83.3728
"2448",79.35424,83.38623
"2449",79.34692,83.39966
"2450",79.33959,83.413086
"2451",79.33471,83.42651
"2452",79.33227,83.43994
"2453",79.344475,83.45337
"2454",79.378654,83.4668
"2455",79.44457,83.480225
"2456",79.54955,83.49365
"2457",79.69604,83.50708
"2458",79.86694,83.52051
"2459",80.04761,83.533936
"2460",80.218506,83.54736
"2461",80.36988,83.56079
"2462",80.48707,83.57422
"2463",80.57496,83.58765
"2464",80.62867,83.601074
"2465",80.65797,83.6145
"2466",80.66041,83.62793
"2467",80.65064,83.64136
"2468",80.63111,83.654785
"2469",80.604256,83.66821
"2470",80.570076,83.68164
"2471",80.52857,83.69507
"2472",80.48463,83.708496
"2473",80.430916,83.721924
"2474",80.377205,83.73535
"2475",80.325935,83.74878
"2476",80.28199,83.76221
"2477",80.24292,83.775635
"2478",80.21118,83.78906
"2479",80.181885,83.80249
"2480",80.15015,83.81592
"2481",80.12085,83.829346
"2482",80.093994,83.84277
"2483",80.062256,83.8562
"2484",80.02319,83.86963
"2485",79.974365,83.88306
"2486",79.920654,83.896484
"2487",79.86206,83.90991
"2488",79.80347,83.92334
"2489",79.744865,83.93677
"2490",79.68871,83.950195
"2491",79.63256,83.96362
"2492",79.57397,83.97705
"2493",79.51293,83.99048
"2494",79.45922,84.00391
"2495",79.412834,84.017334
"2496",79.378654,84.03076
"2497",79.35424,84.04419
"2498",79.33471,84.05762
"2499",79.32006,84.071045
"2500",79.30541,84.08447
"2501",79.28832,84.0979
"2502",79.276115,84.11133
"2503",79.26635,84.124756
"2504",79.256584,84.13818
"2505",79.24681,84.15161
"2506",79.23216,84.16504
"2507",79.219955,84.17847
"2508",79.20531,84.191895
"2509",79.18822,84.20532
"2510",79.17113,84.21875
"2511",79.151596,84.23218
"2512",79.13451,84.245605
"2513",79.11742,84.25903
"2514",79.11009,84.27246
"2515",79.114975,84.28589
"2516",79.13939,84.29932
"2517",79.19066,84.312744
"2518",79.281,84.32617
"2519",79.40307,84.3396
"2520",79.54955,84.35303
"2521",79.7058,84.366455
"2522",79.85718,84.37988
"2523",79.98413,84.39331
"2524",80.079346,84.40674
"2525",80.14038,84.420166
"2526",80.17456,84.43359
"2527",80.18921,84.44702
"2528",80.19165,84.46045
"2529",80.18677,84.47388
"2530",80.184326,84.487305
"2531",80.181885,84.50073
"2532",80.184326,84.51416
"2533",80.18677,84.52759
"2534",80.17944,84.541016
"2535",80.17212,84.55444
"2536",80.16235,84.56787
"2537",80.15015,84.5813
"2538",80.13794,84.59473
"2539",80.128174,84.608154
"2540",80.113525,84.62158
"2541",80.093994,84.63501
"2542",80.0647,84.64844
"2543",80.02319,84.661865
"2544",79.96948,84.67529
"2545",79.90845,84.68872
"2546",79.84497,84.70215
"2547",79.783936,84.715576
"2548",79.73022,84.729004
"2549",79.68139,84.74243
"2550",79.635,84.75586
"2551",79.588615,84.76929
"2552",79.54223,84.782715
"2553",79.500725,84.79614
"2554",79.46899,84.80957
"2555",79.44213,84.823
"2556",79.42748,84.836426
"2557",79.4226,84.84985
"2558",79.41772,84.86328
"2559",79.42016,84.87671
"2560",79.42504,84.89014
"2561",79.43481,84.903564
"2562",79.4519,84.91699
"2563",79.46899,84.93042
"2564",79.48119,84.94385
"2565",79.49584,84.957275
"2566",79.51293,84.9707
"2567",79.52514,84.98413
"2568",79.53979,84.99756
"2569",79.55688,85.01099
"2570",79.571526,85.024414
"2571",79.57885,85.03784
"2572",79.57641,85.05127
"2573",79.5642,85.0647
"2574",79.54223,85.078125
"2575",79.517815,85.09155
"2576",79.50561,85.10498
"2577",79.520256,85.11841
"2578",79.571526,85.131836
"2579",79.66918,85.14526
"2580",79.81323,85.15869
"2581",79.98657,85.17212
"2582",80.16724,85.18555
"2583",80.34058,85.198975
"2584",80.48951,85.2124
"2585",80.60914,85.22583
"2586",80.69947,85.23926
"2587",80.76784,85.252686
"2588",80.80934,85.26611
"2589",80.82887,85.27954
"2590",80.82887,85.29297
"2591",80.814224,85.3064
"2592",80.78981,85.319824
"2593",80.75563,85.33325
"2594",80.71412,85.34668
"2595",80.672615,85.36011
"2596",80.62623,85.373535
"2597",80.5774,85.38696
"2598",80.533455,85.40039
"2599",80.49439,85.41382
"2600",80.46754,85.427246
"2601",80.45289,85.440674
"2602",80.445564,85.4541
"2603",80.43824,85.46753
"2604",80.42603,85.48096
"2605",80.396736,85.494385
"2606",80.35523,85.50781
"2607",80.30396,85.52124
"2608",80.25025,85.53467
"2609",80.18921,85.548096
"2610",80.130615,85.56152
"2611",80.06714,85.57495
"2612",79.99634,85.58838
"2613",79.91821,85.60181
"2614",79.83765,85.615234
"2615",79.75952,85.62866
"2616",79.68383,85.64209
"2617",79.62035,85.65552
"2618",79.571526,85.668945
"2619",79.53246,85.68237
"2620",79.50561,85.6958
"2621",79.48608,85.70923
"2622",79.47387,85.72266
"2623",79.46166,85.736084
"2624",79.447014,85.74951
"2625",79.42748,85.76294
"2626",79.40551,85.77637
"2627",79.38598,85.789795
"2628",79.36645,85.80322
"2629",79.35668,85.81665
"2630",79.34692,85.83008
"2631",79.33715,85.843506
"2632",79.327385,85.85693
"2633",79.3225,85.87036
"2634",79.33715,85.88379
"2635",79.378654,85.89722
"2636",79.45434,85.910645
"2637",79.56664,85.92407
"2638",79.70336,85.9375
"2639",79.84741,85.95093
"2640",79.98657,85.964355
"2641",80.1062,85.97778
"2642",80.19165,85.99121
"2643",80.24536,86.00464
"2644",80.26734,86.01807
"2645",80.26246,86.031494
"2646",80.2478,86.04492
"2647",80.23071,86.05835
"2648",80.216064,86.07178
"2649",80.2063,86.085205
"2650",80.19409,86.09863
"2651",80.17944,86.11206
"2652",80.15747,86.12549
"2653",80.130615,86.138916
"2654",80.096436,86.15234
"2655",80.06958,86.16577
"2656",80.04761,86.1792
"2657",80.0354,86.19263
"2658",80.03052,86.206055
"2659",80.028076,86.21948
"2660",80.025635,86.23291
"2661",80.02075,86.24634
"2662",80.008545,86.259766
"2663",79.9939,86.27319
"2664",79.974365,86.28662
"2665",79.94995,86.30005
"2666",79.91577,86.31348
"2667",79.871826,86.326904
"2668",79.82056,86.34033
"2669",79.764404,86.35376
"2670",79.708244,86.36719
"2671",79.65453,86.380615
"2672",79.603264,86.39404
"2673",79.56176,86.40747
"2674",79.520256,86.4209
"2675",79.483635,86.434326
"2676",79.45678,86.447754
"2677",79.44457,86.46118
"2678",79.44213,86.47461
"2679",79.447014,86.48804
"2680",79.45678,86.501465
"2681",79.4641,86.51489
"2682",79.466545,86.52832
"2683",79.466545,86.54175
"2684",79.4641,86.555176
"2685",79.4641,86.5686
"2686",79.4641,86.58203
"2687",79.46166,86.59546
"2688",79.45434,86.60889
"2689",79.44213,86.622314
"2690",79.42748,86.63574
"2691",79.41772,86.64917
"2692",79.42016,86.6626
"2693",79.44457,86.676025
"2694",79.50561,86.68945
"2695",79.60082,86.70288
"2696",79.727776,86.71631
"2697",79.87427,86.72974
"2698",80.0354,86.743164
"2699",80.19409,86.75659
"2700",80.33082,86.77002
"2701",80.44312,86.78345
"2702",80.52857,86.796875
"2703",80.58961,86.8103
"2704",80.63355,86.82373
"2705",80.66041,86.83716
"2706",80.6775,86.850586
"2707",80.69215,86.86401
"2708",80.69215,86.87744
"2709",80.67506,86.89087
"2710",80.64332,86.9043
"2711",80.604256,86.917725
"2712",80.55787,86.93115
"2713",80.51148,86.94458
"2714",80.4773,86.95801
"2715",80.45289,86.971436
"2716",80.44068,86.98486
"2717",80.428474,86.99829
"2718",80.42115,87.01172
"2719",80.4065,87.02515
"2720",80.38697,87.038574
"2721",80.36256,87.052
"2722",80.33082,87.06543
"2723",80.29664,87.07886
"2724",80.25269,87.092285
"2725",80.20386,87.10571
"2726",80.14038,87.11914
"2727",80.06958,87.13257
"2728",79.98657,87.145996
"2729",79.906006,87.159424
"2730",79.83032,87.17285
"2731",79.764404,87.18628
"2732",79.710686,87.19971
"2733",79.66918,87.213135
"2734",79.63012,87.22656
"2735",79.59838,87.23999
"2736",79.57397,87.25342
"2737",79.56176,87.266846
"2738",79.554436,87.28027
"2739",79.551994,87.2937
"2740",79.551994,87.30713
"2741",79.54711,87.32056
"2742",79.54223,87.333984
"2743",79.53246,87.34741
"2744",79.520256,87.36084
"2745",79.50317,87.37427
"2746",79.48119,87.387695
"2747",79.4519,87.40112
"2748",79.415276,87.41455
"2749",79.378654,87.42798
"2750",79.34203,87.44141
"2751",79.310295,87.454834
"2752",79.290764,87.46826
"2753",79.293205,87.48169
"2754",79.3225,87.49512
"2755",79.38354,87.508545
"2756",79.48119,87.52197
"2757",79.61547,87.5354
"2758",79.77661,87.54883
"2759",79.95239,87.562256
"2760",80.12573,87.57568
"2761",80.27711,87.58911
"2762",80.394295,87.60254
"2763",80.482185,87.61597
"2764",80.54078,87.629395
"2765",80.57252,87.64282
"2766",80.587166,87.65625
"2767",80.587166,87.66968
"2768",80.57496,87.683105
"2769",80.5481,87.69653
"2770",80.51392,87.70996
"2771",80.46998,87.72339
"2772",80.42115,87.73682
"2773",80.37232,87.750244
"2774",80.33326,87.76367
"2775",80.30152,87.7771
"2776",80.28443,87.79053
"2777",80.26734,87.803955
"2778",80.26002,87.81738
"2779",80.25269,87.83081
"2780",80.2478,87.84424
"2781",80.24292,87.857666
"2782",80.24292,87.87109
"2783",80.23804,87.88452
"2784",80.22339,87.89795
"2785",80.19653,87.91138
"2786",80.15747,87.924805
"2787",80.111084,87.93823
"2788",80.059814,87.95166
"2789",80.008545,87.96509
"2790",79.9646,87.978516
"2791",79.92798,87.99194
"2792",79.8938,88.00537
"2793",79.86206,88.0188
"2794",79.82788,88.03223
"2795",79.801025,88.045654
"2796",79.77661,88.05908
"2797",79.764404,88.07251
"2798",79.76196,88.08594
"2799",79.76929,88.099365
"2800",79.77905,88.11279
"2801",79.78638,88.12622
"2802",79.7937,88.13965
"2803",79.79614,88.153076
"2804",79.79614,88.166504
"2805",79.79126,88.17993
"2806",79.78638,88.19336
"2807",79.77661,88.20679
"2808",79.76196,88.220215
"2809",79.74731,88.23364
"2810",79.7351,88.24707
"2811",79.73266,88.2605
"2812",79.74975,88.273926
"2813",79.7937,88.28735
"2814",79.869385,88.30078
"2815",79.974365,88.31421
"2816",80.10864,88.32764
"2817",80.255135,88.341064
"2818",80.40162,88.35449
"2819",80.5359,88.36792
"2820",80.65064,88.38135
"2821",80.740974,88.394775
"2822",80.799576,88.4082
"2823",80.83864,88.42163
"2824",80.85573,88.43506
"2825",80.85329,88.44849
"2826",80.833755,88.461914
"2827",80.80934,88.47534
"2828",80.7776,88.48877
"2829",80.743416,88.5022
"2830",80.709236,88.515625
"2831",80.6775,88.52905
"2832",80.65064,88.54248
"2833",80.63111,88.55591
"2834",80.61646,88.569336
"2835",80.604256,88.58276
"2836",80.59693,88.59619
"2837",80.58961,88.60962
"2838",80.57984,88.62305
"2839",80.56031,88.636475
"2840",80.533455,88.6499
"2841",80.49439,88.66333
"2842",80.448006,88.67676
"2843",80.394295,88.690186
"2844",80.34547,88.70361
"2845",80.30396,88.71704
"2846",80.26246,88.73047
"2847",80.22095,88.7439
"2848",80.17944,88.757324
"2849",80.13306,88.77075
"2850",80.08667,88.78418
"2851",80.04028,88.79761
"2852",79.99634,88.811035
"2853",79.954834,88.82446
"2854",79.91821,88.83789
"2855",79.886475,88.85132
"2856",79.85718,88.864746
"2857",79.83032,88.878174
"2858",79.80347,88.8916
"2859",79.77417,88.90503
"2860",79.73998,88.91846
"2861",79.7058,88.931885
"2862",79.67895,88.94531
"2863",79.65942,88.95874
"2864",79.65453,88.97217
"2865",79.66918,88.985596
"2866",79.7058,88.99902
"2867",79.766846,89.01245
"2868",79.84985,89.02588
"2869",79.94995,89.03931
"2870",80.062256,89.052734
"2871",80.17456,89.06616
"2872",80.27711,89.07959
"2873",80.360115,89.09302
"2874",80.41871,89.106445
"2875",80.46021,89.11987
"2876",80.48707,89.1333
"2877",80.50416,89.14673
"2878",80.51148,89.16016
"2879",80.516365,89.173584
"2880",80.5066,89.18701
"2881",80.482185,89.20044
"2882",80.445564,89.21387
"2883",80.40406,89.227295
"2884",80.35767,89.24072
"2885",80.32105,89.25415
"2886",80.291756,89.26758
"2887",80.272224,89.281006
"2888",80.26002,89.29443
"2889",80.25025,89.30786
"2890",80.235596,89.32129
"2891",80.21362,89.33472
"2892",80.18677,89.348145
"2893",80.15259,89.36157
"2894",80.111084,89.375
"2895",80.0647,89.38843
"2896",80.02075,89.401855
"2897",79.96948,89.41528
"2898",79.92554,89.42871
"2899",79.88159,89.44214
"2900",79.83765,89.45557
"2901",79.7937,89.468994
"2902",79.74975,89.48242
"2903",79.70336,89.49585
"2904",79.656975,89.50928
"2905",79.61059,89.522705
"2906",79.571526,89.53613
"2907",79.53979,89.54956
"2908",79.51049,89.56299
"2909",79.48608,89.576416
"2910",79.466545,89.58984
"2911",79.4519,89.60327
"2912",79.44213,89.6167
"2913",79.432365,89.63013
"2914",79.4226,89.643555
"2915",79.40795,89.65698
"2916",79.3933,89.67041
"2917",79.37377,89.68384
"2918",79.361565,89.697266
"2919",79.364006,89.71069
"2920",79.38354,89.72412
"2921",79.43481,89.73755
"2922",79.52514,89.75098
"2923",79.656975,89.764404
"2924",79.818115,89.77783
"2925",79.991455,89.79126
"2926",80.15503,89.80469
"2927",80.2942,89.818115
"2928",80.39918,89.83154
"2929",80.47486,89.84497
"2930",80.52613,89.8584
"2931",80.55543,89.871826
"2932",80.57496,89.885254
"2933",80.58961,89.89868
"2934",80.59693,89.91211
"2935",80.59693,89.92554
"2936",80.59205,89.938965
"2937",80.57252,89.95239
"2938",80.54566,89.96582
"2939",80.51148,89.97925
"2940",80.47242,89.992676
"2941",80.4358,90.0061
"2942",80.40406,90.01953
"2943",80.37232,90.03296
"2944",80.34058,90.04639
"2945",80.31129,90.059814
"2946",80.28443,90.07324
"2947",80.26246,90.08667
"2948",80.235596,90.1001
"2949",80.21118,90.113525
"2950",80.18921,90.12695
"2951",80.164795,90.14038
"2952",80.13306,90.15381
"2953",80.096436,90.16724
"2954",80.05493,90.180664
"2955",80.01099,90.19409
"2956",79.9646,90.20752
"2957",79.91821,90.22095
"2958",79.8645,90.234375
"2959",79.80835,90.2478
"2960",79.744865,90.26123
"2961",79.68139,90.27466
"2962",79.622795,90.288086
"2963",79.571526,90.30151
"2964",79.52758,90.31494
"2965",79.49096,90.32837
"2966",79.45922,90.3418
"2967",79.429924,90.355225
"2968",79.40795,90.36865
"2969",79.398186,90.38208
"2970",79.395744,90.39551
"2971",79.395744,90.408936
"2972",79.40307,90.42236
"2973",79.41039,90.43579
"2974",79.412834,90.44922
"2975",79.41772,90.46265
"2976",79.429924,90.476074
"2977",79.4641,90.4895
"2978",79.52514,90.50293
"2979",79.62524,90.51636
"2980",79.75464,90.529785
"2981",79.906006,90.54321
"2982",80.06714,90.55664
"2983",80.216064,90.57007
"2984",80.343025,90.583496
"2985",80.445564,90.596924
"2986",80.52125,90.61035
"2987",80.57252,90.62378
"2988",80.604256,90.63721
"2989",80.61402,90.650635
"2990",80.6067,90.66406
"2991",80.584724,90.67749
"2992",80.552986,90.69092
"2993",80.51881,90.704346
"2994",80.48951,90.71777
"2995",80.462654,90.7312
"2996",80.43824,90.74463
"2997",80.413826,90.75806
"2998",80.38697,90.771484
"2999",80.35767,90.78491
"3000",80.33082,90.79834
"3001",80.30396,90.81177
"3002",80.28687,90.825195
"3003",80.272224,90.83862
"3004",80.26002,90.85205
"3005",80.25025,90.86548
"3006",80.23804,90.87891
"3007",80.22095,90.892334
"3008",80.19653,90.90576
"3009",80.16968,90.91919
"3010",80.14038,90.93262
"3011",80.1062,90.946045
"3012",80.07202,90.95947
"3013",80.03784,90.9729
"3014",80.00366,90.98633
"3015",79.9646,90.999756
"3016",79.923096,91.01318
"3017",79.87915,91.02661
"3018",79.83276,91.04004
"3019",79.783936,91.05347
"3020",79.73998,91.066895
"3021",79.70092,91.08032
"3022",79.67162,91.09375
"3023",79.64965,91.10718
"3024",79.635,91.120605
"3025",79.635,91.13403
"3026",79.639885,91.14746
"3027",79.64477,91.16089
"3028",79.64965,91.17432
"3029",79.64477,91.187744
"3030",79.62768,91.20117
"3031",79.603264,91.2146
"3032",79.571526,91.22803
"3033",79.537346,91.241455
"3034",79.51293,91.25488
"3035",79.50561,91.26831
"3036",79.5227,91.28174
"3037",79.56664,91.295166
"3038",79.64477,91.30859
"3039",79.75952,91.32202
"3040",79.90112,91.33545
"3041",80.05493,91.34888
"3042",80.21118,91.362305
"3043",80.35035,91.37573
"3044",80.462654,91.38916
"3045",80.54566,91.40259
"3046",80.604256,91.416016
"3047",80.64332,91.42944
"3048",80.655525,91.44287
"3049",80.65308,91.4563
"3050",80.64088,91.46973
"3051",80.618904,91.483154
"3052",80.59693,91.49658
"3053",80.570076,91.51001
"3054",80.54322,91.52344
"3055",80.51148,91.536865
"3056",80.4773,91.55029
"3057",80.448006,91.56372
"3058",80.428474,91.57715
"3059",80.41871,91.590576
"3060",80.413826,91.604004
"3061",80.41627,91.61743
"3062",80.41627,91.63086
"3063",80.40894,91.64429
"3064",80.396736,91.657715
"3065",80.377205,91.67114
"3066",80.34791,91.68457
"3067",80.31129,91.698
"3068",80.2649,91.711426
"3069",80.21118,91.72485
"3070",80.15259,91.73828
"3071",80.08911,91.75171
"3072",80.028076,91.76514
"3073",79.96704,91.778564
"3074",79.91089,91.79199
"3075",79.85718,91.80542
"3076",79.81079,91.81885
"3077",79.76929,91.832275
"3078",79.7351,91.8457
"3079",79.7058,91.85913
"3080",79.68383,91.87256
"3081",79.66186,91.88599
"3082",79.64477,91.899414
"3083",79.62768,91.91284
"3084",79.61547,91.92627
"3085",79.605705,91.9397
"3086",79.59594,91.953125
"3087",79.57885,91.96655
"3088",79.55688,91.97998
"3089",79.537346,91.99341
"3090",79.520256,92.006836
"3091",79.51537,92.02026
"3092",79.534904,92.03369
"3093",79.58373,92.04712
"3094",79.6643,92.06055
"3095",79.77417,92.073975
"3096",79.90845,92.0874
"3097",80.04761,92.10083
"3098",80.17944,92.11426
"3099",80.29664,92.127686
"3100",80.38941,92.14111
"3101",80.45533,92.15454
"3102",80.49683,92.16797
"3103",80.51881,92.1814
"3104",80.52369,92.194824
"3105",80.51881,92.20825
"3106",80.50416,92.22168
"3107",80.48463,92.23511
"3108",80.45533,92.248535
"3109",80.42115,92.26196
"3110",80.37476,92.27539
"3111",80.325935,92.28882
"3112",80.28199,92.302246
"3113",80.2478,92.315674
"3114",80.218506,92.3291
"3115",80.201416,92.34253
"3116",80.184326,92.35596
"3117",80.17212,92.369385
"3118",80.15503,92.38281
"3119",80.14038,92.39624
"3120",80.12085,92.40967
"3121",80.093994,92.423096
"3122",80.05737,92.43652
"3123",80.008545,92.44995
"3124",79.94995,92.46338
"3125",79.89136,92.47681
"3126",79.82788,92.490234
"3127",79.764404,92.50366
"3128",79.69848,92.51709
"3129",79.63256,92.53052
"3130",79.56664,92.543945
"3131",79.49828,92.55737
"3132",79.43725,92.5708
"3133",79.38354,92.58423
"3134",79.33959,92.59766
"3135",79.29809,92.611084
"3136",79.26391,92.62451
"3137",79.23949,92.63794
"3138",79.217514,92.65137
"3139",79.202866,92.664795
"3140",79.19798,92.67822
"3141",79.19798,92.69165
"3142",79.200424,92.70508
"3143",79.20775,92.718506
"3144",79.22728,92.73193
"3145",79.24925,92.74536
"3146",79.276115,92.75879
"3147",79.30053,92.77222
"3148",79.3225,92.785645
"3149",79.33959,92.79907
"3150",79.35912,92.8125
"3151",79.398186,92.82593
"3152",79.4641,92.839355
"3153",79.57397,92.85278
"3154",79.72289,92.86621
"3155",79.89624,92.87964
"3156",80.08423,92.89307
"3157",80.2649,92.906494
"3158",80.42115,92.91992
"3159",80.54566,92.93335
"3160",80.638435,92.94678
"3161",80.69703,92.960205
"3162",80.73121,92.97363
"3163",80.7483,92.98706
"3164",80.75075,93.00049
"3165",80.73365,93.013916
"3166",80.706795,93.02734
"3167",80.672615,93.04077
"3168",80.63355,93.0542
"3169",80.59205,93.06763
"3170",80.550545,93.081055
"3171",80.51148,93.09448
"3172",80.479744,93.10791
"3173",80.45045,93.12134
"3174",80.43336,93.134766
"3175",80.42115,93.14819
"3176",80.41627,93.16162
"3177",80.411385,93.17505
"3178",80.4065,93.18848
"3179",80.39185,93.201904
"3180",80.36256,93.21533
"3181",80.32105,93.22876
"3182",80.2649,93.24219
"3183",80.201416,93.255615
"3184",80.13306,93.26904
"3185",80.0647,93.28247
"3186",79.99878,93.2959
"3187",79.93286,93.309326
"3188",79.85962,93.322754
"3189",79.783936,93.33618
"3190",79.71557,93.34961
"3191",79.65209,93.36304
"3192",79.5935,93.376465
"3193",79.54467,93.38989
"3194",79.50317,93.40332
"3195",79.46899,93.41675
"3196",79.43725,93.430176
"3197",79.415276,93.4436
"3198",79.40063,93.45703
"3199",79.395744,93.47046
"3200",79.3933,93.48389
"3201",79.398186,93.497314
"3202",79.40307,93.51074
"3203",79.40551,93.52417
"3204",79.40063,93.5376
"3205",79.395744,93.551025
"3206",79.38842,93.56445
"3207",79.37377,93.57788
"3208",79.35424,93.59131
"3209",79.33227,93.60474
"3210",79.30785,93.618164
"3211",79.29809,93.63159
"3212",79.31274,93.64502
"3213",79.364006,93.65845
"3214",79.45922,93.671875
"3215",79.588615,93.6853
"3216",79.7351,93.69873
"3217",79.89136,93.71216
"3218",80.03784,93.725586
"3219",80.15991,93.73901
"3220",80.255135,93.75244
"3221",80.32105,93.76587
"3222",80.36256,93.7793
"3223",80.38209,93.792725
"3224",80.38453,93.80615
"3225",80.377205,93.81958
"3226",80.35523,93.83301
"3227",80.32105,93.846436
"3228",80.27955,93.85986
"3229",80.235596,93.87329
"3230",80.18921,93.88672
"3231",80.147705,93.90015
"3232",80.111084,93.913574
"3233",80.08423,93.927
"3234",80.062256,93.94043
"3235",80.05493,93.95386
"3236",80.05737,93.967285
"3237",80.06714,93.98071
"3238",80.08179,93.99414
"3239",80.08911,94.00757
"3240",80.08667,94.020996
"3241",80.07446,94.034424
"3242",80.05005,94.04785
"3243",80.01831,94.06128
"3244",79.974365,94.07471
"3245",79.93042,94.088135
"3246",79.88159,94.10156
"3247",79.835205,94.11499
"3248",79.79126,94.12842
"3249",79.75708,94.141846
"3250",79.727776,94.15527
"3251",79.710686,94.1687
"3252",79.70092,94.18213
"3253",79.69848,94.19556
"3254",79.69848,94.208984
"3255",79.70336,94.22241
"3256",79.7058,94.23584
"3257",79.70092,94.24927
"3258",79.68871,94.262695
"3259",79.66918,94.27612
"3260",79.64477,94.28955
"3261",79.61791,94.30298
"3262",79.59106,94.31641
"3263",79.56664,94.329834
"3264",79.54711,94.34326
"3265",79.534904,94.35669
"3266",79.53979,94.37012
"3267",79.56176,94.383545
"3268",79.61303,94.39697
"3269",79.69848,94.4104
"3270",79.81323,94.42383
"3271",79.94995,94.437256
"3272",80.10132,94.45068
"3273",80.24536,94.46411
"3274",80.37476,94.47754
"3275",80.4773,94.49097
"3276",80.552986,94.504395
"3277",80.60914,94.51782
"3278",80.6482,94.53125
"3279",80.66773,94.54468
"3280",80.66773,94.558105
"3281",80.6482,94.57153
"3282",80.61158,94.58496
"3283",80.56031,94.59839
"3284",80.5066,94.61182
"3285",80.45533,94.625244
"3286",80.40406,94.63867
"3287",80.35523,94.6521
"3288",80.31129,94.66553
"3289",80.274666,94.678955
"3290",80.24048,94.69238
"3291",80.216064,94.70581
"3292",80.19409,94.71924
"3293",80.177,94.732666
"3294",80.15747,94.74609
"3295",80.1355,94.75952
"3296",80.10864,94.77295
"3297",80.076904,94.78638
"3298",80.03784,94.799805
"3299",79.98901,94.81323
"3300",79.92798,94.82666
"3301",79.8645,94.84009
"3302",79.80835,94.853516
"3303",79.76196,94.86694
"3304",79.73022,94.88037
"3305",79.708244,94.8938
"3306",79.68871,94.90723
"3307",79.66918,94.920654
"3308",79.64965,94.93408
"3309",79.62524,94.94751
"3310",79.605705,94.96094
"3311",79.586174,94.974365
"3312",79.569084,94.98779
"3313",79.55688,95.00122
"3314",79.54467,95.01465
"3315",79.537346,95.028076
"3316",79.534904,95.041504
"3317",79.53246,95.05493
"3318",79.53246,95.06836
"3319",79.53246,95.08179
"3320",79.53979,95.095215
"3321",79.55932,95.10864
"3322",79.60082,95.12207
"3323",79.66186,95.1355
"3324",79.75708,95.148926
"3325",79.886475,95.16235
"3326",80.04028,95.17578
"3327",80.201416,95.18921
"3328",80.365,95.20264
"3329",80.51148,95.216064
"3330",80.62379,95.22949
"3331",80.70435,95.24292
"3332",80.75075,95.25635
"3333",80.76784,95.269775
"3334",80.765396,95.2832
"3335",80.75319,95.29663
"3336",80.73365,95.31006
"3337",80.71168,95.32349
"3338",80.67994,95.336914
"3339",80.635994,95.35034
"3340",80.587166,95.36377
"3341",80.533455,95.3772
"3342",80.48707,95.390625
"3343",80.448006,95.40405
"3344",80.42359,95.41748
"3345",80.40162,95.43091
"3346",80.38697,95.444336
"3347",80.36988,95.45776
"3348",80.34791,95.47119
"3349",80.32105,95.48462
"3350",80.289314,95.49805
"3351",80.25025,95.511475
"3352",80.2063,95.5249
"3353",80.15503,95.53833
"3354",80.09888,95.55176
"3355",80.0354,95.565186
"3356",79.9646,95.57861
"3357",79.89136,95.59204
"3358",79.82056,95.60547
"3359",79.75708,95.6189
"3360",79.69604,95.632324
"3361",79.64721,95.64575
"3362",79.61303,95.65918
"3363",79.5935,95.67261
"3364",79.588615,95.686035
"3365",79.5935,95.69946
"3366",79.59838,95.71289
"3367",79.59594,95.72632
"3368",79.586174,95.739746
"3369",79.569084,95.753174
"3370",79.54955,95.7666
"3371",79.53002,95.78003
"3372",79.51293,95.79346
"3373",79.50317,95.806885
"3374",79.49828,95.82031
"3375",79.50805,95.83374
"3376",79.53246,95.84717
"3377",79.58129,95.860596
"3378",79.65453,95.87402
"3379",79.75952,95.88745
"3380",79.89136,95.90088
"3381",80.04028,95.91431
"3382",80.19409,95.927734
"3383",80.33082,95.94116
"3384",80.45045,95.95459
"3385",80.54078,95.96802
"3386",80.601814,95.981445
"3387",80.64332,95.99487
"3388",80.66285,96.0083
"3389",80.66529,96.02173
"3390",80.65064,96.03516
"3391",80.62379,96.048584
"3392",80.587166,96.06201
"3393",80.54566,96.07544
"3394",80.50172,96.08887
"3395",80.45777,96.102295
"3396",80.41871,96.11572
"3397",80.37965,96.12915
"3398",80.34791,96.14258
"3399",80.323494,96.156006
"3400",80.30152,96.16943
"3401",80.28687,96.18286
"3402",80.272224,96.19629
"3403",80.255135,96.20972
"3404",80.23804,96.223145
"3405",80.218506,96.23657
"3406",80.19409,96.25
"3407",80.16724,96.26343
"3408",80.13306,96.276855
"3409",80.09155,96.29028
"3410",80.04761,96.30371
"3411",80.00122,96.31714
"3412",79.95239,96.33057
"3413",79.903564,96.343994
"3414",79.852295,96.35742
"3415",79.80347,96.37085
"3416",79.75464,96.38428
"3417",79.71557,96.397705
"3418",79.67895,96.41113
"3419",79.64965,96.42456
"3420",79.62035,96.43799
"3421",79.588615,96.451416
"3422",79.554436,96.46484
"3423",79.52514,96.47827
"3424",79.49828,96.4917
"3425",79.47387,96.50513
"3426",79.45434,96.518555
"3427",79.43969,96.53198
"3428",79.42504,96.54541
"3429",79.41039,96.55884
"3430",79.40307,96.572266
"3431",79.40551,96.58569
"3432",79.415276,96.59912
"3433",79.449455,96.61255
"3434",79.51293,96.62598
"3435",79.61059,96.639404
"3436",79.742424,96.65283
"3437",79.89868,96.66626
"3438",80.06714,96.67969
"3439",80.22827,96.693115
"3440",80.36988,96.70654
"3441",80.482185,96.71997
"3442",80.570076,96.7334
"3443",80.63111,96.746826
"3444",80.66773,96.760254
"3445",80.69215,96.77368
"3446",80.706795,96.78711
"3447",80.709236,96.80054
"3448",80.70435,96.813965
"3449",80.69215,96.82739
"3450",80.67506,96.84082
"3451",80.6482,96.85425
"3452",80.621346,96.867676
"3453",80.59449,96.8811
"3454",80.57496,96.89453
"3455",80.55787,96.90796
"3456",80.552986,96.92139
"3457",80.55787,96.934814
"3458",80.570076,96.94824
"3459",80.5774,96.96167
"3460",80.57252,96.9751
"3461",80.552986,96.988525
"3462",80.51148,97.00195
"3463",80.448006,97.01538
"3464",80.37476,97.02881
"3465",80.30152,97.04224
"3466",80.22827,97.055664
"3467",80.164795,97.06909
"3468",80.113525,97.08252
"3469",80.07202,97.09595
"3470",80.03784,97.109375
"3471",80.01343,97.1228
"3472",79.98901,97.13623
"3473",79.957275,97.14966
"3474",79.923096,97.163086
"3475",79.89624,97.17651
"3476",79.87427,97.18994
"3477",79.84985,97.20337
"3478",79.82788,97.2168
"3479",79.801025,97.230225
"3480",79.764404,97.24365
"3481",79.72045,97.25708
"3482",79.68139,97.27051
"3483",79.65209,97.283936
"3484",79.635,97.29736
"3485",79.639885,97.31079
"3486",79.6643,97.32422
"3487",79.71801,97.33765
"3488",79.798584,97.351074
"3489",79.906006,97.3645
"3490",80.028076,97.37793
"3491",80.15747,97.39136
"3492",80.27711,97.404785
"3493",80.377205,97.41821
"3494",80.45777,97.43164
"3495",80.51392,97.44507
"3496",80.5481,97.458496
"3497",80.56275,97.471924
"3498",80.56031,97.48535
"3499",80.53834,97.49878
"3500",80.51148,97.51221
"3501",80.4773,97.525635
"3502",80.43824,97.53906
"3503",80.38941,97.55249
"3504",80.33326,97.56592
"3505",80.27955,97.579346
"3506",80.23071,97.59277
"3507",80.19165,97.6062
"3508",80.16968,97.61963
"3509",80.164795,97.63306
"3510",80.164795,97.646484
"3511",80.16235,97.65991
"3512",80.15747,97.67334
"3513",80.14526,97.68677
"3514",80.11841,97.700195
"3515",80.079346,97.71362
"3516",80.03296,97.72705
"3517",79.97925,97.74048
"3518",79.91577,97.75391
"3519",79.85474,97.767334
"3520",79.798584,97.78076
"3521",79.74731,97.79419
"3522",79.693596,97.80762
"3523",79.639885,97.821045
"3524",79.588615,97.83447
"3525",79.54467,97.8479
"3526",79.500725,97.86133
"3527",79.47143,97.874756
"3528",79.45678,97.88818
"3529",79.447014,97.90161
"3530",79.447014,97.91504
"3531",79.45434,97.92847
"3532",79.46166,97.941895
"3533",79.46899,97.95532
"3534",79.47387,97.96875
"3535",79.47875,97.98218
"3536",79.48119,97.995605
"3537",79.48119,98.00903
"3538",79.48119,98.02246
"3539",79.483635,98.03589
"3540",79.48608,98.04932
"3541",79.50561,98.062744
"3542",79.54955,98.07617
"3543",79.63012,98.0896
"3544",79.7522,98.10303
"3545",79.903564,98.116455
"3546",80.06714,98.12988
"3547",80.22827,98.14331
"3548",80.37476,98.15674
"3549",80.49439,98.170166
"3550",80.58228,98.18359
"3551",80.65064,98.19702
"3552",80.69947,98.21045
"3553",80.73121,98.22388
"3554",80.7483,98.237305
"3555",80.7483,98.25073
"3556",80.73609,98.26416
"3557",80.709236,98.27759
"3558",80.67506,98.291016
"3559",80.635994,98.30444
"3560",80.59449,98.31787
"3561",80.55543,98.3313
"3562",80.52369,98.34473
"3563",80.49683,98.358154
"3564",80.4773,98.37158
"3565",80.46021,98.38501
"3566",80.44312,98.39844
"3567",80.42603,98.411865
"3568",80.4065,98.42529
"3569",80.377205,98.43872
"3570",80.343025,98.45215
"3571",80.29908,98.465576
"3572",80.24536,98.479004
"3573",80.18677,98.49243
"3574",80.128174,98.50586
"3575",80.06958,98.51929
"3576",80.01099,98.532715
"3577",79.95239,98.54614
"3578",79.8938,98.55957
"3579",79.82788,98.573
"3580",79.75952,98.586426
"3581",79.68871,98.59985
"3582",79.61791,98.61328
"3583",79.54955,98.62671
"3584",79.48852,98.64014
"3585",79.43481,98.653564
"3586",79.38598,98.66699
"3587",79.344475,98.68042
"3588",79.310295,98.69385
"3589",79.28344,98.707275
"3590",79.259026,98.7207
"3591",79.23949,98.73413
"3592",79.219955,98.74756
"3593",79.202866,98.76099
"3594",79.18822,98.774414
"3595",79.18089,98.78784
"3596",79.17601,98.80127
"3597",79.17845,98.8147
"3598",79.183334,98.828125
"3599",79.19798,98.84155
"3600",79.22972,98.85498
"3601",79.29565,98.86841
"3602",79.40063,98.881836
"3603",79.54955,98.89526
"3604",79.725334,98.90869
"3605",79.91577,98.92212
"3606",80.08911,98.93555
"3607",80.235596,98.948975
"3608",80.34547,98.9624
"3609",80.42359,98.97583
"3610",80.47486,98.98926
"3611",80.50904,99.002686
"3612",80.52613,99.01611
"3613",80.5359,99.02954
"3614",80.5359,99.04297
"3615",80.52857,99.0564
"3616",80.51148,99.069824
"3617",80.48707,99.08325
"3618",80.448006,99.09668
"3619",80.40894,99.11011
"3620",80.37232,99.123535
"3621",80.35035,99.13696
"3622",80.33814,99.15039
"3623",80.33814,99.16382
"3624",80.34058,99.177246
"3625",80.34547,99.190674
"3626",80.34547,99.2041
"3627",80.3357,99.21753
"3628",80.323494,99.23096
"3629",80.30396,99.244385
"3630",80.27711,99.25781
"3631",80.24536,99.27124
"3632",80.2063,99.28467
"3633",80.15991,99.298096
"3634",80.1062,99.31152
"3635",80.045166,99.32495
"3636",79.98413,99.33838
"3637",79.92798,99.35181
"3638",79.88159,99.365234
"3639",79.83765,99.37866
"3640",79.798584,99.39209
"3641",79.766846,99.40552
"3642",79.73998,99.418945
"3643",79.71801,99.43237
"3644",79.70092,99.4458
"3645",79.68871,99.45923
"3646",79.67895,99.47266
"3647",79.66918,99.486084
"3648",79.656975,99.49951
"3649",79.64233,99.51294
"3650",79.62768,99.52637
"3651",79.60815,99.539795
"3652",79.588615,99.55322
"3653",79.569084,99.56665
"3654",79.55688,99.58008
"3655",79.551994,99.593506
"3656",79.5642,99.60693
"3657",79.5935,99.62036
"3658",79.64965,99.63379
"3659",79.742424,99.64722
"3660",79.871826,99.660645
"3661",80.02319,99.67407
"3662",80.18921,99.6875
"3663",80.34791,99.70093
"3664",80.48951,99.714355
"3665",80.59937,99.72778
"3666",80.6775,99.74121
"3667",80.72144,99.75464
"3668",80.73853,99.76807
"3669",80.72877,99.781494
"3670",80.69947,99.79492
"3671",80.655525,99.80835
"3672",80.60914,99.82178
"3673",80.55787,99.835205
"3674",80.5066,99.84863
"3675",80.45533,99.86206
"3676",80.40162,99.87549
"3677",80.34791,99.888916
"3678",80.29664,99.90234
"3679",80.255135,99.91577
"3680",80.22095,99.9292
"3681",80.19653,99.94263
"3682",80.177,99.956055
"3683",80.15747,99.96948
"3684",80.13794,99.98291
"3685",80.113525,99.99634
"3686",80.079346,100.009766
"3687",80.05005,100.02319
"3688",80.01831,100.03662
"3689",79.974365,100.05005
"3690",79.92798,100.06348
"3691",79.871826,100.076904
"3692",79.801025,100.09033
"3693",79.73022,100.10376
"3694",79.6643,100.11719
"3695",79.61303,100.130615
"3696",79.57641,100.14404
"3697",79.551994,100.15747
"3698",79.53246,100.1709
"3699",79.51537,100.184326
"3700",79.500725,100.197754
"3701",79.48852,100.21118
"3702",79.483635,100.22461
"3703",79.483635,100.23804
"3704",79.49828,100.251465
"3705",79.51537,100.26489
"3706",79.537346,100.27832
"3707",79.554436,100.29175
"3708",79.569084,100.305176
"3709",79.57397,100.3186
"3710",79.57397,100.33203
"3711",79.57397,100.34546
"3712",79.57641,100.35889
"3713",79.5935,100.372314
"3714",79.63744,100.38574
"3715",79.708244,100.39917
"3716",79.815674,100.4126
"3717",79.95239,100.426025
"3718",80.1062,100.43945
"3719",80.26246,100.45288
"3720",80.39918,100.46631
"3721",80.51148,100.47974
"3722",80.58961,100.493164
"3723",80.63355,100.50659
"3724",80.6482,100.52002
"3725",80.64088,100.53345
"3726",80.61646,100.546875
"3727",80.58961,100.5603
"3728",80.55543,100.57373
"3729",80.516365,100.58716
"3730",80.46754,100.600586
"3731",80.413826,100.61401
"3732",80.36256,100.62744
"3733",80.31617,100.64087
"3734",80.27955,100.6543
"3735",80.257576,100.667725
"3736",80.24048,100.68115
"3737",80.22583,100.69458
"3738",80.21118,100.70801
"3739",80.198975,100.721436
"3740",80.181885,100.73486
"3741",80.15991,100.74829
"3742",80.130615,100.76172
"3743",80.08911,100.77515
"3744",80.04028,100.788574
"3745",79.98169,100.802
"3746",79.92554,100.81543
"3747",79.86694,100.82886
"3748",79.81079,100.842285
"3749",79.764404,100.85571
"3750",79.72045,100.86914
"3751",79.674065,100.88257
"3752",79.63012,100.895996
"3753",79.586174,100.909424
"3754",79.54955,100.92285
"3755",79.517815,100.93628
"3756",79.49828,100.94971
"3757",79.4934,100.963135
"3758",79.49584,100.97656
"3759",79.51293,100.98999
"3760",79.534904,101.00342
"3761",79.55932,101.016846
"3762",79.58373,101.03027
"3763",79.603264,101.0437
"3764",79.61059,101.05713
"3765",79.605705,101.07056
"3766",79.59594,101.083984
"3767",79.58373,101.09741
"3768",79.57397,101.11084
"3769",79.56664,101.12427
"3770",79.57397,101.137695
"3771",79.588615,101.15112
"3772",79.62035,101.16455
"3773",79.676506,101.17798
"3774",79.75708,101.19141
"3775",79.85962,101.204834
"3776",79.98657,101.21826
"3777",80.12329,101.23169
"3778",80.255135,101.24512
"3779",80.365,101.258545
"3780",80.45045,101.27197
"3781",80.5066,101.2854
"3782",80.53834,101.29883
"3783",80.54566,101.312256
"3784",80.5359,101.32568
"3785",80.516365,101.33911
"3786",80.48463,101.35254
"3787",80.448006,101.36597
"3788",80.40406,101.379395
"3789",80.35767,101.39282
"3790",80.31373,101.40625
"3791",80.27711,101.41968
"3792",80.24048,101.433105
"3793",80.20874,101.44653
"3794",80.17944,101.45996
"3795",80.15015,101.47339
"3796",80.11841,101.48682
"3797",80.08667,101.500244
"3798",80.059814,101.51367
"3799",80.03784,101.5271
"3800",80.01099,101.54053
"3801",79.97925,101.553955
"3802",79.94263,101.56738
"3803",79.90112,101.58081
"3804",79.852295,101.59424
"3805",79.801025,101.607666
"3806",79.7522,101.62109
"3807",79.70336,101.63452
"3808",79.66186,101.64795
"3809",79.62768,101.66138
"3810",79.603264,101.674805
"3811",79.58373,101.68823
"3812",79.56664,101.70166
"3813",79.551994,101.71509
"3814",79.53246,101.728516
"3815",79.520256,101.74194
"3816",79.51293,101.75537
"3817",79.50805,101.7688
"3818",79.50317,101.78223
"3819",79.49828,101.795654
"3820",79.49096,101.80908
"3821",79.47631,101.82251
"3822",79.4641,101.83594
"3823",79.45434,101.849365
"3824",79.449455,101.86279
"3825",79.449455,101.87622
"3826",79.4519,101.88965
"3827",79.45434,101.903076
"3828",79.45678,101.916504
"3829",79.46166,101.92993
"3830",79.47875,101.94336
"3831",79.51537,101.95679
"3832",79.58129,101.970215
"3833",79.674065,101.98364
"3834",79.79614,101.99707
"3835",79.940186,102.0105
"3836",80.08911,102.023926
"3837",80.233154,102.03735
"3838",80.36744,102.05078
"3839",80.48463,102.06421
"3840",80.5774,102.07764
"3841",80.65064,102.091064
"3842",80.706795,102.10449
"3843",80.74586,102.11792
"3844",80.76784,102.13135
"3845",80.77272,102.144775
"3846",80.762955,102.1582
"3847",80.73853,102.17163
"3848",80.69947,102.18506
"3849",80.655525,102.19849
"3850",80.60914,102.211914
"3851",80.55787,102.22534
"3852",80.50416,102.23877
"3853",80.45777,102.2522
"3854",80.41871,102.265625
"3855",80.38941,102.27905
"3856",80.36988,102.29248
"3857",80.35767,102.30591
"3858",80.343025,102.319336
"3859",80.323494,102.33276
"3860",80.29664,102.34619
"3861",80.2649,102.35962
"3862",80.22827,102.37305
"3863",80.18677,102.386475
"3864",80.14526,102.3999
"3865",80.10132,102.41333
"3866",80.062256,102.42676
"3867",80.03052,102.440186
"3868",80.01099,102.45361
"3869",79.98901,102.46704
"3870",79.95972,102.48047
"3871",79.92554,102.4939
"3872",79.89136,102.507324
"3873",79.85474,102.52075
"3874",79.818115,102.53418
"3875",79.7937,102.54761
"3876",79.77173,102.561035
"3877",79.74975,102.57446
"3878",79.725334,102.58789
"3879",79.70092,102.60132
"3880",79.67162,102.614746
"3881",79.63256,102.628174
"3882",79.59106,102.6416
"3883",79.554436,102.65503
"3884",79.52758,102.66846
"3885",79.5227,102.681885
"3886",79.554436,102.69531
"3887",79.62524,102.70874
"3888",79.72045,102.72217
"3889",79.84253,102.735596
"3890",79.971924,102.74902
"3891",80.096436,102.76245
"3892",80.2063,102.77588
"3893",80.29908,102.78931
"3894",80.37476,102.802734
"3895",80.42603,102.81616
"3896",80.448006,102.82959
"3897",80.45045,102.84302
"3898",80.430916,102.856445
"3899",80.396736,102.86987
"3900",80.35279,102.8833
"3901",80.30152,102.89673
"3902",80.24536,102.91016
"3903",80.184326,102.923584
"3904",80.11597,102.93701
"3905",80.05005,102.95044
"3906",79.991455,102.96387
"3907",79.940186,102.977295
"3908",79.89624,102.99072
"3909",79.86206,103.00415
"3910",79.84253,103.01758
"3911",79.83032,103.031006
"3912",79.82056,103.04443
"3913",79.815674,103.05786
"3914",79.80591,103.07129
"3915",79.78638,103.08472
"3916",79.75708,103.098145
"3917",79.725334,103.11157
"3918",79.69848,103.125
"3919",79.676506,103.13843
"3920",79.656975,103.151855
"3921",79.64233,103.16528
"3922",79.63012,103.17871
"3923",79.61059,103.19214
"3924",79.59106,103.20557
"3925",79.57641,103.218994
"3926",79.55932,103.23242
"3927",79.54223,103.24585
"3928",79.52514,103.25928
"3929",79.50805,103.272705
"3930",79.48852,103.28613
"3931",79.47143,103.29956
"3932",79.4519,103.31299
"3933",79.43725,103.326416
"3934",79.42748,103.33984
"3935",79.42504,103.35327
"3936",79.432365,103.3667
"3937",79.447014,103.38013
"3938",79.47143,103.393555
"3939",79.49828,103.40698
"3940",79.534904,103.42041
"3941",79.588615,103.43384
"3942",79.66918,103.447266
"3943",79.77661,103.46069
"3944",79.906006,103.47412
"3945",80.045166,103.48755
"3946",80.184326,103.50098
"3947",80.308846,103.514404
"3948",80.41627,103.52783
"3949",80.50172,103.54126
"3950",80.56519,103.55469
"3951",80.604256,103.568115
"3952",80.62623,103.58154
"3953",80.62379,103.59497
"3954",80.604256,103.6084
"3955",80.57252,103.621826
"3956",80.5359,103.635254
"3957",80.49439,103.64868
"3958",80.45533,103.66211
"3959",80.42359,103.67554
"3960",80.39185,103.688965
"3961",80.365,103.70239
"3962",80.33814,103.71582
"3963",80.31373,103.72925
"3964",80.291756,103.742676
"3965",80.274666,103.7561
"3966",80.257576,103.76953
"3967",80.23804,103.78296
"3968",80.21362,103.79639
"3969",80.19165,103.809814
"3970",80.16235,103.82324
"3971",80.128174,103.83667
"3972",80.09155,103.8501
"3973",80.042725,103.863525
"3974",79.991455,103.87695
"3975",79.9353,103.89038
"3976",79.88159,103.90381
"3977",79.82544,103.91724
"3978",79.77905,103.930664
"3979",79.73266,103.94409
"3980",79.693596,103.95752
"3981",79.656975,103.97095
"3982",79.622795,103.984375
"3983",79.588615,103.9978
"3984",79.54955,104.01123
"3985",79.51049,104.02466
"3986",79.466545,104.038086
"3987",79.4226,104.05151
"3988",79.37621,104.06494
"3989",79.33471,104.07837
"3990",79.29809,104.0918
"3991",79.26879,104.105225
"3992",79.24681,104.11865
"3993",79.237045,104.13208
"3994",79.237045,104.14551
"3995",79.24681,104.158936
"3996",79.281,104.17236
"3997",79.34692,104.18579
"3998",79.4519,104.19922
"3999",79.59106,104.21265
"4000",79.75464,104.226074
"4001",79.92798,104.2395
"4002",80.093994,104.25293
"4003",80.24292,104.26636
"4004",80.365,104.279785
"4005",80.46021,104.29321
"4006",80.52857,104.30664
"4007",80.567635,104.32007
"4008",80.58228,104.333496
"4009",80.5774,104.346924
"4010",80.55543,104.36035
"4011",80.52613,104.37378
"4012",80.48951,104.38721
"4013",80.45289,104.400635
"4014",80.41627,104.41406
"4015",80.38209,104.42749
"4016",80.34791,104.44092
"4017",80.32105,104.454346
"4018",80.29664,104.46777
"4019",80.28443,104.4812
"4020",80.27711,104.49463
"4021",80.274666,104.50806
"4022",80.27955,104.521484
"4023",80.27711,104.53491
"4024",80.26978,104.54834
"4025",80.2478,104.56177
"4026",80.218506,104.575195
"4027",80.181885,104.58862
"4028",80.14526,104.60205
"4029",80.1062,104.61548
"4030",80.06714,104.62891
"4031",80.025635,104.642334
"4032",79.98413,104.65576
"4033",79.94507,104.66919
"4034",79.91577,104.68262
"4035",79.8938,104.696045
"4036",79.87915,104.70947
"4037",79.871826,104.7229
"4038",79.8645,104.73633
"4039",79.85962,104.749756
"4040",79.85718,104.76318
"4041",79.85962,104.77661
"4042",79.85962,104.79004
"4043",79.85962,104.80347
"4044",79.85474,104.816895
"4045",79.84497,104.83032
"4046",79.83032,104.84375
"4047",79.818115,104.85718
"4048",79.81079,104.870605
"4049",79.815674,104.88403
"4050",79.83276,104.89746
"4051",79.871826,104.91089
"4052",79.937744,104.92432
"4053",80.03052,104.937744
"4054",80.14282,104.95117
"4055",80.26734,104.9646
"4056",80.39185,104.97803
"4057",80.50172,104.991455
"4058",80.59205,105.00488
"4059",80.655525,105.01831
"4060",80.69947,105.03174
"4061",80.719,105.045166
"4062",80.72144,105.05859
"4063",80.71412,105.07202
"4064",80.69703,105.08545
"4065",80.66529,105.09888
"4066",80.62623,105.112305
"4067",80.57252,105.12573
"4068",80.5066,105.13916
"4069",80.4358,105.15259
"4070",80.36744,105.166016
"4071",80.31129,105.17944
"4072",80.26734,105.19287
"4073",80.235596,105.2063
"4074",80.21118,105.21973
"4075",80.18921,105.233154
"4076",80.164795,105.24658
"4077",80.1355,105.26001
"4078",80.10132,105.27344
"4079",80.0647,105.286865
"4080",80.02075,105.30029
"4081",79.974365,105.31372
"4082",79.92554,105.32715
"4083",79.871826,105.340576
"4084",79.815674,105.354004
"4085",79.75708,105.36743
"4086",79.70092,105.38086
"4087",79.64965,105.39429
"4088",79.605705,105.407715
"4089",79.56664,105.42114
"4090",79.534904,105.43457
"4091",79.50561,105.448
"4092",79.47875,105.461426
"4093",79.45678,105.47485
"4094",79.44213,105.48828
"4095",79.42748,105.50171
"4096",79.40795,105.51514
"4097",79.38598,105.528564
"4098",79.35912,105.54199
"4099",79.33227,105.55542
"4100",79.310295,105.56885
"4101",79.293205,105.582275
"4102",79.28832,105.5957
"4103",79.30297,105.60913
"4104",79.33715,105.62256
"4105",79.40063,105.63599
"4106",79.4934,105.649414
"4107",79.61059,105.66284
"4108",79.74731,105.67627
"4109",79.8938,105.6897
"4110",80.042725,105.703125
"4111",80.17456,105.71655
"4112",80.28199,105.72998
"4113",80.35767,105.74341
"4114",80.40406,105.756836
"4115",80.41871,105.77026
"4116",80.413826,105.78369
"4117",80.396736,105.79712
"4118",80.37232,105.81055
"4119",80.34547,105.823975
"4120",80.31861,105.8374
"4121",80.291756,105.85083
"4122",80.26978,105.86426
"4123",80.24292,105.877686
"4124",80.218506,105.89111
"4125",80.19409,105.90454
"4126",80.17212,105.91797
"4127",80.15747,105.9314
"4128",80.15259,105.944824
"4129",80.15259,105.95825
"4130",80.15259,105.97168
"4131",80.15259,105.98511
"4132",80.15015,105.998535
"4133",80.13794,106.01196
"4134",80.11841,106.02539
"4135",80.10132,106.03882
"4136",80.079346,106.052246
"4137",80.05493,106.065674
"4138",80.0354,106.0791
"4139",80.01343,106.09253
"4140",79.98901,106.10596
"4141",79.9646,106.119385
"4142",79.94263,106.13281
"4143",79.91333,106.14624
"4144",79.886475,106.15967
"4145",79.8645,106.173096
"4146",79.84253,106.18652
"4147",79.82056,106.19995
"4148",79.801025,106.21338
"4149",79.781494,106.22681
"4150",79.76196,106.240234
"4151",79.742424,106.25366
"4152",79.725334,106.26709
"4153",79.70336,106.28052
"4154",79.68139,106.293945
"4155",79.65942,106.30737
"4156",79.63744,106.3208
"4157",79.62035,106.33423
"4158",79.61059,106.34766
"4159",79.60815,106.361084
"4160",79.61547,106.37451
"4161",79.63256,106.38794
"4162",79.6643,106.40137
"4163",79.72289,106.414795
"4164",79.80347,106.42822
"4165",79.91089,106.44165
"4166",80.04028,106.45508
"4167",80.181885,106.468506
"4168",80.323494,106.48193
"4169",80.448006,106.49536
"4170",80.550545,106.50879
"4171",80.63111,106.52222
"4172",80.68482,106.535645
"4173",80.71412,106.54907
"4174",80.726326,106.5625
"4175",80.719,106.57593
"4176",80.69215,106.589355
"4177",80.65064,106.60278
"4178",80.59449,106.61621
"4179",80.5359,106.62964
"4180",80.47242,106.64307
"4181",80.4065,106.656494
"4182",80.34058,106.66992
"4183",80.274666,106.68335
"4184",80.22095,106.69678
"4185",80.17456,106.710205
"4186",80.14038,106.72363
"4187",80.10864,106.73706
"4188",80.08423,106.75049
"4189",80.05737,106.763916
"4190",80.025635,106.77734
"4191",79.98413,106.79077
"4192",79.94507,106.8042
"4193",79.903564,106.81763
"4194",79.86206,106.831055
"4195",79.818115,106.84448
"4196",79.783936,106.85791
"4197",79.75464,106.87134
"4198",79.73022,106.884766
"4199",79.708244,106.89819
"4200",79.691154,106.91162
"4201",79.67895,106.92505
"4202",79.66918,106.93848
"4203",79.6643,106.951904
"4204",79.6643,106.96533
"4205",79.67162,106.97876
"4206",79.676506,106.99219
"4207",79.674065,107.005615
"4208",79.66674,107.01904
"4209",79.65453,107.03247
"4210",79.639885,107.0459
"4211",79.61791,107.059326
"4212",79.59594,107.072754
"4213",79.571526,107.08618
"4214",79.53979,107.09961
"4215",79.50805,107.11304
"4216",79.47631,107.126465
"4217",79.45434,107.13989
"4218",79.44457,107.15332
"4219",79.45434,107.16675
"4220",79.49584,107.180176
"4221",79.569084,107.1936
"4222",79.674065,107.20703
"4223",79.801025,107.22046
"4224",79.94507,107.23389
"4225",80.08911,107.247314
"4226",80.22583,107.26074
"4227",80.34791,107.27417
"4228",80.45289,107.2876
"4229",80.533455,107.301025
"4230",80.584724,107.31445
"4231",80.61158,107.32788
"4232",80.618904,107.34131
"4233",80.61158,107.35474
"4234",80.59205,107.368164
"4235",80.567635,107.38159
"4236",80.53834,107.39502
"4237",80.50416,107.40845
"4238",80.46998,107.421875
"4239",80.4358,107.4353
"4240",80.4065,107.44873
"4241",80.38697,107.46216
"4242",80.37232,107.475586
"4243",80.35767,107.48901
"4244",80.35035,107.50244
"4245",80.33814,107.51587
"4246",80.32105,107.5293
"4247",80.2942,107.542725
"4248",80.26246,107.55615
"4249",80.22095,107.56958
"4250",80.17212,107.58301
"4251",80.11597,107.596436
"4252",80.05249,107.60986
"4253",79.98413,107.62329
"4254",79.91089,107.63672
"4255",79.83765,107.65015
"4256",79.77173,107.663574
"4257",79.71557,107.677
"4258",79.66918,107.69043
"4259",79.62768,107.70386
"4260",79.59594,107.717285
"4261",79.57397,107.73071
"4262",79.5642,107.74414
"4263",79.5642,107.75757
"4264",79.56664,107.770996
"4265",79.56664,107.784424
"4266",79.55688,107.79785
"4267",79.54223,107.81128
"4268",79.52758,107.82471
"4269",79.51293,107.838135
"4270",79.50317,107.85156
"4271",79.50317,107.86499
"4272",79.51293,107.87842
"4273",79.537346,107.891846
"4274",79.58373,107.90527
"4275",79.65453,107.9187
"4276",79.7522,107.93213
"4277",79.86206,107.94556
"4278",79.98413,107.958984
"4279",80.1062,107.97241
"4280",80.22339,107.98584
"4281",80.32105,107.99927
"4282",80.394295,108.012695
"4283",80.43824,108.02612
"4284",80.45533,108.03955
"4285",80.45045,108.05298
"4286",80.42603,108.06641
"4287",80.39185,108.079834
"4288",80.34547,108.09326
"4289",80.291756,108.10669
"4290",80.233154,108.12012
"4291",80.17944,108.133545
"4292",80.1355,108.14697
"4293",80.10132,108.1604
"4294",80.07446,108.17383
"4295",80.04761,108.187256
"4296",80.02075,108.20068
"4297",79.99634,108.21411
"4298",79.96948,108.22754
"4299",79.94507,108.24097
"4300",79.92798,108.254395
"4301",79.91089,108.26782
"4302",79.888916,108.28125
"4303",79.8645,108.29468
"4304",79.83765,108.308105
"4305",79.801025,108.32153
"4306",79.75952,108.33496
"4307",79.710686,108.34839
"4308",79.656975,108.36182
"4309",79.60082,108.375244
"4310",79.54467,108.38867
"4311",79.49096,108.4021
"4312",79.44457,108.41553
"4313",79.40551,108.428955
"4314",79.381096,108.44238
"4315",79.364006,108.45581
"4316",79.3518,108.46924
"4317",79.33959,108.482666
"4318",79.33227,108.49609
"4319",79.31762,108.50952
"4320",79.30053,108.52295
"4321",79.281,108.53638
"4322",79.26391,108.549805
"4323",79.24925,108.56323
"4324",79.23949,108.57666
"4325",79.24193,108.59009
"4326",79.26147,108.603516
"4327",79.30053,108.61694
"4328",79.37133,108.63037
"4329",79.46899,108.6438
"4330",79.5935,108.65723
"4331",79.73266,108.670654
"4332",79.871826,108.68408
"4333",79.9939,108.69751
"4334",80.10132,108.71094
"4335",80.19165,108.724365
"4336",80.26002,108.73779
"4337",80.31861,108.75122
"4338",80.365,108.76465
"4339",80.396736,108.778076
"4340",80.41627,108.791504
"4341",80.42603,108.80493
"4342",80.42603,108.81836
"4343",80.411385,108.83179
"4344",80.39185,108.845215
"4345",80.36744,108.85864
"4346",80.33814,108.87207
"4347",80.30152,108.8855
"4348",80.257576,108.898926
"4349",80.21362,108.91235
"4350",80.16724,108.92578
"4351",80.12573,108.93921
"4352",80.09155,108.95264
"4353",80.06958,108.966064
"4354",80.05249,108.97949
"4355",80.0354,108.99292
"4356",80.02075,109.00635
"4357",80.01099,109.019775
"4358",80.00366,109.0332
"4359",79.99634,109.04663
"4360",79.99878,109.06006
"4361",79.99634,109.07349
"4362",79.98413,109.086914
"4363",79.9646,109.10034
"4364",79.937744,109.11377
"4365",79.90845,109.1272
"4366",79.87915,109.140625
"4367",79.85718,109.15405
"4368",79.835205,109.16748
"4369",79.81323,109.18091
"4370",79.78882,109.194336
"4371",79.76196,109.20776
"4372",79.72289,109.22119
"4373",79.67895,109.23462
"4374",79.63744,109.24805
"4375",79.5935,109.261475
"4376",79.554436,109.2749
"4377",79.52514,109.28833
"4378",79.49828,109.30176
"4379",79.47875,109.315186
"4380",79.46166,109.32861
"4381",79.45434,109.34204
"4382",79.45678,109.35547
"4383",79.47631,109.3689
"4384",79.520256,109.382324
"4385",79.59106,109.39575
"4386",79.693596,109.40918
"4387",79.823,109.42261
"4388",79.971924,109.436035
"4389",80.128174,109.44946
"4390",80.272224,109.46289
"4391",80.39918,109.47632
"4392",80.49683,109.489746
"4393",80.57252,109.503174
"4394",80.618904,109.5166
"4395",80.64332,109.53003
"4396",80.65064,109.54346
"4397",80.64332,109.556885
"4398",80.62623,109.57031
"4399",80.601814,109.58374
"4400",80.57252,109.59717
"4401",80.53834,109.610596
"4402",80.50416,109.62402
"4403",80.47242,109.63745
"4404",80.448006,109.65088
"4405",80.428474,109.66431
"4406",80.41627,109.677734
"4407",80.41627,109.69116
"4408",80.42603,109.70459
"4409",80.43824,109.71802
"4410",80.45533,109.731445
"4411",80.462654,109.74487
"4412",80.45533,109.7583
"4413",80.4358,109.77173
"4414",80.40162,109.78516
"4415",80.35523,109.798584
"4416",80.306404,109.81201
"4417",80.257576,109.82544
"4418",80.20874,109.83887
"4419",80.16235,109.852295
"4420",80.12329,109.86572
"4421",80.09155,109.87915
"4422",80.06714,109.89258
"4423",80.045166,109.906006
"4424",80.03052,109.91943
"4425",80.01831,109.93286
"4426",80.01099,109.94629
"4427",80.0061,109.95972
"4428",80.00366,109.973145
"4429",79.99878,109.98657
"4430",79.98901,110
"4431",79.97681,110.01343
"4432",79.957275,110.026855
"4433",79.9353,110.04028
"4434",79.91577,110.05371
"4435",79.903564,110.06714
"4436",79.89868,110.08057
"4437",79.903564,110.093994
"4438",79.920654,110.10742
"4439",79.94263,110.12085
"4440",79.96948,110.13428
"4441",79.99634,110.147705
"4442",80.01831,110.16113
"4443",80.03052,110.17456
"4444",80.03052,110.18799
"4445",80.01587,110.201416
"4446",79.991455,110.21484
"4447",79.96704,110.22827
"4448",79.94751,110.2417
"4449",79.9353,110.25513
"4450",79.92798,110.268555
"4451",79.92798,110.28198
"4452",79.93286,110.29541
"4453",79.937744,110.30884
"4454",79.94751,110.322266
"4455",79.95972,110.33569
"4456",79.9646,110.34912
"4457",79.96704,110.36255
"4458",79.9646,110.37598
"4459",79.9646,110.389404
"4460",79.96948,110.40283
"4461",79.98413,110.41626
"4462",80.01099,110.42969
"4463",80.04761,110.443115
"4464",80.08423,110.45654
"4465",80.113525,110.46997
"4466",80.13306,110.4834
"4467",80.14038,110.496826
"4468",80.14038,110.510254
"4469",80.128174,110.52368
"4470",80.10864,110.53711
"4471",80.079346,110.55054
"4472",80.045166,110.563965
"4473",80.008545,110.57739
"4474",79.97681,110.59082
"4475",79.94751,110.60425
"4476",79.923096,110.617676
"4477",79.90112,110.6311
"4478",79.88403,110.64453
"4479",79.871826,110.65796
"4480",79.85962,110.67139
"4481",79.85474,110.684814
"4482",79.85474,110.69824
"4483",79.85718,110.71167
"4484",79.85962,110.7251
"4485",79.86206,110.738525
"4486",79.85962,110.75195
"4487",79.86206,110.76538
"4488",79.869385,110.77881
"4489",79.886475,110.79224
"4490",79.923096,110.805664
"4491",79.9939,110.81909
"4492",80.096436,110.83252
"4493",80.22583,110.84595
"4494",80.37476,110.859375
"4495",80.52613,110.8728
"4496",80.66773,110.88623
"4497",80.78981,110.89966
"4498",80.88747,110.913086
"4499",80.96071,110.92651
"4500",81.0193,110.93994
"4501",81.058365,110.95337
"4502",81.077896,110.9668
"4503",81.077896,110.980225
"4504",81.05348,110.99365
"4505",81.01442,111.00708
"4506",80.96803,111.02051
"4507",80.919205,111.033936
"4508",80.87282,111.04736
"4509",80.8362,111.06079
"4510",80.8069,111.07422
"4511",80.782486,111.08765
"4512",80.76051,111.101074
"4513",80.740974,111.1145
"4514",80.72144,111.12793
"4515",80.689705,111.14136
"4516",80.65064,111.154785
"4517",80.6067,111.16821
"4518",80.56519,111.18164
"4519",80.51881,111.19507
"4520",80.4773,111.208496
"4521",80.430916,111.221924
"4522",80.377205,111.23535
"4523",80.31861,111.24878
"4524",80.25269,111.26221
"4525",80.18677,111.275635
"4526",80.12573,111.28906
"4527",80.06714,111.30249
"4528",80.01343,111.31592
"4529",79.971924,111.329346
"4530",79.93286,111.34277
"4531",79.90112,111.3562
"4532",79.871826,111.36963
"4533",79.84741,111.38306
"4534",79.823,111.396484
"4535",79.80347,111.40991
"4536",79.78882,111.42334
"4537",79.766846,111.450195
"4538",79.75952,111.46362
"4539",79.75708,111.47705
"4540",79.76196,111.49048
"4541",79.77417,111.50391
"4542",79.798584,111.517334
"4543",79.84009,111.53076
"4544",79.90112,111.54419
"4545",79.98413,111.55762
"4546",80.09155,111.571045
"4547",80.218506,111.58447
"4548",80.35035,111.5979
"4549",80.47486,111.61133
"4550",80.58228,111.624756
"4551",80.66529,111.63818
"4552",80.726326,111.65161
"4553",80.76784,111.66504
"4554",80.79225,111.67847
