"","ppg","time"
"1",78.81712,23.072021
"2",79.80591,23.085327
"3",80.94606,23.098633
"4",82.07889,23.111938
"5",83.035934,23.125244
"6",83.700005,23.13855
"7",84.03937,23.151855
"8",84.09064,23.165161
"9",83.92462,23.178467
"10",83.63409,23.191772
"11",83.28741,23.205078
"12",82.92607,23.218384
"13",82.581825,23.23169
"14",82.2449,23.244995
"15",81.90311,23.2583
"16",81.56374,23.271606
"17",81.24635,23.284912
"18",80.987564,23.298218
"19",80.80934,23.311523
"20",80.726326,23.32483
"21",80.726326,23.338135
"22",80.782486,23.35144
"23",80.85329,23.364746
"24",80.902115,23.378052
"25",80.90456,23.391357
"26",80.83864,23.404663
"27",80.70435,23.417969
"28",80.50904,23.431274
"29",80.26978,23.44458
"30",79.99878,23.457886
"31",79.727776,23.471191
"32",79.46899,23.484497
"33",79.23216,23.497803
"34",79.027084,23.511108
"35",78.85863,23.524414
"36",78.72434,23.53772
"37",78.61936,23.551025
"38",78.54612,23.564331
"39",78.49241,23.577637
"40",78.45579,23.590942
"41",78.42649,23.604248
"42",78.40696,23.617554
"43",78.39475,23.63086
"44",78.382545,23.644165
"45",78.380104,23.65747
"46",78.382545,23.670776
"47",78.41184,23.684082
"48",78.536354,23.697388
"49",78.84398,23.710693
"50",79.40307,23.723999
"51",80.233154,23.737305
"52",81.26589,23.75061
"53",82.36698,23.763916
"54",83.36797,23.777222
"55",84.11749,23.790527
"56",84.559395,23.803833
"57",84.69611,23.817139
"58",84.596016,23.830444
"59",84.334785,23.84375
"60",84.000305,23.857056
"61",83.648735,23.870361
"62",83.31426,23.883667
"63",83.001755,23.896973
"64",82.70634,23.910278
"65",82.423134,23.923584
"66",82.15701,23.93689
"67",81.90555,23.950195
"68",81.67849,23.963501
"69",81.48806,23.976807
"70",81.33425,23.990112
"71",81.214615,24.003418
"72",81.129166,24.016724
"73",81.06569,24.03003
"74",80.99977,24.043335
"75",80.91432,24.05664
"76",80.78981,24.069946
"77",80.618904,24.083252
"78",80.4065,24.096558
"79",80.16235,24.109863
"80",79.90112,24.123169
"81",79.639885,24.136475
"82",79.37621,24.14978
"83",79.12474,24.163086
"84",78.890366,24.176392
"85",78.68284,24.189697
"86",78.49485,24.203003
"87",78.331276,24.216309
"88",78.18234,24.229614
"89",78.048065,24.24292
"90",77.925995,24.256226
"91",77.81369,24.269531
"92",77.7087,24.282837
"93",77.608604,24.296143
"94",77.51583,24.309448
"95",77.42794,24.322754
"96",77.347374,24.33606
"97",77.27169,24.349365
"98",77.208206,24.36267
"99",77.154495,24.375977
"100",77.10567,24.389282
"101",77.06172,24.402588
"102",77.0251,24.415894
"103",76.998245,24.4292
"104",76.97627,24.442505
"105",76.95918,24.45581
"106",76.946976,24.469116
"107",76.946976,24.482422
"108",77.01045,24.495728
"109",77.24483,24.509033
"110",77.76486,24.522339
"111",78.64622,24.535645
"112",79.871826,24.54895
"113",81.31716,24.562256
"114",82.77959,24.575562
"115",84.03693,24.588867
"116",84.93782,24.602173
"117",85.42855,24.615479
"118",85.55306,24.628784
"119",85.399254,24.64209
"120",85.08186,24.655396
"121",84.70588,24.668701
"122",84.35432,24.682007
"123",84.08087,24.695312
"124",83.88312,24.708618
"125",83.73907,24.721924
"126",83.5877,24.73523
"127",83.37774,24.748535
"128",83.07744,24.76184
"129",82.69169,24.775146
"130",82.262,24.788452
"131",81.83475,24.801758
"132",81.449,24.815063
"133",81.13161,24.82837
"134",80.87282,24.841675
"135",80.67506,24.85498
"136",80.533455,24.868286
"137",80.44312,24.881592
"138",80.36256,24.894897
"139",80.257576,24.908203
"140",80.1062,24.921509
"141",79.906006,24.934814
"142",79.656975,24.94812
"143",79.38842,24.961426
"144",79.14183,24.974731
"145",78.92699,24.988037
"146",78.73167,25.001343
"147",78.536354,25.014648
"148",78.3386,25.027954
"149",78.14572,25.04126
"150",77.977264,25.054565
"151",77.83322,25.067871
"152",77.70626,25.081177
"153",77.5964,25.094482
"154",77.49386,25.107788
"155",77.39376,25.121094
"156",77.28878,25.1344
"157",77.18379,25.147705
"158",77.07881,25.16101
"159",76.97627,25.174316
"160",76.88106,25.187622
"161",76.80293,25.200928
"162",76.75899,25.214233
"163",76.754105,25.22754
"164",76.773636,25.240845
"165",76.77608,25.25415
"166",76.749214,25.267456
"167",76.70527,25.280762
"168",76.654,25.294067
"169",76.610054,25.307373
"170",76.58564,25.320679
"171",76.578316,25.333984
"172",76.561226,25.34729
"173",76.51484,25.360596
"174",76.439156,25.373901
"175",76.3708,25.387207
"176",76.37568,25.400513
"177",76.58076,25.413818
"178",77.11543,25.427124
"179",78.05539,25.44043
"180",79.37621,25.453735
"181",80.93385,25.467041
"182",82.513466,25.480347
"183",83.89288,25.493652
"184",84.910965,25.506958
"185",85.50912,25.520264
"186",85.72884,25.53357
"187",85.660484,25.546875
"188",85.401695,25.56018
"189",85.050125,25.573486
"190",84.67658,25.586792
"191",84.34455,25.600098
"192",84.071106,25.613403
"193",83.85382,25.626709
"194",83.65362,25.640015
"195",83.44366,25.65332
"196",83.18486,25.666626
"197",82.865036,25.679932
"198",82.493935,25.693237
"199",82.10574,25.706543
"200",81.7322,25.719849
"201",81.40017,25.733154
"202",81.1194,25.74646
"203",80.88258,25.759766
"204",80.6775,25.773071
"205",80.49439,25.786377
"206",80.31861,25.799683
"207",80.128174,25.812988
"208",79.91333,25.826294
"209",79.67895,25.8396
"210",79.432365,25.852905
"211",79.1931,25.86621
"212",78.98314,25.879517
"213",78.8098,25.892822
"214",78.660866,25.906128
"215",78.52415,25.919434
"216",78.38987,25.93274
"217",78.25315,25.946045
"218",78.11154,25.95935
"219",77.979706,25.972656
"220",77.86496,25.985962
"221",77.75998,25.999268
"222",77.66476,26.012573
"223",77.57931,26.025879
"224",77.4963,26.039185
"225",77.40353,26.05249
"226",77.30831,26.065796
"227",77.21553,26.079102
"228",77.1252,26.092407
"229",77.049515,26.105713
"230",76.99336,26.119019
"231",76.94209,26.132324
"232",76.89082,26.14563
"233",76.84688,26.158936
"234",76.81026,26.172241
"235",76.771194,26.185547
"236",76.732124,26.198853
"237",76.6955,26.212158
"238",76.65888,26.225464
"239",76.629585,26.23877
"240",76.60761,26.252075
"241",76.60273,26.26538
"242",76.629585,26.278687
"243",76.72236,26.291992
"244",76.96651,26.305298
"245",77.47677,26.318604
"246",78.34104,26.33191
"247",79.55688,26.345215
"248",81.01686,26.35852
"249",82.51835,26.371826
"250",83.844055,26.385132
"251",84.81331,26.398438
"252",85.35775,26.411743
"253",85.49935,26.425049
"254",85.350426,26.438354
"255",85.02815,26.45166
"256",84.644844,26.464966
"257",84.27375,26.478271
"258",83.963684,26.491577
"259",83.70977,26.504883
"260",83.492485,26.518188
"261",83.2752,26.531494
"262",83.03349,26.5448
"263",82.7454,26.558105
"264",82.41093,26.571411
"265",82.05203,26.584717
"266",81.70046,26.598022
"267",81.38064,26.611328
"268",81.10719,26.624634
"269",80.88258,26.63794
"270",80.68726,26.651245
"271",80.50172,26.66455
"272",80.31617,26.677856
"273",80.128174,26.691162
"274",79.9353,26.704468
"275",79.73998,26.717773
"276",79.53979,26.73108
"277",79.33471,26.744385
"278",79.12474,26.75769
"279",78.9099,26.770996
"280",78.69749,26.784302
"281",78.49485,26.797607
"282",78.314186,26.810913
"283",78.14572,26.824219
"284",77.996796,26.837524
"285",77.86984,26.85083
"286",77.76486,26.864136
"287",77.679405,26.877441
"288",77.61349,26.890747
"289",77.56222,26.904053
"290",77.52071,26.917358
"291",77.47921,26.930664
"292",77.43038,26.94397
"293",77.37179,26.957275
"294",77.30343,26.970581
"295",77.2375,26.983887
"296",77.18379,26.997192
"297",77.152054,27.010498
"298",77.137405,27.023804
"299",77.11055,27.03711
"300",77.049515,27.050415
"301",76.93477,27.06372
"302",76.75899,27.077026
"303",76.54902,27.090332
"304",76.34638,27.103638
"305",76.1828,27.116943
"306",76.085144,27.130249
"307",76.09247,27.143555
"308",76.27558,27.15686
"309",76.71992,27.170166
"310",77.50851,27.183472
"311",78.65598,27.196777
"312",80.08179,27.210083
"313",81.60525,27.223389
"314",83.0164,27.236694
"315",84.119934,27.25
"316",84.81819,27.263306
"317",85.10872,27.276611
"318",85.0721,27.289917
"319",84.81331,27.303223
"320",84.44221,27.316528
"321",84.04913,27.329834
"322",83.702446,27.34314
"323",83.438774,27.356445
"324",83.245895,27.369751
"325",83.07988,27.383057
"326",82.90166,27.396362
"327",82.6746,27.409668
"328",82.39872,27.422974
"329",82.09598,27.43628
"330",81.80301,27.449585
"331",81.54421,27.46289
"332",81.33181,27.476196
"333",81.15114,27.489502
"334",80.98024,27.502808
"335",80.814224,27.516113
"336",80.64088,27.529419
"337",80.465096,27.542725
"338",80.28443,27.55603
"339",80.10376,27.569336
"340",79.91821,27.582642
"341",79.73022,27.595947
"342",79.534904,27.609253
"343",79.33471,27.622559
"344",79.13695,27.635864
"345",78.94652,27.64917
"346",78.768295,27.662476
"347",78.6096,27.675781
"348",78.470436,27.689087
"349",78.363014,27.702393
"350",78.28001,27.715698
"351",78.21652,27.729004
"352",78.15793,27.74231
"353",78.09445,27.755615
"354",78.028534,27.76892
"355",77.96506,27.782227
"356",77.91623,27.795532
"357",77.88693,27.808838
"358",77.86984,27.822144
"359",77.855194,27.83545
"360",77.83566,27.848755
"361",77.806366,27.86206
"362",77.75998,27.875366
"363",77.70138,27.888672
"364",77.628136,27.901978
"365",77.54269,27.915283
"366",77.44747,27.928589
"367",77.36446,27.941895
"368",77.332726,27.9552
"369",77.454796,27.968506
"370",77.84299,27.981812
"371",78.590065,27.995117
"372",79.68627,28.008423
"373",81.024185,28.021729
"374",82.40116,28.035034
"375",83.60235,28.04834
"376",84.46662,28.061646
"377",84.93538,28.074951
"378",85.050125,28.088257
"379",84.90608,28.101562
"380",84.596016,28.114868
"381",84.19562,28.128174
"382",83.78058,28.14148
"383",83.40215,28.154785
"384",83.08476,28.16809
"385",82.81621,28.181396
"386",82.579384,28.194702
"387",82.34745,28.208008
"388",82.10086,28.221313
"389",81.83475,28.23462
"390",81.5613,28.247925
"391",81.29519,28.26123
"392",81.05104,28.274536
"393",80.83864,28.287842
"394",80.65797,28.301147
"395",80.50904,28.314453
"396",80.37965,28.327759
"397",80.25269,28.341064
"398",80.09888,28.35437
"399",79.90845,28.367676
"400",79.68627,28.380981
"401",79.449455,28.394287
"402",79.21263,28.407593
"403",78.992905,28.420898
"404",78.79271,28.434204
"405",78.6096,28.44751
"406",78.44114,28.460815
"407",78.28245,28.474121
"408",78.12863,28.487427
"409",77.98215,28.500732
"410",77.84299,28.514038
"411",77.713585,28.527344
"412",77.60616,28.54065
"413",77.51827,28.553955
"414",77.45724,28.56726
"415",77.42306,28.580566
"416",77.41085,28.593872
"417",77.40353,28.607178
"418",77.38888,28.620483
"419",77.35714,28.63379
"420",77.31075,28.647095
"421",77.2546,28.6604
"422",77.196,28.673706
"423",77.14717,28.687012
"424",77.11055,28.700317
"425",77.08858,28.713623
"426",77.08125,28.726929
"427",77.11299,28.740234
"428",77.24727,28.75354
"429",77.5964,28.766846
"430",78.25803,28.780151
"431",79.25414,28.793457
"432",80.51881,28.806763
"433",81.88846,28.820068
"434",83.15556,28.833374
"435",84.1297,28.84668
"436",84.71809,28.859985
"437",84.91585,28.873291
"438",84.805984,28.886597
"439",84.49348,28.899902
"440",84.07599,28.913208
"441",83.63409,28.926514
"442",83.22392,28.93982
"443",82.8748,28.953125
"444",82.58427,28.96643
"445",82.33524,28.979736
"446",82.10086,28.993042
"447",81.864044,29.006348
"448",81.60769,29.019653
"449",81.33669,29.032959
"450",81.06813,29.046265
"451",80.816666,29.05957
"452",80.59205,29.072876
"453",80.39918,29.086182
"454",80.235596,29.099487
"455",80.08667,29.112793
"456",79.94751,29.126099
"457",79.81323,29.139404
"458",79.66918,29.15271
"459",79.51293,29.166016
"460",79.34936,29.179321
"461",79.17601,29.192627
"462",78.995346,29.205933
"463",78.81468,29.219238
"464",78.64866,29.232544
"465",78.51682,29.24585
"466",78.41428,29.259155
"467",78.3386,29.27246
"468",78.28001,29.285767
"469",78.22629,29.299072
"470",78.170135,29.312378
"471",78.11154,29.325684
"472",78.0676,29.33899
"473",78.04074,29.352295
"474",78.030975,29.3656
"475",78.030975,29.378906
"476",78.03342,29.392212
"477",78.030975,29.405518
"478",78.01877,29.418823
"479",77.996796,29.432129
"480",77.96994,29.445435
"481",77.93576,29.45874
"482",77.89426,29.472046
"483",77.85031,29.485352
"484",77.85275,29.498657
"485",77.97238,29.511963
"486",78.32151,29.525269
"487",78.98314,29.538574
"488",79.9646,29.55188
"489",81.17067,29.565186
"490",82.43534,29.578491
"491",83.55596,29.591797
"492",84.38117,29.605103
"493",84.842606,29.618408
"494",84.96712,29.631714
"495",84.8304,29.64502
"496",84.52766,29.658325
"497",84.14191,29.67163
"498",83.734184,29.684937
"499",83.34356,29.698242
"500",82.99199,29.711548
"501",82.67216,29.724854
"502",82.374306,29.73816
"503",82.08865,29.751465
"504",81.815216,29.76477
"505",81.566185,29.778076
"506",81.34646,29.791382
"507",81.160904,29.804688
"508",81.01686,29.817993
"509",80.89967,29.831299
"510",80.79225,29.844604
"511",80.68726,29.85791
"512",80.570076,29.871216
"513",80.4358,29.884521
"514",80.272224,29.897827
"515",80.08423,29.911133
"516",79.869385,29.924438
"517",79.64477,29.937744
"518",79.4226,29.95105
"519",79.20775,29.964355
"520",79.009995,29.977661
"521",78.839096,29.990967
"522",78.695045,30.004272
"523",78.57542,30.017578
"524",78.47288,30.030884
"525",78.38987,30.04419
"526",78.331276,30.057495
"527",78.28733,30.0708
"528",78.25803,30.084106
"529",78.24094,30.097412
"530",78.22385,30.110718
"531",78.19699,30.124023
"532",78.14816,30.13733
"533",78.0798,30.150635
"534",78.00168,30.16394
"535",77.925995,30.177246
"536",77.8674,30.190552
"537",77.86252,30.203857
"538",77.96994,30.217163
"539",78.28977,30.230469
"540",78.89525,30.243774
"541",79.79614,30.25708
"542",80.919205,30.270386
"543",82.11307,30.283691
"544",83.18974,30.296997
"545",83.99542,30.310303
"546",84.454414,30.323608
"547",84.58381,30.336914
"548",84.456856,30.35022
"549",84.1712,30.363525
"550",83.8172,30.376831
"551",83.46563,30.390137
"552",83.16289,30.403442
"553",82.91142,30.416748
"554",82.69413,30.430054
"555",82.47929,30.44336
"556",82.24246,30.456665
"557",81.96658,30.46997
"558",81.668724,30.483276
"559",81.375755,30.496582
"560",81.112076,30.509888
"561",80.88991,30.523193
"562",80.71412,30.536499
"563",80.57252,30.549805
"564",80.445564,30.56311
"565",80.31861,30.576416
"566",80.17944,30.589722
"567",80.025635,30.603027
"568",79.84985,30.616333
"569",79.66186,30.629639
"570",79.45922,30.642944
"571",79.256584,30.65625
"572",79.05638,30.669556
"573",78.86839,30.682861
"574",78.695045,30.696167
"575",78.54612,30.709473
"576",78.41428,30.722778
"577",78.29954,30.736084
"578",78.19943,30.74939
"579",78.11398,30.762695
"580",78.0383,30.776001
"581",77.97238,30.789307
"582",77.91623,30.802612
"583",77.86984,30.815918
"584",77.83078,30.829224
"585",77.80148,30.84253
"586",77.77707,30.855835
"587",77.752655,30.86914
"588",77.72579,30.882446
"589",77.68917,30.895752
"590",77.645226,30.909058
"591",77.593956,30.922363
"592",77.540245,30.935669
"593",77.488976,30.948975
"594",77.467,30.96228
"595",77.54513,30.975586
"596",77.823456,30.988892
"597",78.40452,31.002197
"598",79.3225,31.015503
"599",80.516365,31.028809
"600",81.832306,31.042114
"601",83.075,31.05542
"602",84.0589,31.068726
"603",84.681465,31.082031
"604",84.945145,31.095337
"605",84.92073,31.108643
"606",84.70832,31.121948
"607",84.40803,31.135254
"608",84.105286,31.14856
"609",83.65606,31.17517
"610",83.50469,31.188477
"611",83.35821,31.201782
"612",83.17265,31.215088
"613",82.92119,31.228394
"614",82.598915,31.2417
"615",82.230255,31.255005
"616",81.85428,31.26831
"617",81.50515,31.281616
"618",81.20485,31.294922
"619",80.953384,31.308228
"620",80.75075,31.321533
"621",80.5774,31.334839
"622",80.41871,31.348145
"623",80.26002,31.36145
"624",80.09155,31.374756
"625",79.906006,31.388062
"626",79.69604,31.401367
"627",79.46899,31.414673
"628",79.23949,31.427979
"629",79.01488,31.441284
"630",78.802475,31.45459
"631",78.61204,31.467896
"632",78.4387,31.481201
"633",78.28245,31.494507
"634",78.14084,31.507812
"635",78.01633,31.521118
"636",77.90646,31.534424
"637",77.81369,31.54773
"638",77.73556,31.561035
"639",77.67208,31.57434
"640",77.61593,31.587646
"641",77.56222,31.600952
"642",77.506065,31.614258
"643",77.44503,31.627563
"644",77.37911,31.64087
"645",77.31808,31.654175
"646",77.25948,31.66748
"647",77.21065,31.680786
"648",77.17647,31.694092
"649",77.14961,31.707397
"650",77.12764,31.720703
"651",77.10567,31.734009
"652",77.08858,31.747314
"653",77.08125,31.76062
"654",77.08125,31.773926
"655",77.09346,31.787231
"656",77.11299,31.800537
"657",77.12764,31.813843
"658",77.12764,31.827148
"659",77.11543,31.840454
"660",77.08858,31.85376
"661",77.066605,31.867065
"662",77.07881,31.880371
"663",77.19844,31.893677
"664",77.540245,31.906982
"665",78.221405,31.920288
"666",79.26635,31.933594
"667",80.618904,31.9469
"668",82.1033,31.960205
"669",83.49981,31.97351
"670",84.6009,31.986816
"671",85.296715,32.000122
"672",85.58724,32.013428
"673",85.555504,32.026733
"674",85.30892,32.04004
"675",84.95247,32.053345
"676",84.58381,32.06665
"677",84.26887,32.079956
"678",84.0296,32.09326
"679",83.85382,32.106567
"680",83.70977,32.119873
"681",83.546196,32.13318
"682",83.319145,32.146484
"683",83.01396,32.15979
"684",82.6453,32.173096
"685",82.252235,32.1864
"686",81.87381,32.199707
"687",81.54177,32.213013
"688",81.27322,32.22632
"689",81.05348,32.239624
"690",80.87526,32.25293
"691",80.706795,32.266235
"692",80.533455,32.27954
"693",80.34547,32.292847
"694",80.14282,32.306152
"695",79.93042,32.319458
"696",79.710686,32.332764
"697",79.48608,32.34607
"698",79.26391,32.359375
"699",79.046616,32.37268
"700",78.836655,32.385986
"701",78.63645,32.399292
"702",78.45335,32.412598
"703",78.28977,32.425903
"704",78.14572,32.43921
"705",78.02365,32.452515
"706",77.92355,32.46582
"707",77.84299,32.479126
"708",77.77219,32.49243
"709",77.70138,32.505737
"710",77.63546,32.519043
"711",77.56954,32.53235
"712",77.506065,32.545654
"713",77.44503,32.55896
"714",77.39376,32.572266
"715",77.3547,32.58557
"716",77.32296,32.598877
"717",77.28634,32.612183
"718",77.242386,32.62549
"719",77.19112,32.638794
"720",77.134964,32.6521
"721",77.07881,32.665405
"722",77.02266,32.67871
"723",76.981155,32.692017
"724",76.9543,32.705322
"725",76.93965,32.718628
"726",76.929886,32.731934
"727",76.929886,32.74524
"728",76.94209,32.758545
"729",76.9543,32.77185
"730",76.96651,32.785156
"731",76.978714,32.798462
"732",76.98848,32.811768
"733",76.99336,32.825073
"734",76.995804,32.83838
"735",77.02022,32.851685
"736",77.13008,32.86499
"737",77.437706,32.878296
"738",78.05783,32.8916
"739",79.04906,32.904907
"740",80.36256,32.918213
"741",81.849396,32.93152
"742",83.28741,32.944824
"743",84.46418,32.95813
"744",85.24544,32.971436
"745",85.609215,32.98474
"746",85.626305,32.998047
"747",85.40658,33.011353
"748",85.05989,33.02466
"749",84.67658,33.037964
"750",84.32258,33.05127
"751",84.03204,33.064575
"752",83.80011,33.07788
"753",83.60723,33.091187
"754",83.41192,33.104492
"755",83.192184,33.117798
"756",82.91875,33.131104
"757",82.60136,33.14441
"758",82.269325,33.157715
"759",81.94461,33.17102
"760",81.64675,33.184326
"761",81.392845,33.19763
"762",81.17799,33.210938
"763",80.99245,33.224243
"764",80.81911,33.23755
"765",80.65064,33.250854
"766",80.47242,33.26416
"767",80.28199,33.277466
"768",80.076904,33.29077
"769",79.63744,33.317383
"770",79.415276,33.33069
"771",79.202866,33.343994
"772",78.99779,33.3573
"773",78.81224,33.370605
"774",78.64866,33.38391
"775",78.504616,33.397217
"776",78.380104,33.410522
"777",78.2678,33.42383
"778",78.167694,33.437134
"779",78.07736,33.45044
"780",77.996796,33.463745
"781",77.92111,33.47705
"782",77.857635,33.490356
"783",77.79904,33.503662
"784",77.74532,33.516968
"785",77.69161,33.530273
"786",77.6379,33.54358
"787",77.58175,33.556885
"788",77.53048,33.57019
"789",77.47921,33.583496
"790",77.42306,33.5968
"791",77.37179,33.610107
"792",77.3254,33.623413
"793",77.28634,33.63672
"794",77.24727,33.650024
"795",77.225296,33.66333
"796",77.208206,33.676636
"797",77.196,33.68994
"798",77.19112,33.703247
"799",77.19356,33.716553
"800",77.20332,33.72986
"801",77.21309,33.743164
"802",77.22774,33.75647
"803",77.239944,33.769775
"804",77.24971,33.78308
"805",77.25216,33.796387
"806",77.24727,33.809692
"807",77.2375,33.822998
"808",77.222855,33.836304
"809",77.222855,33.84961
"810",77.28878,33.862915
"811",77.51827,33.87622
"812",78.028534,33.889526
"813",78.91234,33.902832
"814",80.15259,33.916138
"815",81.634544,33.929443
"816",83.15312,33.94275
"817",84.48127,33.956055
"818",85.4432,33.96936
"819",85.97055,33.982666
"820",86.10239,33.99597
"821",85.93393,34.009277
"822",85.57259,34.022583
"823",85.12825,34.03589
"824",84.681465,34.049194
"825",84.29084,34.0625
"826",83.97589,34.075806
"827",83.73174,34.08911
"828",83.51934,34.102417
"829",83.302055,34.115723
"830",83.053024,34.12903
"831",82.76982,34.142334
"832",82.46708,34.15564
"833",82.16922,34.168945
"834",81.898224,34.18225
"835",81.66384,34.195557
"836",81.463646,34.208862
"837",81.28298,34.222168
"838",81.112076,34.235474
"839",80.94118,34.24878
"840",80.762955,34.262085
"841",80.56519,34.27539
"842",80.35035,34.288696
"843",80.12573,34.302002
"844",79.89624,34.315308
"845",79.66674,34.328613
"846",79.44457,34.34192
"847",79.234604,34.355225
"848",79.04173,34.36853
"849",78.870834,34.381836
"850",78.7219,34.39514
"851",78.60227,34.408447
"852",78.49973,34.421753
"853",78.41428,34.43506
"854",78.3386,34.448364
"855",78.27024,34.46167
"856",78.204315,34.474976
"857",78.14084,34.48828
"858",78.07736,34.501587
"859",78.011444,34.514893
"860",77.945526,34.5282
"861",77.88449,34.541504
"862",77.82834,34.55481
"863",77.77219,34.568115
"864",77.72091,34.58142
"865",77.6672,34.594727
"866",77.61349,34.608032
"867",77.55978,34.621338
"868",77.50851,34.634644
"869",77.46456,34.64795
"870",77.42306,34.661255
"871",77.383995,34.67456
"872",77.347374,34.687866
"873",77.31075,34.70117
"874",77.27413,34.714478
"875",77.239944,34.727783
"876",77.208206,34.74109
"877",77.18379,34.754395
"878",77.18135,34.7677
"879",77.24971,34.781006
"880",77.48409,34.79431
"881",77.99191,34.807617
"882",78.84154,34.820923
"883",80.0061,34.83423
"884",81.36843,34.847534
"885",82.73319,34.86084
"886",83.90265,34.874146
"887",84.72785,34.88745
"888",85.16243,34.900757
"889",85.240555,34.914062
"890",85.05257,34.92737
"891",84.698555,34.940674
"892",84.27131,34.95398
"893",83.83429,34.967285
"894",83.43633,34.98059
"895",83.09697,34.993896
"896",82.80644,35.007202
"897",82.53544,35.020508
"898",82.26444,35.033813
"899",81.986115,35.04712
"900",81.69802,35.060425
"901",81.41482,35.07373
"902",81.16579,35.087036
"903",80.96803,35.10034
"904",80.816666,35.113647
"905",80.68726,35.126953
"906",80.56031,35.14026
"907",80.41871,35.153564
"908",80.257576,35.16687
"909",80.076904,35.180176
"910",79.8938,35.19348
"911",79.71313,35.206787
"912",79.534904,35.220093
"913",79.34936,35.2334
"914",79.166245,35.246704
"915",78.9807,35.26001
"916",78.81224,35.273315
"917",78.66819,35.28662
"918",78.551,35.299927
"919",78.46067,35.313232
"920",78.397194,35.326538
"921",78.348366,35.339844
"922",78.30198,35.35315
"923",78.24826,35.366455
"924",78.18967,35.37976
"925",78.12619,35.393066
"926",78.07004,35.406372
"927",78.02365,35.419678
"928",77.98215,35.432983
"929",77.943085,35.44629
"930",77.90402,35.459595
"931",77.8674,35.4729
"932",77.83322,35.486206
"933",77.80881,35.49951
"934",77.7966,35.512817
"935",77.79416,35.526123
"936",77.786835,35.53943
"937",77.769745,35.552734
"938",77.74532,35.56604
"939",77.72091,35.579346
"940",77.69405,35.59265
"941",77.66964,35.605957
"942",77.65011,35.619263
"943",77.63058,35.63257
"944",77.61349,35.645874
"945",77.6379,35.65918
"946",77.786835,35.672485
"947",78.17502,35.68579
"948",78.90013,35.699097
"949",79.97681,35.712402
"950",81.31716,35.725708
"951",82.74296,35.739014
"952",84.03937,35.75232
"953",85.02815,35.765625
"954",85.626305,35.77893
"955",85.84604,35.792236
"956",85.767914,35.805542
"957",85.49203,35.818848
"958",85.10872,35.832153
"959",84.69611,35.84546
"960",84.315254,35.858765
"961",84.000305,35.87207
"962",83.75372,35.885376
"963",83.55596,35.89868
"964",83.3753,35.911987
"965",83.17265,35.925293
"966",82.930954,35.9386
"967",82.650185,35.951904
"968",82.35966,35.96521
"969",82.08133,35.978516
"970",81.83963,35.99182
"971",81.64431,36.005127
"972",81.480736,36.018433
"973",81.33181,36.03174
"974",81.18532,36.045044
"975",81.02663,36.05835
"976",80.848404,36.071655
"977",80.655525,36.08496
"978",80.43824,36.098267
"979",80.2063,36.111572
"980",79.95972,36.124878
"981",79.71313,36.138184
"982",79.47875,36.15149
"983",79.26391,36.164795
"984",79.07103,36.1781
"985",78.905014,36.191406
"986",78.75609,36.204712
"987",78.6218,36.218018
"988",78.502174,36.231323
"989",78.39475,36.24463
"990",78.30198,36.257935
"991",78.221405,36.27124
"992",78.153046,36.284546
"993",78.09201,36.29785
"994",78.04318,36.311157
"995",77.996796,36.324463
"996",77.95773,36.33777
"997",77.92111,36.351074
"998",77.88449,36.36438
"999",77.85031,36.377686
"1000",77.81857,36.39099
"1001",77.786835,36.404297
"1002",77.747765,36.417603
"1003",77.69894,36.43091
"1004",77.6379,36.444214
"1005",77.56954,36.45752
"1006",77.49386,36.470825
"1007",77.418175,36.48413
"1008",77.35714,36.497437
"1009",77.33761,36.510742
"1010",77.420616,36.524048
"1011",77.70382,36.537354
"1012",78.28733,36.55066
"1013",79.21263,36.563965
"1014",80.42115,36.57727
"1015",81.76883,36.590576
"1016",83.04814,36.60388
"1017",84.07599,36.617188
"1018",84.735176,36.630493
"1019",85.015945,36.6438
"1020",84.98909,36.657104
"1021",84.75227,36.67041
"1022",84.40559,36.683716
"1023",84.034485,36.69702
"1024",83.685356,36.710327
"1025",83.39239,36.723633
"1026",83.15556,36.73694
"1027",82.9456,36.750244
"1028",82.735634,36.76355
"1029",82.50126,36.776855
"1030",82.2327,36.79016
"1031",81.93973,36.803467
"1032",81.64675,36.816772
"1033",81.38308,36.83008
"1034",81.160904,36.843384
"1035",80.98268,36.85669
"1036",80.831314,36.869995
"1037",80.69703,36.8833
"1038",80.56031,36.896606
"1039",80.40406,36.909912
"1040",80.22339,36.923218
"1041",80.01831,36.936523
"1042",79.7937,36.94983
"1043",79.55932,36.963135
"1044",79.32494,36.97644
"1045",79.10277,36.989746
"1046",78.887924,37.00305
"1047",78.69749,37.016357
"1048",78.52903,37.029663
"1049",78.38987,37.04297
"1050",78.27268,37.056274
"1051",78.17746,37.06958
"1052",78.09689,37.082886
"1053",78.02609,37.09619
"1054",77.95773,37.109497
"1055",77.8967,37.122803
"1056",77.838104,37.13611
"1057",77.78195,37.149414
"1058",77.72823,37.16272
"1059",77.679405,37.176025
"1060",77.63546,37.18933
"1061",77.60128,37.202637
"1062",77.576866,37.215942
"1063",77.557335,37.229248
"1064",77.5378,37.242554
"1065",77.51339,37.25586
"1066",77.48165,37.269165
"1067",77.44015,37.28247
"1068",77.38155,37.295776
"1069",77.32052,37.309082
"1070",77.264366,37.322388
"1071",77.24483,37.335693
"1072",77.330284,37.349
"1073",77.63058,37.362305
"1074",78.23361,37.37561
"1075",79.168686,37.388916
"1076",80.37476,37.40222
"1077",81.69558,37.415527
"1078",82.93584,37.428833
"1079",83.90753,37.44214
"1080",84.51545,37.455444
"1081",84.76204,37.46875
"1082",84.72541,37.482056
"1083",84.508125,37.49536
"1084",84.20538,37.508667
"1085",83.90265,37.521973
"1086",83.64629,37.53528
"1087",83.45098,37.548584
"1088",83.3045,37.56189
"1089",83.17998,37.575195
"1090",83.03349,37.5885
"1091",82.85039,37.601807
"1092",82.62577,37.615112
"1093",82.374306,37.628418
"1094",82.125275,37.641724
"1095",81.90311,37.65503
"1096",81.71755,37.668335
"1097",81.566185,37.68164
"1098",81.43435,37.694946
"1099",81.31472,37.708252
"1100",81.18532,37.721558
"1101",81.04372,37.734863
"1102",80.88014,37.74817
"1103",80.69703,37.761475
"1104",80.50416,37.77478
"1105",80.30396,37.788086
"1106",80.10376,37.80139
"1107",79.90845,37.814697
"1108",79.71801,37.828003
"1109",79.534904,37.84131
"1110",79.35912,37.854614
"1111",79.19554,37.86792
"1112",79.0515,37.881226
"1113",78.924545,37.89453
"1114",78.81468,37.907837
"1115",78.712135,37.921143
"1116",78.61936,37.93445
"1117",78.53147,37.947754
"1118",78.45579,37.96106
"1119",78.38743,37.974365
"1120",78.331276,37.98767
"1121",78.28001,38.000977
"1122",78.23361,38.014282
"1123",78.184784,38.027588
"1124",78.135956,38.040894
"1125",78.08469,38.0542
"1126",78.02365,38.067505
"1127",77.95041,38.08081
"1128",77.872284,38.094116
"1129",77.786835,38.10742
"1130",77.70626,38.120728
"1131",77.645226,38.134033
"1132",77.628136,38.14734
"1133",77.72823,38.160645
"1134",78.048065,38.17395
"1135",78.67307,38.187256
"1136",79.61791,38.20056
"1137",80.80934,38.213867
"1138",82.08865,38.227173
"1139",83.25567,38.24048
"1140",84.14191,38.253784
"1141",84.67414,38.26709
"1142",84.86946,38.280396
"1143",84.805984,38.2937
"1144",84.58381,38.307007
"1145",84.29084,38.320312
"1146",84.00519,38.33362
"1147",83.76837,38.346924
"1148",83.5877,38.36023
"1149",83.45342,38.373535
"1150",83.32159,38.38684
"1151",83.16533,38.400146
"1152",82.96025,38.413452
"1153",82.718544,38.426758
"1154",82.46464,38.440063
"1155",82.22293,38.45337
"1156",82.01541,38.466675
"1157",81.83963,38.47998
"1158",81.685814,38.493286
"1159",81.54177,38.50659
"1160",81.3904,38.519897
"1161",81.22438,38.533203
"1162",81.03883,38.54651
"1163",80.833755,38.559814
"1164",80.6067,38.57312
"1165",80.37232,38.586426
"1166",80.130615,38.59973
"1167",79.8938,38.613037
"1168",79.67162,38.626343
"1169",79.4641,38.63965
"1170",79.26879,38.652954
"1171",79.08812,38.66626
"1172",78.922104,38.679565
"1173",78.768295,38.69287
"1174",78.624245,38.706177
"1175",78.49973,38.719482
"1176",78.38499,38.732788
"1177",78.28245,38.746094
"1178",78.187225,38.7594
"1179",78.09445,38.772705
"1180",78.00412,38.78601
"1181",77.91867,38.799316
"1182",77.838104,38.812622
"1183",77.75998,38.825928
"1184",77.69161,38.839233
"1185",77.62325,38.85254
"1186",77.56222,38.865845
"1187",77.50118,38.87915
"1188",77.44747,38.892456
"1189",77.40353,38.90576
"1190",77.36935,38.919067
"1191",77.34493,38.932373
"1192",77.3254,38.94568
"1193",77.30099,38.958984
"1194",77.26681,38.97229
"1195",77.23018,38.985596
"1196",77.19112,38.9989
"1197",77.14961,39.012207
"1198",77.11299,39.025513
"1199",77.09834,39.03882
"1200",77.152054,39.052124
"1201",77.38155,39.06543
"1202",77.89914,39.078735
"1203",78.77562,39.09204
"1204",79.98413,39.105347
"1205",81.39773,39.118652
"1206",82.811325,39.131958
"1207",84.017395,39.145264
"1208",84.876785,39.15857
"1209",85.350426,39.171875
"1210",85.49203,39.18518
"1211",85.399254,39.198486
"1212",85.172195,39.211792
"1213",84.910965,39.225098
"1214",84.681465,39.238403
"1215",84.52277,39.25171
"1216",84.437325,39.265015
"1217",84.39338,39.27832
"1218",84.32746,39.291626
"1219",84.2005,39.30493
"1220",83.98566,39.318237
"1221",83.69268,39.331543
"1222",83.353325,39.34485
"1223",83.01396,39.358154
"1224",82.70878,39.37146
"1225",82.45731,39.384766
"1226",82.2449,39.39807
"1227",82.06424,39.411377
"1228",81.8909,39.424683
"1229",81.71511,39.43799
"1230",81.5198,39.451294
"1231",81.30251,39.4646
"1232",81.058365,39.477905
"1233",80.797134,39.49121
"1234",80.52613,39.504517
"1235",80.25025,39.517822
"1236",79.98169,39.531128
"1237",79.727776,39.544434
"1238",79.49584,39.55774
"1239",79.28588,39.571045
"1240",79.10033,39.58435
"1241",78.93431,39.597656
"1242",78.7805,39.610962
"1243",78.63157,39.624268
"1244",78.49241,39.637573
"1245",78.36057,39.65088
"1246",78.24338,39.664185
"1247",78.14084,39.67749
"1248",78.05051,39.690796
"1249",77.96506,39.7041
"1250",77.87961,39.717407
"1251",77.786835,39.730713
"1252",77.69161,39.74402
"1253",77.58907,39.757324
"1254",77.49142,39.77063
"1255",77.401085,39.783936
"1256",77.32052,39.79724
"1257",77.24971,39.810547
"1258",77.18379,39.823853
"1259",77.117874,39.83716
"1260",77.0544,39.850464
"1261",76.995804,39.86377
"1262",76.93965,39.877075
"1263",76.89082,39.89038
"1264",76.8542,39.903687
"1265",76.824905,39.916992
"1266",76.807816,39.930298
"1267",76.80049,39.943604
"1268",76.80293,39.95691
"1269",76.807816,39.970215
"1270",76.8127,39.98352
"1271",76.807816,39.996826
"1272",76.79561,40.01013
"1273",76.773636,40.023438
"1274",76.749214,40.036743
"1275",76.754105,40.05005
"1276",76.86153,40.063354
"1277",77.19112,40.07666
"1278",77.86008,40.089966
"1279",78.9099,40.10327
"1280",80.27711,40.116577
"1281",81.79813,40.129883
"1282",83.245895,40.14319
"1283",84.41047,40.156494
"1284",85.1844,40.1698
"1285",85.555504,40.183105
"1286",85.59701,40.19641
"1287",85.41146,40.209717
"1288",85.1136,40.223022
"1289",84.79378,40.23633
"1290",84.51789,40.249634
"1291",84.32502,40.26294
"1292",84.20294,40.276245
"1293",84.122375,40.28955
"1294",84.02472,40.302856
"1295",83.8587,40.316162
"1296",83.614555,40.329468
"1297",83.29717,40.342773
"1298",82.94316,40.35608
"1299",82.59403,40.369385
"1300",82.27665,40.38269
"1301",82.003204,40.395996
"1302",81.77127,40.4093
"1303",81.55886,40.422607
"1304",81.35378,40.435913
"1305",81.14137,40.44922
"1306",80.91432,40.462524
"1307",80.67017,40.47583
"1308",80.40894,40.489136
"1309",80.130615,40.50244
"1310",79.84497,40.515747
"1311",79.55932,40.529053
"1312",79.27856,40.54236
"1313",79.01976,40.555664
"1314",78.78294,40.56897
"1315",78.57542,40.582275
"1316",78.38987,40.59558
"1317",78.22385,40.608887
"1318",78.07248,40.622192
"1319",77.9382,40.635498
"1320",77.81857,40.648804
"1321",77.70626,40.66211
"1322",77.60128,40.675415
"1323",77.488976,40.68872
"1324",77.37911,40.702026
"1325",77.27169,40.715332
"1326",77.171585,40.728638
"1327",77.07881,40.741943
"1328",76.998245,40.75525
"1329",76.92012,40.768555
"1330",76.84444,40.78186
"1331",76.773636,40.795166
"1332",76.70527,40.80847
"1333",76.63935,40.821777
"1334",76.57343,40.835083
"1335",76.50996,40.84839
"1336",76.44892,40.861694
"1337",76.39033,40.875
"1338",76.34638,40.888306
"1339",76.31953,40.90161
"1340",76.30732,40.914917
"1341",76.30488,40.928223
"1342",76.30732,40.94153
"1343",76.30976,40.954834
"1344",76.314644,40.96814
"1345",76.32197,40.981445
"1346",76.334175,40.99475
"1347",76.334175,41.008057
"1348",76.334175,41.021362
"1349",76.32441,41.034668
"1350",76.30976,41.047974
"1351",76.32197,41.06128
"1352",76.42939,41.074585
"1353",76.74433,41.08789
"1354",77.38888,41.101196
"1355",78.40696,41.114502
"1356",79.7522,41.127808
"1357",81.26833,41.141113
"1358",82.738075,41.15442
"1359",83.946594,41.167725
"1360",84.7596,41.18103
"1361",85.15755,41.194336
"1362",85.206375,41.20764
"1363",85.013504,41.220947
"1364",84.68635,41.234253
"1365",84.332344,41.24756
"1366",84.02228,41.260864
"1367",83.792786,41.27417
"1368",83.648735,41.287476
"1369",83.55108,41.30078
"1370",83.45098,41.314087
"1371",83.302055,41.327393
"1372",83.07744,41.3407
"1373",82.78691,41.354004
"1374",82.45731,41.36731
"1375",82.13504,41.380615
"1376",81.84451,41.39392
"1377",81.600365,41.407227
"1378",81.392845,41.420532
"1379",81.21706,41.433838
"1380",81.0486,41.447144
"1381",80.87526,41.46045
"1382",80.68482,41.473755
"1383",80.4773,41.48706
"1384",80.24292,41.500366
"1385",79.991455,41.51367
"1386",79.73266,41.526978
"1387",79.47875,41.540283
"1388",79.237045,41.55359
"1389",79.012436,41.566895
"1390",78.81712,41.5802
"1391",78.64622,41.593506
"1392",78.49729,41.60681
"1393",78.37278,41.620117
"1394",78.25803,41.633423
"1395",78.153046,41.64673
"1396",78.05051,41.660034
"1397",77.95529,41.67334
"1398",77.86496,41.686646
"1399",77.78195,41.69995
"1400",77.70626,41.713257
"1401",77.64034,41.726562
"1402",77.574425,41.73987
"1403",77.50851,41.753174
"1404",77.44747,41.76648
"1405",77.38644,41.779785
"1406",77.32784,41.79309
"1407",77.26681,41.806396
"1408",77.205765,41.819702
"1409",77.14473,41.833008
"1410",77.086136,41.846313
"1411",77.03975,41.85962
"1412",77.00313,41.872925
"1413",76.978714,41.88623
"1414",76.96651,41.899536
"1415",76.95674,41.91284
"1416",76.9543,41.926147
"1417",76.95918,41.939453
"1418",76.964066,41.95276
"1419",76.961624,41.966064
"1420",76.95186,41.97937
"1421",76.93721,41.992676
"1422",76.92012,42.00598
"1423",76.925,42.019287
"1424",77.015335,42.032593
"1425",77.30343,42.0459
"1426",77.89914,42.059204
"1427",78.853745,42.07251
"1428",80.11841,42.085815
"1429",81.55398,42.09912
"1430",82.94316,42.112427
"1431",84.08331,42.125732
"1432",84.840164,42.139038
"1433",85.19661,42.152344
"1434",85.2137,42.16565
"1435",84.996414,42.178955
"1436",84.6424,42.19226
"1437",84.24689,42.205566
"1438",83.88556,42.218872
"1439",83.59258,42.232178
"1440",83.37774,42.245483
"1441",83.21416,42.25879
"1442",83.06035,42.272095
"1443",82.879684,42.2854
"1444",82.65995,42.298706
"1445",82.406044,42.31201
"1446",82.13992,42.325317
"1447",81.8909,42.338623
"1448",81.668724,42.35193
"1449",81.478294,42.365234
"1450",81.304955,42.37854
"1451",81.14137,42.391846
"1452",80.98268,42.40515
"1453",80.814224,42.418457
"1454",80.63355,42.431763
"1455",80.4358,42.44507
"1456",80.216064,42.458374
"1457",79.98657,42.47168
"1458",79.75464,42.484985
"1459",79.52758,42.49829
"1460",79.30541,42.511597
"1461",79.10277,42.524902
"1462",78.91478,42.538208
"1463",78.74876,42.551514
"1464",78.60471,42.56482
"1465",78.4802,42.578125
"1466",78.3679,42.59143
"1467",78.2678,42.604736
"1468",78.17258,42.618042
"1469",78.08713,42.631348
"1470",78.011444,42.644653
"1471",77.945526,42.65796
"1472",77.88205,42.671265
"1473",77.8259,42.68457
"1474",77.77219,42.697876
"1475",77.71603,42.71118
"1476",77.662315,42.724487
"1477",77.608604,42.737793
"1478",77.55245,42.7511
"1479",77.49874,42.764404
"1480",77.44747,42.77771
"1481",77.401085,42.791016
"1482",77.36202,42.80432
"1483",77.330284,42.817627
"1484",77.30343,42.830933
"1485",77.28634,42.84424
"1486",77.281456,42.857544
"1487",77.279015,42.87085
"1488",77.2839,42.884155
"1489",77.29122,42.89746
"1490",77.296104,42.910767
"1491",77.29122,42.924072
"1492",77.279015,42.937378
"1493",77.26681,42.950684
"1494",77.26681,42.96399
"1495",77.332726,42.977295
"1496",77.56466,42.9906
"1497",78.08469,43.003906
"1498",78.96117,43.017212
"1499",80.17212,43.030518
"1500",81.58816,43.043823
"1501",83.00664,43.05713
"1502",84.22003,43.070435
"1503",85.07454,43.08374
"1504",85.52621,43.097046
"1505",85.62386,43.11035
"1506",85.46029,43.123657
"1507",85.135574,43.136963
"1508",84.74494,43.15027
"1509",84.3592,43.163574
"1510",84.03693,43.17688
"1511",83.79523,43.190186
"1512",83.62188,43.20349
"1513",83.47295,43.216797
"1514",83.30938,43.230103
"1515",83.09941,43.24341
"1516",82.83574,43.256714
"1517",82.54032,43.27002
"1518",82.24002,43.283325
"1519",81.96658,43.29663
"1520",81.72732,43.309937
"1521",81.51736,43.323242
"1522",81.33181,43.336548
"1523",81.15846,43.349854
"1524",80.98512,43.36316
"1525",80.80446,43.376465
"1526",80.61646,43.38977
"1527",80.41871,43.403076
"1528",80.216064,43.41638
"1529",80.01831,43.429688
"1530",79.83765,43.442993
"1531",79.68139,43.4563
"1532",79.54711,43.469604
"1533",79.43969,43.48291
"1534",79.37133,43.496216
"1535",79.3518,43.50952
"1536",79.35668,43.522827
"1537",79.35668,43.536133
"1538",79.3225,43.54944
"1539",79.219955,43.562744
"1540",79.03197,43.57605
"1541",78.77562,43.589355
"1542",78.49729,43.60266
"1543",78.24338,43.615967
"1544",78.013885,43.629272
"1545",77.81613,43.64258
"1546",77.65255,43.655884
"1547",77.50851,43.66919
"1548",77.366905,43.682495
"1549",77.22041,43.6958
"1550",77.07393,43.709106
"1551",76.93477,43.722412
"1552",76.807816,43.735718
"1553",76.70283,43.749023
"1554",76.61982,43.76233
"1555",76.561226,43.775635
"1556",76.5124,43.78894
"1557",76.470894,43.802246
"1558",76.43427,43.81555
"1559",76.402534,43.828857
"1560",76.37324,43.842163
"1561",76.351265,43.85547
"1562",76.33906,43.868774
"1563",76.33173,43.88208
"1564",76.32441,43.895386
"1565",76.32197,43.90869
"1566",76.32929,43.921997
"1567",76.35371,43.935303
"1568",76.44404,43.94861
"1569",76.700386,43.961914
"1570",77.2375,43.97522
"1571",78.12131,43.988525
"1572",79.327385,44.00183
"1573",80.743416,44.015137
"1574",82.16922,44.028442
"1575",83.39483,44.041748
"1576",84.266426,44.055054
"1577",84.735176,44.06836
"1578",84.84993,44.081665
"1579",84.70344,44.09497
"1580",84.40803,44.108276
"1581",84.051575,44.121582
"1582",83.702446,44.134888
"1583",83.407036,44.148193
"1584",83.175095,44.1615
"1585",82.99687,44.174805
"1586",82.845505,44.18811
"1587",82.686806,44.201416
"1588",82.48905,44.21472
"1589",82.25468,44.228027
"1590",81.99588,44.241333
"1591",81.73708,44.25464
"1592",81.497826,44.267944
"1593",81.28298,44.28125
"1594",81.08766,44.294556
"1595",80.902115,44.30786
"1596",80.73365,44.321167
"1597",80.57252,44.334473
"1598",80.42115,44.34778
"1599",80.26978,44.361084
"1600",80.11597,44.37439
"1601",79.95239,44.387695
"1602",79.77661,44.401
"1603",79.59594,44.414307
"1604",79.40551,44.427612
"1605",79.20531,44.440918
"1606",79.00267,44.454224
"1607",78.819565,44.46753
"1608",78.66331,44.480835
"1609",78.538795,44.49414
"1610",78.44846,44.507446
"1611",78.37522,44.520752
"1612",78.311745,44.534058
"1613",78.25559,44.547363
"1614",78.204315,44.56067
"1615",78.15793,44.573975
"1616",78.11154,44.58728
"1617",78.05783,44.600586
"1618",77.994354,44.61389
"1619",77.925995,44.627197
"1620",77.8674,44.640503
"1621",77.823456,44.65381
"1622",77.789276,44.667114
"1623",77.75998,44.68042
"1624",77.73556,44.693726
"1625",77.70626,44.70703
"1626",77.6672,44.720337
"1627",77.63302,44.733643
"1628",77.608604,44.74695
"1629",77.58663,44.760254
"1630",77.576866,44.77356
"1631",77.57931,44.786865
"1632",77.58663,44.80017
"1633",77.591515,44.813477
"1634",77.593956,44.826782
"1635",77.593956,44.840088
"1636",77.58663,44.853394
"1637",77.574425,44.8667
"1638",77.5671,44.880005
"1639",77.593956,44.89331
"1640",77.72091,44.906616
"1641",78.05051,44.91992
"1642",78.69749,44.933228
"1643",79.7058,44.946533
"1644",81.00954,44.95984
"1645",82.44755,44.973145
"1646",83.809875,44.98645
"1647",84.89876,44.999756
"1648",85.59457,45.01306
"1649",85.892426,45.026367
"1650",85.86557,45.039673
"1651",85.609215,45.05298
"1652",85.22835,45.066284
"1653",84.80354,45.07959
"1654",84.403145,45.092896
"1655",84.06622,45.1062
"1656",83.81476,45.119507
"1657",83.62188,45.132812
"1658",83.45098,45.14612
"1659",83.27032,45.159424
"1660",83.05791,45.17273
"1661",82.80644,45.186035
"1662",82.533,45.19934
"1663",82.266884,45.212646
"1664",82.020294,45.225952
"1665",81.80057,45.239258
"1666",81.61013,45.252563
"1667",81.43923,45.26587
"1668",81.28054,45.279175
"1669",81.1194,45.29248
"1670",80.953384,45.305786
"1671",80.77516,45.31909
"1672",80.5774,45.332397
"1673",80.360115,45.345703
"1674",80.13794,45.35901
"1675",79.91333,45.372314
"1676",79.693596,45.38562
"1677",79.483635,45.398926
"1678",79.293205,45.41223
"1679",79.12474,45.425537
"1680",78.97826,45.438843
"1681",78.84886,45.45215
"1682",78.73899,45.465454
"1683",78.64622,45.47876
"1684",78.56565,45.492065
"1685",78.49485,45.50537
"1686",78.42161,45.518677
"1687",78.35081,45.531982
"1688",78.28245,45.545288
"1689",78.21652,45.558594
"1690",78.15549,45.5719
"1691",78.1091,45.585205
"1692",78.07004,45.59851
"1693",78.03342,45.611816
"1694",77.996796,45.625122
"1695",77.95529,45.638428
"1696",77.91623,45.651733
"1697",77.88693,45.66504
"1698",77.86008,45.678345
"1699",77.838104,45.69165
"1700",77.81369,45.704956
"1701",77.79416,45.71826
"1702",77.7673,45.731567
"1703",77.73556,45.744873
"1704",77.70138,45.75818
"1705",77.66964,45.771484
"1706",77.645226,45.78479
"1707",77.662315,45.798096
"1708",77.7966,45.8114
"1709",78.153046,45.824707
"1710",78.82201,45.838013
"1711",79.82544,45.85132
"1712",81.08766,45.864624
"1713",82.44755,45.87793
"1714",83.69756,45.891235
"1715",84.65949,45.90454
"1716",85.23323,45.917847
"1717",85.42855,45.931152
"1718",85.32357,45.944458
"1719",85.02327,45.957764
"1720",84.62287,45.97107
"1721",84.21271,45.984375
"1722",83.85382,45.99768
"1723",83.577934,46.010986
"1724",83.372856,46.024292
"1725",83.209274,46.037598
"1726",83.04814,46.050903
"1727",82.85771,46.06421
"1728",82.62821,46.077515
"1729",82.37675,46.09082
"1730",82.125275,46.104126
"1731",81.900665,46.11743
"1732",81.70779,46.130737
"1733",81.54421,46.144043
"1734",81.40017,46.15735
"1735",81.26345,46.170654
"1736",81.11696,46.18396
"1737",80.953384,46.197266
"1738",80.75807,46.21057
"1739",80.54078,46.223877
"1740",80.30152,46.237183
"1741",80.059814,46.25049
"1742",79.823,46.263794
"1743",79.60082,46.2771
"1744",79.3933,46.290405
"1745",79.200424,46.30371
"1746",79.01976,46.317017
"1747",78.853745,46.330322
"1748",78.69993,46.343628
"1749",78.553444,46.356934
"1750",78.42405,46.37024
"1751",78.30442,46.383545
"1752",78.19699,46.39685
"1753",78.09689,46.410156
"1754",78.009,46.423462
"1755",77.93332,46.436768
"1756",77.86252,46.450073
"1757",77.80148,46.46338
"1758",77.752655,46.476685
"1759",77.70626,46.48999
"1760",77.66964,46.503296
"1761",77.642784,46.5166
"1762",77.62325,46.529907
"1763",77.611046,46.543213
"1764",77.608604,46.55652
"1765",77.611046,46.569824
"1766",77.61593,46.58313
"1767",77.61837,46.596436
"1768",77.62081,46.60974
"1769",77.61593,46.623047
"1770",77.60372,46.636353
"1771",77.58419,46.64966
"1772",77.557335,46.662964
"1773",77.53536,46.67627
"1774",77.51583,46.689575
"1775",77.523155,46.70288
"1776",77.611046,46.716187
"1777",77.88205,46.729492
"1778",78.45579,46.742798
"1779",79.3933,46.756104
"1780",80.65797,46.76941
"1781",82.11307,46.782715
"1782",83.54131,46.79602
"1783",84.73762,46.809326
"1784",85.555504,46.82263
"1785",85.96567,46.835938
"1786",86.02426,46.849243
"1787",85.83627,46.86255
"1788",85.50912,46.875854
"1789",85.138016,46.88916
"1790",84.791336,46.902466
"1791",84.51789,46.91577
"1792",84.32502,46.929077
"1793",84.18585,46.942383
"1794",84.068665,46.95569
"1795",83.92218,46.968994
"1796",83.71465,46.9823
"1797",83.441216,46.995605
"1798",83.12627,47.00891
"1799",82.80156,47.022217
"1800",82.5037,47.035522
"1801",82.252235,47.04883
"1802",82.039825,47.062134
"1803",81.85184,47.07544
"1804",81.668724,47.088745
"1805",81.48318,47.10205
"1806",81.28298,47.115356
"1807",81.06081,47.128662
"1808",80.816666,47.141968
"1809",80.56275,47.155273
"1810",80.29664,47.16858
"1811",80.03784,47.181885
"1812",79.79126,47.19519
"1813",79.569084,47.208496
"1814",79.36889,47.2218
"1815",79.19798,47.235107
"1816",79.04906,47.248413
"1817",78.91722,47.26172
"1818",78.802475,47.275024
"1819",78.70237,47.28833
"1820",78.61204,47.301636
"1821",78.52659,47.31494
"1822",78.44846,47.328247
"1823",78.37278,47.341553
"1824",78.294655,47.35486
"1825",78.21652,47.368164
"1826",78.14084,47.38147
"1827",78.06271,47.394775
"1828",77.98947,47.40808
"1829",77.91867,47.421387
"1830",77.85031,47.434692
"1831",77.78195,47.447998
"1832",77.71847,47.461304
"1833",77.662315,47.47461
"1834",77.608604,47.487915
"1835",77.557335,47.50122
"1836",77.51095,47.514526
"1837",77.47677,47.527832
"1838",77.44991,47.541138
"1839",77.4255,47.554443
"1840",77.401085,47.56775
"1841",77.37179,47.581055
"1842",77.33761,47.59436
"1843",77.298546,47.607666
"1844",77.25948,47.62097
"1845",77.225296,47.634277
"1846",77.222855,47.647583
"1847",77.32784,47.66089
"1848",77.67208,47.674194
"1849",78.37766,47.6875
"1850",79.48119,47.700806
"1851",80.902115,47.71411
"1852",82.46952,47.727417
"1853",83.93683,47.740723
"1854",85.09407,47.75403
"1855",85.83139,47.767334
"1856",86.153656,47.78064
"1857",86.14145,47.793945
"1858",85.90219,47.80725
"1859",85.54574,47.820557
"1860",85.152664,47.833862
"1861",84.788895,47.847168
"1862",84.491035,47.860474
"1863",84.25422,47.87378
"1864",84.0589,47.887085
"1865",83.86847,47.90039
"1866",83.65362,47.913696
"1867",83.40948,47.927002
"1868",83.140915,47.940308
"1869",82.87724,47.953613
"1870",82.64042,47.96692
"1871",82.44755,47.980225
"1872",82.28886,47.99353
"1873",82.14725,48.006836
"1874",82.01053,48.02014
"1875",81.85916,48.033447
"1876",81.68093,48.046753
"1877",81.47585,48.06006
"1878",81.23659,48.073364
"1879",80.972916,48.08667
"1880",80.69215,48.099976
"1881",80.40406,48.11328
"1882",80.12573,48.126587
"1883",79.871826,48.139893
"1884",79.64721,48.1532
"1885",79.449455,48.166504
"1886",79.281,48.17981
"1887",79.13695,48.193115
"1888",79.012436,48.20642
"1889",78.90013,48.219727
"1890",78.802475,48.233032
"1891",78.709694,48.246338
"1892",78.61204,48.259644
"1893",78.51682,48.27295
"1894",78.41917,48.286255
"1895",78.32639,48.29956
"1896",78.24826,48.312866
"1897",78.184784,48.32617
"1898",78.12863,48.339478
"1899",78.07736,48.352783
"1900",78.02365,48.36609
"1901",77.95773,48.379395
"1902",77.87961,48.3927
"1903",77.79172,48.406006
"1904",77.69894,48.41931
"1905",77.59884,48.432617
"1906",77.50118,48.445923
"1907",77.41085,48.45923
"1908",77.347374,48.472534
"1909",77.36935,48.48584
"1910",77.574425,48.499146
"1911",78.0798,48.51245
"1912",78.93187,48.525757
"1913",80.09155,48.539062
"1914",81.42458,48.55237
"1915",82.738075,48.565674
"1916",83.84161,48.57898
"1917",84.6009,48.592285
"1918",84.99153,48.60559
"1919",85.05989,48.618896
"1920",84.89876,48.632202
"1921",84.596016,48.645508
"1922",84.24689,48.658813
"1923",83.912415,48.67212
"1924",83.63409,48.685425
"1925",83.40948,48.69873
"1926",83.21904,48.712036
"1927",83.02617,48.72534
"1928",82.811325,48.738647
"1929",82.56718,48.751953
"1930",82.31083,48.76526
"1931",82.07156,48.778564
"1932",81.87625,48.79187
"1933",81.72732,48.805176
"1934",81.61013,48.81848
"1935",81.51003,48.831787
"1936",81.40017,48.845093
"1937",81.26589,48.8584
"1938",81.09987,48.871704
"1939",80.902115,48.88501
"1940",80.67506,48.898315
"1941",80.41871,48.91162
"1942",80.147705,48.924927
"1943",79.8645,48.938232
"1944",79.58373,48.951538
"1945",79.31762,48.964844
"1946",79.07591,48.97815
"1947",78.86107,48.991455
"1948",78.67307,49.00476
"1949",78.51194,49.018066
"1950",78.3679,49.031372
"1951",78.23605,49.044678
"1952",78.116425,49.057983
"1953",78.00656,49.07129
"1954",77.90158,49.084595
"1955",77.80148,49.0979
"1956",77.70382,49.111206
"1957",77.60616,49.12451
"1958",77.503624,49.137817
"1959",77.40597,49.151123
"1960",77.315636,49.16443
"1961",77.2375,49.177734
"1962",77.171585,49.19104
"1963",77.117874,49.204346
"1964",77.069046,49.21765
"1965",77.015335,49.230957
"1966",76.95186,49.244263
"1967",76.876175,49.25757
"1968",76.788284,49.270874
"1969",76.69306,49.28418
"1970",76.60029,49.297485
"1971",76.541695,49.31079
"1972",76.592964,49.324097
"1973",76.8835,49.337402
"1974",77.52804,49.350708
"1975",78.56565,49.364014
"1976",79.93286,49.37732
"1977",81.45632,49.390625
"1978",82.916306,49.40393
"1979",84.09552,49.417236
"1980",84.86946,49.430542
"1981",85.240555,49.443848
"1982",85.27718,49.457153
"1983",85.08186,49.47046
"1984",84.76448,49.483765
"1985",84.42512,49.49707
"1986",84.13214,49.510376
"1987",83.92462,49.52368
"1988",83.792786,49.536987
"1989",83.71465,49.550293
"1990",83.62676,49.5636
"1991",83.48028,49.576904
"1992",83.24101,49.59021
"1993",82.91875,49.603516
"1994",82.53788,49.61682
"1995",82.15213,49.630127
"1996",81.79324,49.643433
"1997",81.48562,49.65674
"1998",81.231705,49.670044
"1999",81.02174,49.68335
"2000",80.831314,49.696655
"2001",80.64088,49.70996
"2002",80.43824,49.723267
"2003",80.21118,49.736572
"2004",79.957275,49.749878
"2005",79.68383,49.763184
"2006",79.40307,49.77649
"2007",79.12474,49.789795
"2008",78.853745,49.8031
"2009",78.59739,49.816406
"2010",78.363014,49.829712
"2011",78.14816,49.843018
"2012",77.95529,49.856323
"2013",77.78195,49.86963
"2014",77.63302,49.882935
"2015",77.503624,49.89624
"2016",77.39132,49.909546
"2017",77.29366,49.92285
"2018",77.21309,49.936157
"2019",77.13985,49.949463
"2020",77.066605,49.96277
"2021",76.995804,49.976074
"2022",76.92012,49.98938
"2023",76.84688,50.002686
"2024",76.77852,50.01599
"2025",76.7248,50.029297
"2026",76.68574,50.042603
"2027",76.65644,50.05591
"2028",76.62226,50.069214
"2029",76.58808,50.08252
"2030",76.541695,50.095825
"2031",76.48798,50.10913
"2032",76.422066,50.122437
"2033",76.36103,50.135742
"2034",76.3122,50.149048
"2035",76.30732,50.162354
"2036",76.44648,50.17566
"2037",76.86397,50.188965
"2038",77.662315,50.20227
"2039",78.86107,50.215576
"2040",80.37232,50.22888
"2041",82.005646,50.242188
"2042",83.52178,50.255493
"2043",84.72297,50.2688
"2044",85.50912,50.282104
"2045",85.892426,50.29541
"2046",85.9559,50.308716
"2047",85.80942,50.32202
"2048",85.557945,50.335327
"2049",85.29916,50.348633
"2050",85.101395,50.36194
"2051",84.998856,50.375244
"2052",84.979324,50.38855
"2053",84.996414,50.401855
"2054",84.979324,50.41516
"2055",84.86702,50.428467
"2056",84.62287,50.441772
"2057",84.24933,50.45508
"2058",83.7879,50.468384
"2059",83.3045,50.48169
"2060",82.85039,50.494995
"2061",82.459755,50.5083
"2062",82.14969,50.521606
"2063",81.898224,50.534912
"2064",81.68093,50.548218
"2065",81.47097,50.561523
"2066",81.24391,50.57483
"2067",80.987564,50.588135
"2068",80.69459,50.60144
"2069",80.37965,50.614746
"2070",80.045166,50.62805
"2071",79.708244,50.641357
"2072",79.37377,50.654663
"2073",79.05638,50.66797
"2074",78.75609,50.681274
"2075",78.48264,50.69458
"2076",78.23117,50.707886
"2077",77.996796,50.72119
"2078",77.78439,50.734497
"2079",77.58663,50.747803
"2080",77.401085,50.76111
"2081",77.23018,50.774414
"2082",77.07149,50.78772
"2083",76.91768,50.801025
"2084",76.773636,50.81433
"2085",76.63203,50.827637
"2086",76.49775,50.840942
"2087",76.37324,50.854248
"2088",76.25605,50.867554
"2089",76.14862,50.88086
"2090",76.04852,50.894165
"2091",75.95087,50.90747
"2092",75.862976,50.920776
"2093",75.78241,50.934082
"2094",75.70916,50.947388
"2095",75.6408,50.960693
"2096",75.56756,50.974
"2097",75.48455,50.987305
"2098",75.39666,51.00061
"2099",75.30633,51.013916
"2100",75.228195,51.02722
"2101",75.1989,51.040527
"2102",75.30389,51.053833
"2103",75.67254,51.06714
"2104",76.42695,51.080444
"2105",77.611046,51.09375
"2106",79.14427,51.107056
"2107",80.84596,51.12036
"2108",82.4744,51.133667
"2109",83.807434,51.146973
"2110",84.72053,51.16028
"2111",85.2137,51.173584
"2112",85.35775,51.18689
"2113",85.26742,51.200195
"2114",85.050125,51.2135
"2115",84.805984,51.226807
"2116",84.60822,51.240112
"2117",84.491035,51.253418
"2118",84.44953,51.266724
"2119",84.44465,51.28003
"2120",84.40559,51.293335
"2121",84.27619,51.30664
"2122",84.02472,51.319946
"2123",83.65118,51.333252
"2124",83.20195,51.346558
"2125",82.738075,51.359863
"2126",82.31327,51.37317
"2127",81.95926,51.386475
"2128",81.67849,51.39978
"2129",81.45632,51.413086
"2130",81.26589,51.42639
"2131",81.077896,51.439697
"2132",80.87038,51.453003
"2133",80.63111,51.46631
"2134",80.35035,51.479614
"2135",80.04028,51.49292
"2136",79.710686,51.506226
"2137",79.37377,51.51953
"2138",79.03685,51.532837
"2139",78.71458,51.546143
"2140",78.41428,51.55945
"2141",78.1384,51.572754
"2142",77.89914,51.58606
"2143",77.696495,51.599365
"2144",77.51827,51.61267
"2145",77.35714,51.625977
"2146",77.208206,51.639282
"2147",77.069046,51.652588
"2148",76.94209,51.665894
"2149",76.824905,51.6792
"2150",76.7248,51.692505
"2151",76.63203,51.70581
"2152",76.53925,51.719116
"2153",76.44404,51.73242
"2154",76.34882,51.745728
"2155",76.25361,51.759033
"2156",76.173035,51.77234
"2157",76.10712,51.785645
"2158",76.053406,51.79895
"2159",76.0119,51.812256
"2160",75.97284,51.82556
"2161",75.931335,51.838867
"2162",75.88495,51.852173
"2163",75.83368,51.86548
"2164",75.775085,51.878784
"2165",75.71404,51.89209
"2166",75.648125,51.905396
"2167",75.58465,51.9187
"2168",75.545586,51.932007
"2169",75.596855,51.945312
"2170",75.860535,51.95862
"2171",76.47578,51.971924
"2172",77.5256,51.98523
"2173",78.97826,51.998535
"2174",80.689705,52.01184
"2175",82.42802,52.025146
"2176",83.94171,52.038452
"2177",85.04768,52.051758
"2178",85.697105,52.065063
"2179",85.93149,52.07837
"2180",85.86069,52.091675
"2181",85.60433,52.10498
"2182",85.27474,52.118286
"2183",84.96712,52.13159
"2184",84.732735,52.144897
"2185",84.578926,52.158203
"2186",84.47883,52.17151
"2187",84.37385,52.184814
"2188",84.210266,52.19812
"2189",83.95392,52.211426
"2190",83.597466,52.22473
"2191",83.175095,52.238037
"2192",82.735634,52.251343
"2193",82.32792,52.26465
"2194",81.97635,52.277954
"2195",81.68337,52.29126
"2196",81.43923,52.304565
"2197",81.21706,52.31787
"2198",81.004654,52.331177
"2199",80.7776,52.344482
"2200",80.53101,52.357788
"2201",80.257576,52.371094
"2202",79.96216,52.3844
"2203",79.64721,52.397705
"2204",79.33227,52.41101
"2205",79.01976,52.424316
"2206",78.729225,52.437622
"2207",78.46555,52.450928
"2208",78.238495,52.464233
"2209",78.04562,52.47754
"2210",77.89426,52.490845
"2211",77.77219,52.50415
"2212",77.67452,52.517456
"2213",77.58663,52.53076
"2214",77.506065,52.544067
"2215",77.4255,52.557373
"2216",77.349815,52.57068
"2217",77.281456,52.583984
"2218",77.22041,52.59729
"2219",77.15694,52.610596
"2220",77.0959,52.6239
"2221",77.02998,52.637207
"2222",76.9543,52.650513
"2223",76.87129,52.66382
"2224",76.788284,52.677124
"2225",76.71259,52.69043
"2226",76.64423,52.703735
"2227",76.58808,52.71704
"2228",76.53925,52.730347
"2229",76.48798,52.743652
"2230",76.42451,52.756958
"2231",76.351265,52.770264
"2232",76.26826,52.78357
"2233",76.18036,52.796875
"2234",76.104675,52.81018
"2235",76.070496,52.823486
"2236",76.14618,52.836792
"2237",76.46113,52.850098
"2238",77.152054,52.863403
"2239",78.29954,52.87671
"2240",79.85718,52.890015
"2241",81.654076,52.90332
"2242",83.43389,52.916626
"2243",84.93294,52.92993
"2244",85.97543,52.943237
"2245",86.52476,52.956543
"2246",86.65415,52.96985
"2247",86.485695,52.983154
"2248",86.14877,52.99646
"2249",85.75571,53.009766
"2250",85.384605,53.02307
"2251",85.08186,53.036377
"2252",84.85237,53.049683
"2253",84.66926,53.06299
"2254",84.48371,53.076294
"2255",84.25422,53.0896
"2256",83.95636,53.102905
"2257",83.60479,53.11621
"2258",83.226364,53.129517
"2259",82.862595,53.142822
"2260",82.547646,53.156128
"2261",82.27909,53.169434
"2262",82.05203,53.18274
"2263",81.84207,53.196045
"2264",81.62234,53.20935
"2265",81.3782,53.222656
"2266",81.10231,53.235962
"2267",80.78737,53.249268
"2268",80.44312,53.262573
"2269",80.08423,53.27588
"2270",79.725334,53.289185
"2271",79.37621,53.30249
"2272",79.04906,53.315796
"2273",78.74387,53.3291
"2274",78.47532,53.342407
"2275",78.24582,53.355713
"2276",78.06027,53.36902
"2277",77.908905,53.382324
"2278",77.78439,53.39563
"2279",77.67208,53.408936
"2280",77.56466,53.42224
"2281",77.45724,53.435547
"2282",77.35958,53.448853
"2283",77.264366,53.46216
"2284",77.16426,53.475464
"2285",77.049515,53.48877
"2286",76.92012,53.502075
"2287",76.76875,53.51538
"2288",76.610054,53.528687
"2289",76.44892,53.541992
"2290",76.299995,53.555298
"2291",76.16571,53.568604
"2292",76.03876,53.58191
"2293",75.91669,53.595215
"2294",75.789734,53.60852
"2295",75.65545,53.621826
"2296",75.51385,53.63513
"2297",75.38201,53.648438
"2298",75.29168,53.661743
"2299",75.33318,53.67505
"2300",75.650566,53.688354
"2301",76.37324,53.70166
"2302",77.54757,53.714966
"2303",79.097885,53.72827
"2304",80.8362,53.741577
"2305",82.50126,53.754883
"2306",83.8587,53.76819
"2307",84.77425,53.781494
"2308",85.23811,53.7948
"2309",85.32601,53.808105
"2310",85.1429,53.82141
"2311",84.81087,53.834717
"2312",84.42512,53.848022
"2313",84.06134,53.86133
"2314",83.758606,53.874634
"2315",83.52178,53.88794
"2316",83.319145,53.901245
"2317",83.09941,53.91455
"2318",82.82597,53.927856
"2319",82.493935,53.941162
"2320",82.11307,53.954468
"2321",81.70779,53.967773
"2322",81.31228,53.98108
"2323",80.94118,53.994385
"2324",80.59205,54.00769
"2325",80.26246,54.020996
"2326",79.95239,54.0343
"2327",79.66674,54.047607
"2328",79.395744,54.060913
"2329",79.13695,54.07422
"2330",78.873276,54.087524
"2331",78.59495,54.10083
"2332",78.30442,54.114136
"2333",78.009,54.12744
"2334",77.71603,54.140747
"2335",77.44259,54.154053
"2336",77.188675,54.16736
"2337",76.95674,54.180664
"2338",76.74433,54.19397
"2339",76.55634,54.207275
"2340",76.39521,54.22058
"2341",76.265816,54.233887
"2342",76.17792,54.247192
"2343",76.13397,54.260498
"2344",76.11444,54.273804
"2345",76.102234,54.28711
"2346",76.07294,54.300415
"2347",76.0119,54.31372
"2348",75.91669,54.327026
"2349",75.80682,54.340332
"2350",75.69695,54.353638
"2351",75.60418,54.366943
"2352",75.53094,54.38025
"2353",75.46746,54.393555
"2354",75.40887,54.40686
"2355",75.35027,54.420166
"2356",75.2868,54.43347
"2357",75.21843,54.446777
"2358",75.15007,54.460083
"2359",75.07683,54.47339
"2360",75.00603,54.486694
"2361",74.9572,54.5
"2362",74.984055,54.513306
"2363",75.20134,54.52661
"2364",75.76288,54.539917
"2365",76.77852,54.553223
"2366",78.25803,54.56653
"2367",80.08179,54.579834
"2368",82.01297,54.59314
"2369",83.775696,54.606445
"2370",85.14534,54.61975
"2371",86.0267,54.633057
"2372",86.434425,54.646362
"2373",86.47837,54.659668
"2374",86.28062,54.672974
"2375",85.96811,54.68628
"2376",85.63607,54.699585
"2377",85.35775,54.71289
"2378",85.15999,54.726196
"2379",85.030594,54.739502
"2380",84.9305,54.752808
"2381",84.81575,54.766113
"2382",84.644844,54.77942
"2383",84.40559,54.792725
"2384",84.11505,54.80603
"2385",83.80499,54.819336
"2386",83.509575,54.83264
"2387",83.24101,54.845947
"2388",83.00908,54.859253
"2389",82.804,54.87256
"2390",82.60868,54.885864
"2391",82.40116,54.89917
"2392",82.1741,54.912476
"2393",81.92752,54.92578
"2394",81.654076,54.939087
"2395",81.3489,54.952393
"2396",81.02174,54.9657
"2397",80.68726,54.979004
"2398",80.34791,54.99231
"2399",80.01343,55.005615
"2400",79.69604,55.01892
"2401",79.40307,55.032227
"2402",79.13451,55.045532
"2403",78.890366,55.058838
"2404",78.67063,55.072144
"2405",78.467995,55.08545
"2406",78.28489,55.098755
"2407",78.12619,55.11206
"2408",77.99191,55.125366
"2409",77.87961,55.13867
"2410",77.77951,55.151978
"2411",77.68673,55.165283
"2412",77.5964,55.17859
"2413",77.503624,55.191895
"2414",77.40841,55.2052
"2415",77.31808,55.218506
"2416",77.23262,55.23181
"2417",77.152054,55.245117
"2418",77.066605,55.258423
"2419",76.97383,55.27173
"2420",76.86641,55.285034
"2421",76.74677,55.29834
"2422",76.61982,55.311646
"2423",76.48554,55.32495
"2424",76.35615,55.338257
"2425",76.243835,55.351562
"2426",76.19989,55.36487
"2427",76.34638,55.378174
"2428",76.84932,55.39148
"2429",77.840546,55.404785
"2430",79.3225,55.41809
"2431",81.163345,55.431396
"2432",83.11162,55.444702
"2433",84.86946,55.458008
"2434",86.20004,55.471313
"2435",87.00084,55.48462
"2436",87.308464,55.497925
"2437",87.23277,55.51123
"2438",86.908066,55.524536
"2439",86.45884,55.53784
"2440",85.997406,55.551147
"2441",85.58968,55.564453
"2442",85.27474,55.57776
"2443",85.0428,55.591064
"2444",84.842606,55.60437
"2445",84.627754,55.617676
"2446",84.36164,55.63098
"2447",84.034485,55.644287
"2448",83.67071,55.657593
"2449",83.30694,55.6709
"2450",82.9749,55.684204
"2451",82.69657,55.69751
"2452",82.4622,55.710815
"2453",82.25468,55.72412
"2454",82.05203,55.737427
"2455",81.83719,55.750732
"2456",81.5906,55.764038
"2457",81.29763,55.777344
"2458",80.96315,55.79065
"2459",80.59449,55.803955
"2460",80.21118,55.81726
"2461",79.82788,55.830566
"2462",79.466545,55.843872
"2463",79.14183,55.857178
"2464",78.85863,55.870483
"2465",78.61936,55.88379
"2466",78.41428,55.897095
"2467",78.24094,55.9104
"2468",78.08469,55.923706
"2469",77.94064,55.93701
"2470",77.80148,55.950317
"2471",77.67208,55.963623
"2472",77.55245,55.97693
"2473",77.44259,55.990234
"2474",77.34493,56.00354
"2475",77.25948,56.016846
"2476",77.19112,56.03015
"2477",77.14473,56.043457
"2478",77.10811,56.056763
"2479",77.07393,56.07007
"2480",77.02998,56.083374
"2481",76.96895,56.09668
"2482",76.88106,56.109985
"2483",76.76875,56.12329
"2484",76.64179,56.136597
"2485",76.5124,56.149902
"2486",76.39033,56.163208
"2487",76.3122,56.176514
"2488",76.37568,56.18982
"2489",76.72968,56.203125
"2490",77.50118,56.21643
"2491",78.73411,56.229736
"2492",80.33814,56.243042
"2493",82.10086,56.256348
"2494",83.75128,56.269653
"2495",85.04768,56.28296
"2496",85.86557,56.296265
"2497",86.20737,56.30957
"2498",86.16342,56.322876
"2499",85.855804,56.33618
"2500",85.40414,56.349487
"2501",84.910965,56.362793
"2502",84.44709,56.3761
"2503",84.04425,56.389404
"2504",83.70977,56.40271
"2505",83.40948,56.416016
"2506",83.11894,56.42932
"2507",82.82353,56.442627
"2508",82.533,56.455933
"2509",82.26444,56.46924
"2510",82.039825,56.482544
"2511",81.87137,56.49585
"2512",81.74685,56.509155
"2513",81.63943,56.52246
"2514",81.5198,56.535767
"2515",81.36843,56.549072
"2516",81.17555,56.562378
"2517",80.936295,56.575684
"2518",80.655525,56.58899
"2519",80.00122,56.6156
"2520",79.65453,56.628906
"2521",79.30785,56.642212
"2522",78.97826,56.655518
"2523",78.675514,56.668823
"2524",78.40452,56.68213
"2525",78.16525,56.695435
"2526",77.95285,56.70874
"2527",77.769745,56.722046
"2528",77.611046,56.73535
"2529",77.467,56.748657
"2530",77.34005,56.761963
"2531",77.225296,56.77527
"2532",77.120316,56.788574
"2533",77.032425,56.80188
"2534",76.95674,56.815186
"2535",76.893265,56.82849
"2536",76.83711,56.841797
"2537",76.78096,56.855103
"2538",76.71992,56.86841
"2539",76.63935,56.881714
"2540",76.53437,56.89502
"2541",76.40986,56.908325
"2542",76.2707,56.92163
"2543",76.12665,56.934937
"2544",75.98993,56.948242
"2545",75.90692,56.961548
"2546",75.95575,56.974854
"2547",76.297554,56.98816
"2548",77.08858,57.001465
"2549",78.40208,57.01477
"2550",80.15991,57.028076
"2551",82.15457,57.04138
"2552",84.09064,57.054688
"2553",85.680016,57.067993
"2554",86.744484,57.0813
"2555",87.2694,57.094604
"2556",87.3402,57.10791
"2557",87.09117,57.121216
"2558",86.659035,57.13452
"2559",86.16342,57.147827
"2560",85.68978,57.161133
"2561",85.28939,57.17444
"2562",84.96956,57.187744
"2563",84.70588,57.20105
"2564",84.44953,57.214355
"2565",84.16388,57.22766
"2566",83.83429,57.240967
"2567",83.475395,57.254272
"2568",83.11406,57.26758
"2569",82.78447,57.280884
"2570",82.50614,57.29419
"2571",82.269325,57.307495
"2572",82.05203,57.3208
"2573",81.83475,57.334106
"2574",81.59792,57.347412
"2575",81.32937,57.360718
"2576",81.02174,57.374023
"2577",80.67994,57.38733
"2578",80.31373,57.400635
"2579",79.93042,57.41394
"2580",79.54467,57.427246
"2581",79.166245,57.44055
"2582",78.802475,57.453857
"2583",78.46067,57.467163
"2584",78.14328,57.48047
"2585",77.86008,57.493774
"2586",77.61349,57.50708
"2587",77.3962,57.520386
"2588",77.21065,57.53369
"2589",77.049515,57.546997
"2590",76.90059,57.560303
"2591",76.76387,57.57361
"2592",76.63447,57.586914
"2593",76.5124,57.60022
"2594",76.40009,57.613525
"2595",76.30244,57.62683
"2596",76.21454,57.640137
"2597",76.13641,57.653442
"2598",76.05829,57.666748
"2599",75.98016,57.680054
"2600",75.88983,57.69336
"2601",75.792175,57.706665
"2602",75.67742,57.71997
"2603",75.55535,57.733276
"2604",75.421074,57.746582
"2605",75.29168,57.759888
"2606",75.211105,57.773193
"2607",75.29168,57.7865
"2608",75.71404,57.799805
"2609",76.64179,57.81311
"2610",78.11154,57.826416
"2611",80.01343,57.83972
"2612",82.10574,57.853027
"2613",84.07355,57.866333
"2614",85.63851,57.87964
"2615",86.65415,57.892944
"2616",87.13512,57.90625
"2617",87.186386,57.919556
"2618",86.94469,57.93286
"2619",86.54673,57.946167
"2620",86.117035,57.959473
"2621",85.73617,57.97278
"2622",85.45541,57.986084
"2623",85.2723,57.99939
"2624",85.1429,58.012695
"2625",84.998856,58.026
"2626",84.77425,58.039307
"2627",84.437325,58.052612
"2628",84.00275,58.065918
"2629",83.509575,58.079224
"2630",83.018845,58.09253
"2631",82.57694,58.105835
"2632",82.213165,58.11914
"2633",81.92264,58.132446
"2634",81.688255,58.145752
"2635",81.48318,58.159058
"2636",81.2781,58.172363
"2637",81.05104,58.18567
"2638",80.782486,58.198975
"2639",80.46998,58.21228
"2640",80.11841,58.225586
"2641",79.73754,58.23889
"2642",79.33471,58.252197
"2643",78.92943,58.265503
"2644",78.52659,58.27881
"2645",78.1384,58.292114
"2646",77.77951,58.30542
"2647",77.46456,58.318726
"2648",77.19112,58.33203
"2649",76.95918,58.345337
"2650",76.76387,58.358643
"2651",76.595406,58.37195
"2652",76.45136,58.385254
"2653",76.33173,58.39856
"2654",76.23163,58.411865
"2655",76.15839,58.42517
"2656",76.09979,58.438477
"2657",76.050964,58.451782
"2658",76.00214,58.465088
"2659",75.95819,58.478394
"2660",75.90448,58.4917
"2661",75.843445,58.505005
"2662",75.76532,58.51831
"2663",75.667656,58.531616
"2664",75.543144,58.54492
"2665",75.39178,58.558228
"2666",75.22575,58.571533
"2667",75.06218,58.58484
"2668",74.94743,58.598145
"2669",74.99138,58.61145
"2670",75.35027,58.624756
"2671",76.16815,58.63806
"2672",77.4963,58.651367
"2673",79.23949,58.664673
"2674",81.18288,58.67798
"2675",83.04082,58.691284
"2676",84.55695,58.70459
"2677",85.57992,58.717896
"2678",86.10239,58.7312
"2679",86.21713,58.744507
"2680",86.05112,58.757812
"2681",85.7264,58.77112
"2682",85.367516,58.784424
"2683",85.05501,58.79773
"2684",84.83528,58.811035
"2685",84.70344,58.82434
"2686",84.61555,58.837646
"2687",84.508125,58.850952
"2688",84.332344,58.864258
"2689",84.06378,58.877563
"2690",83.70733,58.89087
"2691",83.3045,58.904175
"2692",82.90166,58.91748
"2693",82.53788,58.930786
"2694",82.22293,58.94409
"2695",81.94949,58.957397
"2696",81.7029,58.970703
"2697",81.45632,58.98401
"2698",81.19264,58.997314
"2699",80.89479,59.01062
"2700",80.56275,59.023926
"2701",80.19409,59.03723
"2702",79.79614,59.050537
"2703",79.39086,59.063843
"2704",78.99046,59.07715
"2705",78.6096,59.090454
"2706",78.25803,59.10376
"2707",77.94797,59.117065
"2708",77.66964,59.13037
"2709",77.42794,59.143677
"2710",77.21309,59.156982
"2711",77.01289,59.170288
"2712",76.822464,59.183594
"2713",76.63203,59.1969
"2714",76.4416,59.210205
"2715",76.25117,59.22351
"2716",76.06317,59.236816
"2717",75.88739,59.250122
"2718",75.72625,59.263428
"2719",75.577324,59.276733
"2720",75.440605,59.29004
"2721",75.32586,59.303345
"2722",75.22331,59.31665
"2723",75.140305,59.329956
"2724",75.06706,59.34326
"2725",75.00603,59.356567
"2726",74.94743,59.369873
"2727",74.881516,59.38318
"2728",74.80339,59.396484
"2729",74.71549,59.40979
"2730",74.615395,59.423096
"2731",74.52018,59.4364
"2732",74.461586,59.449707
"2733",74.512856,59.463013
"2734",74.82536,59.47632
"2735",75.59197,59.489624
"2736",76.92012,59.50293
"2737",78.77318,59.516235
"2738",80.96559,59.52954
"2739",83.194626,59.542847
"2740",85.12337,59.556152
"2741",86.51255,59.569458
"2742",87.293816,59.582764
"2743",87.535515,59.59607
"2744",87.37194,59.609375
"2745",86.959335,59.62268
"2746",86.43687,59.635986
"2747",85.91684,59.649292
"2748",85.47738,59.662598
"2749",85.135574,59.675903
"2750",84.876785,59.68921
"2751",84.6424,59.702515
"2752",84.386055,59.71582
"2753",84.071106,59.729126
"2754",83.69756,59.74243
"2755",83.28985,59.755737
"2756",82.89189,59.769043
"2757",82.53788,59.78235
"2758",82.23758,59.795654
"2759",81.97879,59.80896
"2760",81.74441,59.822266
"2761",81.50759,59.83557
"2762",81.248795,59.848877
"2763",80.95094,59.862183
"2764",80.61158,59.87549
"2765",80.23804,59.888794
"2766",79.84009,59.9021
"2767",79.429924,59.915405
"2768",79.0222,59.92871
"2769",78.62913,59.942017
"2770",78.25315,59.955322
"2771",77.91135,59.968628
"2772",77.60616,59.981934
"2773",77.34249,59.99524
"2774",77.12764,60.008545
"2775",76.95186,60.02185
"2776",76.80293,60.035156
"2777",76.67353,60.048462
"2778",76.5539,60.061768
"2779",76.4416,60.075073
"2780",76.32929,60.08838
"2781",76.22919,60.101685
"2782",76.1413,60.11499
"2783",76.070496,60.128296
"2784",76.00702,60.1416
"2785",75.95087,60.154907
"2786",75.88983,60.168213
"2787",75.81659,60.18152
"2788",75.718925,60.194824
"2789",75.60174,60.20813
"2790",75.46502,60.221436
"2791",75.318535,60.23474
"2792",75.16716,60.248047
"2793",75.035324,60.261353
"2794",74.98161,60.27466
"2795",75.13298,60.287964
"2796",75.67498,60.30127
"2797",76.756546,60.314575
"2798",78.397194,60.32788
"2799",80.445564,60.341187
"2800",82.63798,60.354492
"2801",84.63264,60.367798
"2802",86.16098,60.381104
"2803",87.09361,60.39441
"2804",87.467155,60.407715
"2805",87.398796,60.42102
"2806",87.0399,60.434326
"2807",86.52476,60.44763
"2808",85.96811,60.460938
"2809",85.44808,60.474243
"2810",84.998856,60.48755
"2811",84.61799,60.500854
"2812",84.27375,60.51416
"2813",83.931946,60.527466
"2814",83.59014,60.54077
"2815",83.25323,60.554077
"2816",82.948044,60.567383
"2817",82.69901,60.58069
"2818",82.50858,60.593994
"2819",82.3621,60.6073
"2820",82.22293,60.620605
"2821",82.056915,60.63391
"2822",81.846954,60.647217
"2823",81.57595,60.660522
"2824",81.24635,60.67383
"2825",80.867935,60.687134
"2826",80.45777,60.70044
"2827",80.03052,60.713745
"2828",79.605705,60.72705
"2829",79.19066,60.740356
"2830",78.79759,60.753662
"2831",78.43626,60.766968
"2832",78.1091,60.780273
"2833",77.821014,60.79358
"2834",77.57198,60.806885
"2835",77.35714,60.82019
"2836",77.171585,60.833496
"2837",77.00801,60.8468
"2838",76.85664,60.860107
"2839",76.717476,60.873413
"2840",76.59052,60.88672
"2841",76.47578,60.900024
"2842",76.37568,60.91333
"2843",76.29511,60.926636
"2844",76.22919,60.93994
"2845",76.16571,60.953247
"2846",76.09979,60.966553
"2847",76.016785,60.97986
"2848",75.90692,60.993164
"2849",75.76776,61.00647
"2850",75.60906,61.019775
"2851",75.43084,61.03308
"2852",75.25506,61.046387
"2853",75.11833,61.059692
"2854",75.11833,61.072998
"2855",75.423515,61.086304
"2856",76.23163,61.09961
"2857",77.63302,61.112915
"2858",79.569084,61.12622
"2859",81.82254,61.139526
"2860",84.06378,61.152832
"2861",85.960785,61.166138
"2862",87.29626,61.179443
"2863",88.026245,61.19275
"2864",88.22888,61.206055
"2865",88.04578,61.21936
"2866",87.62585,61.232666
"2867",87.10826,61.24597
"2868",86.60288,61.259277
"2869",86.18051,61.272583
"2870",85.855804,61.28589
"2871",85.59701,61.299194
"2872",85.347984,61.3125
"2873",85.04768,61.325806
"2874",84.6717,61.33911
"2875",84.227356,61.352417
"2876",83.758606,61.365723
"2877",83.30938,61.37903
"2878",82.913864,61.392334
"2879",82.58427,61.40564
"2880",82.303505,61.418945
"2881",82.04471,61.43225
"2882",81.78592,61.445557
"2883",81.50271,61.458862
"2884",81.18288,61.472168
"2885",80.82155,61.485474
"2886",80.42115,61.49878
"2887",80.00122,61.512085
"2888",79.569084,61.52539
"2889",79.14183,61.538696
"2890",78.73167,61.552002
"2891",78.348366,61.565308
"2892",77.996796,61.578613
"2893",77.68185,61.59192
"2894",77.40353,61.605225
"2895",77.1667,61.61853
"2896",76.96895,61.631836
"2897",76.80049,61.64514
"2898",76.654,61.658447
"2899",76.524605,61.671753
"2900",76.40742,61.68506
"2901",76.29511,61.698364
"2902",76.190125,61.71167
"2903",76.09735,61.724976
"2904",76.00946,61.73828
"2905",75.92157,61.751587
"2906",75.8288,61.764893
"2907",75.72869,61.7782
"2908",75.61883,61.791504
"2909",75.50408,61.80481
"2910",75.38445,61.818115
"2911",75.2575,61.83142
"2912",75.12077,61.844727
"2913",74.97673,61.858032
"2914",74.85954,61.871338
"2915",74.864426,61.884644
"2916",75.17204,61.89795
"2917",75.982605,61.911255
"2918",77.39864,61.92456
"2919",79.361565,61.937866
"2920",81.65652,61.95117
"2921",83.946594,61.964478
"2922",85.89975,61.977783
"2923",87.291374,61.99109
"2924",88.07019,62.004395
"2925",88.31922,62.0177
"2926",88.17761,62.031006
"2927",87.8114,62.04431
"2928",87.35485,62.057617
"2929",86.922714,62.070923
"2930",86.58335,62.08423
"2931",86.346535,62.097534
"2932",86.168304,62.11084
"2933",85.98276,62.124146
"2934",85.72152,62.13745
"2935",85.34066,62.150757
"2936",84.840164,62.164062
"2937",84.266426,62.17737
"2938",83.682915,62.190674
"2939",83.14824,62.20398
"2940",82.69413,62.217285
"2941",82.32548,62.23059
"2942",82.01541,62.243896
"2943",81.72732,62.257202
"2944",81.427025,62.270508
"2945",81.094986,62.283813
"2946",80.723885,62.29712
"2947",80.31129,62.310425
"2948",79.871826,62.32373
"2949",79.42016,62.337036
"2950",78.97093,62.35034
"2951",78.52903,62.363647
"2952",78.11154,62.376953
"2953",77.72335,62.39026
"2954",77.36935,62.403564
"2955",77.05928,62.41687
"2956",76.788284,62.430176
"2957",76.55634,62.44348
"2958",76.35859,62.456787
"2959",76.18768,62.470093
"2960",76.03143,62.4834
"2961",75.88983,62.496704
"2962",75.76532,62.51001
"2963",75.66033,62.523315
"2964",75.57244,62.53662
"2965",75.49676,62.549927
"2966",75.42596,62.563232
"2967",75.352715,62.576538
"2968",75.26238,62.589844
"2969",75.157394,62.60315
"2970",75.03288,62.616455
"2971",74.8864,62.62976
"2972",74.720375,62.643066
"2973",74.55192,62.656372
"2974",74.39811,62.669678
"2975",74.32975,62.682983
"2976",74.478676,62.69629
"2977",75.02556,62.709595
"2978",76.11932,62.7229
"2979",77.77707,62.736206
"2980",79.852295,62.74951
"2981",82.08133,62.762817
"2982",84.12726,62.776123
"2983",85.71908,62.78943
"2984",86.727394,62.802734
"2985",87.17906,62.81604
"2986",87.18883,62.829346
"2987",86.91539,62.84265
"2988",86.50767,62.855957
"2989",86.0853,62.869263
"2990",85.73861,62.88257
"2991",85.49447,62.895874
"2992",85.32113,62.90918
"2993",85.152664,62.922485
"2994",84.92073,62.93579
"2995",84.576485,62.949097
"2996",84.11749,62.962402
"2997",83.58282,62.975708
"2998",83.038376,62.989014
"2999",82.53544,63.00232
"3000",82.11551,63.015625
"3001",81.78348,63.02893
"3002",81.514915,63.042236
"3003",81.2781,63.055542
"3004",81.03883,63.068848
"3005",80.76051,63.082153
"3006",80.43336,63.09546
"3007",80.05493,63.108765
"3008",79.635,63.12207
"3009",79.19554,63.135376
"3010",78.75609,63.14868
"3011",78.33372,63.161987
"3012",77.94064,63.175293
"3013",77.58663,63.1886
"3014",77.26925,63.201904
"3015",76.99092,63.21521
"3016",76.75166,63.228516
"3017",76.5539,63.24182
"3018",76.39033,63.255127
"3019",76.25605,63.268433
"3020",76.1413,63.28174
"3021",76.036316,63.295044
"3022",75.948425,63.30835
"3023",75.8703,63.321655
"3024",75.80194,63.33496
"3025",75.73846,63.348267
"3026",75.67498,63.361572
"3027",75.596855,63.374878
"3028",75.4992,63.388184
"3029",75.36736,63.40149
"3030",75.21599,63.414795
"3031",75.04265,63.4281
"3032",74.864426,63.441406
"3033",74.70817,63.454712
"3034",74.649574,63.468018
"3035",74.830246,63.481323
"3036",75.43572,63.49463
"3037",76.59052,63.507935
"3038",78.28489,63.52124
"3039",80.35279,63.534546
"3040",82.511024,63.54785
"3041",84.42512,63.561157
"3042",85.84604,63.574463
"3043",86.678566,63.58777
"3044",86.9691,63.601074
"3045",86.84215,63.61438
"3046",86.451515,63.627686
"3047",85.94125,63.64099
"3048",85.43099,63.654297
"3049",84.99397,63.667603
"3050",84.6424,63.68091
"3051",84.34455,63.694214
"3052",84.04425,63.70752
"3053",83.700005,63.720825
"3054",83.299614,63.73413
"3055",82.86748,63.747437
"3056",82.45243,63.760742
"3057",82.10086,63.774048
"3058",81.82742,63.787354
"3059",81.62234,63.80066
"3060",81.45388,63.813965
"3061",81.28542,63.82727
"3062",81.08034,63.840576
"3063",80.82887,63.85388
"3064",80.51392,63.867188
"3065",80.14038,63.880493
"3066",79.725334,63.8938
"3067",79.27856,63.907104
"3068",78.819565,63.92041
"3069",78.3679,63.933716
"3070",77.945526,63.94702
"3071",77.5671,63.960327
"3072",77.24483,63.973633
"3073",76.98604,63.98694
"3074",76.79317,64.000244
"3075",76.65644,64.01355
"3076",76.561226,64.026855
"3077",76.49287,64.04016
"3078",76.42695,64.05347
"3079",76.3415,64.06677
"3080",76.224304,64.08008
"3081",76.07538,64.09338
"3082",75.8996,64.10669
"3083",75.71404,64.119995
"3084",75.53338,64.1333
"3085",75.38445,64.14661
"3086",75.3283,64.15991
"3087",75.494316,64.17322
"3088",76.03876,64.18652
"3089",77.07881,64.19983
"3090",78.607155,64.213135
"3091",80.48463,64.22644
"3092",82.46464,64.239746
"3093",84.24933,64.25305
"3094",85.60433,64.26636
"3095",86.43687,64.27966
"3096",86.77623,64.29297
"3097",86.727394,64.306274
"3098",86.43687,64.31958
"3099",86.03891,64.332886
"3100",85.63607,64.34619
"3101",85.28207,64.3595
"3102",84.996414,64.3728
"3103",84.73762,64.38611
"3104",84.44709,64.399414
"3105",84.07843,64.41272
"3106",83.62676,64.426025
"3107",83.12138,64.43933
"3108",82.616005,64.45264
"3109",82.17166,64.46594
"3110",81.829865,64.47925
"3111",81.58572,64.49255
"3112",81.40505,64.50586
"3113",81.23903,64.519165
"3114",81.041275,64.53247
"3115",80.782486,64.54578
"3116",80.45045,64.55908
"3117",80.05005,64.57239
"3118",79.60082,64.58569
"3119",79.132065,64.599
"3120",78.66575,64.612305
"3121",78.21896,64.62561
"3122",77.80148,64.638916
"3123",77.42306,64.65222
"3124",77.09346,64.66553
"3125",76.8127,64.67883
"3126",76.58564,64.69214
"3127",76.40742,64.705444
"3128",76.263374,64.71875
"3129",76.13153,64.732056
"3130",75.99725,64.74536
"3131",75.84589,64.75867
"3132",75.67498,64.77197
"3133",75.48211,64.78528
"3134",75.29168,64.798584
"3135",75.13542,64.81189
"3136",75.10124,64.825195
"3137",75.335625,64.8385
"3138",76.00214,64.85181
"3139",77.18623,64.86511
"3140",78.84886,64.87842
"3141",80.80934,64.89172
"3142",82.78447,64.90503
"3143",84.48127,64.918335
"3144",85.6849,64.93164
"3145",86.34165,64.94495
"3146",86.51255,64.95825
"3147",86.346535,64.97156
"3148",85.99985,64.98486
"3149",85.61166,64.99817
"3150",85.27718,65.011475
"3151",85.03792,65.02478
"3152",84.86458,65.038086
"3153",84.69367,65.05139
"3154",84.44221,65.0647
"3155",84.054016,65.078
"3156",83.52178,65.09131
"3157",82.89189,65.104614
"3158",82.24246,65.11792
"3159",81.654076,65.131226
"3160",81.18288,65.14453
"3161",80.8362,65.15784
"3162",80.58228,65.17114
"3163",80.37232,65.18445
"3164",80.15503,65.197754
"3165",79.89136,65.21106
"3166",79.56176,65.224365
"3167",79.168686,65.23767
"3168",78.7219,65.25098
"3169",78.24094,65.26428
"3170",77.7551,65.27759
"3171",77.279015,65.29089
"3172",76.83467,65.3042
"3173",76.43183,65.317505
"3174",76.068054,65.33081
"3175",75.74578,65.34412
"3176",75.44793,65.35742
"3177",75.16716,65.37073
"3178",74.898605,65.38403
"3179",74.63981,65.39734
"3180",74.39323,65.410645
"3181",74.1564,65.42395
"3182",73.93179,65.437256
"3183",73.72915,65.45056
"3184",73.60708,65.46387
"3185",73.68276,65.47717
"3186",74.14664,65.49048
"3187",75.14519,65.503784
"3188",76.70283,65.51709
"3189",78.695045,65.530396
"3190",80.86061,65.5437
"3191",82.87236,65.55701
"3192",84.454414,65.57031
"3193",85.47738,65.58362
"3194",85.96323,65.596924
"3195",86.03403,65.61023
"3196",85.8436,65.623535
"3197",85.540855,65.63684
"3198",85.240555,65.65015
"3199",85.0013,65.66345
"3200",84.825516,65.67676
"3201",84.65949,65.69006
"3202",84.42512,65.70337
"3203",84.06622,65.716675
"3204",83.563286,65.72998
"3205",82.950485,65.743286
"3206",82.30839,65.75659
"3207",81.72488,65.7699
"3208",81.26101,65.7832
"3209",80.92653,65.79651
"3210",80.68726,65.809814
"3211",80.48951,65.82312
"3212",80.28199,65.836426
"3213",80.01343,65.84973
"3214",79.674065,65.86304
"3215",79.27123,65.87634
"3216",78.82445,65.88965
"3217",78.35569,65.902954
"3218",77.891815,65.91626
"3219",77.44747,65.929565
"3220",77.03487,65.94287
"3221",76.65644,65.95618
"3222",76.317085,65.96948
"3223",76.00946,65.98279
"3224",75.72869,65.99609
"3225",75.46502,66.0094
"3226",75.208664,66.022705
"3227",74.95964,66.03601
"3228",74.7277,66.04932
"3229",74.52018,66.06262
"3230",74.36881,66.07593
"3231",74.34684,66.08923
"3232",74.59342,66.10254
"3233",75.26238,66.115845
"3234",76.44404,66.12915
"3235",78.09689,66.142456
"3236",80.05005,66.15576
"3237",82.02518,66.16907
"3238",83.717094,66.18237
"3239",84.92073,66.19568
"3240",85.57748,66.208984
"3241",85.76303,66.22229
"3242",85.62142,66.235596
"3243",85.31136,66.2489
"3244",84.96956,66.26221
"3245",84.68635,66.27551
"3246",84.47883,66.28882
"3247",84.30305,66.302124
"3248",84.085754,66.31543
"3249",83.756165,66.328735
"3250",83.284966,66.34204
"3251",82.69901,66.35535
"3252",82.06668,66.36865
"3253",81.48562,66.38196
"3254",81.0193,66.39526
"3255",80.68726,66.40857
"3256",80.465096,66.421875
"3257",80.29908,66.43518
"3258",80.13306,66.44849
"3259",79.91821,66.46179
"3260",79.635,66.4751
"3261",79.27856,66.4884
"3262",78.870834,66.50171
"3263",78.433815,66.515015
"3264",77.98947,66.52832
"3265",77.56222,66.541626
"3266",77.16182,66.55493
"3267",76.79317,66.56824
"3268",76.45136,66.58154
"3269",76.13153,66.59485
"3270",75.82147,66.608154
"3271",75.526054,66.62146
"3272",75.23552,66.634766
"3273",74.9572,66.64807
"3274",74.703285,66.66138
"3275",74.493324,66.67468
"3276",74.371254,66.68799
"3277",74.42985,66.701294
"3278",74.827805,66.7146
"3279",75.701836,66.727905
"3280",77.103226,66.74121
"3281",78.93675,66.75452
"3282",80.98512,66.76782
"3283",82.94072,66.78113
"3284",84.5301,66.79443
"3285",85.57992,66.80774
"3286",86.07797,66.821045
"3287",86.12192,66.83435
"3288",85.86069,66.84766
"3289",85.44076,66.86096
"3290",84.99153,66.87427
"3291",84.58625,66.88757
"3292",84.23956,66.90088
"3293",83.90753,66.914185
"3294",83.53399,66.92749
"3295",83.07744,66.940796
"3296",82.533,66.9541
"3297",81.93973,66.96741
"3298",81.375755,66.98071
"3299",80.902115,66.99402
"3300",80.55787,67.007324
"3301",80.33814,67.02063
"3302",80.201416,67.033936
"3303",80.08667,67.04724
"3304",79.940186,67.06055
"3305",79.72289,67.07385
"3306",79.4226,67.08716
"3307",79.044174,67.100464
"3308",78.61692,67.11377
"3309",78.16525,67.127075
"3310",77.71603,67.14038
"3311",77.29366,67.15369
"3312",76.90303,67.16699
"3313",76.5539,67.1803
"3314",76.243835,67.1936
"3315",75.96307,67.20691
"3316",75.70428,67.220215
"3317",75.45525,67.23352
"3318",75.211105,67.246826
"3319",74.97185,67.26013
"3320",74.75456,67.27344
"3321",74.57633,67.28674
"3322",74.512856,67.30005
"3323",74.70817,67.313354
"3324",75.352715,67.32666
"3325",76.561226,67.339966
"3326",78.31907,67.35327
"3327",80.45533,67.36658
"3328",82.684364,67.37988
"3329",84.661934,67.39319
"3330",86.12436,67.406494
"3331",86.96666,67.4198
"3332",87.235214,67.433105
"3333",87.061874,67.44641
"3334",86.62241,67.45972
"3335",86.07309,67.47302
"3336",85.53353,67.48633
"3337",85.05989,67.49963
"3338",84.644844,67.51294
"3339",84.2298,67.526245
"3340",83.76593,67.53955
"3341",83.23125,67.55286
"3342",82.64042,67.56616
"3343",82.05203,67.57947
"3344",81.5198,67.59277
"3345",81.10231,67.60608
"3346",80.80446,67.619385
"3347",80.59449,67.63269
"3348",80.428474,67.645996
"3349",80.25025,67.6593
"3350",80.01587,67.67261
"3351",79.693596,67.68591
"3352",79.276115,67.69922
"3353",78.7805,67.712524
"3354",78.23605,67.72583
"3355",77.6672,67.739136
"3356",77.10567,67.75244
"3357",76.578316,67.76575
"3358",76.09979,67.77905
"3359",75.67986,67.79236
"3360",75.33074,67.805664
"3361",75.0573,67.81897
"3362",74.85466,67.832275
"3363",74.71305,67.84558
"3364",74.62272,67.85889
"3365",74.55924,67.87219
"3366",74.50065,67.8855
"3367",74.42985,67.8988
"3368",74.32731,67.91211
"3369",74.1857,67.925415
"3370",74.00015,67.93872
"3371",73.78287,67.95203
"3372",73.548485,67.96533
"3373",73.36538,67.97864
"3374",73.37759,67.99194
"3375",73.82437,68.00525
"3376",74.9279,68.018555
"3377",76.771194,68.03186
"3378",79.217514,68.045166
"3379",81.94949,68.05847
"3380",84.53498,68.07178
"3381",86.57847,68.08508
"3382",87.86755,68.09839
"3383",88.40955,68.111694
"3384",88.35096,68.125
"3385",87.90173,68.138306
"3386",87.257195,68.15161
"3387",86.57847,68.16492
"3388",85.96323,68.17822
"3389",85.43832,68.19153
"3390",84.972,68.204834
"3391",84.508125,68.21814
"3392",83.99786,68.231445
"3393",83.43145,68.24475
"3394",82.84062,68.25806
"3395",82.28397,68.27136
"3396",81.80789,68.28467
"3397",81.444115,68.29797
"3398",81.17311,68.31128
"3399",80.955826,68.324585
"3400",80.73853,68.33789
"3401",80.48707,68.3512
"3402",80.164795,68.3645
"3403",79.76196,68.37781
"3404",79.28344,68.39111
"3405",78.746315,68.40442
"3406",78.17502,68.417725
"3407",77.591515,68.43103
"3408",77.02754,68.444336
"3409",76.49775,68.45764
"3410",76.0119,68.47095
"3411",75.577324,68.48425
"3412",75.1989,68.49756
"3413",74.87419,68.510864
"3414",74.598305,68.52417
"3415",74.36637,68.537476
"3416",74.16861,68.55078
"3417",74.00015,68.56409
"3418",73.84146,68.57739
"3419",73.69741,68.5907
"3420",73.56313,68.604004
"3421",73.43862,68.61731
"3422",73.32876,68.630615
"3423",73.23842,68.64392
"3424",73.162735,68.65723
"3425",73.09682,68.67053
"3426",73.02846,68.68384
"3427",72.94545,68.69714
"3428",72.84047,68.71045
"3429",72.7013,68.723755
"3430",72.535286,68.73706
"3431",72.342415,68.75037
"3432",72.14465,68.76367
"3433",72.00305,68.77698
"3434",72.08606,68.79028
"3435",72.7013,68.80359
"3436",74.14664,68.816895
"3437",76.53193,68.8302
"3438",79.68139,68.843506
"3439",83.177536,68.85681
"3440",86.47593,68.87012
"3441",89.076065,68.88342
"3442",90.71671,68.89673
"3443",91.439384,68.910034
"3444",91.44915,68.92334
"3445",90.985275,68.936646
"3446",90.269936,68.94995
"3447",89.47402,68.96326
"3448",88.72205,68.97656
"3449",88.07263,68.98987
"3450",87.518425,69.003174
"3451",87.010605,69.01648
"3452",86.49302,69.029785
"3453",85.93393,69.04309
"3454",85.33822,69.0564
"3455",84.74738,69.0697
"3456",84.210266,69.08301
"3457",83.758606,69.09631
"3458",83.39483,69.10962
"3459",83.087204,69.122925
"3460",82.80156,69.13623
"3461",82.49149,69.149536
"3462",82.125275,69.16284
"3463",81.688255,69.17615
"3464",81.17555,69.18945
"3465",80.59693,69.20276
"3466",79.971924,69.216064
"3467",79.32494,69.22937
"3468",78.6804,69.242676
"3469",78.05783,69.25598
"3470",77.469444,69.26929
"3471",76.93477,69.28259
"3472",76.453804,69.2959
"3473",76.02899,69.309204
"3474",75.65789,69.32251
"3475",75.34051,69.335815
"3476",75.06218,69.34912
"3477",74.81804,69.36243
"3478",74.59586,69.37573
"3479",74.39567,69.38904
"3480",74.21011,69.40234
"3481",74.03677,69.41565
"3482",73.87564,69.428955
"3483",73.724266,69.44226
"3484",73.568016,69.45557
"3485",73.40688,69.46887
"3486",73.24086,69.48218
"3487",73.06264,69.49548
"3488",72.884415,69.50879
"3489",72.71351,69.522095
"3490",72.552376,69.5354
"3491",72.40589,69.548706
"3492",72.26917,69.56201
"3493",72.14465,69.57532
"3494",72.02991,69.58862
"3495",71.92737,69.60193
"3496",71.83948,69.615234
"3497",71.763794,69.62854
"3498",71.70031,69.641846
"3499",71.63683,69.65515
"3500",71.57824,69.66846
"3501",71.54162,69.68176
"3502",71.60754,69.69507
"3503",71.99817,69.708374
"3504",73.08217,69.72168
"3505",75.176926,69.734985
"3506",78.36057,69.74829
"3507",82.35966,69.7616
"3508",86.62974,69.7749
"3509",90.50675,69.78821
"3510",93.44381,69.80151
"3511",95.20409,69.81482
"3512",95.89258,69.828125
"3513",95.78516,69.84143
"3514",95.18211,69.85474
"3515",94.32029,69.86804
"3516",93.37789,69.88135
"3517",92.474556,69.89465
"3518",91.69085,69.90796
"3519",91.02434,69.921265
"3520",90.43107,69.93457
"3521",89.84268,69.947876
"3522",89.2079,69.96118
"3523",88.50965,69.97449
"3524",87.76257,69.98779
"3525",87.02037,70.0011
"3526",86.33189,70.014404
"3527",85.72152,70.02771
"3528",85.18196,70.041016
"3529",84.69367,70.05432
"3530",84.224915,70.06763
"3531",83.74883,70.08093
"3532",83.24101,70.09424
"3533",82.67948,70.107544
"3534",82.056915,70.12085
"3535",81.3782,70.134155
"3536",80.65797,70.14746
"3537",79.91577,70.16077
"3538",79.166245,70.17407
"3539",78.43137,70.18738
"3540",77.72823,70.20068
"3541",77.069046,70.21399
"3542",76.46601,70.227295
"3543",75.928894,70.2406
"3544",75.46014,70.25391
"3545",75.054855,70.26721
"3546",74.70573,70.28052
"3547",74.39811,70.29382
"3548",74.12955,70.30713
"3549",73.88541,70.320435
"3550",73.66323,70.33374
"3551",73.45571,70.347046
"3552",73.2604,70.36035
"3553",73.074844,70.37366
"3554",72.886856,70.38696
"3555",72.69886,70.40027
"3556",72.50599,70.413574
"3557",72.30579,70.42688
"3558",72.09827,70.440186
"3559",71.89075,70.45349
"3560",71.69543,70.4668
"3561",71.517204,70.4801
"3562",71.363396,70.49341
"3563",71.23888,70.506714
"3564",71.1461,70.52002
"3565",71.0753,70.533325
"3566",71.02403,70.54663
"3567",70.98253,70.55994
"3568",70.94347,70.57324
"3569",70.89708,70.58655
"3570",70.84825,70.59985
"3571",70.79454,70.61316
"3572",70.75548,70.626465
"3573",70.78966,70.63977
"3574",71.07774,70.653076
"3575",71.95178,70.66638
"3576",73.797516,70.67969
"3577",76.82735,70.69299
"3578",80.907,70.7063
"3579",85.557945,70.719604
"3580",90.08682,70.73291
"3581",93.81003,70.746216
"3582",96.31495,70.75952
"3583",97.54299,70.77283
"3584",97.73342,70.78613
"3585",97.22072,70.79944
"3586",96.29786,70.812744
"3587",95.17967,70.82605
"3588",94.01999,70.839355
"3589",92.9189,70.85266
"3590",91.92035,70.86597
"3591",91.0219,70.87927
"3592",90.18204,70.89258
"3593",89.3666,70.90588
"3594",88.56336,70.91919
"3595",87.77966,70.932495
"3596",87.04234,70.9458
"3597",86.39048,70.95911
"3598",85.841156,70.97241
"3599",85.37484,70.98572
"3600",84.95979,70.99902
"3601",84.55207,71.01233
"3602",84.119934,71.025635
"3603",83.631645,71.03894
"3604",83.072556,71.052246
"3605",82.4329,71.06555
"3606",81.72488,71.07886
"3607",80.96315,71.09216
"3608",80.16968,71.10547
"3609",79.36645,71.118774
"3610",78.57053,71.13208
"3611",77.80148,71.145386
"3612",77.07393,71.15869
"3613",76.39765,71.172
"3614",75.77997,71.1853
"3615",75.23064,71.19861
"3616",74.74967,71.211914
"3617",74.33219,71.22522
"3618",73.97818,71.238525
"3619",73.68032,71.25183
"3620",73.43374,71.26514
"3621",73.22865,71.27844
"3622",73.060196,71.29175
"3623",72.92348,71.30505
"3624",72.80873,71.31836
"3625",72.706184,71.331665
"3626",72.61829,71.34497
"3627",72.552376,71.35828
"3628",72.50355,71.37158
"3629",72.47425,71.38489
"3630",72.46693,71.39819
"3631",72.47913,71.4115
"3632",72.49378,71.424805
"3633",72.50355,71.43811
"3634",72.50599,71.451416
"3635",72.49134,71.46472
"3636",72.4596,71.47803
"3637",72.410774,71.49133
"3638",72.36927,71.50464
"3639",72.38148,71.517944
"3640",72.61097,71.53125
"3641",73.34585,71.544556
"3642",74.93523,71.55786
"3643",77.54757,71.57117
"3644",81.058365,71.58447
"3645",85.033035,71.59778
"3646",88.868546,71.611084
"3647",91.97162,71.62439
"3648",93.99069,71.637695
"3649",94.90379,71.651
"3650",94.93309,71.66431
"3651",94.36668,71.67761
"3652",93.453575,71.69092
"3653",92.37934,71.70422
"3654",91.26116,71.71753
"3655",90.177155,71.730835
"3656",89.161514,71.74414
"3657",88.216675,71.75745
"3658",87.33532,71.77075
"3659",86.52476,71.78406
"3660",85.81186,71.79736
"3661",85.23811,71.81067
"3662",84.825516,71.823975
"3663",84.57404,71.83728
"3664",84.45197,71.850586
"3665",84.39582,71.86389
"3666",84.3299,71.8772
"3667",84.19318,71.8905
"3668",83.946594,71.90381
"3669",83.577934,71.917114
"3670",83.08476,71.93042
"3671",82.48905,71.943726
"3672",81.8201,71.95703
"3673",81.109634,71.97034
"3674",80.38697,71.98364
"3675",79.676506,71.99695
"3676",79.00023,72.010254
"3677",78.37278,72.02356
"3678",77.806366,72.036865
"3679",77.30343,72.05017
"3680",76.87129,72.06348
"3681",76.5124,72.07678
"3682",76.224304,72.09009
"3683",75.99481,72.10339
"3684",75.82147,72.1167
"3685",75.68963,72.130005
"3686",75.5993,72.14331
"3687",75.543144,72.15662
"3688",75.50652,72.16992
"3689",75.48211,72.18323
"3690",75.45525,72.19653
"3691",75.406425,72.20984
"3692",75.32586,72.223145
"3693",75.20622,72.23645
"3694",75.04265,72.249756
"3695",74.844894,72.26306
"3696",74.62516,72.27637
"3697",74.43473,72.28967
"3698",74.42252,72.30298
"3699",74.84245,72.316284
"3700",75.98993,72.32959
"3701",78.011444,72.342896
"3702",80.80202,72.3562
"3703",84.00519,72.36951
"3704",87.115585,72.38281
"3705",89.64248,72.39612
"3706",91.283134,72.409424
"3707",92.01068,72.42273
"3708",92.00824,72.436035
"3709",91.507744,72.44934
"3710",90.72648,72.46265
"3711",89.82803,72.47595
"3712",88.93446,72.48926
"3713",88.10681,72.50256
"3714",87.35485,72.51587
"3715",86.66392,72.529175
"3716",86.00229,72.54248
"3717",85.350426,72.555786
"3718",84.72053,72.56909
"3719",84.14435,72.5824
"3720",83.66827,72.5957
"3721",83.319145,72.60901
"3722",83.09209,72.622314
"3723",82.948044,72.63562
"3724",82.8333,72.648926
"3725",82.69169,72.66223
"3726",82.4744,72.67554
"3727",82.15213,72.68884
"3728",81.71755,72.70215
"3729",81.18532,72.715454
"3730",80.5774,72.72876
"3731",79.92554,72.742065
"3732",79.25414,72.75537
"3733",78.58762,72.76868
"3734",77.95285,72.78198
"3735",77.37179,72.79529
"3736",76.84688,72.80859
"3737",76.39521,72.8219
"3738",76.01434,72.835205
"3739",75.701836,72.84851
"3740",75.44549,72.86182
"3741",75.23796,72.87512
"3742",75.0695,72.88843
"3743",74.932785,72.90173
"3744",74.8156,72.91504
"3745",74.70817,72.928345
"3746",74.60319,72.94165
"3747",74.495766,72.954956
"3748",74.38346,72.96826
"3749",74.26139,72.98157
"3750",74.13931,72.99487
"3751",74.019684,73.00818
"3752",73.90494,73.021484
"3753",73.79019,73.03479
"3754",73.66079,73.048096
"3755",73.49233,73.0614
"3756",73.27505,73.07471
"3757",73.00404,73.08801
"3758",72.7013,73.10132
"3759",72.40589,73.114624
"3760",72.198364,73.12793
"3761",72.21057,73.141235
"3762",72.7306,73.15454
"3763",74.124664,73.16785
"3764",76.64912,73.18115
"3765",80.255135,73.19446
"3766",84.56672,73.20776
"3767",88.97841,73.22107
"3768",92.823685,73.234375
"3769",95.61913,73.24768
"3770",97.24269,73.26099
"3771",97.85794,73.27429
"3772",97.75784,73.2876
"3773",97.21095,73.3009
"3774",96.42725,73.31421
"3775",95.56298,73.327515
"3776",94.74021,73.34082
"3777",94.01755,73.354126
"3778",93.39254,73.36743
"3779",92.82857,73.38074
"3780",92.27192,73.39404
"3781",91.69085,73.40735
"3782",91.0927,73.420654
"3783",90.50187,73.43396
"3784",89.969635,73.447266
"3785",89.530174,73.46057
"3786",89.17372,73.47388
"3787",88.883194,73.48718
"3788",88.65125,73.50049
"3789",88.44373,73.513794
"3790",88.236206,73.5271
"3791",87.9823,73.540405
"3792",87.63561,73.55371
"3793",87.15465,73.56702
"3794",86.52964,73.58032
"3795",85.76059,73.59363
"3796",84.87923,73.60693
"3797",83.929504,73.62024
"3798",82.95537,73.633545
"3799",81.986115,73.64685
"3800",81.0486,73.66016
"3801",80.16235,73.67346
"3802",79.34203,73.68677
"3803",78.58518,73.70007
"3804",77.88205,73.71338
"3805",77.21309,73.726685
"3806",76.56367,73.73999
"3807",75.931335,73.753296
"3808",75.318535,73.7666
"3809",74.73502,73.77991
"3810",74.1857,73.79321
"3811",73.66811,73.80652
"3812",73.18959,73.819824
"3813",72.75014,73.83313
"3814",72.3473,73.846436
"3815",71.96887,73.85974
"3816",71.60021,73.87305
"3817",71.20714,73.88635
"3818",70.77257,73.89966
"3819",70.28916,73.912964
"3820",69.77402,73.92627
"3821",69.261314,73.939575
"3822",68.790115,73.95288
"3823",68.38972,73.96619
"3824",68.08209,73.97949
"3825",67.862366,73.9928
"3826",67.71587,74.0061
"3827",67.6231,74.01941
"3828",67.562065,74.032715
"3829",67.523,74.04602
"3830",67.493706,74.059326
"3831",67.4815,74.07263
"3832",67.54009,74.08594
"3833",67.83551,74.09924
"3834",68.61677,74.11255
"3835",70.118256,74.125854
"3836",72.413216,74.13916
"3837",75.34783,74.152466
"3838",78.57786,74.16577
"3839",81.668724,74.17908
"3840",84.21759,74.19238
"3841",86.02182,74.20569
"3842",87.07408,74.218994
"3843",87.48669,74.2323
"3844",87.40612,74.245605
"3845",86.993515,74.25891
"3846",86.40269,74.27222
"3847",85.767914,74.28552
"3848",85.19905,74.29883
"3849",84.74494,74.31213
"3850",84.39582,74.32544
"3851",84.09308,74.338745
"3852",83.77081,74.35205
"3853",83.372856,74.36536
"3854",82.88701,74.37866
"3855",82.35233,74.39197
"3856",81.82254,74.40527
"3857",81.341576,74.41858
"3858",80.921646,74.431885
"3859",80.550545,74.44519
"3860",80.21362,74.458496
"3861",79.886475,74.4718
"3862",79.55688,74.48511
"3863",79.20531,74.49841
"3864",78.83421,74.51172
"3865",78.433815,74.525024
"3866",78.013885,74.53833
"3867",77.58175,74.551636
"3868",77.14961,74.56494
"3869",76.734566,74.57825
"3870",76.351265,74.59155
"3871",76.00702,74.60486
"3872",75.701836,74.618164
"3873",75.44305,74.63147
"3874",75.23064,74.644775
"3875",75.0573,74.65808
"3876",74.91325,74.67139
"3877",74.7863,74.68469
"3878",74.67155,74.698
"3879",74.56901,74.7113
"3880",74.46891,74.72461
"3881",74.371254,74.737915
"3882",74.27604,74.75122
"3883",74.18082,74.76453
"3884",74.08804,74.77783
"3885",73.99527,74.79114
"3886",73.90982,74.80444
"3887",73.82437,74.81775
"3888",73.738914,74.831055
"3889",73.6437,74.84436
"3890",73.53628,74.857666
"3891",73.40688,74.87097
"3892",73.26284,74.88428
"3893",73.109024,74.89758
"3894",72.96498,74.91089
"3895",72.83803,74.924194
"3896",72.73792,74.9375
"3897",72.66712,74.950806
"3898",72.62562,74.96411
"3899",72.601204,74.97742
"3900",72.59632,74.99072
"3901",72.60609,75.00403
"3902",72.6305,75.017334
"3903",72.66712,75.03064
"3904",72.7013,75.043945
"3905",72.7306,75.05725
"3906",72.75258,75.07056
"3907",72.79408,75.08386
"3908",72.95033,75.09717
"3909",73.43374,75.11047
"3910",74.53239,75.12378
"3911",76.44892,75.137085
"3912",79.17601,75.15039
"3913",82.44999,75.1637
"3914",85.841156,75.177
"3915",88.851456,75.19031
"3916",91.11223,75.20361
"3917",92.489204,75.21692
"3918",93.065384,75.230225
"3919",93.02388,75.24353
"3920",92.56977,75.256836
"3921",91.8764,75.27014
"3922",91.090256,75.28345
"3923",90.321205,75.29675
"3924",89.64736,75.31006
"3925",89.0956,75.323364
"3926",88.64637,75.33667
"3927",88.236206,75.349976
"3928",87.816284,75.36328
"3929",87.34997,75.37659
"3930",86.83482,75.38989
"3931",86.295265,75.4032
"3932",85.77768,75.416504
"3933",85.30892,75.42981
"3934",84.90364,75.443115
"3935",84.55207,75.45642
"3936",84.23468,75.46973
"3937",83.91974,75.48303
"3938",83.57305,75.49634
"3939",83.16533,75.50964
"3940",82.67704,75.52295
"3941",82.125275,75.536255
"3942",81.529564,75.54956
"3943",80.92409,75.56287
"3944",80.33082,75.57617
"3945",79.76929,75.58948
"3946",79.24193,75.60278
"3947",78.75609,75.61609
"3948",78.32151,75.629395
"3949",77.945526,75.6427
"3950",77.63058,75.656006
"3951",77.37667,75.66931
"3952",77.1667,75.68262
"3953",76.99092,75.69592
"3954",76.839554,75.70923
"3955",76.70527,75.722534
"3956",76.58808,75.73584
"3957",76.47822,75.749146
"3958",76.37568,75.76245
"3959",76.27314,75.77576
"3960",76.16327,75.78906
"3961",76.04852,75.80237
"3962",75.92157,75.815674
"3963",75.789734,75.82898
"3964",75.66033,75.842285
"3965",75.53338,75.85559
"3966",75.403984,75.8689
"3967",75.27703,75.8822
"3968",75.15007,75.89551
"3969",75.02556,75.90881
"3970",74.90349,75.92212
"3971",74.79118,75.935425
"3972",74.6984,75.94873
"3973",74.6276,75.962036
"3974",74.58366,75.97534
"3975",74.56901,75.98865
"3976",74.56901,76.00195
"3977",74.57389,76.01526
"3978",74.56901,76.028564
"3979",74.54948,76.04187
"3980",74.5153,76.055176
"3981",74.48356,76.06848
"3982",74.527504,76.08179
"3983",74.830246,76.09509
"3984",75.67254,76.1084
"3985",77.28634,76.121704
"3986",79.73022,76.13501
"3987",82.80888,76.148315
"3988",86.12924,76.16162
"3989",89.19325,76.17493
"3990",91.5761,76.18823
"3991",93.08003,76.20154
"3992",93.74166,76.21484
"3993",93.74166,76.22815
"3994",93.280235,76.241455
"3995",92.5478,76.25476
"3996",91.700615,76.26807
"3997",90.85832,76.28137
"3998",90.09903,76.29468
"3999",89.44961,76.30798
"4000",88.89784,76.32129
"4001",88.39735,76.334595
"4002",87.9115,76.3479
"4003",87.411,76.361206
"4004",86.908066,76.37451
"4005",86.41978,76.38782
"4006",85.98276,76.40112
"4007",85.60189,76.41443
"4008",85.26742,76.427734
"4009",84.947586,76.44104
"4010",84.613106,76.454346
"4011",84.23956,76.46765
"4012",83.81476,76.48096
"4013",83.33868,76.49426
"4014",82.81377,76.50757
"4015",82.252235,76.520874
"4016",81.668724,76.53418
"4017",81.07301,76.547485
"4018",80.46754,76.56079
"4019",79.86694,76.5741
"4020",79.28588,76.5874
"4021",78.729225,76.60071
"4022",78.21164,76.61401
"4023",77.74288,76.62732
"4024",77.32296,76.640625
"4025",76.944534,76.65393
"4026",76.60761,76.66724
"4027",76.30976,76.68054
"4028",76.04364,76.69385
"4029",75.80438,76.70715
"4030",75.58709,76.72046
"4031",75.389336,76.733765
"4032",75.1989,76.74707
"4033",75.01335,76.760376
"4034",74.83513,76.77368
"4035",74.66422,76.78699
"4036",74.50065,76.80029
"4037",74.339516,76.8136
"4038",74.17349,76.826904
"4039",73.987946,76.84021
"4040",73.74868,76.853516
"4041",73.43862,76.86682
"4042",73.05531,76.88013
"4043",72.620735,76.89343
"4044",72.17151,76.90674
"4045",71.75403,76.920044
"4046",71.4049,76.93335
"4047",71.13634,76.946655
"4048",70.94591,76.95996
"4049",70.82628,76.97327
"4050",70.75792,76.98657
"4051",70.70664,76.99988
"4052",70.64805,77.01318
"4053",70.58701,77.02649
"4054",70.56016,77.039795
"4055",70.72617,77.0531
"4056",71.39025,77.06641
"4057",72.903946,77.07971
"4058",75.43328,77.09302
"4059",78.84154,77.10632
"4060",82.70634,77.11963
"4061",86.42954,77.132935
"4062",89.4374,77.14624
"4063",91.38323,77.159546
"4064",92.26215,77.17285
"4065",92.29145,77.18616
"4066",91.76166,77.19946
"4067",90.92912,77.21277
"4068",89.9794,77.226074
"4069",89.05165,77.23938
"4070",88.233765,77.252686
"4071",87.56237,77.26599
"4072",87.01549,77.2793
"4073",86.54917,77.2926
"4074",86.117035,77.30591
"4075",85.697105,77.319214
"4076",85.28695,77.33252
"4077",84.91585,77.345825
"4078",84.62043,77.35913
"4079",84.39338,77.37244
"4080",84.224915,77.38574
"4081",84.08087,77.39905
"4082",83.92218,77.41235
"4083",83.71221,77.42566
"4084",83.43389,77.438965
"4085",83.08232,77.45227
"4086",82.65751,77.465576
"4087",82.1741,77.47888
"4088",81.651634,77.49219
"4089",81.11452,77.50549
"4090",80.5774,77.5188
"4091",80.06714,77.532104
"4092",79.588615,77.54541
"4093",79.15648,77.558716
"4094",78.77806,77.57202
"4095",78.450905,77.58533
"4096",78.170135,77.59863
"4097",77.92844,77.61194
"4098",77.72091,77.625244
"4099",77.53292,77.63855
"4100",77.36202,77.651855
"4101",77.20332,77.66516
"4102",77.0544,77.67847
"4103",76.912796,77.69177
"4104",76.77608,77.70508
"4105",76.64912,77.71838
"4106",76.52949,77.73169
"4107",76.41718,77.744995
"4108",76.30976,77.7583
"4109",76.207214,77.77161
"4110",76.09491,77.78491
"4111",75.97284,77.79822
"4112",75.83124,77.81152
"4113",75.65789,77.82483
"4114",75.45037,77.838135
"4115",75.211105,77.85144
"4116",74.95232,77.864746
"4117",74.70084,77.87805
"4118",74.529945,77.89136
"4119",74.61295,77.90466
"4120",75.22331,77.91797
"4121",76.60273,77.931274
"4122",78.81712,77.94458
"4123",81.6907,77.957886
"4124",84.825516,77.97119
"4125",87.73571,77.9845
"4126",89.99405,77.9978
"4127",91.39056,78.01111
"4128",91.949646,78.024414
"4129",91.84711,78.03772
"4130",91.29046,78.051025
"4131",90.46769,78.06433
"4132",89.5375,78.07764
"4133",88.619514,78.09094
"4134",87.784546,78.10425
"4135",87.05211,78.11755
"4136",86.40269,78.13086
"4137",85.80942,78.144165
"4138",85.26742,78.15747
"4139",84.78401,78.17078
"4140",84.38117,78.18408
"4141",84.07355,78.19739
"4142",83.8587,78.21069
"4143",83.700005,78.224
"4144",83.55352,78.237305
"4145",83.36797,78.25061
"4146",83.1165,78.263916
"4147",82.777145,78.27722
"4148",82.34989,78.29053
"4149",81.83963,78.30383
"4150",81.26101,78.31714
"4151",80.64088,78.330444
"4152",80.00366,78.34375
"4153",79.37377,78.357056
"4154",78.77074,78.37036
"4155",78.21164,78.38367
"4156",77.70626,78.39697
"4157",77.25948,78.41028
"4158",76.86885,78.423584
"4159",76.53193,78.43689
"4160",76.24872,78.450195
"4161",76.016785,78.4635
"4162",75.82391,78.47681
"4163",75.665215,78.49011
"4164",75.526054,78.50342
"4165",75.403984,78.51672
"4166",75.27947,78.53003
"4167",75.159836,78.543335
"4168",75.037766,78.55664
"4169",74.915695,78.56995
"4170",74.793625,78.58325
"4171",74.67155,78.59656
"4172",74.547035,78.60986
"4173",74.42252,78.62317
"4174",74.29313,78.636475
"4175",74.15396,78.64978
"4176",74.00015,78.663086
"4177",73.82437,78.67639
"4178",73.62661,78.6897
"4179",73.41421,78.703
"4180",73.19447,78.71631
"4181",72.99916,78.729614
"4182",72.918594,78.74292
"4183",73.15297,78.756226
"4184",74.019684,78.76953
"4185",75.77997,78.78284
"4186",78.47532,78.79614
"4187",81.85672,78.80945
"4188",85.45785,78.822754
"4189",88.724495,78.83606
"4190",91.20256,78.849365
"4191",92.69184,78.86267
"4192",93.280235,78.87598
"4193",93.18013,78.88928
"4194",92.62104,78.90259
"4195",91.81781,78.91589
"4196",90.93645,78.9292
"4197",90.11124,78.942505
"4198",89.41787,78.95581
"4199",88.866104,78.96912
"4200",88.411995,78.98242
"4201",87.97742,78.99573
"4202",87.49645,79.00903
"4203",86.93248,79.02234
"4204",86.30991,79.035645
"4205",85.677574,79.04895
"4206",85.09163,79.062256
"4207",84.59113,79.07556
"4208",84.17853,79.08887
"4209",83.826965,79.10217
"4210",83.49493,79.11548
"4211",83.140915,79.128784
"4212",82.738075,79.14209
"4213",82.266884,79.155396
"4214",81.722435,79.1687
"4215",81.12184,79.18201
"4216",80.48463,79.19531
"4217",79.84253,79.20862
"4218",79.21507,79.221924
"4219",78.61936,79.23523
"4220",78.06027,79.248535
"4221",77.54513,79.26184
"4222",77.069046,79.27515
"4223",76.64179,79.28845
"4224",76.265816,79.30176
"4225",75.93866,79.31506
"4226",75.650566,79.32837
"4227",75.403984,79.341675
"4228",75.18913,79.35498
"4229",74.9987,79.368286
"4230",74.827805,79.38159
"4231",74.67643,79.3949
"4232",74.53727,79.4082
"4233",74.39567,79.42151
"4234",74.246735,79.434814
"4235",74.10025,79.44812
"4236",73.94888,79.461426
"4237",73.79996,79.47473
"4238",73.65835,79.48804
"4239",73.531395,79.50134
"4240",73.42153,79.51465
"4241",73.32876,79.527954
"4242",73.255516,79.54126
"4243",73.18959,79.554565
"4244",73.128555,79.56787
"4245",73.057755,79.58118
"4246",72.969864,79.59448
"4247",72.85268,79.60779
"4248",72.7013,79.62109
"4249",72.518196,79.6344
"4250",72.37171,79.647705
"4251",72.430305,79.66101
"4252",73.00893,79.67432
"4253",74.42252,79.68762
"4254",76.805374,79.70093
"4255",80.01343,79.71423
"4256",83.64141,79.72754
"4257",87.13756,79.740845
"4258",89.98184,79.75415
"4259",91.87152,79.767456
"4260",92.79683,79.78076
"4261",92.93599,79.79407
"4262",92.52094,79.80737
"4263",91.776306,79.82068
"4264",90.90715,79.833984
"4265",90.05997,79.84729
"4266",89.33486,79.860596
"4267",88.76845,79.8739
"4268",88.32166,79.88721
"4269",87.90906,79.90051
"4270",87.450066,79.91382
"4271",86.89342,79.927124
"4272",86.23422,79.94043
"4273",85.51888,79.953735
"4274",84.81087,79.96704
"4275",84.16144,79.98035
"4276",83.597466,79.99365
"4277",83.1165,80.00696
"4278",82.69901,80.02026
"4279",82.31571,80.03357
"4280",81.93729,80.046875
"4281",81.532005,80.06018
"4282",81.075455,80.07349
"4283",80.56519,80.08679
"4284",80.00366,80.1001
"4285",79.412834,80.1134
"4286",78.8098,80.12671
"4287",78.21164,80.140015
"4288",77.64034,80.15332
"4289",77.11055,80.166626
"4290",76.63447,80.17993
"4291",76.2121,80.19324
"4292",75.84833,80.20654
"4293",75.528496,80.21985
"4294",75.2404,80.233154
"4295",74.97185,80.24646
"4296",74.72526,80.259766
"4297",74.50797,80.27307
"4298",74.32487,80.28638
"4299",74.17349,80.29968
"4300",74.04654,80.31299
"4301",73.94156,80.326294
"4302",73.83658,80.3396
"4303",73.72671,80.352905
"4304",73.61196,80.36621
"4305",73.497215,80.37952
"4306",73.38003,80.39282
"4307",73.26772,80.40613
"4308",73.15541,80.41943
"4309",73.05287,80.43274
"4310",72.96254,80.446045
"4311",72.89174,80.45935
"4312",72.83559,80.47266
"4313",72.79164,80.48596
"4314",72.75502,80.49927
"4315",72.71107,80.51257
"4316",72.65247,80.52588
"4317",72.57435,80.539185
"4318",72.47913,80.55249
"4319",72.38392,80.565796
"4320",72.35218,80.5791
"4321",72.5597,80.59241
"4322",73.3019,80.60571
"4323",74.879074,80.61902
"4324",77.401085,80.632324
"4325",80.70435,80.64563
"4326",84.37385,80.658936
"4327",87.86267,80.67224
"4328",90.663,80.68555
"4329",92.47944,80.69885
"4330",93.31686,80.71216
"4331",93.36324,80.725464
"4332",92.85542,80.73877
"4333",92.03021,80.752075
"4334",91.09514,80.76538
"4335",90.20889,80.77869
"4336",89.47158,80.79199
"4337",88.902725,80.8053
"4338",88.45594,80.8186
"4339",88.04578,80.83191
"4340",87.586784,80.845215
"4341",87.030136,80.85852
"4342",86.383156,80.871826
"4343",85.697105,80.88513
"4344",85.04036,80.89844
"4345",84.46418,80.91174
"4346",83.97833,80.92505
"4347",83.563286,80.938354
"4348",83.18486,80.95166
"4349",82.80644,80.964966
"4350",82.39872,80.97827
"4351",81.93973,80.99158
"4352",81.427025,81.00488
"4353",80.86305,81.01819
"4354",80.26002,81.031494
"4355",79.63744,81.0448
"4356",79.01976,81.058105
"4357",78.42405,81.07141
"4358",77.872284,81.08472
"4359",77.37911,81.09802
"4360",76.95186,81.11133
"4361",76.58808,81.12463
"4362",76.27802,81.13794
"4363",76.01434,81.151245
"4364",75.78485,81.16455
"4365",75.579765,81.17786
"4366",75.39422,81.19116
"4367",75.228195,81.20447
"4368",75.07439,81.21777
"4369",74.92058,81.23108
"4370",74.76677,81.244385
"4371",74.60807,81.25769
"4372",74.44938,81.270996
"4373",74.29069,81.2843
"4374",74.14664,81.29761
"4375",74.00992,81.31091
"4376",73.89273,81.32422
"4377",73.79019,81.337524
"4378",73.704735,81.35083
"4379",73.619286,81.364136
"4380",73.531395,81.37744
"4381",73.428856,81.39075
"4382",73.29702,81.40405
"4383",73.13588,81.41736
"4384",72.95766,81.430664
"4385",72.781876,81.44397
"4386",72.66468,81.457275
"4387",72.7599,81.47058
"4388",73.3312,81.48389
"4389",74.649574,81.49719
"4390",76.83467,81.5105
"4391",79.75464,81.5238
"4392",83.053024,81.53711
"4393",86.23422,81.550415
"4394",88.81972,81.56372
"4395",90.528725,81.57703
"4396",91.33196,81.59033
"4397",91.38567,81.60364
"4398",90.90471,81.61694
"4399",90.11124,81.63025
"4400",89.20058,81.643555
"4401",88.324104,81.65686
"4402",87.57946,81.670166
"4403",86.98863,81.68347
"4404",86.505226,81.69678
"4405",86.063324,81.71008
"4406",85.592125,81.72339
"4407",85.0721,81.736694
"4408",84.51545,81.75
"4409",83.97589,81.763306
"4410",83.49493,81.77661
"4411",83.09453,81.78992
"4412",82.7625,81.80322
"4413",82.459755,81.81653
"4414",82.15213,81.829834
"4415",81.81033,81.84314
"4416",81.4197,81.856445
"4417",80.970474,81.86975
"4418",80.46998,81.88306
"4419",79.92554,81.89636
"4420",79.35424,81.90967
"4421",78.7805,81.92297
"4422",78.21652,81.93628
"4423",77.68917,81.949585
"4424",77.21309,81.96289
"4425",76.788284,81.9762
"4426",76.42451,81.9895
"4427",76.11688,82.00281
"4428",75.85321,82.01611
"4429",75.62615,82.02942
"4430",75.43572,82.042725
"4431",75.27215,82.05603
"4432",75.13054,82.069336
"4433",74.9987,82.08264
"4434",74.87175,82.09595
"4435",74.74235,82.10925
"4436",74.61051,82.12256
"4437",74.48356,82.135864
"4438",74.36637,82.14917
"4439",74.25651,82.162476
"4440",74.15396,82.17578
"4441",74.06363,82.18909
"4442",73.98306,82.20239
"4443",73.90738,82.2157
"4444",73.83658,82.229004
"4445",73.760895,82.24231
"4446",73.670555,82.255615
"4447",73.55825,82.26892
"4448",73.41909,82.28223
"4449",73.26528,82.29553
"4450",73.111465,82.30884
"4451",73.00404,82.32214
"4452",73.0724,82.33545
"4453",73.56313,82.348755
"4454",74.76189,82.36206
"4455",76.81514,82.37537
"4456",79.635,82.38867
"4457",82.9041,82.40198
"4458",86.14145,82.41528
"4459",88.85634,82.42859
"4460",90.73136,82.441895
"4461",91.70306,82.4552
"4462",91.9057,82.468506
"4463",91.55169,82.48181
"4464",90.863205,82.49512
"4465",90.02579,82.50842
"4466",89.20546,82.52173
"4467",88.50477,82.535034
"4468",87.96765,82.54834
"4469",87.569695,82.561646
"4470",87.237656,82.57495
"4471",86.871445,82.58826
"4472",86.40757,82.60156
"4473",85.83139,82.61487
"4474",85.17708,82.628174
"4475",84.51301,82.64148
"4476",83.90753,82.654785
"4477",83.39727,82.66809
"4478",82.97978,82.6814
"4479",82.62089,82.6947
"4480",82.28397,82.70801
"4481",81.934845,82.72131
"4482",81.55154,82.73462
"4483",81.12184,82.747925
"4484",80.6482,82.76123
"4485",80.14038,82.774536
"4486",79.61547,82.78784
"4487",79.08568,82.80115
"4488",78.56565,82.81445
"4489",78.07736,82.82776
"4490",77.628136,82.841064
"4491",77.22774,82.85437
"4492",76.87862,82.867676
"4493",76.5832,82.88098
"4494",76.33173,82.89429
"4495",76.11932,82.90759
"4496",75.93866,82.9209
"4497",75.78241,82.934204
"4498",75.63836,82.94751
"4499",75.508965,82.960815
"4500",75.38201,82.97412
"4501",75.250175,82.98743
"4502",75.11589,83.00073
"4503",74.984055,83.01404
"4504",74.84978,83.02734
"4505",74.72282,83.04065
"4506",74.60807,83.053955
"4507",74.50553,83.06726
"4508",74.41276,83.08057
"4509",74.337074,83.09387
"4510",74.26627,83.10718
"4511",74.20035,83.12048
"4512",74.12955,83.13379
"4513",74.05142,83.147095
"4514",73.95865,83.1604
"4515",73.846344,83.173706
"4516",73.724266,83.18701
"4517",73.602196,83.20032
"4518",73.51919,83.21362
"4519",73.58999,83.22693
"4520",74.04654,83.240234
"4521",75.142746,83.25354
"4522",77.01778,83.266846
"4523",79.603264,83.28015
"4524",82.616005,83.29346
"4525",85.61166,83.30676
"4526",88.145874,83.32007
"4527",89.898834,83.333374
"4528",90.809494,83.34668
"4529",90.985275,83.359985
"4530",90.633705,83.37329
"4531",89.95987,83.3866
"4532",89.161514,83.3999
"4533",88.394905,83.41321
"4534",87.75525,83.42651
"4535",87.28161,83.43982
"4536",86.939804,83.453125
"4537",86.64683,83.46643
"4538",86.31724,83.47974
"4539",85.88754,83.49304
"4540",85.34554,83.50635
"4541",84.72297,83.51965
"4542",84.088196,83.53296
"4543",83.50225,83.546265
"4544",82.99931,83.55957
"4545",82.581825,83.572876
"4546",82.22781,83.58618
"4547",81.91043,83.59949
