"","ppg","time"
"1",83.053024,474.33362
"2",83.95636,474.34692
"3",84.54719,474.36023
"4",84.791336,474.37354
"5",84.74006,474.38684
"6",84.48371,474.40015
"7",84.09796,474.41345
"8",83.66338,474.42676
"9",83.228806,474.44006
"10",82.83086,474.45337
"11",82.48173,474.46667
"12",82.196075,474.47998
"13",81.95682,474.4933
"14",81.74441,474.5066
"15",81.54665,474.5199
"16",81.356224,474.5332
"17",81.17555,474.5465
"18",81.01442,474.5598
"19",80.885025,474.57312
"20",80.78981,474.58643
"21",80.71656,474.59973
"22",80.6482,474.61304
"23",80.57496,474.62634
"24",80.48707,474.63965
"25",80.37476,474.65295
"26",80.23804,474.66626
"27",80.07202,474.67957
"28",79.88403,474.69287
"29",79.68139,474.70618
"30",79.48119,474.71948
"31",79.29565,474.7328
"32",79.12718,474.7461
"33",78.975815,474.7594
"34",78.84398,474.7727
"35",78.73167,474.786
"36",78.63889,474.79932
"37",78.57053,474.81262
"38",78.52415,474.82593
"39",78.49485,474.83923
"40",78.47532,474.85254
"41",78.46311,474.86584
"42",78.44602,474.87915
"43",78.42161,474.89246
"44",78.38987,474.90576
"45",78.35813,474.91907
"46",78.32151,474.93237
"47",78.28733,474.94568
"48",78.25803,474.95898
"49",78.23605,474.9723
"50",78.2092,474.9856
"51",78.187225,474.9989
"52",78.16281,475.0122
"53",78.14084,475.0255
"54",78.11154,475.03882
"55",78.07492,475.05212
"56",78.028534,475.06543
"57",77.98947,475.07874
"58",77.95773,475.09204
"59",77.96994,475.10535
"60",78.08469,475.11865
"61",78.39475,475.13196
"62",78.97093,475.14526
"63",79.81323,475.15857
"64",80.848404,475.17188
"65",81.92752,475.18518
"66",82.8748,475.1985
"67",83.546196,475.2118
"68",83.89044,475.2251
"69",83.93927,475.2384
"70",83.76105,475.2517
"71",83.4461,475.265
"72",83.06279,475.27832
"73",82.667274,475.29163
"74",82.29862,475.30493
"75",81.97635,475.31824
"76",81.705345,475.33154
"77",81.47341,475.34485
"78",81.26589,475.35815
"79",81.07057,475.37146
"80",80.88258,475.38477
"81",80.71412,475.39807
"82",80.57496,475.41138
"83",80.47486,475.42468
"84",80.40162,475.438
"85",80.35523,475.4513
"86",80.31617,475.4646
"87",80.272224,475.4779
"88",80.20874,475.4912
"89",80.130615,475.50452
"90",80.02075,475.51782
"91",79.88159,475.53113
"92",79.71313,475.54443
"93",79.53246,475.55774
"94",79.344475,475.57104
"95",79.166245,475.58435
"96",79.012436,475.59766
"97",78.8806,475.61096
"98",78.77562,475.62427
"99",78.692604,475.63757
"100",78.63401,475.65088
"101",78.59739,475.66418
"102",78.57542,475.6775
"103",78.56809,475.6908
"104",78.56809,475.7041
"105",78.572975,475.7174
"106",78.57786,475.7307
"107",78.58518,475.74402
"108",78.590065,475.75732
"109",78.59495,475.77063
"110",78.60227,475.78394
"111",78.607155,475.79724
"112",78.6096,475.81055
"113",78.6096,475.82385
"114",78.60471,475.83716
"115",78.59739,475.85046
"116",78.58518,475.86377
"117",78.56321,475.87708
"118",78.53147,475.89038
"119",78.485085,475.9037
"120",78.44114,475.917
"121",78.44114,475.9303
"122",78.56565,475.9436
"123",78.907455,475.9569
"124",79.52758,475.9702
"125",80.40162,475.98352
"126",81.427025,475.99683
"127",82.442665,476.01013
"128",83.28008,476.02344
"129",83.826965,476.03674
"130",84.0589,476.05005
"131",84.02472,476.06335
"132",83.80255,476.07666
"133",83.47051,476.08997
"134",83.09453,476.10327
"135",82.718544,476.11658
"136",82.37919,476.12988
"137",82.08377,476.1432
"138",81.83719,476.1565
"139",81.62722,476.1698
"140",81.43679,476.1831
"141",81.25857,476.1964
"142",81.0901,476.20972
"143",80.936295,476.22302
"144",80.80446,476.23633
"145",80.69947,476.24963
"146",80.62379,476.26294
"147",80.56519,476.27625
"148",80.51392,476.28955
"149",80.462654,476.30286
"150",80.38941,476.31616
"151",80.28687,476.32947
"152",80.15259,476.34277
"153",79.9939,476.35608
"154",79.815674,476.3694
"155",79.63744,476.3827
"156",79.466545,476.396
"157",79.31518,476.4093
"158",79.185776,476.4226
"159",79.078354,476.4359
"160",78.992905,476.44922
"161",78.922104,476.46252
"162",78.86839,476.47583
"163",78.82445,476.48914
"164",78.79271,476.50244
"165",78.77562,476.51575
"166",78.768295,476.52905
"167",78.77074,476.54236
"168",78.77562,476.55566
"169",78.77806,476.56897
"170",78.77562,476.58228
"171",78.765854,476.59558
"172",78.74387,476.6089
"173",78.71458,476.6222
"174",78.68284,476.6355
"175",78.65354,476.6488
"176",78.624245,476.6621
"177",78.60471,476.6754
"178",78.590065,476.68872
"179",78.572975,476.70203
"180",78.54612,476.71533
"181",78.5095,476.72864
"182",78.470436,476.74194
"183",78.46067,476.75525
"184",78.553444,476.76855
"185",78.836655,476.78186
"186",79.381096,476.79517
"187",80.18677,476.80847
"188",81.17311,476.82178
"189",82.193634,476.83508
"190",83.08476,476.8484
"191",83.71465,476.8617
"192",84.0296,476.875
"193",84.051575,476.8883
"194",83.8587,476.9016
"195",83.53155,476.91492
"196",83.14824,476.92822
"197",82.76494,476.94153
"198",82.42802,476.95483
"199",82.144806,476.96814
"200",81.9202,476.98145
"201",81.73464,476.99475
"202",81.56374,477.00806
"203",81.392845,477.02136
"204",81.214615,477.03467
"205",81.03395,477.04797
"206",80.86549,477.06128
"207",80.72144,477.0746
"208",80.604256,477.0879
"209",80.50904,477.1012
"210",80.42359,477.1145
"211",80.34547,477.1278
"212",80.26246,477.1411
"213",80.16235,477.15442
"214",80.045166,477.16772
"215",79.91089,477.18103
"216",79.75464,477.19434
"217",79.586174,477.20764
"218",79.412834,477.22095
"219",79.24925,477.23425
"220",79.09056,477.24756
"221",78.94896,477.26086
"222",78.819565,477.27417
"223",78.71458,477.28748
"224",78.6218,477.30078
"225",78.553444,477.3141
"226",78.502174,477.3274
"227",78.467995,477.3407
"228",78.44358,477.354
"229",78.42893,477.3673
"230",78.41917,477.3806
"231",78.41184,477.39392
"232",78.40452,477.40723
"233",78.40208,477.42053
"234",78.399635,477.43384
"235",78.397194,477.44714
"236",78.38987,477.46045
"237",78.380104,477.47375
"238",78.3679,477.48706
"239",78.35081,477.50037
"240",78.331276,477.51367
"241",78.314186,477.52698
"242",78.29954,477.54028
"243",78.277565,477.5536
"244",78.25559,477.5669
"245",78.23605,477.5802
"246",78.21652,477.5935
"247",78.21896,477.6068
"248",78.294655,477.62012
"249",78.53147,477.63342
"250",79.01488,477.64673
"251",79.76929,477.66003
"252",80.7483,477.67334
"253",81.8201,477.68665
"254",82.80888,477.69995
"255",83.56573,477.71326
"256",84.00519,477.72656
"257",84.12726,477.73987
"258",84.00275,477.75317
"259",83.70977,477.76648
"260",83.336235,477.7798
"261",82.94316,477.7931
"262",82.581825,477.8064
"263",82.27421,477.8197
"264",82.020294,477.833
"265",81.80301,477.8463
"266",81.60769,477.85962
"267",81.41482,477.87292
"268",81.22194,477.88623
"269",81.03151,477.89954
"270",80.85817,477.91284
"271",80.709236,477.92615
"272",80.59205,477.93945
"273",80.49439,477.95276
"274",80.40894,477.96606
"275",80.323494,477.97937
"276",80.22583,477.99268
"277",80.11597,478.00598
"278",79.98901,478.0193
"279",79.84985,478.0326
"280",79.69604,478.0459
"281",79.534904,478.0592
"282",79.36889,478.0725
"283",79.20775,478.08582
"284",79.05638,478.09912
"285",78.924545,478.11243
"286",78.81224,478.12573
"287",78.72434,478.13904
"288",78.658424,478.15234
"289",78.607155,478.16565
"290",78.572975,478.17896
"291",78.54612,478.19226
"292",78.52415,478.20557
"293",78.5095,478.21887
"294",78.49729,478.23218
"295",78.487526,478.24548
"296",78.4802,478.2588
"297",78.47532,478.2721
"298",78.470436,478.2854
"299",78.46555,478.2987
"300",78.46311,478.312
"301",78.45823,478.32532
"302",78.44602,478.33862
"303",78.42893,478.35193
"304",78.41428,478.36523
"305",78.39231,478.37854
"306",78.363014,478.39185
"307",78.331276,478.40515
"308",78.30198,478.41846
"309",78.2678,478.43176
"310",78.25071,478.44507
"311",78.2971,478.45837
"312",78.502174,478.47168
"313",78.94652,478.485
"314",79.66674,478.4983
"315",80.62379,478.5116
"316",81.688255,478.5249
"317",82.686806,478.5382
"318",83.458305,478.5515
"319",83.90753,478.56482
"320",84.04181,478.57812
"321",83.92462,478.59143
"322",83.63653,478.60474
"323",83.26055,478.61804
"324",82.85771,478.63135
"325",82.47196,478.64465
"326",82.13016,478.65796
"327",81.83963,478.67126
"328",81.59304,478.68457
"329",81.375755,478.69788
"330",81.17555,478.71118
"331",80.98268,478.7245
"332",80.80446,478.7378
"333",80.6482,478.7511
"334",80.52857,478.7644
"335",80.44312,478.7777
"336",80.38453,478.79102
"337",80.33814,478.80432
"338",80.28199,478.81763
"339",80.21362,478.83093
"340",80.11597,478.84424
"341",79.9939,478.85754
"342",79.852295,478.87085
"343",79.69604,478.88416
"344",79.53002,478.89746
"345",79.1931,478.92407
"346",79.03685,478.93738
"347",78.89525,478.95068
"348",78.7805,478.964
"349",78.695045,478.9773
"350",78.62913,478.9906
"351",78.58518,479.0039
"352",78.553444,479.0172
"353",78.52903,479.03052
"354",78.50706,479.04382
"355",78.49485,479.05713
"356",78.48264,479.07043
"357",78.47288,479.08374
"358",78.467995,479.09705
"359",78.46067,479.11035
"360",78.45823,479.12366
"361",78.45579,479.13696
"362",78.44846,479.15027
"363",78.43137,479.16357
"364",78.41184,479.17688
"365",78.37766,479.1902
"366",78.34104,479.2035
"367",78.30442,479.2168
"368",78.2678,479.2301
"369",78.22873,479.2434
"370",78.19211,479.2567
"371",78.17502,479.27002
"372",78.21164,479.28333
"373",78.39231,479.29663
"374",78.802475,479.30994
"375",79.4934,479.32324
"376",80.41627,479.33655
"377",81.461205,479.34985
"378",82.45731,479.36316
"379",83.24101,479.37646
"380",83.70733,479.38977
"381",83.85626,479.40308
"382",83.736626,479.41638
"383",83.438774,479.4297
"384",83.04082,479.443
"385",82.60868,479.4563
"386",82.18875,479.4696
"387",81.81033,479.4829
"388",81.480736,479.49622
"389",81.19508,479.50952
"390",80.9485,479.52283
"391",80.73121,479.53613
"392",80.5481,479.54944
"393",80.40894,479.56274
"394",80.31373,479.57605
"395",80.26002,479.58936
"396",80.24048,479.60266
"397",80.235596,479.61597
"398",80.22339,479.62927
"399",80.18921,479.64258
"400",80.12085,479.65588
"401",80.01587,479.6692
"402",79.871826,479.6825
"403",79.69848,479.6958
"404",79.51293,479.7091
"405",79.32494,479.7224
"406",79.14427,479.73572
"407",78.975815,479.74902
"408",78.82201,479.76233
"409",78.69016,479.77563
"410",78.5803,479.78894
"411",78.49485,479.80225
"412",78.433815,479.81555
"413",78.397194,479.82886
"414",78.380104,479.84216
"415",78.37766,479.85547
"416",78.38499,479.86877
"417",78.40208,479.88208
"418",78.41917,479.8954
"419",78.4387,479.9087
"420",78.45823,479.922
"421",78.47288,479.9353
"422",78.487526,479.9486
"423",78.49729,479.9619
"424",78.50706,479.97522
"425",78.50706,479.98853
"426",78.502174,480.00183
"427",78.49241,480.01514
"428",78.47776,480.02844
"429",78.46067,480.04175
"430",78.44114,480.05505
"431",78.4387,480.06836
"432",78.49485,480.08167
"433",78.695045,480.09497
"434",79.11742,480.10828
"435",79.80347,480.12158
"436",80.706795,480.1349
"437",81.71023,480.1482
"438",82.650185,480.1615
"439",83.36553,480.1748
"440",83.77081,480.1881
"441",83.85626,480.20142
"442",83.69024,480.21472
"443",83.35088,480.22803
"444",82.930954,480.24133
"445",82.48905,480.25464
"446",82.07156,480.26794
"447",81.69802,480.28125
"448",81.373314,480.29456
"449",81.0901,480.30786
"450",80.85573,480.32117
"451",80.66773,480.33447
"452",80.53101,480.34778
"453",80.45289,480.36108
"454",80.428474,480.3744
"455",80.445564,480.3877
"456",80.4773,480.401
"457",80.499275,480.4143
"458",80.48951,480.4276
"459",80.44068,480.44092
"460",80.34547,480.45422
"461",80.2063,480.46753
"462",80.04028,480.48083
"463",79.85718,480.49414
"464",79.6643,480.50745
"465",79.47387,480.52075
"466",79.29809,480.53406
"467",79.13695,480.54736
"468",78.99779,480.56067
"469",78.88304,480.57397
"470",78.79271,480.58728
"471",78.72434,480.6006
"472",78.6804,480.6139
"473",78.64866,480.6272
"474",78.62913,480.6405
"475",78.61448,480.6538
"476",78.60471,480.6671
"477",78.59739,480.68042
"478",78.59495,480.69373
"479",78.59251,480.70703
"480",78.590065,480.72034
"481",78.58274,480.73364
"482",78.57053,480.74695
"483",78.54856,480.76025
"484",78.52415,480.77356
"485",78.49485,480.78687
"486",78.46067,480.80017
"487",78.42405,480.81348
"488",78.39231,480.82678
"489",78.39231,480.8401
"490",78.4802,480.8534
"491",78.751205,480.8667
"492",79.26879,480.88
"493",80.03296,480.8933
"494",80.970474,480.90662
"495",81.92996,480.91992
"496",82.74784,480.93323
"497",83.29229,480.94653
"498",83.51446,480.95984
"499",83.4461,480.97314
"500",83.16533,480.98645
"501",82.760056,480.99976
"502",82.30106,481.01306
"503",81.84207,481.02637
"504",81.40505,481.03967
"505",81.00954,481.05298
"506",80.66041,481.06628
"507",80.36256,481.0796
"508",80.12329,481.0929
"509",79.95239,481.1062
"510",79.852295,481.1195
"511",79.82544,481.1328
"512",79.85962,481.14612
"513",79.93042,481.15942
"514",80.008545,481.17273
"515",80.06714,481.18604
"516",80.08179,481.19934
"517",80.03784,481.21265
"518",79.937744,481.22595
"519",79.7937,481.23926
"520",79.61303,481.25256
"521",79.412834,481.26587
"522",79.20775,481.27917
"523",79.012436,481.29248
"524",78.836655,481.3058
"525",78.68528,481.3191
"526",78.56321,481.3324
"527",78.47288,481.3457
"528",78.40696,481.359
"529",78.36057,481.3723
"530",78.33616,481.38562
"531",78.32395,481.39893
"532",78.32151,481.41223
"533",78.32639,481.42554
"534",78.34104,481.43884
"535",78.35569,481.45215
"536",78.37278,481.46545
"537",78.38499,481.47876
"538",78.38987,481.49207
"539",78.38499,481.50537
"540",78.37766,481.51868
"541",78.363014,481.53198
"542",78.34104,481.5453
"543",78.3093,481.5586
"544",78.27512,481.5719
"545",78.2678,481.5852
"546",78.3386,481.5985
"547",78.58274,481.61182
"548",79.078354,481.62512
"549",79.835205,481.63843
"550",80.782486,481.65173
"551",81.78348,481.66504
"552",82.669716,481.67834
"553",83.299614,481.69165
"554",83.60723,481.70496
"555",83.614555,481.71826
"556",83.39239,481.73157
"557",83.02373,481.74487
"558",82.579384,481.75818
"559",82.11551,481.77148
"560",81.6614,481.7848
"561",81.23659,481.7981
"562",80.850845,481.8114
"563",80.516365,481.8247
"564",80.25269,481.838
"565",80.08423,481.85132
"566",80.01587,481.86462
"567",80.04761,481.87793
"568",80.15747,481.89124
"569",80.306404,481.90454
"570",80.448006,481.91785
"571",80.5481,481.93115
"572",80.5774,481.94446
"573",80.52613,481.95776
"574",80.40162,481.97107
"575",80.22339,481.98438
"576",80.01099,481.99768
"577",79.78638,482.011
"578",79.5642,482.0243
"579",79.361565,482.0376
"580",79.17845,482.0509
"581",79.01976,482.0642
"582",78.890366,482.0775
"583",78.79027,482.09082
"584",78.71946,482.10413
"585",78.67307,482.11743
"586",78.65354,482.13074
"587",78.6511,482.14404
"588",78.658424,482.15735
"589",78.66819,482.17065
"590",78.67063,482.18396
"591",78.658424,482.19727
"592",78.63401,482.21057
"593",78.59983,482.22388
"594",78.56565,482.23718
"595",78.53147,482.2505
"596",78.50706,482.2638
"597",78.53391,482.2771
"598",78.68772,482.2904
"599",79.046616,482.3037
"600",79.65209,482.31702
"601",80.47486,482.33032
"602",81.40749,482.34363
"603",82.30106,482.35693
"604",83.001755,482.37024
"605",83.41436,482.38354
"606",83.52422,482.39685
"607",83.38506,482.41016
"608",83.070114,482.42346
"609",82.650185,482.43677
"610",82.19119,482.45007
"611",81.73464,482.46338
"612",81.307396,482.47668
"613",80.91188,482.49
"614",80.56031,482.5033
"615",80.26734,482.5166
"616",80.05493,482.5299
"617",79.940186,482.5432
"618",79.93042,482.55652
"619",80.01587,482.56982
"620",80.164795,482.58313
"621",80.33082,482.59644
"622",80.465096,482.60974
"623",80.54566,482.62305
"624",80.54566,482.63635
"625",80.462654,482.64966
"626",80.308846,482.66296
"627",80.1062,482.67627
"628",79.87427,482.68958
"629",79.63744,482.70288
"630",79.412834,482.7162
"631",79.20775,482.7295
"632",79.03197,482.7428
"633",78.887924,482.7561
"634",78.77318,482.7694
"635",78.692604,482.7827
"636",78.63645,482.79602
"637",78.607155,482.80933
"638",78.59495,482.82263
"639",78.59251,482.83594
"640",78.590065,482.84924
"641",78.58518,482.86255
"642",78.572975,482.87585
"643",78.555885,482.88916
"644",78.54612,482.90247
"645",78.5803,482.91577
"646",78.73411,482.92908
"647",79.09056,482.94238
"648",79.68383,482.9557
"649",80.49683,482.969
"650",81.42214,482.9823
"651",82.30595,482.9956
"652",82.99687,483.0089
"653",83.404594,483.02222
"654",83.51202,483.03552
"655",83.37774,483.04883
"656",83.07744,483.06213
"657",82.686806,483.07544
"658",82.25956,483.08875
"659",81.832306,483.10205
"660",81.42458,483.11536
"661",81.0486,483.12866
"662",80.71168,483.14197
"663",80.22339,483.16858
"664",80.10132,483.1819
"665",80.07446,483.1952
"666",80.1355,483.2085
"667",80.257576,483.2218
"668",80.394295,483.2351
"669",80.51148,483.2484
"670",80.57252,483.26172
"671",80.55787,483.27502
"672",80.46998,483.28833
"673",80.31861,483.30164
"674",80.12085,483.31494
"675",79.89624,483.32825
"676",79.65942,483.34155
"677",79.429924,483.35486
"678",79.219955,483.36816
"679",79.03685,483.38147
"680",78.88548,483.39478
"681",78.76341,483.40808
"682",78.66819,483.4214
"683",78.59739,483.4347
"684",78.54368,483.448
"685",78.49729,483.4613
"686",78.45579,483.4746
"687",78.416725,483.4879
"688",78.38499,483.50122
"689",78.37766,483.51453
"690",78.4387,483.52783
"691",78.643776,483.54114
"692",79.06615,483.55444
"693",79.725334,483.56775
"694",80.5774,483.58105
"695",81.512474,483.59436
"696",82.371864,483.60767
"697",83.02373,483.62097
"698",83.38262,483.63428
"699",83.45342,483.64758
"700",83.28741,483.6609
"701",82.96269,483.6742
"702",82.55253,483.6875
"703",82.11795,483.7008
"704",81.69802,483.7141
"705",81.30984,483.72742
"706",80.96315,483.74072
"707",80.6482,483.75403
"708",80.37965,483.76733
"709",80.15991,483.78064
"710",80.0061,483.79395
"711",79.92798,483.80725
"712",79.93042,483.82056
"713",79.9939,483.83386
"714",80.08667,483.84717
"715",80.17212,483.86047
"716",80.216064,483.87378
"717",80.198975,483.8871
"718",80.113525,483.9004
"719",79.96948,483.9137
"720",79.783936,483.927
"721",79.58129,483.9403
"722",79.37377,483.9536
"723",79.17601,483.96692
"724",78.99779,483.98022
"725",78.84398,483.99353
"726",78.71702,484.00684
"727",78.6218,484.02014
"728",78.551,484.03345
"729",78.49973,484.04675
"730",78.46555,484.06006
"731",78.44602,484.07336
"732",78.43137,484.08667
"733",78.41917,484.09998
"734",78.433815,484.11328
"735",78.53147,484.1266
"736",78.79027,484.1399
"737",79.276115,484.1532
"738",80.01099,484.1665
"739",80.92653,484.1798
"740",81.8909,484.1931
"741",82.74296,484.20642
"742",83.346,484.21973
"743",83.64629,484.23303
"744",83.65606,484.24634
"745",83.44854,484.25964
"746",83.11162,484.27295
"747",82.720985,484.28625
"748",82.33036,484.29956
"749",81.96658,484.31287
"750",81.63943,484.32617
"751",81.34402,484.33948
"752",81.07057,484.35278
"753",80.81911,484.3661
"754",80.601814,484.3794
"755",80.42603,484.3927
"756",80.306404,484.406
"757",80.25025,484.4193
"758",80.24536,484.43262
"759",80.26734,484.44592
"760",80.291756,484.45923
"761",80.289314,484.47253
"762",80.24048,484.48584
"763",80.1355,484.49915
"764",79.98657,484.51245
"765",79.80347,484.52576
"766",79.59838,484.53906
"767",79.39086,484.55237
"768",79.185776,484.56567
"769",79.00267,484.57898
"770",78.84154,484.5923
"771",78.70481,484.6056
"772",78.59983,484.6189
"773",78.52415,484.6322
"774",78.470436,484.6455
"775",78.42893,484.6588
"776",78.397194,484.67212
"777",78.37034,484.68542
"778",78.33616,484.69873
"779",78.294655,484.71204
"780",78.260475,484.72534
"781",78.27024,484.73865
"782",78.40208,484.75195
"783",78.746315,484.76526
"784",79.361565,484.77856
"785",80.235596,484.79187
"786",81.27566,484.80518
"787",82.32792,484.81848
"788",83.22392,484.8318
"789",83.84161,484.8451
"790",84.139465,484.8584
"791",84.16144,484.8717
"792",83.98566,484.885
"793",83.69756,484.89832
"794",83.370415,484.91162
"795",83.055466,484.92493
"796",82.77959,484.93823
"797",82.54276,484.95154
"798",82.32792,484.96484
"799",82.11551,484.97815
"800",81.88846,484.99146
"801",81.64919,485.00476
"802",81.41238,485.01807
"803",81.19997,485.03137
"804",81.02907,485.04468
"805",80.90456,485.05798
"806",80.81178,485.0713
"807",80.73853,485.0846
"808",80.66041,485.0979
"809",80.57496,485.1112
"810",80.465096,485.1245
"811",80.33326,485.13782
"812",80.184326,485.15112
"813",80.025635,485.16443
"814",79.85718,485.17773
"815",79.691154,485.19104
"816",79.534904,485.20435
"817",79.39086,485.21765
"818",79.26391,485.23096
"819",79.15648,485.24426
"820",79.07103,485.25757
"821",79.00267,485.27087
"822",78.9514,485.28418
"823",78.91234,485.2975
"824",78.88548,485.3108
"825",78.86839,485.3241
"826",78.856186,485.3507
"827",78.853745,485.364
"828",78.84398,485.37732
"829",78.82445,485.39062
"830",78.79515,485.40393
"831",78.75365,485.41724
"832",78.70237,485.43054
"833",78.643776,485.44385
"834",78.572975,485.45715
"835",78.49241,485.47046
"836",78.41184,485.48376
"837",78.3386,485.49707
"838",78.31663,485.51038
"839",78.43626,485.52368
"840",78.79759,485.537
"841",79.47143,485.5503
"842",80.45045,485.5636
"843",81.62722,485.5769
"844",82.82353,485.5902
"845",83.8465,485.60352
"846",84.55207,485.61682
"847",84.89632,485.63013
"848",84.92561,485.64343
"849",84.735176,485.65674
"850",84.422676,485.67004
"851",84.08087,485.68335
"852",83.77081,485.69666
"853",83.526665,485.70996
"854",83.346,485.72327
"855",83.20195,485.73657
"856",83.05058,485.74988
"857",82.85039,485.76318
"858",82.58427,485.7765
"859",82.262,485.7898
"860",81.91531,485.8031
"861",81.583275,485.8164
"862",81.30007,485.8297
"863",81.08034,485.84302
"864",80.91432,485.85632
"865",80.782486,485.86963
"866",80.65308,485.88293
"867",80.50416,485.89624
"868",80.325935,485.90955
"869",80.113525,485.92285
"870",79.871826,485.93616
"871",79.62035,485.94946
"872",79.36889,485.96277
"873",79.12962,485.97607
"874",78.907455,485.98938
"875",78.709694,486.0027
"876",78.536354,486.016
"877",78.38987,486.0293
"878",78.26292,486.0426
"879",78.15549,486.0559
"880",78.065155,486.0692
"881",77.98703,486.08252
"882",77.92355,486.09583
"883",77.86984,486.10913
"884",77.821014,486.12244
"885",77.77707,486.13574
"886",77.72823,486.14905
"887",77.68185,486.16235
"888",77.6379,486.17566
"889",77.58663,486.18896
"890",77.53048,486.20227
"891",77.47677,486.21558
"892",77.420616,486.22888
"893",77.366905,486.2422
"894",77.32296,486.2555
"895",77.29366,486.2688
"896",77.279015,486.2821
"897",77.27169,486.2954
"898",77.261925,486.30872
"899",77.2546,486.32202
"900",77.24483,486.33533
"901",77.22041,486.34863
"902",77.18379,486.36194
"903",77.14717,486.37524
"904",77.1252,486.38855
"905",77.15938,486.40186
"906",77.33761,486.41516
"907",77.77707,486.42847
"908",78.551,486.44177
"909",79.63744,486.45508
"910",80.92653,486.46838
"911",82.22781,486.4817
"912",83.33379,486.495
"913",84.09796,486.5083
"914",84.473946,486.5216
"915",84.52033,486.5349
"916",84.334785,486.54822
"917",84.02716,486.56152
"918",83.6878,486.57483
"919",83.38506,486.58813
"920",83.15068,486.60144
"921",82.98711,486.61475
"922",82.8748,486.62805
"923",82.76494,486.64136
"924",82.61845,486.65466
"925",82.408485,486.66797
"926",82.142365,486.68127
"927",81.83963,486.69458
"928",81.54177,486.7079
"929",81.2781,486.7212
"930",81.06569,486.7345
"931",80.902115,486.7478
"932",80.765396,486.7611
"933",80.64332,486.7744
"934",80.51392,486.78772
"935",80.36256,486.80103
"936",80.184326,486.81433
"937",79.98413,486.82764
"938",79.766846,486.84094
"939",79.54223,486.85425
"940",79.31762,486.86755
"941",79.097885,486.88086
"942",78.89281,486.89417
"943",78.70725,486.90747
"944",78.54612,486.92078
"945",78.40696,486.93408
"946",78.294655,486.9474
"947",78.20676,486.9607
"948",78.12863,486.974
"949",78.0676,486.9873
"950",78.01633,487.0006
"951",77.96994,487.01392
"952",77.92111,487.02722
"953",77.8674,487.04053
"954",77.80881,487.05383
"955",77.75021,487.06714
"956",77.69405,487.08044
"957",77.642784,487.09375
"958",77.5964,487.10706
"959",77.55489,487.12036
"960",77.51583,487.13367
"961",77.47921,487.14697
"962",77.44259,487.16028
"963",77.40597,487.17358
"964",77.37179,487.1869
"965",77.34005,487.2002
"966",77.30831,487.2135
"967",77.26925,487.2268
"968",77.23018,487.2401
"969",77.205765,487.25342
"970",77.239944,487.26672
"971",77.43282,487.28003
"972",77.891815,487.29333
"973",78.68284,487.30664
"974",79.77661,487.31995
"975",81.05592,487.33325
"976",82.33036,487.34656
"977",83.40215,487.35986
"978",84.137024,487.37317
"979",84.50324,487.38647
"980",84.55451,487.39978
"981",84.37873,487.4131
"982",84.085754,487.4264
"983",83.758606,487.4397
"984",83.455864,487.453
"985",83.209274,487.4663
"986",83.02861,487.4796
"987",82.88457,487.49292
"988",82.738075,487.50623
"989",82.55741,487.51953
"990",82.33036,487.53284
"991",82.05936,487.54614
"992",81.76883,487.55945
"993",81.48806,487.57275
"994",81.24147,487.58606
"995",81.03883,487.59937
"996",80.8777,487.61267
"997",80.743416,487.62598
"998",80.61402,487.63928
"999",80.479744,487.6526
"1000",80.323494,487.6659
"1001",80.1355,487.6792
"1002",79.91577,487.6925
"1003",79.67895,487.7058
"1004",79.44213,487.71912
"1005",79.20775,487.73242
"1006",78.99046,487.74573
"1007",78.79515,487.75903
"1008",78.61936,487.77234
"1009",78.46311,487.78564
"1010",78.328835,487.79895
"1011",78.21164,487.81226
"1012",78.11154,487.82556
"1013",78.02609,487.83887
"1014",77.95285,487.85217
"1015",77.891815,487.86548
"1016",77.840546,487.87878
"1017",77.7966,487.8921
"1018",77.7551,487.9054
"1019",77.71603,487.9187
"1020",77.67208,487.932
"1021",77.62325,487.9453
"1022",77.57198,487.95862
"1023",77.523155,487.97192
"1024",77.47921,487.98523
"1025",77.437706,487.99854
"1026",77.40353,488.01184
"1027",77.37423,488.02515
"1028",77.349815,488.03845
"1029",77.3254,488.05176
"1030",77.298546,488.06506
"1031",77.26925,488.07837
"1032",77.23018,488.09167
"1033",77.188675,488.10498
"1034",77.14717,488.1183
"1035",77.11055,488.1316
"1036",77.08858,488.1449
"1037",77.12276,488.1582
"1038",77.298546,488.1715
"1039",77.72335,488.1848
"1040",78.4802,488.19812
"1041",79.5642,488.21143
"1042",80.867935,488.22473
"1043",82.210724,488.23804
"1044",83.38506,488.25134
"1045",84.23224,488.26465
"1046",84.698555,488.27795
"1047",84.823074,488.29126
"1048",84.698555,488.30457
"1049",84.420235,488.31787
"1050",84.07599,488.33118
"1051",83.734184,488.34448
"1052",83.43633,488.3578
"1053",83.20439,488.3711
"1054",83.02861,488.3844
"1055",82.87724,488.3977
"1056",82.7161,488.411
"1057",82.52079,488.42432
"1058",82.27665,488.43762
"1059",82.003204,488.45093
"1060",81.7322,488.46423
"1061",81.48318,488.47754
"1062",81.270775,488.49084
"1063",81.094986,488.50415
"1064",80.94362,488.51746
"1065",80.80202,488.53076
"1066",80.65308,488.54407
"1067",80.48707,488.55737
"1068",80.29664,488.57068
"1069",80.079346,488.58398
"1070",79.84253,488.5973
"1071",79.603264,488.6106
"1072",79.36645,488.6239
"1073",79.14427,488.6372
"1074",78.94408,488.6505
"1075",78.765854,488.66382
"1076",78.60471,488.67712
"1077",78.46555,488.69043
"1078",78.345924,488.70374
"1079",78.24338,488.71704
"1080",78.15549,488.73035
"1081",78.07492,488.74365
"1082",78.00656,488.75696
"1083",77.945526,488.77026
"1084",77.88937,488.78357
"1085",77.840546,488.79688
"1086",77.79904,488.81018
"1087",77.7551,488.8235
"1088",77.70626,488.8368
"1089",77.64767,488.8501
"1090",77.58419,488.8634
"1091",77.51583,488.8767
"1092",77.452354,488.89
"1093",77.3962,488.90332
"1094",77.3547,488.91663
"1095",77.32052,488.92993
"1096",77.296104,488.94324
"1097",77.279015,488.95654
"1098",77.26925,488.96985
"1099",77.264366,488.98315
"1100",77.25948,488.99646
"1101",77.25216,489.00977
"1102",77.23506,489.02307
"1103",77.21797,489.03638
"1104",77.19844,489.04968
"1105",77.205765,489.063
"1106",77.30343,489.0763
"1107",77.60372,489.0896
"1108",78.2092,489.1029
"1109",79.17113,489.1162
"1110",80.42603,489.12952
"1111",81.812775,489.14282
"1112",83.123825,489.15613
"1113",84.159,489.16943
"1114",84.805984,489.18274
"1115",85.06477,489.19604
"1116",85.01106,489.20935
"1117",84.75227,489.22266
"1118",84.3885,489.23596
"1119",83.99786,489.24927
"1120",83.63653,489.26257
"1121",83.33868,489.27588
"1122",83.10185,489.28918
"1123",82.90166,489.3025
"1124",82.71122,489.3158
"1125",82.49882,489.3291
"1126",82.25468,489.3424
"1127",81.97879,489.3557
"1128",81.69558,489.36902
"1129",81.42947,489.38232
"1130",81.20485,489.39563
"1131",81.024185,489.40894
"1132",80.8777,489.42224
"1133",80.7483,489.43555
"1134",80.621346,489.44885
"1135",80.479744,489.46216
"1136",80.31373,489.47546
"1137",80.12573,489.48877
"1138",79.91577,489.50208
"1139",79.693596,489.51538
"1140",79.4641,489.5287
"1141",79.237045,489.542
"1142",79.01732,489.5553
"1143",78.81224,489.5686
"1144",78.62913,489.5819
"1145",78.47288,489.5952
"1146",78.34104,489.60852
"1147",78.22873,489.62183
"1148",78.133514,489.63513
"1149",78.05539,489.64844
"1150",77.98703,489.66174
"1151",77.92355,489.67505
"1152",77.8674,489.68835
"1153",77.81125,489.70166
"1154",77.75998,489.71497
"1155",77.713585,489.72827
"1156",77.66964,489.74158
"1157",77.62325,489.75488
"1158",77.57198,489.7682
"1159",77.52071,489.7815
"1160",77.469444,489.7948
"1161",77.420616,489.8081
"1162",77.37911,489.8214
"1163",77.349815,489.83472
"1164",77.3254,489.84802
"1165",77.30343,489.86133
"1166",77.281456,489.87463
"1167",77.25948,489.88794
"1168",77.23018,489.90125
"1169",77.196,489.91455
"1170",77.15938,489.92786
"1171",77.13252,489.94116
"1172",77.15938,489.95447
"1173",77.32052,489.96777
"1174",77.73556,489.98108
"1175",78.49485,489.9944
"1176",79.59838,490.0077
"1177",80.936295,490.021
"1178",82.32304,490.0343
"1179",83.53887,490.0476
"1180",84.41291,490.0609
"1181",84.88167,490.07422
"1182",84.99153,490.08752
"1183",84.83284,490.10083
"1184",84.508125,490.11414
"1185",84.11017,490.12744
"1186",83.71221,490.14075
"1187",83.35088,490.15405
"1188",83.05058,490.16736
"1189",82.80888,490.18066
"1190",82.598915,490.19397
"1191",82.39384,490.20728
"1192",82.16922,490.22058
"1193",81.92752,490.2339
"1194",81.671165,490.2472
"1195",81.42947,490.2605
"1196",81.21217,490.2738
"1197",81.03639,490.2871
"1198",80.88991,490.3004
"1199",80.76784,490.31372
"1200",80.65308,490.32703
"1201",80.53101,490.34033
"1202",80.38453,490.35364
"1203",80.20874,490.36694
"1204",80.0061,490.38025
"1205",79.781494,490.39355
"1206",79.54467,490.40686
"1207",79.30785,490.42017
"1208",79.08324,490.43347
"1209",78.87816,490.44678
"1210",78.69016,490.46008
"1211",78.52415,490.4734
"1212",78.37522,490.4867
"1213",78.24582,490.5
"1214",78.14084,490.5133
"1215",78.05539,490.5266
"1216",77.98459,490.53992
"1217",77.92844,490.55322
"1218",77.88449,490.56653
"1219",77.840546,490.57983
"1220",77.79904,490.59314
"1221",77.76242,490.60645
"1222",77.72823,490.61975
"1223",77.69405,490.63306
"1224",77.662315,490.64636
"1225",77.63058,490.65967
"1226",77.593956,490.67297
"1227",77.5256,490.6996
"1228",77.506065,490.7129
"1229",77.49874,490.7262
"1230",77.49874,490.7395
"1231",77.503624,490.7528
"1232",77.50118,490.7661
"1233",77.48409,490.77942
"1234",77.44991,490.79272
"1235",77.41085,490.80603
"1236",77.38155,490.81934
"1237",77.39864,490.83264
"1238",77.54513,490.84595
"1239",77.925995,490.85925
"1240",78.64622,490.87256
"1241",79.71313,490.88586
"1242",81.0486,490.89917
"1243",82.46952,490.91248
"1244",83.76593,490.92578
"1245",84.74738,490.9391
"1246",85.333336,490.9524
"1247",85.53109,490.9657
"1248",85.43099,490.979
"1249",85.12581,490.9923
"1250",84.715645,491.0056
"1251",84.27863,491.01892
"1252",83.86603,491.03223
"1253",83.50713,491.04553
"1254",83.20439,491.05884
"1255",82.94072,491.07214
"1256",82.69169,491.08545
"1257",82.44511,491.09875
"1258",82.193634,491.11206
"1259",81.94949,491.12537
"1260",81.71999,491.13867
"1261",81.51736,491.15198
"1262",81.3489,491.16528
"1263",81.20973,491.1786
"1264",81.0901,491.1919
"1265",80.98024,491.2052
"1266",80.87038,491.2185
"1267",80.743416,491.2318
"1268",80.58961,491.24512
"1269",80.40406,491.25842
"1270",80.184326,491.27173
"1271",79.94263,491.28503
"1272",79.693596,491.29834
"1273",79.4519,491.31165
"1274",79.23216,491.32495
"1275",79.03929,491.33826
"1276",78.87572,491.35156
"1277",78.73655,491.36487
"1278",78.61936,491.37817
"1279",78.52415,491.39148
"1280",78.450905,491.4048
"1281",78.399635,491.4181
"1282",78.363014,491.4314
"1283",78.3386,491.4447
"1284",78.31663,491.458
"1285",78.294655,491.4713
"1286",78.2678,491.48462
"1287",78.238495,491.49792
"1288",78.21164,491.51123
"1289",78.18234,491.52454
"1290",78.15793,491.53784
"1291",78.12863,491.55115
"1292",78.099335,491.56445
"1293",78.07004,491.57776
"1294",78.03586,491.59106
"1295",78.00412,491.60437
"1296",77.97482,491.61768
"1297",77.943085,491.63098
"1298",77.908905,491.6443
"1299",77.86984,491.6576
"1300",77.821014,491.6709
"1301",77.769745,491.6842
"1302",77.73556,491.6975
"1303",77.7673,491.71082
"1304",77.9675,491.72412
"1305",78.44846,491.73743
"1306",79.273674,491.75073
"1307",80.411385,491.76404
"1308",81.73708,491.77734
"1309",83.053024,491.79065
"1310",84.156555,491.80396
"1311",84.90608,491.81726
"1312",85.26498,491.83057
"1313",85.28695,491.84387
"1314",85.0721,491.85718
"1315",84.7132,491.87048
"1316",84.29572,491.8838
"1317",83.88556,491.8971
"1318",83.52422,491.9104
"1319",83.22392,491.9237
"1320",82.97978,491.937
"1321",82.77226,491.95032
"1322",82.57206,491.96362
"1323",82.34989,491.97693
"1324",82.1033,491.99023
"1325",81.84451,492.00354
"1326",81.59304,492.01685
"1327",81.37087,492.03015
"1328",81.180435,492.04346
"1329",81.01686,492.05676
"1330",80.867935,492.07007
"1331",80.72144,492.08337
"1332",80.56275,492.09668
"1333",80.39185,492.11
"1334",80.2063,492.1233
"1335",80.00366,492.1366
"1336",79.78882,492.1499
"1337",79.56664,492.1632
"1338",79.33959,492.1765
"1339",79.1223,492.18982
"1340",78.91722,492.20312
"1341",78.73167,492.21643
"1342",78.56565,492.22974
"1343",78.41917,492.24304
"1344",78.294655,492.25635
"1345",78.184784,492.26965
"1346",78.09689,492.28296
"1347",78.02121,492.29626
"1348",77.960175,492.30957
"1349",77.908905,492.32288
"1350",77.86496,492.33618
"1351",77.81857,492.3495
"1352",77.77219,492.3628
"1353",77.72335,492.3761
"1354",77.67208,492.3894
"1355",77.61837,492.4027
"1356",77.5671,492.41602
"1357",77.523155,492.42932
"1358",77.486534,492.44263
"1359",77.452354,492.45593
"1360",77.42306,492.46924
"1361",77.38888,492.48254
"1362",77.349815,492.49585
"1363",77.30831,492.50916
"1364",77.25948,492.52246
"1365",77.205765,492.53577
"1366",77.16426,492.54907
"1367",77.15938,492.56238
"1368",77.25948,492.57568
"1369",77.576866,492.589
"1370",78.2092,492.6023
"1371",79.18822,492.6156
"1372",80.45289,492.6289
"1373",81.83963,492.6422
"1374",83.14336,492.65552
"1375",84.17609,492.66882
"1376",84.83284,492.68213
"1377",85.103836,492.69543
"1378",85.067215,492.70874
"1379",84.454414,492.73535
"1380",84.03204,492.74866
"1381",83.614555,492.76196
"1382",83.23613,492.77527
"1383",82.90898,492.78857
"1384",82.633095,492.80188
"1385",82.391396,492.8152
"1386",82.161896,492.8285
"1387",81.92264,492.8418
"1388",81.67605,492.8551
"1389",81.43191,492.8684
"1390",81.21217,492.8817
"1391",81.0193,492.89502
"1392",80.86061,492.90833
"1393",80.723885,492.92163
"1394",80.59449,492.93494
"1395",80.45777,492.94824
"1396",80.306404,492.96155
"1397",80.13794,492.97485
"1398",79.94751,492.98816
"1399",79.73998,493.00146
"1400",79.520256,493.01477
"1401",79.29809,493.02808
"1402",79.078354,493.04138
"1403",78.86595,493.0547
"1404",78.66575,493.068
"1405",78.49241,493.0813
"1406",78.345924,493.0946
"1407",78.22385,493.1079
"1408",78.12131,493.12122
"1409",78.04074,493.13452
"1410",77.96994,493.14783
"1411",77.908905,493.16113
"1412",77.855194,493.17444
"1413",77.81369,493.18774
"1414",77.77707,493.20105
"1415",77.74288,493.21436
"1416",77.713585,493.22766
"1417",77.68185,493.24097
"1418",77.65499,493.25427
"1419",77.625694,493.26758
"1420",77.593956,493.28088
"1421",77.55978,493.2942
"1422",77.5256,493.3075
"1423",77.49386,493.3208
"1424",77.46212,493.3341
"1425",77.43282,493.3474
"1426",77.40353,493.36072
"1427",77.36935,493.37402
"1428",77.332726,493.38733
"1429",77.33517,493.40063
"1430",77.44747,493.41394
"1431",77.78439,493.42725
"1432",78.44846,493.44055
"1433",79.45678,493.45386
"1434",80.71656,493.46716
"1435",82.054474,493.48047
"1436",83.26299,493.49377
"1437",84.16144,493.50708
"1438",84.67414,493.5204
"1439",84.825516,493.5337
"1440",84.69611,493.547
"1441",84.386055,493.5603
"1442",83.983215,493.5736
"1443",83.55352,493.5869
"1444",83.14336,493.60022
"1445",82.774704,493.61353
"1446",82.45731,493.62683
"1447",82.17166,493.64014
"1448",81.90799,493.65344
"1449",81.654076,493.66675
"1450",81.41482,493.68005
"1451",81.197525,493.69336
"1452",81.01442,493.70667
"1453",80.87282,493.71997
"1454",80.765396,493.73328
"1455",80.68482,493.74658
"1456",80.604256,493.7599
"1457",80.51392,493.7732
"1458",80.39918,493.7865
"1459",80.25025,493.7998
"1460",80.07202,493.8131
"1461",79.86694,493.82642
"1462",79.64233,493.83972
"1463",79.41039,493.85303
"1464",79.17601,493.86633
"1465",78.9514,493.87964
"1466",78.73655,493.89294
"1467",78.54368,493.90625
"1468",78.37278,493.91956
"1469",78.221405,493.93286
"1470",78.08957,493.94617
"1471",77.977264,493.95947
"1472",77.88449,493.97278
"1473",77.80881,493.98608
"1474",77.747765,493.9994
"1475",77.70138,494.0127
"1476",77.66476,494.026
"1477",77.63302,494.0393
"1478",77.60128,494.0526
"1479",77.576866,494.06592
"1480",77.55489,494.07922
"1481",77.5378,494.09253
"1482",77.5256,494.10583
"1483",77.51583,494.11914
"1484",77.50118,494.13245
"1485",77.486534,494.14575
"1486",77.469444,494.15906
"1487",77.44991,494.17236
"1488",77.43038,494.18567
"1489",77.40597,494.19897
"1490",77.38888,494.21228
"1491",77.383995,494.2256
"1492",77.44259,494.2389
"1493",77.65499,494.2522
"1494",78.14084,494.2655
"1495",78.96605,494.2788
"1496",80.10132,494.2921
"1497",81.42214,494.30542
"1498",82.73319,494.31873
"1499",83.826965,494.33203
"1500",84.559395,494.34534
"1501",84.89876,494.35864
"1502",84.90608,494.37195
"1503",84.66926,494.38525
"1504",84.28596,494.39856
"1505",83.83917,494.41187
"1506",83.38506,494.42517
"1507",82.96025,494.43848
"1508",82.581825,494.45178
"1509",82.24979,494.4651
"1510",81.95926,494.4784
"1511",81.70779,494.4917
"1512",81.50271,494.505
"1513",81.3489,494.5183
"1514",81.25613,494.53162
"1515",81.214615,494.54492
"1516",81.21217,494.55823
"1517",81.2195,494.57153
"1518",81.20973,494.58484
"1519",81.16579,494.59814
"1520",81.08278,494.61145
"1521",80.955826,494.62476
"1522",80.79469,494.63806
"1523",80.61158,494.65137
"1524",80.40894,494.66467
"1525",80.201416,494.67798
"1526",79.991455,494.69128
"1527",79.783936,494.7046
"1528",79.57885,494.7179
"1529",79.3933,494.7312
"1530",79.22972,494.7445
"1531",79.093,494.7578
"1532",78.98314,494.77112
"1533",78.905014,494.78442
"1534",78.8513,494.79773
"1535",78.81468,494.81104
"1536",78.785385,494.82434
"1537",78.75609,494.83765
"1538",78.7219,494.85095
"1539",78.692604,494.86426
"1540",78.66331,494.87756
"1541",78.641335,494.89087
"1542",78.62913,494.90417
"1543",78.626686,494.91748
"1544",78.61936,494.9308
"1545",78.61204,494.9441
"1546",78.59495,494.9574
"1547",78.57053,494.9707
"1548",78.538795,494.984
"1549",78.50706,494.9973
"1550",78.47776,495.01062
"1551",78.47532,495.02393
"1552",78.56809,495.03723
"1553",78.84886,495.05054
"1554",79.40795,495.06384
"1555",80.26978,495.07715
"1556",81.375755,495.09045
"1557",82.57694,495.10376
"1558",83.69024,495.11707
"1559",84.55207,495.13037
"1560",85.07454,495.14368
"1561",85.26742,495.15698
"1562",85.189285,495.1703
"1563",84.92561,495.1836
"1564",84.54475,495.1969
"1565",84.11017,495.2102
"1566",83.6585,495.2235
"1567",83.2166,495.23682
"1568",82.79668,495.25012
"1569",82.41337,495.26343
"1570",82.07645,495.27673
"1571",81.79813,495.29004
"1572",81.58572,495.30334
"1573",81.45144,495.31665
"1574",81.38064,495.32996
"1575",81.356224,495.34326
"1576",81.356224,495.35657
"1577",81.35378,495.36987
"1578",81.3196,495.38318
"1579",81.24391,495.39648
"1580",81.11696,495.4098
"1581",80.94606,495.4231
"1582",80.73365,495.4364
"1583",80.49439,495.4497
"1584",80.233154,495.463
"1585",79.96948,495.47632
"1586",79.710686,495.48962
"1587",79.45922,495.50293
"1588",79.22484,495.51624
"1589",79.009995,495.52954
"1590",78.819565,495.54285
"1591",78.6511,495.55615
"1592",78.504616,495.56946
"1593",78.37766,495.58276
"1594",78.27024,495.59607
"1595",78.17502,495.60938
"1596",78.09201,495.62268
"1597",78.01877,495.636
"1598",77.95529,495.6493
"1599",77.90158,495.6626
"1600",77.840546,495.6759
"1601",77.77463,495.6892
"1602",77.696495,495.7025
"1603",77.60616,495.71582
"1604",77.51095,495.72913
"1605",77.43038,495.74243
"1606",77.39864,495.75574
"1607",77.4963,495.76904
"1608",77.80148,495.78235
"1609",78.37766,495.79565
"1610",79.21507,495.80896
"1611",80.22095,495.82227
"1612",81.24391,495.83557
"1613",82.11795,495.84888
"1614",82.718544,495.86218
"1615",82.99687,495.8755
"1616",82.98955,495.8888
"1617",82.760056,495.9021
"1618",82.388954,495.9154
"1619",81.94949,495.9287
"1620",81.49294,495.94202
"1621",81.05104,495.95532
"1622",80.64088,495.96863
"1623",80.27711,495.98193
"1624",79.95239,495.99524
"1625",79.67895,496.00854
"1626",79.47143,496.02185
"1627",79.344475,496.03516
"1628",79.30297,496.04846
"1629",79.34203,496.06177
"1630",79.43725,496.07507
"1631",79.551994,496.08838
"1632",79.65209,496.10168
"1633",79.71313,496.115
"1634",79.71313,496.1283
"1635",79.64477,496.1416
"1636",79.520256,496.1549
"1637",79.34692,496.1682
"1638",79.13939,496.18152
"1639",78.91722,496.19482
"1640",78.695045,496.20813
"1641",78.48264,496.22144
"1642",78.28977,496.23474
"1643",78.12619,496.24805
"1644",77.99191,496.26135
"1645",77.88693,496.27466
"1646",77.80148,496.28796
"1647",77.733116,496.30127
"1648",77.679405,496.31458
"1649",77.6379,496.32788
"1650",77.60372,496.3412
"1651",77.576866,496.3545
"1652",77.55001,496.3678
"1653",77.523155,496.3811
"1654",77.50118,496.3944
"1655",77.4963,496.4077
"1656",77.55245,496.42102
"1657",77.74288,496.43433
"1658",78.153046,496.44763
"1659",78.82689,496.46094
"1660",79.73266,496.47424
"1661",80.76784,496.48755
"1662",81.78104,496.50085
"1663",82.60868,496.51416
"1664",83.1458,496.52747
"1665",83.36797,496.54077
"1666",83.3167,496.55408
"1667",83.06523,496.56738
"1668",82.69657,496.5807
"1669",82.269325,496.594
"1670",81.83475,496.6073
"1671",81.409935,496.6206
"1672",80.99977,496.6339
"1673",80.61402,496.64722
"1674",80.272224,496.66052
"1675",79.99634,496.67383
"1676",79.815674,496.68713
"1677",79.74975,496.70044
"1678",79.80347,496.71375
"1679",79.954834,496.72705
"1680",80.15259,496.74036
"1681",80.35279,496.75366
"1682",80.50904,496.76697
"1683",80.584724,496.78027
"1684",80.57496,496.79358
"1685",80.48951,496.8069
"1686",80.34791,496.8202
"1687",80.177,496.8335
"1688",79.98901,496.8468
"1689",79.798584,496.8601
"1690",79.60815,496.8734
"1691",79.415276,496.88672
"1692",79.22484,496.90002
"1693",79.044174,496.91333
"1694",78.87816,496.92664
"1695",78.73655,496.93994
"1696",78.624245,496.95325
"1697",78.538795,496.96655
"1698",78.467995,496.97986
"1699",78.40452,496.99316
"1700",78.35813,497.00647
"1701",78.35081,497.01978
"1702",78.44602,497.03308
"1703",78.74387,497.0464
"1704",79.31518,497.0597
"1705",80.16235,497.073
"1706",81.20485,497.0863
"1707",82.303505,497.0996
"1708",83.28741,497.1129
"1709",84.01251,497.12622
"1710",84.41779,497.13953
"1711",84.5301,497.15283
"1712",84.40559,497.16614
"1713",84.11505,497.17944
"1714",83.736626,497.19275
"1715",83.319145,497.20605
"1716",82.899216,497.21936
"1717",82.493935,497.23267
"1718",82.11307,497.24597
"1719",81.75906,497.25928
"1720",81.446556,497.27258
"1721",81.18776,497.2859
"1722",81.004654,497.2992
"1723",80.907,497.3125
"1724",80.89723,497.3258
"1725",80.94362,497.3391
"1726",81.0193,497.35242
"1727",81.08522,497.36572
"1728",81.10719,497.37903
"1729",81.058365,497.39233
"1730",80.936295,497.40564
"1731",80.74586,497.41895
"1732",80.51392,497.43225
"1733",80.25269,497.44556
"1734",79.98901,497.45886
"1735",79.727776,497.47217
"1736",79.48119,497.48547
"1737",79.24681,497.49878
"1738",79.03929,497.5121
"1739",78.856186,497.5254
"1740",78.70237,497.5387
"1741",78.572975,497.552
"1742",78.47776,497.5653
"1743",78.4094,497.5786
"1744",78.38499,497.59192
"1745",78.44846,497.60522
"1746",78.677956,497.61853
"1747",79.15648,497.63184
"1748",79.920654,497.64514
"1749",80.93141,497.65845
"1750",82.08377,497.67175
"1751",83.2166,497.68506
"1752",84.16144,497.69836
"1753",84.81331,497.71167
"1754",85.14534,497.72498
"1755",85.19661,497.73828
"1756",85.033035,497.7516
"1757",84.735176,497.7649
"1758",84.37873,497.7782
"1759",84.01984,497.7915
"1760",83.685356,497.8048
"1761",83.387505,497.8181
"1762",83.11162,497.83142
"1763",82.845505,497.84473
"1764",82.57694,497.85803
"1765",82.31815,497.87134
"1766",82.08377,497.88464
"1767",81.88602,497.89795
"1768",81.74197,497.91125
"1769",81.651634,497.92456
"1770",81.58816,497.93787
"1771",81.532005,497.95117
"1772",81.45632,497.96448
"1773",81.33181,497.97778
"1774",81.143814,497.9911
"1775",80.88991,498.0044
"1776",80.587166,498.0177
"1777",80.25025,498.031
"1778",79.903564,498.0443
"1779",79.5642,498.05762
"1780",79.24681,498.07092
"1781",78.95628,498.08423
"1782",78.695045,498.09753
"1783",78.46067,498.11084
"1784",78.25071,498.12415
"1785",78.07004,498.13745
"1786",77.91135,498.15076
"1787",77.77219,498.16406
"1788",77.659874,498.17737
"1789",77.59884,498.19067
"1790",77.662315,498.20398
"1791",77.943085,498.2173
"1792",78.5095,498.2306
"1793",79.361565,498.2439
"1794",80.42359,498.2572
"1795",81.54665,498.2705
"1796",82.55985,498.2838
"1797",83.31426,498.29712
"1798",83.74639,498.31042
"1799",83.878235,498.32373
"1800",83.773254,498.33704
"1801",83.51446,498.35034
"1802",83.1873,498.36365
"1803",82.85771,498.37695
"1804",82.55741,498.39026
"1805",82.29374,498.40356
"1806",82.04715,498.41687
"1807",81.79324,498.43018
"1808",81.514915,498.44348
"1809",81.22194,498.4568
"1810",80.92897,498.4701
"1811",80.66529,498.4834
"1812",80.45533,498.4967
"1813",80.31129,498.51
"1814",80.21362,498.52332
"1815",80.14038,498.53662
"1816",80.06958,498.54993
"1817",79.97925,498.56323
"1818",79.85718,498.57654
"1819",79.691154,498.58984
"1820",79.49584,498.60315
"1821",79.28344,498.61646
"1822",79.063705,498.62976
"1823",78.84886,498.64307
"1824",78.641335,498.65637
"1825",78.4387,498.66968
"1826",78.24094,498.68298
"1827",78.04074,498.6963
"1828",77.84299,498.7096
"1829",77.65011,498.7229
"1830",77.469444,498.7362
"1831",77.30831,498.7495
"1832",77.17403,498.76282
"1833",77.10567,498.77612
"1834",77.17647,498.78943
"1835",77.471886,498.80273
"1836",78.04562,498.81604
"1837",78.88548,498.82935
"1838",79.89868,498.84265
"1839",80.94118,498.85596
"1840",81.85184,498.86926
"1841",82.51591,498.88257
"1842",82.88457,498.89587
"1843",82.98955,498.90918
"1844",82.89189,498.9225
"1845",82.66483,498.9358
"1846",82.38163,498.9491
"1847",82.09598,498.9624
"1848",81.83475,498.9757
"1849",81.60525,498.989
"1850",81.40505,499.00232
"1851",81.21217,499.01562
"1852",81.02174,499.02893
"1853",80.84108,499.04224
"1854",80.68238,499.05554
"1855",80.56275,499.06885
"1856",80.479744,499.08215
"1857",80.43336,499.09546
"1858",80.40162,499.10876
"1859",80.36256,499.12207
"1860",80.2942,499.13538
"1861",80.181885,499.14868
"1862",80.01831,499.162
"1863",79.80835,499.1753
"1864",79.55688,499.1886
"1865",79.281,499.2019
"1866",78.99779,499.2152
"1867",78.72678,499.22852
"1868",78.47288,499.24182
"1869",78.24338,499.25513
"1870",78.0383,499.26843
"1871",77.86252,499.28174
"1872",77.7087,499.29504
"1873",77.56466,499.30835
"1874",77.43038,499.32166
"1875",77.30099,499.33496
"1876",77.17403,499.34827
"1877",77.051956,499.36157
"1878",76.946976,499.37488
"1879",76.895706,499.38818
"1880",76.964066,499.4015
"1881",77.25216,499.4148
"1882",77.83566,499.4281
"1883",78.7219,499.4414
"1884",79.83032,499.4547
"1885",81.00221,499.46802
"1886",82.05936,499.48132
"1887",82.84062,499.49463
"1888",83.28985,499.50793
"1889",83.421684,499.52124
"1890",83.30694,499.53455
"1891",83.038376,499.54785
"1892",82.69901,499.56116
"1893",82.357216,499.57446
"1894",82.04471,499.58777
"1895",81.77127,499.60107
"1896",81.5198,499.61438
"1897",81.2781,499.6277
"1898",81.03151,499.641
"1899",80.79225,499.6543
"1900",80.5774,499.6676
"1901",80.40162,499.6809
"1902",80.274666,499.6942
"1903",80.18677,499.70752
"1904",80.12573,499.72083
"1905",80.062256,499.73413
"1906",79.97925,499.74744
"1907",79.85474,499.76074
"1908",79.68139,499.77405
"1909",79.45922,499.78735
"1910",79.19798,499.80066
"1911",78.91234,499.81396
"1912",78.61204,499.82727
"1913",78.32395,499.84058
"1914",78.06027,499.85388
"1915",77.8259,499.8672
"1916",77.62081,499.8805
"1917",77.452354,499.8938
"1918",77.30587,499.9071
"1919",77.17891,499.9204
"1920",77.06416,499.93372
"1921",76.96651,499.94702
"1922",76.87862,499.96033
"1923",76.805374,499.97363
"1924",76.74189,499.98694
"1925",76.67841,500.00024
"1926",76.610054,500.01355
"1927",76.53925,500.02686
"1928",76.46113,500.04016
"1929",76.37568,500.05347
"1930",76.29511,500.06677
"1931",76.21454,500.08008
"1932",76.16083,500.09338
"1933",76.1828,500.1067
"1934",76.39277,500.12
"1935",76.89815,500.1333
"1936",77.75021,500.1466
"1937",78.890366,500.1599
"1938",80.184326,500.17322
"1939",81.427025,500.18652
"1940",82.4329,500.19983
"1941",83.089645,500.21313
"1942",83.38506,500.22644
"1943",83.39483,500.23975
"1944",83.211716,500.25305
"1945",82.92607,500.26636
"1946",82.61356,500.27966
"1947",82.32548,500.29297
"1948",82.08865,500.30627
"1949",81.883575,500.31958
"1950",81.69558,500.3329
"1951",81.497826,500.3462
"1952",81.28542,500.3595
"1953",81.06081,500.3728
"1954",80.848404,500.3861
"1955",80.66529,500.3994
"1956",80.52613,500.41272
"1957",80.428474,500.42603
"1958",80.35035,500.43933
"1959",80.27955,500.45264
"1960",80.19409,500.46594
"1961",80.08179,500.47925
"1962",79.92798,500.49255
"1963",79.727776,500.50586
"1964",79.48608,500.51917
"1965",79.219955,500.53247
"1966",78.941635,500.54578
"1967",78.66575,500.55908
"1968",78.40696,500.5724
"1969",78.17502,500.5857
"1970",77.960175,500.599
"1971",77.7673,500.6123
"1972",77.60372,500.6256
"1973",77.467,500.63892
"1974",77.3547,500.65222
"1975",77.261925,500.66553
"1976",77.18135,500.67883
"1977",77.11055,500.69214
"1978",77.04463,500.70544
"1979",76.98604,500.71875
"1980",76.93477,500.73206
"1981",76.89082,500.74536
"1982",76.841995,500.75867
"1983",76.788284,500.77197
"1984",76.72236,500.78528
"1985",76.64179,500.79858
"1986",76.55146,500.8119
"1987",76.456245,500.8252
"1988",76.35615,500.8385
"1989",76.26093,500.8518
"1990",76.20233,500.8651
"1991",76.24628,500.87842
"1992",76.507515,500.89172
"1993",77.08858,500.90503
"1994",78.02365,500.91833
"1995",79.24437,500.93164
"1996",80.59205,500.94495
"1997",81.864044,500.95825
"1998",82.86992,500.97156
"1999",83.509575,500.98486
"2000",83.790344,500.99817
"2001",83.78546,501.01147
"2002",83.59014,501.02478
"2003",83.302055,501.0381
"2004",82.99931,501.0514
"2005",82.73319,501.0647
"2006",82.513466,501.078
"2007",82.32548,501.0913
"2008",82.15213,501.1046
"2009",81.96658,501.11792
"2010",81.761505,501.13123
"2011",81.54177,501.14453
"2012",81.33669,501.15784
"2013",81.16579,501.17114
"2014",81.03883,501.18445
"2015",80.94362,501.19775
"2016",80.87038,501.21106
"2017",80.79469,501.22437
"2018",80.69459,501.23767
"2019",80.550545,501.25098
"2020",80.365,501.26428
"2021",80.14282,501.2776
"2022",79.8938,501.2909
"2023",79.62524,501.3042
"2024",79.34692,501.3175
"2025",79.06615,501.3308
"2026",78.79515,501.34412
"2027",78.54124,501.35742
"2028",78.314186,501.37073
"2029",78.11398,501.38403
"2030",77.943085,501.39734
"2031",77.79904,501.41064
"2032",77.679405,501.42395
"2033",77.58419,501.43726
"2034",77.506065,501.45056
"2035",77.44015,501.46387
"2036",77.38644,501.47717
"2037",77.34005,501.49048
"2038",77.30343,501.50378
"2039",77.27413,501.5171
"2040",77.239944,501.5304
"2041",77.205765,501.5437
"2042",77.1667,501.557
"2043",77.12276,501.5703
"2044",77.07637,501.58362
"2045",77.02998,501.59692
"2046",76.978714,501.61023
"2047",76.92256,501.62354
"2048",76.85664,501.63684
"2049",76.79317,501.65015
"2050",76.74189,501.66345
"2051",76.74677,501.67676
"2052",76.88838,501.69006
"2053",77.2839,501.70337
"2054",78.01633,501.71667
"2055",79.097885,501.72998
"2056",80.42115,501.7433
"2057",81.8201,501.7566
"2058",83.075,501.7699
"2059",84.017395,501.7832
"2060",84.576485,501.7965
"2061",84.77425,501.8098
"2062",84.69611,501.82312
"2063",84.44709,501.83643
"2064",84.11749,501.84973
"2065",83.78546,501.86304
"2066",83.49737,501.87634
"2067",83.26055,501.88965
"2068",83.06035,501.90295
"2069",82.8748,501.91626
"2070",82.67216,501.92957
"2071",82.44999,501.94287
"2072",82.210724,501.95618
"2073",81.97391,501.96948
"2074",81.75418,501.9828
"2075",81.57351,501.9961
"2076",81.427025,502.0094
"2077",81.30251,502.0227
"2078",81.18288,502.036
"2079",81.04616,502.04932
"2080",80.8777,502.06262
"2081",80.67017,502.07593
"2082",80.42359,502.08923
"2083",80.15015,502.10254
"2084",79.85718,502.11584
"2085",79.55932,502.12915
"2086",79.26879,502.14246
"2087",78.98802,502.15576
"2088",78.729225,502.16907
"2089",78.49485,502.18237
"2090",78.28733,502.19568
"2091",78.1091,502.20898
"2092",77.95773,502.2223
"2093",77.83566,502.2356
"2094",77.733116,502.2489
"2095",77.65011,502.2622
"2096",77.574425,502.2755
"2097",77.503624,502.28882
"2098",77.435265,502.30212
"2099",77.366905,502.31543
"2100",77.30099,502.32874
"2101",77.239944,502.34204
"2102",77.188675,502.35535
"2103",77.13985,502.36865
"2104",77.09346,502.38196
"2105",77.0544,502.39526
"2106",77.01045,502.40857
"2107",76.961624,502.42188
"2108",76.90303,502.43518
"2109",76.83467,502.4485
"2110",76.756546,502.4618
"2111",76.69306,502.4751
"2112",76.70771,502.4884
"2113",76.912796,502.5017
"2114",77.42306,502.515
"2115",78.294655,502.52832
"2116",79.48608,502.54163
"2117",80.85573,502.55493
"2118",82.19852,502.56824
"2119",83.31182,502.58154
"2120",84.06622,502.59485
"2121",84.44221,502.60815
"2122",84.5008,502.62146
"2123",84.334785,502.63477
"2124",84.03937,502.64807
"2125",83.69024,502.66138
"2126",83.34112,502.67468
"2127",83.021286,502.688
"2128",82.738075,502.7013
"2129",82.48173,502.7146
"2130",82.23758,502.7279
"2131",81.99344,502.7412
"2132",81.75418,502.75452
"2133",81.53445,502.76782
"2134",81.34402,502.78113
"2135",81.19508,502.79443
"2136",81.08522,502.80774
"2137",80.99733,502.82104
"2138",80.91188,502.83435
"2139",80.816666,502.84766
"2140",80.69459,502.86096
"2141",80.5359,502.87427
"2142",80.3357,502.88757
"2143",80.10132,502.90088
"2144",79.84009,502.91418
"2145",79.5642,502.9275
"2146",79.28832,502.9408
"2147",79.0222,502.9541
"2148",78.77318,502.9674
"2149",78.54124,502.9807
"2150",78.32639,502.99402
"2151",78.133514,503.00732
"2152",77.96506,503.02063
"2153",77.823456,503.03394
"2154",77.70626,503.04724
"2155",77.60372,503.06055
"2156",77.51827,503.07385
"2157",77.44503,503.08716
"2158",77.38888,503.10046
"2159",77.34493,503.11377
"2160",77.315636,503.12708
"2161",77.298546,503.14038
"2162",77.2839,503.1537
"2163",77.26925,503.167
"2164",77.24483,503.1803
"2165",77.21309,503.1936
"2166",77.17403,503.2069
"2167",77.1252,503.2202
"2168",77.07149,503.23352
"2169",77.032425,503.24683
"2170",77.06172,503.26013
"2171",77.261925,503.27344
"2172",77.75021,503.28674
"2173",78.59739,503.30005
"2174",79.764404,503.31335
"2175",81.112076,503.32666
"2176",82.44022,503.33997
"2177",83.53887,503.35327
"2178",84.27375,503.36658
"2179",84.62287,503.37988
"2180",84.65461,503.3932
"2181",84.4593,503.4065
"2182",84.12482,503.4198
"2183",83.73174,503.4331
"2184",83.33135,503.4464
"2185",82.95537,503.45972
"2186",82.61356,503.47302
"2187",82.30106,503.48633
"2188",82.00809,503.49963
"2189",81.72976,503.51294
"2190",81.47341,503.52625
"2191",81.25124,503.53955
"2192",81.075455,503.55286
"2193",80.95094,503.56616
"2194",80.87526,503.57947
"2195",80.82643,503.59277
"2196",80.780045,503.60608
"2197",80.71656,503.6194
"2198",80.618904,503.6327
"2199",80.47242,503.646
"2200",80.27955,503.6593
"2201",80.04761,503.6726
"2202",79.7937,503.6859
"2203",79.5227,503.69922
"2204",79.256584,503.71252
"2205",79.00023,503.72583
"2206",78.76097,503.73914
"2207",78.54368,503.75244
"2208",78.35081,503.76575
"2209",78.187225,503.77905
"2210",78.048065,503.79236
"2211",77.93088,503.80566
"2212",77.83322,503.81897
"2213",77.7551,503.83228
"2214",77.68673,503.84558
"2215",77.62325,503.8589
"2216",77.56954,503.8722
"2217",77.52071,503.8855
"2218",77.47677,503.8988
"2219",77.44503,503.9121
"2220",77.41573,503.9254
"2221",77.39376,503.93872
"2222",77.36446,503.95203
"2223",77.332726,503.96533
"2224",77.29366,503.97864
"2225",77.24971,503.99194
"2226",77.20332,504.00525
"2227",77.15694,504.01855
"2228",77.12276,504.03186
"2229",77.13985,504.04517
"2230",77.29122,504.05847
"2231",77.69894,504.07178
"2232",78.43626,504.08508
"2233",79.50805,504.0984
"2234",80.81178,504.1117
"2235",82.16678,504.125
"2236",83.372856,504.1383
"2237",84.26154,504.1516
"2238",84.76936,504.16492
"2239",84.91829,504.17822
"2240",84.788895,504.19153
"2241",84.47639,504.20483
"2242",84.06622,504.21814
"2243",83.63409,504.23145
"2244",83.228806,504.24475
"2245",82.862595,504.25806
"2246",82.53788,504.27136
"2247",82.23514,504.28467
"2248",81.95682,504.29797
"2249",81.69802,504.31128
"2250",81.47097,504.3246
"2251",81.290306,504.3379
"2252",81.16579,504.3512
"2253",81.094986,504.3645
"2254",81.05592,504.3778
"2255",81.024185,504.3911
"2256",80.9778,504.40442
"2257",80.89235,504.41772
"2258",80.765396,504.43103
"2259",80.59205,504.44434
"2260",80.38209,504.45764
"2261",80.14526,504.47095
"2262",79.89624,504.48425
"2263",79.64721,504.49756
"2264",79.40551,504.51086
"2265",79.17357,504.52417
"2266",78.96117,504.53748
"2267",78.768295,504.55078
"2268",78.59983,504.5641
"2269",78.45579,504.5774
"2270",78.33616,504.5907
"2271",78.23605,504.604
"2272",78.15549,504.6173
"2273",78.08713,504.6306
"2274",78.03342,504.64392
"2275",77.98703,504.65723
"2276",77.95041,504.67053
"2277",77.92111,504.68384
"2278",77.891815,504.69714
"2279",77.86252,504.71045
"2280",77.82834,504.72375
"2281",77.78195,504.73706
"2282",77.72091,504.75037
"2283",77.65011,504.76367
"2284",77.56954,504.77698
"2285",77.48409,504.79028
"2286",77.40353,504.8036
"2287",77.35714,504.8169
"2288",77.40841,504.8302
"2289",77.67452,504.8435
"2290",78.26292,504.8568
"2291",79.200424,504.87012
"2292",80.42115,504.88342
"2293",81.77127,504.89673
"2294",83.035934,504.91003
"2295",84.02472,504.92334
"2296",84.63996,504.93665
"2297",84.88167,504.94995
"2298",84.825516,504.96326
"2299",84.559395,504.97656
"2300",84.17609,504.98987
"2301",83.74151,505.00317
"2302",83.30694,505.01648
"2303",82.896774,505.0298
"2304",82.51835,505.0431
"2305",82.16922,505.0564
"2306",81.846954,505.0697
"2307",81.55642,505.083
"2308",81.304955,505.0963
"2309",81.10475,505.10962
"2310",80.955826,505.12292
"2311",80.86549,505.13623
"2312",80.816666,505.14954
"2313",80.78981,505.16284
"2314",80.75807,505.17615
"2315",80.70435,505.18945
"2316",80.6067,505.20276
"2317",80.45533,505.21606
"2318",80.25269,505.22937
"2319",80.008545,505.24268
"2320",79.73754,505.25598
"2321",79.45922,505.2693
"2322",79.185776,505.2826
"2323",78.922104,505.2959
"2324",78.66819,505.3092
"2325",78.42893,505.3225
"2326",78.2092,505.33582
"2327",78.00412,505.34912
"2328",77.823456,505.36243
"2329",77.65743,505.37573
"2330",77.503624,505.38904
"2331",77.36202,505.40234
"2332",77.23506,505.41565
"2333",77.120316,505.42896
"2334",77.0251,505.44226
"2335",76.944534,505.45557
"2336",76.876175,505.46887
"2337",76.8127,505.48218
"2338",76.749214,505.49548
"2339",76.67353,505.5088
"2340",76.59052,505.5221
"2341",76.49287,505.5354
"2342",76.385445,505.5487
"2343",76.29267,505.562
"2344",76.23895,505.57532
"2345",76.30244,505.58862
"2346",76.59785,505.60193
"2347",77.22041,505.61523
"2348",78.20187,505.62854
"2349",79.4641,505.64185
"2350",80.83864,505.65515
"2351",82.10574,505.66846
"2352",83.07988,505.68176
"2353",83.665825,505.69507
"2354",83.87579,505.70837
"2355",83.7879,505.72168
"2356",83.50225,505.735
"2357",83.09941,505.7483
"2358",82.650185,505.7616
"2359",82.20096,505.7749
"2360",81.78348,505.7882
"2361",81.40261,505.8015
"2362",81.058365,505.81482
"2363",80.7483,505.82812
"2364",80.4773,505.84143
"2365",80.26002,505.85474
"2366",80.12085,505.86804
"2367",80.06714,505.88135
"2368",80.093994,505.89465
"2369",80.177,505.90796
"2370",80.28199,505.92126
"2371",80.36988,505.93457
"2372",80.41627,505.94788
"2373",80.4065,505.96118
"2374",80.32838,505.9745
"2375",80.18677,505.9878
"2376",79.991455,506.0011
"2377",79.766846,506.0144
"2378",79.53002,506.0277
"2379",79.29809,506.04102
"2380",79.080795,506.05432
"2381",78.88548,506.06763
"2382",78.71458,506.08093
"2383",78.572975,506.09424
"2384",78.46311,506.10754
"2385",78.38987,506.12085
"2386",78.35081,506.13416
"2387",78.3386,506.14746
"2388",78.34348,506.16077
"2389",78.35081,506.17407
"2390",78.35569,506.18738
"2391",78.35081,506.20068
"2392",78.33372,506.214
"2393",78.3093,506.2273
"2394",78.28001,506.2406
"2395",78.24582,506.2539
"2396",78.21408,506.2672
"2397",78.2092,506.28052
"2398",78.314186,506.29382
"2399",78.63157,506.30713
"2400",79.2517,506.32043
"2401",80.198975,506.33374
"2402",81.392845,506.34705
"2403",82.6746,506.36035
"2404",83.84161,506.37366
"2405",84.73029,506.38696
"2406",85.25033,506.40027
"2407",85.4139,506.41357
"2408",85.29916,506.42688
"2409",84.98909,506.4402
"2410",84.56672,506.4535
"2411",84.102844,506.4668
"2412",83.63409,506.4801
"2413",83.18242,506.4934
"2414",82.75517,506.5067
"2415",82.35966,506.52002
"2416",82.003204,506.53333
"2417",81.70046,506.54663
"2418",81.46609,506.55994
"2419",81.31472,506.57324
"2420",81.23903,506.58655
"2421",81.22438,506.59985
"2422",81.234146,506.61316
"2423",81.23903,506.62646
"2424",81.20241,506.63977
"2425",81.10475,506.65308
"2426",80.936295,506.66638
"2427",80.706795,506.6797
"2428",80.428474,506.693
"2429",80.11841,506.7063
"2430",79.798584,506.7196
"2431",79.48119,506.7329
"2432",79.183334,506.74622
"2433",78.91478,506.75952
"2434",78.67307,506.77283
"2435",78.46555,506.78613
"2436",78.28977,506.79944
"2437",78.14328,506.81274
"2438",78.02121,506.82605
"2439",77.92355,506.83936
"2440",77.84543,506.85266
"2441",77.77463,506.86597
"2442",77.70382,506.87927
"2443",77.62081,506.89258
"2444",77.5256,506.90588
"2445",77.41329,506.9192
"2446",77.28878,506.9325
"2447",77.15694,506.9458
"2448",77.02754,506.9591
"2449",76.93233,506.9724
"2450",76.944534,506.98572
"2451",77.171585,506.99902
"2452",77.72091,507.01233
"2453",78.63157,507.02563
"2454",79.84253,507.03894
"2455",81.1902,507.05225
"2456",82.46464,507.06555
"2457",83.475395,507.07886
"2458",84.10773,507.09216
"2459",84.36408,507.10547
"2460",84.31037,507.11877
"2461",84.04425,507.13208
"2462",83.6585,507.1454
"2463",83.226364,507.1587
"2464",82.80156,507.172
"2465",82.41093,507.1853
"2466",82.05936,507.1986
"2467",81.74197,507.2119
"2468",81.45144,507.22522
"2469",81.18288,507.23853
"2470",80.94362,507.25183
"2471",80.75075,507.26514
"2472",80.61646,507.27844
"2473",80.54078,507.29175
"2474",80.50416,507.30505
"2475",80.48951,507.31836
"2476",80.46754,507.33167
"2477",80.411385,507.34497
"2478",80.308846,507.35828
"2479",80.164795,507.37158
"2480",79.98413,507.3849
"2481",79.77417,507.3982
"2482",79.554436,507.4115
"2483",79.32983,507.4248
"2484",79.10765,507.4381
"2485",78.88304,507.45142
"2486",78.67307,507.46472
"2487",78.48997,507.47803
"2488",78.34104,507.49133
"2489",78.22385,507.50464
"2490",78.14084,507.51794
"2491",78.07736,507.53125
"2492",78.02365,507.54456
"2493",77.96994,507.55786
"2494",77.91623,507.57117
"2495",77.86496,507.58447
"2496",77.81125,507.59778
"2497",77.752655,507.61108
"2498",77.68673,507.6244
"2499",77.61349,507.6377
"2500",77.53292,507.651
"2501",77.467,507.6643
"2502",77.45968,507.6776
"2503",77.61349,507.69092
"2504",78.03342,507.70422
"2505",78.785385,507.71753
"2506",79.84497,507.73083
"2507",81.092545,507.74414
"2508",82.34257,507.75745
"2509",83.39239,507.77075
"2510",84.105286,507.78406
"2511",84.43,507.79736
"2512",84.41535,507.81067
"2513",84.14679,507.82397
"2514",83.719536,507.83728
"2515",83.21904,507.8506
"2516",82.71366,507.8639
"2517",82.2327,507.8772
"2518",81.7908,507.8905
"2519",81.375755,507.9038
"2520",80.98268,507.9171
"2521",80.618904,507.93042
"2522",80.30152,507.94373
"2523",80.045166,507.95703
"2524",79.86694,507.97034
"2525",79.77173,507.98364
"2526",79.73754,507.99695
"2527",79.73266,508.01025
"2528",79.71557,508.02356
"2529",79.64477,508.03687
"2530",79.50317,508.05017
"2531",79.273674,508.06348
"2532",78.96117,508.07678
"2533",78.5803,508.0901
"2534",78.150604,508.1034
"2535",77.69894,508.1167
"2536",77.24727,508.13
"2537",76.83711,508.1433
"2538",76.524605,508.15662
"2539",76.33906,508.16992
"2540",76.263374,508.18323
"2541",76.25605,508.19653
"2542",76.27314,508.20984
"2543",76.26826,508.22314
"2544",76.21454,508.23645
"2545",76.12909,508.24976
"2546",76.0412,508.26306
"2547",75.9704,508.27637
"2548",75.914246,508.28967
"2549",75.877625,508.30298
"2550",75.85321,508.31628
"2551",75.83612,508.3296
"2552",75.82391,508.3429
"2553",75.81415,508.3562
"2554",75.809265,508.3695
"2555",75.80682,508.3828
"2556",75.8288,508.39612
"2557",75.945984,508.40942
"2558",76.2707,508.42273
"2559",76.927444,508.43604
"2560",77.98459,508.44934
"2561",79.38354,508.46265
"2562",80.96559,508.47595
"2563",82.49882,508.48926
"2564",83.74883,508.50256
"2565",84.56916,508.51587
"2566",84.93782,508.52917
"2567",84.9305,508.54248
"2568",84.64973,508.5558
"2569",84.20538,508.5691
"2570",83.69268,508.5824
"2571",83.177536,508.5957
"2572",82.68925,508.609
"2573",82.24246,508.6223
"2574",81.846954,508.63562
"2575",81.495384,508.64893
"2576",81.197525,508.66223
"2577",80.970474,508.67554
"2578",80.81911,508.68884
"2579",80.74586,508.70215
"2580",80.726326,508.71545
"2581",80.73609,508.72876
"2582",80.73609,508.74207
"2583",80.709236,508.75537
"2584",80.63111,508.76868
"2585",80.50172,508.78198
"2586",80.32105,508.7953
"2587",80.09888,508.8086
"2588",79.84009,508.8219
"2589",79.55688,508.8352
"2590",79.259026,508.8485
"2591",78.96117,508.86182
"2592",78.68772,508.87512
"2593",78.44358,508.88843
"2594",78.24094,508.90173
"2595",78.0798,508.91504
"2596",77.95041,508.92834
"2597",77.855194,508.94165
"2598",77.786835,508.95496
"2599",77.74532,508.96826
"2600",77.72091,508.98157
"2601",77.71114,508.99487
"2602",77.71847,509.00818
"2603",77.72823,509.02148
"2604",77.733116,509.0348
"2605",77.730675,509.0481
"2606",77.71847,509.0614
"2607",77.68673,509.0747
"2608",77.63546,509.088
"2609",77.56954,509.10132
"2610",77.503624,509.11462
"2611",77.44991,509.12793
"2612",77.46212,509.14124
"2613",77.64767,509.15454
"2614",78.14572,509.16785
"2615",79.03441,509.18115
"2616",80.291756,509.19446
"2617",81.77371,509.20776
"2618",83.24834,509.22107
"2619",84.46906,509.23438
"2620",85.2723,509.24768
"2621",85.61166,509.261
"2622",85.55062,509.2743
"2623",85.20393,509.2876
"2624",84.681465,509.3009
"2625",84.08087,509.3142
"2626",83.47295,509.3275
"2627",82.899216,509.34082
"2628",82.374306,509.35413
"2629",81.92264,509.36743
"2630",81.54665,509.38074
"2631",81.25857,509.39404
"2632",81.07057,509.40735
"2633",80.990005,509.42065
"2634",81.007095,509.43396
"2635",81.0901,509.44727
"2636",81.19508,509.46057
"2637",81.28054,509.47388
"2638",81.304955,509.48718
"2639",81.24391,509.5005
"2640",81.09987,509.5138
"2641",80.885025,509.5271
"2642",80.61158,509.5404
"2643",80.30152,509.5537
"2644",79.971924,509.56702
"2645",79.639885,509.58032
"2646",79.32494,509.59363
"2647",79.03929,509.60693
"2648",78.79027,509.62024
"2649",78.58274,509.63354
"2650",78.416725,509.64685
"2651",78.28489,509.66016
"2652",78.17258,509.67346
"2653",78.07736,509.68677
"2654",77.99924,509.70007
"2655",77.92844,509.71338
"2656",77.86496,509.72668
"2657",77.80148,509.74
"2658",77.73556,509.7533
"2659",77.66476,509.7666
"2660",77.591515,509.7799
"2661",77.523155,509.7932
"2662",77.49386,509.80652
"2663",77.58419,509.81982
"2664",77.91379,509.83313
"2665",78.572975,509.84644
"2666",79.58129,509.85974
"2667",80.84352,509.87305
"2668",82.1741,509.88635
"2669",83.35088,509.89966
"2670",84.19318,509.91296
"2671",84.62043,509.92627
"2672",84.65949,509.93958
"2673",84.4007,509.95288
"2674",83.95148,509.9662
"2675",83.39727,509.9795
"2676",82.81865,509.9928
"2677",82.25468,510.0061
"2678",81.7322,510.0194
"2679",81.26833,510.0327
"2680",80.88014,510.04602
"2681",80.587166,510.05933
"2682",80.39918,510.07263
"2683",80.32105,510.08594
"2684",80.35279,510.09924
"2685",80.462654,510.11255
"2686",80.604256,510.12585
"2687",80.72877,510.13916
"2688",80.797134,510.15247
"2689",80.78737,510.16577
"2690",80.69215,510.17908
"2691",80.52369,510.19238
"2692",80.30396,510.2057
"2693",80.05493,510.219
"2694",79.7937,510.2323
"2695",79.54467,510.2456
"2696",79.31274,510.2589
"2697",79.10765,510.27222
"2698",78.93431,510.28552
"2699",78.79759,510.29883
"2700",78.68772,510.31213
"2701",78.6096,510.32544
"2702",78.555885,510.33875
"2703",78.51438,510.35205
"2704",78.47532,510.36536
"2705",78.43137,510.37866
"2706",78.37522,510.39197
"2707",78.3093,510.40527
"2708",78.23605,510.41858
"2709",78.170135,510.4319
"2710",78.13107,510.4452
"2711",78.1799,510.4585
"2712",78.41428,510.4718
"2713",78.93675,510.4851
"2714",79.77905,510.4984
"2715",80.88258,510.51172
"2716",82.09354,510.52502
"2717",83.20683,510.53833
"2718",84.034485,510.55164
"2719",84.46662,510.56494
"2720",84.508125,510.57825
"2721",84.2298,510.59155
"2722",83.734184,510.60486
"2723",83.1165,510.61816
"2724",82.459755,510.63147
"2725",81.81766,510.64478
"2726",81.22926,510.65808
"2727",80.706795,510.6714
"2728",80.26978,510.6847
"2729",79.9353,510.698
"2730",79.71313,510.7113
"2731",79.62035,510.7246
"2732",79.64965,510.7379
"2733",79.77417,510.75122
"2734",79.94995,510.76453
"2735",80.11841,510.77783
"2736",80.235596,510.79114
"2737",80.27955,510.80444
"2738",80.24048,510.81775
"2739",80.11841,510.83105
"2740",79.9353,510.84436
"2741",79.71557,510.85767
"2742",79.47387,510.87097
"2743",79.22728,510.88428
"2744",79.00267,510.89758
"2745",78.80736,510.9109
"2746",78.641335,510.9242
"2747",78.51438,510.9375
"2748",78.416725,510.9508
"2749",78.35081,510.9641
"2750",78.31907,510.97742
"2751",78.31663,510.99072
"2752",78.331276,511.00403
"2753",78.363014,511.01733
"2754",78.40208,511.03064
"2755",78.45335,511.04395
"2756",78.51438,511.05725
"2757",78.58762,511.07056
"2758",78.675514,511.08386
"2759",78.79027,511.09717
"2760",78.992905,511.11047
"2761",79.398186,511.12378
"2762",80.10132,511.1371
"2763",81.13161,511.1504
"2764",82.41581,511.1637
"2765",83.79523,511.177
"2766",85.05989,511.1903
"2767",86.01938,511.2036
"2768",86.57603,511.21692
"2769",86.73716,511.23022
"2770",86.5687,511.24353
"2771",86.16098,511.25684
"2772",85.60189,511.27014
"2773",84.97444,511.28345
"2774",84.32746,511.29675
"2775",83.700005,511.31006
"2776",83.10918,511.32336
"2777",82.57694,511.33667
"2778",82.11795,511.34998
"2779",81.74685,511.36328
"2780",81.46853,511.3766
"2781",81.28298,511.3899
"2782",81.17067,511.4032
"2783",81.092545,511.4165
"2784",81.01198,511.4298
"2785",80.902115,511.4431
"2786",80.73609,511.45642
"2787",80.51148,511.46973
"2788",80.22827,511.48303
"2789",79.89624,511.49634
"2790",79.52758,511.50964
"2791",79.13451,511.52295
"2792",78.73899,511.53625
"2793",78.365456,511.54956
"2794",78.02609,511.56287
"2795",77.72335,511.57617
"2796",77.44747,511.58948
"2797",77.18379,511.60278
"2798",76.91524,511.6161
"2799",76.63935,511.6294
"2800",76.36347,511.6427
"2801",76.10712,511.656
"2802",75.88251,511.6693
"2803",75.699394,511.68262
"2804",75.560234,511.69592
"2805",75.46014,511.70923
"2806",75.39422,511.72253
"2807",75.34783,511.73584
"2808",75.32098,511.74915
"2809",75.3283,511.76245
"2810",75.403984,511.77576
"2811",75.63592,511.78906
"2812",76.1413,511.80237
"2813",77.00313,511.81567
"2814",78.19455,511.82898
"2815",79.60082,511.8423
"2816",81.0193,511.8556
"2817",82.21805,511.8689
"2818",83.02617,511.8822
"2819",83.389946,511.8955
"2820",83.36065,511.9088
"2821",83.04326,511.92212
"2822",82.55253,511.93542
"2823",81.98123,511.94873
"2824",81.40017,511.96204
"2825",80.848404,511.97534
"2826",80.34547,511.98865
"2827",79.90112,512.00195
"2828",79.5227,512.01526
"2829",79.23216,512.02856
"2830",79.044174,512.0419
"2831",78.96361,512.0552
"2832",78.98314,512.0685
"2833",79.08324,512.0818
"2834",79.217514,512.0951
"2835",79.344475,512.1084
"2836",79.42748,512.1217
"2837",79.449455,512.135
"2838",79.395744,512.1483
"2839",79.273674,512.1616
"2840",79.093,512.1749
"2841",78.86839,512.18823
"2842",78.6218,512.20154
"2843",78.365456,512.21484
"2844",78.11154,512.22815
"2845",77.874725,512.24146
"2846",77.6672,512.25476
"2847",77.49874,512.26807
"2848",77.36935,512.2814
"2849",77.2839,512.2947
"2850",77.2375,512.308
"2851",77.21797,512.3213
"2852",77.208206,512.3346
"2853",77.21065,512.3479
"2854",77.21065,512.3612
"2855",77.19844,512.3745
"2856",77.17647,512.3878
"2857",77.14473,512.4011
"2858",77.11299,512.4144
"2859",77.120316,512.42773
"2860",77.264366,512.44104
"2861",77.66964,512.45435
"2862",78.41917,512.46765
"2863",79.50317,512.48096
"2864",80.81178,512.49426
"2865",82.142365,512.50757
"2866",83.265434,512.5209
"2867",84.01984,512.5342
"2868",84.34211,512.5475
"2869",84.27619,512.5608
"2870",83.92706,512.5741
"2871",83.39727,512.5874
"2872",82.78935,512.6007
"2873",82.16434,512.614
"2874",81.57351,512.6273
"2875",81.03883,512.6406
"2876",80.584724,512.65393
"2877",80.23071,512.66724
"2878",79.99634,512.68054
"2879",79.89868,512.69385
"2880",79.937744,512.70715
"2881",80.096436,512.72046
"2882",80.33082,512.73376
"2883",80.57984,512.7471
"2884",80.79469,512.7604
"2885",80.92897,512.7737
"2886",80.95827,512.787
"2887",80.88258,512.8003
"2888",80.719,512.8136
"2889",80.49439,512.8269
"2890",80.23071,512.8402
"2891",79.95239,512.8535
"2892",79.68139,512.8668
"2893",79.43481,512.8801
"2894",79.21263,512.89343
"2895",79.02464,512.90674
"2896",78.86839,512.92004
"2897",78.74387,512.93335
"2898",78.643776,512.94666
"2899",78.56321,512.95996
"2900",78.49973,512.97327
"2901",78.44358,512.9866
"2902",78.38499,512.9999
"2903",78.32395,513.0132
"2904",78.28001,513.0265
"2905",78.29954,513.0398
"2906",78.47776,513.0531
"2907",78.924545,513.0664
"2908",79.70336,513.0797
"2909",80.782486,513.093
"2910",82.02762,513.1063
"2911",83.24834,513.1196
"2912",84.23956,513.13293
"2913",84.86458,513.14624
"2914",85.084305,513.15955
"2915",84.95491,513.17285
"2916",84.56428,513.18616
"2917",84.01984,513.19946
"2918",83.407036,513.21277
"2919",82.79912,513.2261
"2920",82.2327,513.2394
"2921",81.72976,513.2527
"2922",81.29519,513.266
"2923",80.92897,513.2793
"2924",80.63355,513.2926
"2925",80.42359,513.3059
"2926",80.31129,513.3192
"2927",80.29664,513.3325
"2928",80.360115,513.3458
"2929",80.46998,513.35913
"2930",80.58228,513.37244
"2931",80.65064,513.38574
"2932",80.65308,513.39905
"2933",80.57252,513.41235
"2934",80.413826,513.42566
"2935",80.19409,513.43896
"2936",79.92798,513.4523
"2937",79.64477,513.4656
"2938",79.364006,513.4789
"2939",79.097885,513.4922
"2940",78.85863,513.5055
"2941",78.64866,513.5188
"2942",78.47776,513.5321
"2943",78.3386,513.5454
"2944",78.22385,513.5587
"2945",78.12375,513.572
"2946",78.03586,513.5853
"2947",77.95285,513.59863
"2948",77.87961,513.61194
"2949",77.82834,513.62524
"2950",77.840546,513.63855
"2951",77.99924,513.65186
"2952",78.4094,513.66516
"2953",79.14671,513.67847
"2954",80.19653,513.6918
"2955",81.446556,513.7051
"2956",82.7161,513.7184
"2957",83.792786,513.7317
"2958",84.52033,513.745
"2959",84.84749,513.7583
"2960",84.81575,513.7716
"2961",84.51789,513.7849
"2962",84.06134,513.7982
"2963",83.54131,513.8115
"2964",83.03349,513.8248
"2965",82.579384,513.83813
"2966",82.18875,513.85144
"2967",81.849396,513.86475
"2968",81.54177,513.87805
"2969",81.26101,513.89136
"2970",81.00954,513.90466
"2971",80.799576,513.91797
"2972",80.64576,513.9313
"2973",80.55543,513.9446
"2974",80.50904,513.9579
"2975",80.479744,513.9712
"2976",80.44068,513.9845
"2977",80.36744,513.9978
"2978",80.2478,514.0111
"2979",80.07446,514.0244
"2980",79.852295,514.0377
"2981",79.60082,514.051
"2982",79.33715,514.06433
"2983",79.078354,514.07764
"2984",78.84154,514.09094
"2985",78.63157,514.10425
"2986",78.450905,514.11755
"2987",78.30686,514.13086
"2988",78.19699,514.14417
"2989",78.116425,514.1575
"2990",78.06027,514.1708
"2991",78.01877,514.1841
"2992",77.979706,514.1974
"2993",77.9382,514.2107
"2994",77.88937,514.224
"2995",77.83566,514.2373
"2996",77.78439,514.2506
"2997",77.75998,514.2639
"2998",77.840546,514.2772
"2999",78.133514,514.2905
"3000",78.73899,514.30383
"3001",79.68139,514.31714
"3002",80.885025,514.33044
"3003",82.178986,514.34375
"3004",83.346,514.35706
"3005",84.20294,514.37036
"3006",84.65705,514.38367
"3007",84.735176,514.397
"3008",84.54475,514.4103
"3009",84.19806,514.4236
"3010",83.792786,514.4369
"3011",83.40215,514.4502
"3012",83.06035,514.4635
"3013",82.757614,514.4768
"3014",82.4744,514.4901
"3015",82.19852,514.5034
"3016",81.917755,514.5167
"3017",81.634544,514.53
"3018",81.36843,514.54333
"3019",81.14137,514.55664
"3020",80.96315,514.56995
"3021",80.83864,514.58325
"3022",80.7483,514.59656
"3023",80.67017,514.60986
"3024",80.584724,514.62317
"3025",80.46998,514.6365
"3026",80.31617,514.6498
"3027",80.11841,514.6631
"3028",79.88403,514.6764
"3029",79.62524,514.6897
"3030",79.35912,514.703
"3031",79.097885,514.7163
"3032",78.856186,514.7296
"3033",78.63401,514.7429
"3034",78.43626,514.7562
"3035",78.260475,514.76953
"3036",78.10422,514.78284
"3037",77.97238,514.79614
"3038",77.86496,514.80945
"3039",77.77951,514.82275
"3040",77.7087,514.83606
"3041",77.659874,514.84937
"3042",77.625694,514.8627
"3043",77.60128,514.876
"3044",77.57931,514.8893
"3045",77.55978,514.9026
"3046",77.540245,514.9159
"3047",77.51583,514.9292
"3048",77.49386,514.9425
"3049",77.469444,514.9558
"3050",77.437706,514.9691
"3051",77.3962,514.9824
"3052",77.34249,514.9957
"3053",77.281456,515.00903
"3054",77.22041,515.02234
"3055",77.19844,515.03564
"3056",77.296104,515.04895
"3057",77.64034,515.06226
"3058",78.35325,515.07556
"3059",79.46899,515.08887
"3060",80.88747,515.1022
"3061",82.423134,515.1155
"3062",83.81964,515.1288
"3063",84.857254,515.1421
"3064",85.42855,515.1554
"3065",85.557945,515.1687
"3066",85.35775,515.182
"3067",84.96712,515.1953
"3068",84.505684,515.2086
"3069",84.071106,515.2219
"3070",83.71465,515.2352
"3071",83.44366,515.24854
"3072",83.22148,515.26184
"3073",83.001755,515.27515
"3074",82.75273,515.28845
"3075",82.45731,515.30176
"3076",82.12283,515.31506
"3077",81.78104,515.32837
"3078",81.46853,515.3417
"3079",81.21706,515.355
"3080",81.02663,515.3683
"3081",80.88991,515.3816
"3082",80.782486,515.3949
"3083",80.6775,515.4082
"3084",80.54566,515.4215
"3085",80.36744,515.4348
"3086",80.14038,515.4481
"3087",79.88159,515.4614
"3088",79.60815,515.47473
"3089",79.34203,515.48804
"3090",79.09544,515.50134
"3091",78.87572,515.51465
"3092",78.677956,515.52795
"3093",78.504616,515.54126
"3094",78.348366,515.55457
"3095",78.20676,515.5679
"3096",78.082245,515.5812
"3097",77.977264,515.5945
"3098",77.88693,515.6078
"3099",77.806366,515.6211
"3100",77.73556,515.6344
"3101",77.67208,515.6477
"3102",77.611046,515.661
"3103",77.55245,515.6743
"3104",77.49874,515.6876
"3105",77.44259,515.7009
"3106",77.38155,515.71423
"3107",77.3254,515.72754
"3108",77.26681,515.74084
"3109",77.21553,515.75415
"3110",77.171585,515.76746
"3111",77.14229,515.78076
"3112",77.1252,515.79407
"3113",77.120316,515.8074
"3114",77.117874,515.8207
"3115",77.11055,515.834
"3116",77.08858,515.8473
"3117",77.04707,515.8606
"3118",76.99336,515.8739
"3119",76.93477,515.8872
"3120",76.89815,515.9005
"3121",76.93721,515.9138
"3122",77.171585,515.9271
"3123",77.73556,515.9404
"3124",78.71458,515.95374
"3125",80.076904,515.96704
"3126",81.67849,515.98035
"3127",83.27764,515.99365
"3128",84.613106,516.00696
"3129",85.504234,516.02026
"3130",85.90463,516.03357
"3131",85.88754,516.0469
"3132",85.57748,516.0602
"3133",85.11116,516.0735
"3134",84.60578,516.0868
"3135",84.139465,516.1001
"3136",83.75372,516.1134
"3137",83.45098,516.1267
"3138",83.209274,516.14
"3139",82.98955,516.1533
"3140",82.75029,516.1666
"3141",82.4744,516.17993
"3142",82.17166,516.19324
"3143",81.866486,516.20654
"3144",81.59548,516.21985
"3145",81.38064,516.23315
"3146",81.22926,516.24646
"3147",81.11452,516.25977
"3148",80.99977,516.2731
"3149",80.867935,516.2864
"3150",80.69215,516.2997
"3151",80.462654,516.313
"3152",80.18921,516.3263
"3153",79.88403,516.3396
"3154",79.56664,516.3529
"3155",79.24925,516.3662
"3156",78.95384,516.3795
"3157",78.68772,516.3928
"3158",78.45823,516.4061
"3159",78.26536,516.41943
"3160",78.1091,516.43274
"3161",77.98947,516.44604
"3162",77.90402,516.45935
"3163",77.85031,516.47266
"3164",77.81857,516.48596
"3165",77.806366,516.49927
"3166",77.81613,516.5126
"3167",77.85031,516.5259
"3168",77.90646,516.5392
"3169",77.97482,516.5525
"3170",78.03586,516.5658
"3171",78.07736,516.5791
"3172",78.082245,516.5924
"3173",78.05539,516.6057
"3174",78.00412,516.619
"3175",77.94797,516.6323
"3176",77.90158,516.6456
"3177",77.86984,516.65894
"3178",77.84787,516.67224
"3179",77.82834,516.68555
"3180",77.81125,516.69885
"3181",77.7966,516.71216
"3182",77.78195,516.72546
"3183",77.77219,516.7388
"3184",77.76242,516.7521
"3185",77.75754,516.7654
"3186",77.76242,516.7787
"3187",77.838104,516.792
"3188",78.09445,516.8053
"3189",78.66331,516.8186
"3190",79.63012,516.8319
"3191",80.97536,516.8452
"3192",82.55009,516.8585
"3193",84.12482,516.8718
"3194",85.44808,516.88513
"3195",86.348976,516.89844
"3196",86.78111,516.91174
"3197",86.80797,516.92505
"3198",86.55161,516.93835
"3199",86.13168,516.95166
"3200",85.660484,516.96497
"3201",85.2137,516.9783
"3202",84.842606,516.9916
"3203",84.54963,517.0049
"3204",84.31281,517.0182
"3205",84.09064,517.0315
"3206",83.85138,517.0448
"3207",83.57305,517.0581
"3208",83.27276,517.0714
"3209",82.967575,517.0847
"3210",82.69169,517.098
"3211",82.45243,517.1113
"3212",82.252235,517.12463
"3213",82.07156,517.13794
"3214",81.900665,517.15125
"3215",81.71755,517.16455
"3216",81.51736,517.17786
"3217",81.29275,517.19116
"3218",81.03883,517.20447
"3219",80.765396,517.2178
"3220",80.47486,517.2311
"3221",80.17944,517.2444
"3222",79.888916,517.2577
"3223",79.61303,517.271
"3224",79.361565,517.2843
"3225",79.13695,517.2976
"3226",78.941635,517.3109
"3227",78.77318,517.3242
"3228",78.63157,517.3375
"3229",78.5095,517.3508
"3230",78.40452,517.36414
"3231",78.3093,517.37744
"3232",78.21652,517.39075
"3233",78.12619,517.40405
"3234",78.03342,517.41736
"3235",77.9382,517.43066
"3236",77.838104,517.444
"3237",77.72823,517.4573
"3238",77.608604,517.4706
"3239",77.48165,517.4839
"3240",77.34249,517.4972
"3241",77.20088,517.5105
"3242",77.0544,517.5238
"3243",76.912796,517.5371
"3244",76.773636,517.5504
"3245",76.64423,517.5637
"3246",76.51728,517.577
"3247",76.404976,517.59033
"3248",76.30244,517.60364
"3249",76.2121,517.61694
"3250",76.13641,517.63025
"3251",76.070496,517.64355
"3252",76.019226,517.65686
"3253",75.97528,517.67017
"3254",75.9411,517.6835
"3255",75.948425,517.6968
"3256",76.07294,517.7101
"3257",76.439156,517.7234
"3258",77.17647,517.7367
"3259",78.328835,517.75
"3260",79.83032,517.7633
"3261",81.50027,517.7766
"3262",83.09453,517.7899
"3263",84.37873,517.8032
"3264",85.21126,517.8165
"3265",85.57992,517.82983
"3266",85.56527,517.84314
"3267",85.28695,517.85645
"3268",84.86458,517.86975
"3269",84.403145,517.88306
"3270",83.98566,517.89636
"3271",83.64385,517.90967
"3272",83.38262,517.923
"3273",83.175095,517.9363
"3274",82.9749,517.9496
"3275",82.74784,517.9629
"3276",82.48661,517.9762
"3277",82.19852,517.9895
"3278",81.91043,518.0028
"3279",81.654076,518.0161
"3280",81.449,518.0294
"3281",81.30251,518.0427
"3282",81.1902,518.056
"3283",81.094986,518.06934
"3284",80.990005,518.08264
"3285",80.850845,518.09595
"3286",80.67017,518.10925
"3287",80.448006,518.12256
"3288",80.18921,518.13586
"3289",79.91089,518.1492
"3290",79.62524,518.1625
"3291",79.34203,518.1758
"3292",79.07591,518.1891
"3293",78.83421,518.2024
"3294",78.61936,518.2157
"3295",78.42893,518.229
"3296",78.26536,518.2423
"3297",78.116425,518.2556
"3298",77.98459,518.2689
"3299",77.8674,518.2822
"3300",77.75754,518.29553
"3301",77.65743,518.30884
"3302",77.56222,518.32214
"3303",77.469444,518.33545
"3304",77.37423,518.34875
"3305",77.2839,518.36206
"3306",77.19356,518.37537
"3307",77.10567,518.3887
"3308",77.02022,518.402
"3309",76.93721,518.4153
"3310",76.8542,518.4286
"3311",76.77608,518.4419
"3312",76.71259,518.4552
"3313",76.66132,518.4685
"3314",76.627144,518.4818
"3315",76.612495,518.4951
"3316",76.612495,518.5084
"3317",76.62226,518.5217
"3318",76.63935,518.53503
"3319",76.654,518.54834
"3320",76.66865,518.56165
"3321",76.67109,518.57495
"3322",76.65888,518.58826
"3323",76.627144,518.60156
"3324",76.592964,518.61487
"3325",76.58076,518.6282
"3326",76.663765,518.6415
"3327",76.96895,518.6548
"3328",77.6379,518.6681
"3329",78.74876,518.6814
"3330",80.2478,518.6947
"3331",81.9617,518.708
"3332",83.64141,518.7213
"3333",85.02815,518.7346
"3334",85.95346,518.7479
"3335",86.39048,518.7612
"3336",86.41245,518.77454
"3337",86.136566,518.78784
"3338",85.68978,518.80115
"3339",85.17708,518.81445
"3340",84.681465,518.82776
"3341",84.25178,518.84106
"3342",83.90753,518.8544
"3343",83.63653,518.8677
"3344",83.40215,518.881
"3345",83.160446,518.8943
"3346",82.89433,518.9076
"3347",82.59647,518.9209
"3348",82.28153,518.9342
"3349",81.98123,518.9475
"3350",81.722435,518.9608
"3351",81.50759,518.9741
"3352",81.32937,518.9874
"3353",81.17067,519.00073
"3354",81.004654,519.01404
"3355",80.814224,519.02734
"3356",80.584724,519.04065
"3357",80.323494,519.05396
"3358",80.03296,519.06726
"3359",79.72289,519.08057
"3360",79.40551,519.0939
"3361",79.08324,519.1072
"3362",78.768295,519.1205
"3363",78.46555,519.1338
"3364",78.18234,519.1471
"3365",77.92844,519.1604
"3366",77.69894,519.1737
"3367",77.50118,519.187
"3368",77.332726,519.2003
"3369",77.19356,519.2136
"3370",77.07881,519.2269
"3371",76.9836,519.24023
"3372",76.90547,519.25354
"3373",76.83467,519.26685
"3374",76.771194,519.28015
"3375",76.70527,519.29346
"3376",76.64179,519.30676
"3377",76.5832,519.32007
"3378",76.53193,519.3334
"3379",76.48798,519.3467
"3380",76.453804,519.36
"3381",76.42695,519.3733
"3382",76.39765,519.3866
"3383",76.37324,519.3999
"3384",76.34638,519.4132
"3385",76.32929,519.4265
"3386",76.317085,519.4398
"3387",76.30976,519.4531
"3388",76.30244,519.46643
"3389",76.29023,519.47974
"3390",76.2707,519.49304
"3391",76.243835,519.50635
"3392",76.209656,519.51965
"3393",76.173035,519.53296
"3394",76.15106,519.54626
"3395",76.18768,519.5596
"3396",76.39765,519.5729
"3397",76.93233,519.5862
"3398",77.91867,519.5995
"3399",79.361565,519.6128
"3400",81.14137,519.6261
"3401",83.00664,519.6394
"3402",84.664375,519.6527
"3403",85.8851,519.666
"3404",86.56626,519.6793
"3405",86.75426,519.6926
"3406",86.5687,519.70593
"3407",86.14389,519.71924
"3408",85.59945,519.73254
"3409",85.03548,519.74585
"3410",84.51301,519.75916
"3411",84.06134,519.77246
"3412",83.68047,519.78577
"3413",83.353325,519.7991
"3414",83.0457,519.8124
"3415",82.73319,519.8257
"3416",82.406044,519.839
"3417",82.07889,519.8523
"3418",81.76883,519.8656
"3419",81.48562,519.8789
"3420",81.24391,519.8922
"3421",81.041275,519.9055
"3422",80.86549,519.9188
"3423",80.69947,519.9321
"3424",80.52613,519.94543
"3425",80.3357,519.95874
"3426",80.12329,519.97205
"3427",79.87915,519.98535
"3428",79.61303,519.99866
"3429",79.33471,520.01196
"3430",79.04906,520.02527
"3431",78.768295,520.0386
"3432",78.50706,520.0519
"3433",78.27512,520.0652
"3434",78.0798,520.0785
"3435",77.925995,520.0918
"3436",77.80881,520.1051
"3437",77.72579,520.1184
"3438",77.6672,520.1317
"3439",77.61837,520.145
"3440",77.57931,520.1583
"3441",77.540245,520.17163
"3442",77.50118,520.18494
"3443",77.46456,520.19824
"3444",77.43282,520.21155
"3445",77.40353,520.22485
"3446",77.37667,520.23816
"3447",77.347374,520.25146
"3448",77.31075,520.2648
"3449",77.26681,520.2781
"3450",77.21797,520.2914
"3451",77.16914,520.3047
"3452",77.12764,520.318
"3453",77.09346,520.3313
"3454",77.07393,520.3446
"3455",77.06416,520.3579
"3456",77.069046,520.3712
"3457",77.08125,520.3845
"3458",77.09834,520.3978
"3459",77.12276,520.41113
"3460",77.14717,520.42444
"3461",77.171585,520.43774
"3462",77.19844,520.45105
"3463",77.25948,520.46436
"3464",77.418175,520.47766
"3465",77.806366,520.49097
"3466",78.5803,520.5043
"3467",79.82788,520.5176
"3468",81.50271,520.5309
"3469",83.421684,520.5442
"3470",85.316246,520.5575
"3471",86.8983,520.5708
"3472",87.97742,520.5841
"3473",88.50965,520.5974
"3474",88.57069,520.6107
"3475",88.29725,520.624
"3476",87.818726,520.6373
"3477",87.25231,520.65063
"3478",86.68101,520.66394
"3479",86.151215,520.67725
"3480",85.67269,520.69055
"3481",85.24788,520.70386
"3482",84.86214,520.71716
"3483",84.49836,520.73047
"3484",84.15167,520.7438
"3485",83.826965,520.7571
"3486",83.53155,520.7704
"3487",83.27764,520.7837
"3488",83.06523,520.797
"3489",82.88701,520.8103
"3490",82.73075,520.8236
"3491",82.57694,520.8369
"3492",82.41093,520.8502
"3493",82.21561,520.8635
"3494",81.98367,520.87683
"3495",81.70046,520.89014
"3496",81.373314,520.90344
"3497",80.99733,520.91675
"3498",80.58961,520.93005
"3499",80.16968,520.94336
"3500",79.75464,520.95667
"3501",79.361565,520.97
"3502",79.00511,520.9833
"3503",78.692604,520.9966
"3504",78.42161,521.0099
"3505",78.18967,521.0232
"3506",77.98215,521.0365
"3507",77.789276,521.0498
"3508",77.60616,521.0631
"3509",77.4255,521.0764
"3510",77.242386,521.0897
"3511",77.06172,521.103
"3512",76.876175,521.11633
"3513",76.6833,521.12964
"3514",76.4831,521.14294
"3515",76.280464,521.15625
"3516",76.0827,521.16956
"3517",75.8996,521.18286
"3518",75.733574,521.19617
"3519",75.59441,521.2095
"3520",75.47967,521.2228
"3521",75.39178,521.2361
"3522",75.335625,521.2494
"3523",75.30877,521.2627
"3524",75.30877,521.276
"3525",75.32586,521.2893
"3526",75.35027,521.3026
"3527",75.36492,521.3159
"3528",75.372246,521.3292
"3529",75.372246,521.3425
"3530",75.372246,521.35583
"3531",75.423515,521.36914
"3532",75.63348,521.38245
"3533",76.15839,521.39575
"3534",77.14717,521.40906
"3535",78.64622,521.42236
"3536",80.552986,521.43567
"3537",82.62333,521.449
"3538",84.53986,521.4623
"3539",86.029144,521.4756
"3540",86.942245,521.4889
"3541",87.28893,521.5022
"3542",87.18883,521.5155
"3543",86.79576,521.5288
"3544",86.24399,521.5421
"3545",85.63607,521.5554
"3546",85.04768,521.5687
"3547",84.51545,521.58203
"3548",84.04913,521.59534
"3549",83.63653,521.60864
"3550",83.26299,521.62195
"3551",82.90166,521.63525
"3552",82.55497,521.64856
"3553",82.230255,521.66187
"3554",81.95438,521.6752
"3555",81.7322,521.6885
"3556",81.56863,521.7018
"3557",81.449,521.7151
"3558",81.35134,521.7284
"3559",81.24635,521.7417
"3560",81.12184,521.755
"3561",80.955826,521.7683
"3562",80.73609,521.7816
"3563",80.465096,521.7949
"3564",80.15015,521.8082
"3565",79.80835,521.82153
"3566",79.4519,521.83484
"3567",79.10521,521.84814
"3568",78.77806,521.86145
"3569",78.485085,521.87476
"3570",78.22629,521.88806
"3571",78.011444,521.90137
"3572",77.84299,521.9147
"3573",77.713585,521.928
"3574",77.62325,521.9413
"3575",77.55489,521.9546
"3576",77.503624,521.9679
"3577",77.45724,521.9812
"3578",77.40353,521.9945
"3579",77.33761,522.0078
"3580",77.26681,522.0211
"3581",77.19112,522.0344
"3582",77.11543,522.0477
"3583",77.04707,522.06104
"3584",76.98848,522.07434
"3585",76.93721,522.08765
"3586",76.893265,522.10095
"3587",76.85176,522.11426
"3588",76.805374,522.12756
"3589",76.754105,522.14087
"3590",76.697945,522.1542
"3591",76.63447,522.1675
"3592",76.56855,522.1808
"3593",76.50263,522.1941
"3594",76.4416,522.2074
"3595",76.39765,522.2207
"3596",76.436714,522.234
"3597",76.68574,522.2473
"3598",77.32052,522.2606
"3599",78.44358,522.2739
"3600",80.042725,522.28723
"3601",81.95438,522.30054
"3602",83.90265,522.31384
"3603",85.57992,522.32715
"3604",86.768906,522.34045
"3605",87.39391,522.35376
"3606",87.518425,522.36707
"3607",87.2694,522.3804
"3608",86.78844,522.3937
"3609",86.19272,522.407
"3610",85.57259,522.4203
"3611",84.99153,522.4336
"3612",84.47639,522.4469
"3613",84.0296,522.4602
"3614",83.631645,522.4735
"3615",83.26055,522.4868
"3616",82.896774,522.5001
"3617",82.54276,522.5134
"3618",82.20828,522.52673
"3619",81.90799,522.54004
"3620",81.65652,522.55334
"3621",81.45632,522.56665
"3622",81.29275,522.57996
"3623",81.143814,522.59326
"3624",80.99733,522.60657
"3625",80.8362,522.6199
"3626",80.64088,522.6332
"3627",80.411385,522.6465
"3628",80.147705,522.6598
"3629",79.8645,522.6731
"3630",79.55932,522.6864
"3631",79.25414,522.6997
"3632",78.95384,522.713
"3633",78.66331,522.7263
"3634",78.38987,522.7396
"3635",78.14328,522.7529
"3636",77.91623,522.76624
"3637",77.71847,522.77954
"3638",77.54757,522.79285
"3639",77.40597,522.80615
"3640",77.28634,522.81946
"3641",77.19112,522.83276
"3642",77.11055,522.84607
"3643",77.04219,522.8594
"3644",76.97627,522.8727
"3645",76.912796,522.886
"3646",76.84688,522.8993
"3647",76.77852,522.9126
"3648",76.70527,522.9259
"3649",76.629585,522.9392
"3650",76.55634,522.9525
"3651",76.48554,522.9658
"3652",76.422066,522.9791
"3653",76.36591,522.99243
"3654",76.314644,523.00574
"3655",76.25605,523.01904
"3656",76.18768,523.03235
"3657",76.104675,523.04565
"3658",76.00702,523.05896
"3659",75.90936,523.07227
"3660",75.841,523.0856
"3661",75.87518,523.0989
"3662",76.15106,523.1122
"3663",76.84688,523.1255
"3664",78.07492,523.1388
"3665",79.79614,523.1521
"3666",81.8201,523.1654
"3667",83.8465,523.1787
"3668",85.54574,523.192
"3669",86.6981,523.2053
"3670",87.24498,523.2186
"3671",87.2694,523.23193
"3672",86.91539,523.24524
"3673",86.329445,523.25854
"3674",85.63851,523.27185
"3675",84.93538,523.28516
"3676",84.27863,523.29846
"3677",83.69756,523.31177
"3678",83.192184,523.3251
"3679",82.7454,523.3384
"3680",82.34257,523.3517
"3681",81.97391,523.365
"3682",81.64675,523.3783
"3683",81.3782,523.3916
"3684",81.17555,523.4049
"3685",81.041275,523.4182
"3686",80.95827,523.4315
"3687",80.89723,523.4448
"3688",80.82887,523.4581
"3689",80.72877,523.47144
"3690",80.57984,523.48474
"3691",80.377205,523.49805
"3692",80.12573,523.51135
"3693",79.835205,523.52466
"3694",79.51537,523.53796
"3695",79.18089,523.5513
"3696",78.84154,523.5646
"3697",78.5095,523.5779
"3698",78.19455,523.5912
"3699",77.90646,523.6045
"3700",77.65499,523.6178
"3701",77.44259,523.6311
"3702",77.264366,523.6444
"3703",77.120316,523.6577
"3704",77.00557,523.671
"3705",76.91524,523.6843
"3706",76.84444,523.69763
"3707",76.79317,523.71094
"3708",76.75899,523.72424
"3709",76.73701,523.73755
"3710",76.717476,523.75085
"3711",76.6955,523.76416
"3712",76.66865,523.77747
"3713",76.63203,523.7908
"3714",76.58808,523.8041
"3715",76.53681,523.8174
"3716",76.48798,523.8307
"3717",76.439156,523.844
"3718",76.39277,523.8573
"3719",76.34638,523.8706
"3720",76.30488,523.8839
"3721",76.263374,523.8972
"3722",76.207214,523.9105
"3723",76.14374,523.9238
"3724",76.06317,523.93713
"3725",75.97284,523.95044
"3726",75.88983,523.96375
"3727",75.90692,523.97705
"3728",76.17792,523.99036
"3729",76.910355,524.00366
"3730",78.23117,524.01697
"3731",80.10132,524.0303
"3732",82.31327,524.0436
"3733",84.5301,524.0569
"3734",86.40269,524.0702
"3735",87.68444,524.0835
"3736",88.31434,524.0968
"3737",88.38026,524.1101
"3738",88.03601,524.1234
"3739",87.4403,524.1367
"3740",86.712746,524.15
"3741",85.943695,524.1633
"3742",85.19905,524.17664
"3743",84.51301,524.18994
"3744",83.89044,524.20325
"3745",83.33379,524.21655
"3746",82.845505,524.22986
"3747",82.4329,524.24316
"3748",82.108185,524.2565
"3749",81.883575,524.2698
"3750",81.761505,524.2831
"3751",81.71755,524.2964
"3752",81.71999,524.3097
"3753",81.72488,524.323
"3754",81.69314,524.3363
"3755",81.59792,524.3496
"3756",81.42947,524.3629
"3757",81.18288,524.3762
"3758",80.87282,524.3895
"3759",80.516365,524.40283
"3760",80.13794,524.41614
"3761",79.74975,524.42944
"3762",79.37377,524.44275
"3763",79.01488,524.45605
"3764",78.68528,524.46936
"3765",78.38743,524.48267
"3766",78.12863,524.496
"3767",77.91379,524.5093
"3768",77.74044,524.5226
"3769",77.593956,524.5359
"3770",77.469444,524.5492
"3771",77.35958,524.5625
"3772",77.264366,524.5758
"3773",77.17647,524.5891
"3774",77.09834,524.6024
"3775",77.03487,524.6157
"3776",76.978714,524.629
"3777",76.927444,524.64233
"3778",76.88106,524.65564
"3779",76.84444,524.66895
"3780",76.807816,524.68225
"3781",76.773636,524.69556
"3782",76.734566,524.70886
"3783",76.68818,524.72217
"3784",76.63691,524.7355
"3785",76.578316,524.7488
"3786",76.50996,524.7621
"3787",76.43427,524.7754
"3788",76.35859,524.7887
"3789",76.31953,524.802
"3790",76.42939,524.8153
"3791",76.859085,524.8286
"3792",77.78195,524.8419
"3793",79.259026,524.8552
"3794",81.18288,524.8685
"3795",83.299614,524.88184
"3796",85.26986,524.89514
"3797",86.79088,524.90845
"3798",87.69665,524.92175
"3799",87.99451,524.93506
"3800",87.80652,524.94836
"3801",87.28649,524.9617
"3802",86.573586,524.975
"3803",85.7728,524.9883
"3804",84.964676,525.0016
"3805",84.190735,525.0149
"3806",83.475395,525.0282
"3807",82.8333,525.0415
"3808",82.27177,525.0548
"3809",81.80545,525.0681
"3810",81.45388,525.0814
"3811",81.23903,525.0947
"3812",81.146255,525.10803
"3813",81.15358,525.12134
"3814",81.22194,525.13464
"3815",81.29275,525.14795
"3816",81.31472,525.16125
"3817",81.26101,525.17456
"3818",81.11696,525.18787
"3819",80.885025,525.2012
"3820",80.57252,525.2145
"3821",80.20386,525.2278
"3822",79.81079,525.2411
"3823",79.412834,525.2544
"3824",79.027084,525.2677
"3825",78.660866,525.281
"3826",78.32395,525.2943
"3827",78.02365,525.3076
"3828",77.752655,525.3209
"3829",77.51827,525.3342
"3830",77.32052,525.34753
"3831",77.152054,525.36084
"3832",77.00557,525.37415
"3833",76.88594,525.38745
"3834",76.78584,525.40076
"3835",76.70283,525.41406
"3836",76.63691,525.42737
"3837",76.58808,525.4407
"3838",76.55146,525.454
"3839",76.52216,525.4673
"3840",76.49775,525.4806
"3841",76.48066,525.4939
"3842",76.46601,525.5072
"3843",76.44648,525.5205
"3844",76.41718,525.5338
"3845",76.36591,525.5471
"3846",76.29511,525.5604
"3847",76.224304,525.5737
"3848",76.21698,525.58704
"3849",76.41718,525.60034
"3850",77.015335,525.61365
"3851",78.14084,525.62695
"3852",79.78882,525.64026
"3853",81.78348,525.65356
"3854",83.82208,525.6669
"3855",85.575035,525.6802
"3856",86.79088,525.6935
"3857",87.38171,525.7068
"3858",87.41833,525.7201
"3859",87.044785,525.7334
"3860",86.41245,525.7467
"3861",85.645836,525.76
"3862",84.83528,525.7733
"3863",84.03204,525.7866
"3864",83.27032,525.7999
"3865",82.56962,525.81323
"3866",81.934845,525.82654
"3867",81.38552,525.83984
"3868",80.94606,525.85315
"3869",80.63111,525.86646
"3870",80.44068,525.87976
"3871",80.360115,525.89307
"3872",80.36256,525.9064
"3873",80.39918,525.9197
"3874",80.43336,525.933
"3875",80.42115,525.9463
"3876",80.34791,525.9596
"3877",80.198975,525.9729
"3878",79.97925,525.9862
"3879",79.70336,525.9995
"3880",79.395744,526.0128
"3881",79.07103,526.0261
"3882",78.746315,526.0394
"3883",78.43137,526.05273
"3884",78.133514,526.06604
"3885",77.86008,526.07935
"3886",77.61837,526.09265
"3887",77.41085,526.10596
"3888",77.23262,526.11926
"3889",77.086136,526.13257
"3890",76.978714,526.1459
"3891",76.90547,526.1592
"3892",76.86885,526.1725
"3893",76.86397,526.1858
"3894",76.89082,526.1991
"3895",76.93721,526.2124
"3896",76.995804,526.2257
"3897",77.06172,526.239
"3898",77.13252,526.2523
"3899",77.196,526.2656
"3900",77.25216,526.27893
"3901",77.30831,526.29224
"3902",77.38155,526.30554
"3903",77.486534,526.31885
"3904",77.65499,526.33215
"3905",77.97482,526.34546
"3906",78.57786,526.35876
"3907",79.56176,526.3721
"3908",80.95094,526.3854
"3909",82.63554,526.3987
"3910",84.39094,526.412
"3911",85.93637,526.4253
"3912",87.03746,526.4386
"3913",87.59655,526.4519
"3914",87.66247,526.4652
"3915",87.3695,526.4785
"3916",86.84703,526.4918
"3917",86.1976,526.5051
"3918",85.48226,526.51843
"3919",84.72785,526.53174
"3920",83.949036,526.54504
"3921",83.17265,526.55835
"3922",82.43046,526.57166
"3923",81.778595,526.58496
"3924",81.270775,526.59827
"3925",80.95094,526.6116
"3926",80.8362,526.6249
"3927",80.90456,526.6382
"3928",81.09743,526.6515
"3929",81.33181,526.6648
"3930",81.532005,526.6781
"3931",81.64919,526.6914
"3932",81.65896,526.7047
"3933",81.566185,526.718
"3934",81.3904,526.7313
"3935",81.13649,526.7446
"3936",80.80934,526.75793
"3937",80.430916,526.77124
"3938",80.01831,526.78455
"3939",79.60082,526.79785
"3940",79.20775,526.81116
"3941",78.86107,526.82446
"3942",78.57786,526.83777
"3943",78.35569,526.8511
"3944",78.19699,526.8644
"3945",78.099335,526.8777
"3946",78.05783,526.891
"3947",78.05539,526.9043
"3948",78.07248,526.9176
"3949",78.08713,526.9309
"3950",78.082245,526.9442
"3951",78.05539,526.9575
"3952",78.011444,526.9708
"3953",77.979706,526.98413
"3954",78.04318,526.99744
"3955",78.314186,527.01074
"3956",78.907455,527.02405
"3957",79.869385,527.03735
"3958",81.146255,527.05066
"3959",82.581825,527.06396
"3960",83.95392,527.0773
"3961",85.05257,527.0906
"3962",85.74349,527.1039
"3963",86.00229,527.1172
"3964",85.88266,527.1305
"3965",85.487144,527.1438
"3966",84.91341,527.1571
"3967",84.25666,527.1704
"3968",83.56573,527.1837
"3969",82.87724,527.197
"3970",82.210724,527.2103
"3971",81.57839,527.22363
"3972",81.00954,527.23694
"3973",80.54322,527.25024
"3974",80.216064,527.26355
"3975",80.04761,527.27686
"3976",80.03784,527.29016
"3977",80.15015,527.30347
"3978",80.34058,527.3168
"3979",80.550545,527.3301
"3980",80.72144,527.3434
"3981",80.80202,527.3567
"3982",80.76784,527.37
"3983",80.618904,527.3833
"3984",80.365,527.3966
"3985",80.042725,527.4099
"3986",79.693596,527.4232
"3987",79.34692,527.4365
"3988",79.0222,527.4498
"3989",78.729225,527.46313
"3990",78.47288,527.47644
"3991",78.24582,527.48975
"3992",78.05295,527.50305
"3993",77.88449,527.51636
"3994",77.74044,527.52966
"3995",77.60616,527.54297
"3996",77.486534,527.5563
"3997",77.383995,527.5696
"3998",77.32784,527.5829
"3999",77.39376,527.5962
"4000",77.70138,527.6095
"4001",78.37034,527.6228
"4002",79.43725,527.6361
"4003",80.84108,527.6494
"4004",82.41337,527.6627
"4005",83.931946,527.676
"4006",85.169754,527.68933
"4007",85.9852,527.70264
"4008",86.348976,527.71594
"4009",86.32212,527.72925
"4010",86.00229,527.74255
"4011",85.50912,527.75586
"4012",84.9427,527.76917
"4013",84.37629,527.7825
"4014",83.84161,527.7958
"4015",83.336235,527.8091
"4016",82.84306,527.8224
"4017",82.36454,527.8357
"4018",81.90799,527.849
"4019",81.50271,527.8623
"4020",81.18532,527.8756
"4021",80.97536,527.8889
"4022",80.86061,527.9022
"4023",80.8069,527.9155
"4024",80.762955,527.92883
"4025",80.68482,527.94214
"4026",80.54566,527.95544
"4027",80.33814,527.96875
"4028",80.07446,527.98206
"4029",79.77661,527.99536
"4030",79.4641,528.00867
"4031",79.151596,528.022
"4032",78.856186,528.0353
"4033",78.58274,528.0486
"4034",78.3386,528.0619
"4035",78.12375,528.0752
"4036",77.93088,528.0885
"4037",77.75998,528.1018
"4038",77.61349,528.1151
"4039",77.48165,528.1284
"4040",77.366905,528.1417
"4041",77.25704,528.155
"4042",77.14229,528.16833
"4043",77.02022,528.18164
"4044",76.89082,528.19495
"4045",76.790726,528.20825
"4046",76.807816,528.22156
"4047",77.086136,528.23486
"4048",77.75754,528.24817
"4049",78.8806,528.2615
"4050",80.396736,528.2748
"4051",82.127716,528.2881
"4052",83.81964,528.3014
"4053",85.22591,528.3147
"4054",86.1976,528.328
"4055",86.70542,528.3413
"4056",86.81773,528.3546
"4057",86.6395,528.3679
"4058",86.2855,528.3812
"4059",85.858246,528.39453
"4060",85.44076,528.40784
"4061",85.07698,528.42114
"4062",84.76692,528.43445
"4063",84.48615,528.44775
"4064",84.190735,528.46106
"4065",83.85382,528.47437
"4066",83.46075,528.4877
"4067",83.05058,528.501
"4068",82.65751,528.5143
"4069",82.31327,528.5276
"4070",82.022736,528.5409
"4071",81.778595,528.5542
"4072",81.549095,528.5675
"4073",81.30251,528.5808
"4074",81.024185,528.5941
"4075",80.706795,528.6074
"4076",80.34791,528.6207
"4077",79.95239,528.63403
"4078",79.537346,528.64734
"4079",79.10521,528.66064
"4080",78.67063,528.67395
"4081",78.24582,528.68726
"4082",77.85031,528.70056
"4083",77.49142,528.71387
"4084",77.19356,528.7272
"4085",76.9543,528.7405
"4086",76.78096,528.7538
"4087",76.663765,528.7671
"4088",76.58564,528.7804
"4089",76.544136,528.7937
"4090",76.52705,528.807
"4091",76.52705,528.8203
"4092",76.53681,528.8336
"4093",76.558784,528.8469
"4094",76.592964,528.8602
"4095",76.63447,528.87354
"4096",76.67597,528.88684
"4097",76.70283,528.90015
"4098",76.70527,528.91345
"4099",76.67109,528.92676
"4100",76.595406,528.94006
"4101",76.473335,528.95337
"4102",76.32929,528.9667
"4103",76.207214,528.98
"4104",76.209656,528.9933
"4105",76.4831,529.0066
"4106",77.188675,529.0199
"4107",78.399635,529.0332
"4108",80.062256,529.0465
"4109",81.99344,529.0598
"4110",83.93439,529.0731
"4111",85.609215,529.0864
"4112",86.837265,529.09973
"4113",87.55749,529.11304
"4114",87.80896,529.12634
"4115",87.69909,529.13965
"4116",87.362175,529.15295
"4117",86.925156,529.16626
"4118",86.50767,529.17957
"4119",86.16586,529.1929
"4120",85.91684,529.2062
"4121",85.711754,529.2195
"4122",85.487144,529.2328
"4123",85.17708,529.2461
"4124",84.76204,529.2594
"4125",84.24933,529.2727
"4126",83.685356,529.286
"4127",83.12871,529.2993
"4128",82.62577,529.3126
"4129",82.196075,529.3259
"4130",81.83963,529.33923
"4131",81.53689,529.35254
"4132",81.26345,529.36584
"4133",80.987564,529.37915
"4134",80.68238,529.39246
"4135",80.33814,529.40576
"4136",79.954834,529.41907
"4137",79.537346,529.4324
"4138",79.10033,529.4457
"4139",78.660866,529.459
"4140",78.23117,529.4723
"4141",77.823456,529.4856
"4142",77.437706,529.4989
"4143",77.08858,529.5122
"4144",76.77608,529.5255
"4145",76.507515,529.5388
"4146",76.27558,529.5521
"4147",76.0827,529.5654
"4148",75.91913,529.57874
"4149",75.772644,529.59204
"4150",75.63836,529.60535
"4151",75.50408,529.61865
"4152",75.38201,529.63196
"4153",75.264824,529.64526
"4154",75.15007,529.65857
"4155",75.02312,529.6719
"4156",74.88396,529.6852
"4157",74.737465,529.6985
"4158",74.5861,529.7118
"4159",74.444496,529.7251
"4160",74.3151,529.7384
"4161",74.20035,529.7517
"4162",74.10025,529.765
"4163",74.002594,529.7783
"4164",73.917145,529.7916
"4165",73.84146,529.80493
"4166",73.77554,529.81824
"4167",73.724266,529.83154
"4168",73.69741,529.84485
"4169",73.6852,529.85815
"4170",73.69497,529.87146
"4171",73.71938,529.88477
"4172",73.74868,529.8981
"4173",73.78287,529.9114
"4174",73.82193,529.9247
"4175",73.86099,529.938
"4176",73.9025,529.9513
"4177",73.98306,529.9646
"4178",74.20523,529.9779
"4179",74.74967,529.9912
"4180",75.792175,530.0045
"4181",77.39864,530.0178
"4182",79.47387,530.0311
"4183",81.778595,530.04443
"4184",83.9881,530.05774
"4185",85.80209,530.07104
"4186",87.04967,530.08435
"4187",87.71862,530.09766
"4188",87.89929,530.11096
"4189",87.73083,530.12427
"4190",87.362175,530.1376
"4191",86.93248,530.1509
"4192",86.556496,530.1642
"4193",86.28062,530.1775
"4194",86.10239,530.1908
"4195",85.977875,530.2041
"4196",85.8436,530.2174
"4197",85.64095,530.2307
"4198",85.35287,530.244
"4199",84.98909,530.2573
"4200",84.59113,530.2706
"4201",84.20538,530.28394
"4202",83.85626,530.29724
"4203",83.55596,530.31055
"4204",83.302055,530.32385
"4205",83.06767,530.33716
"4206",82.82109,530.35046
"4207",82.55009,530.3638
"4208",82.24002,530.3771
"4209",81.883575,530.3904
"4210",81.48562,530.4037
"4211",81.05592,530.417
"4212",80.60914,530.4303
"4213",80.16235,530.4436
"4214",79.725334,530.4569
"4215",79.31518,530.4702
"4216",78.93919,530.4835
"4217",78.60227,530.4968
"4218",78.30442,530.51013
"4219",78.04318,530.52344
"4220",77.81125,530.53674
"4221",77.60372,530.55005
"4222",77.41329,530.56335
"4223",77.23262,530.57666
"4224",77.05928,530.58997
"4225",76.893265,530.6033
"4226",76.734566,530.6166
"4227",76.578316,530.6299
"4228",76.43183,530.6432
"4229",76.29267,530.6565
"4230",76.15839,530.6698
"4231",76.02411,530.6831
"4232",75.88983,530.6964
"4233",75.757996,530.7097
"4234",75.62615,530.723
"4235",75.50164,530.7363
"4236",75.389336,530.74963
"4237",75.28924,530.76294
"4238",75.19646,530.77625
"4239",75.11589,530.78955
"4240",75.04265,530.80286
"4241",74.97917,530.81616
"4242",74.91814,530.82947
"4243",74.861984,530.8428
"4244",74.80827,530.8561
"4245",74.757,530.8694
"4246",74.73991,530.8827
"4247",74.83269,530.896
"4248",75.174484,530.9093
"4249",75.911804,530.9226
"4250",77.134964,530.9359
"4251",78.79759,530.9492
"4252",80.72877,530.9625
"4253",82.65995,530.9758
"4254",84.32014,530.98914
"4255",85.521324,531.00244
"4256",86.1976,531.01575
"4257",86.41001,531.02905
"4258",86.26597,531.04236
"4259",85.892426,531.05566
"4260",85.40414,531.069
"4261",84.90608,531.0823
"4262",84.456856,531.0956
"4263",84.08087,531.1089
"4264",83.76593,531.1222
"4265",83.47784,531.1355
"4266",83.18486,531.1488
"4267",82.87724,531.1621
"4268",82.56718,531.1754
"4269",82.28153,531.1887
"4270",82.04471,531.202
"4271",81.866486,531.21533
"4272",81.73708,531.22864
"4273",81.62234,531.24194
"4274",81.50271,531.25525
"4275",81.3489,531.26855
"4276",81.15114,531.28186
"4277",80.89479,531.29517
"4278",80.584724,531.3085
"4279",80.22339,531.3218
"4280",79.835205,531.3351
"4281",79.432365,531.3484
"4282",79.03441,531.3617
"4283",78.658424,531.375
"4284",78.31663,531.3883
"4285",78.011444,531.4016
"4286",77.738,531.4149
"4287",77.4963,531.4282
"4288",77.2839,531.4415
"4289",77.09834,531.45483
"4290",76.93721,531.46814
"4291",76.80049,531.48145
"4292",76.6833,531.49475
"4293",76.58808,531.50806
"4294",76.50507,531.52136
"4295",76.42939,531.53467
"4296",76.36591,531.548
"4297",76.30976,531.5613
"4298",76.25605,531.5746
"4299",76.207214,531.5879
"4300",76.15839,531.6012
"4301",76.10712,531.6145
"4302",76.04852,531.6278
"4303",75.98505,531.6411
"4304",75.90936,531.6544
"4305",75.826355,531.6677
"4306",75.73113,531.681
"4307",75.631035,531.69434
"4308",75.52361,531.70764
"4309",75.440605,531.72095
"4310",75.45037,531.73425
"4311",75.682304,531.74756
"4312",76.29267,531.76086
"4313",77.366905,531.7742
"4314",78.88304,531.7875
"4315",80.6775,531.8008
"4316",82.50126,531.8141
"4317",84.07843,531.8274
"4318",85.20882,531.8407
"4319",85.824066,531.854
"4320",85.97055,531.8673
"4321",85.767914,531.8806
"4322",85.34066,531.8939
"4323",84.81575,531.9072
"4324",84.2884,531.92053
"4325",83.807434,531.93384
"4326",83.38506,531.94714
"4327",83.00908,531.96045
"4328",82.652626,531.97375
"4329",82.303505,531.98706
"4330",81.969025,532.00037
"4331",81.671165,532.0137
"4332",81.43191,532.027
"4333",81.27322,532.0403
"4334",81.18776,532.0536
"4335",81.146255,532.0669
"4336",81.12184,532.0802
"4337",81.075455,532.0935
"4338",80.98512,532.1068
"4339",80.82643,532.1201
"4340",80.59937,532.1334
"4341",80.31373,532.1467
"4342",79.97681,532.16003
"4343",79.61303,532.17334
"4344",79.24681,532.18665
"4345",78.89281,532.19995
"4346",78.55833,532.21326
"4347",78.25559,532.22656
"4348",77.98947,532.23987
"4349",77.752655,532.2532
"4350",77.55489,532.2665
"4351",77.38888,532.2798
"4352",77.261925,532.2931
"4353",77.16426,532.3064
"4354",77.08858,532.3197
"4355",77.02754,532.333
"4356",76.978714,532.3463
"4357",76.93721,532.3596
"4358",76.895706,532.3729
"4359",76.859085,532.3862
"4360",76.824905,532.39954
"4361",76.790726,532.41284
"4362",76.75166,532.42615
"4363",76.70283,532.43945
"4364",76.64912,532.45276
"4365",76.58076,532.46606
"4366",76.50019,532.4794
"4367",76.41718,532.4927
"4368",76.34394,532.506
"4369",76.30244,532.5193
"4370",76.3708,532.5326
"4371",76.6955,532.5459
"4372",77.420616,532.5592
"4373",78.624245,532.5725
"4374",80.255135,532.5858
"4375",82.12283,532.5991
"4376",83.95148,532.6124
"4377",85.46029,532.62573
"4378",86.48081,532.63904
"4379",86.97398,532.65234
"4380",87.02037,532.66565
"4381",86.75426,532.67896
"4382",86.30015,532.69226
"4383",85.76547,532.70557
"4384",85.23567,532.7189
"4385",84.75227,532.7322
"4386",84.332344,532.7455
"4387",83.9588,532.7588
"4388",83.60723,532.7721
"4389",83.24101,532.7854
"4390",82.85771,532.7987
"4391",82.46464,532.812
"4392",82.08865,532.8253
"4393",81.74929,532.8386
"4394",81.47097,532.8519
"4395",81.25124,532.86523
"4396",81.075455,532.87854
"4397",80.92653,532.89185
"4398",80.78981,532.90515
"4399",80.64576,532.91846
"4400",80.4773,532.93176
"4401",80.27711,532.94507
"4402",80.05005,532.9584
"4403",79.81079,532.9717
"4404",79.569084,532.985
"4405",79.34203,532.9983
"4406",79.132065,533.0116
"4407",78.94652,533.0249
"4408",78.79027,533.0382
"4409",78.66331,533.0515
"4410",78.5803,533.0648
"4411",78.54612,533.0781
"4412",78.56077,533.09143
"4413",78.61204,533.10474
"4414",78.677956,533.11804
"4415",78.72678,533.13135
"4416",78.72678,533.14465
"4417",78.66331,533.15796
"4418",78.53147,533.17126
"4419",78.35081,533.1846
"4420",78.1384,533.1979
"4421",77.91867,533.2112
"4422",77.71603,533.2245
"4423",77.5378,533.2378
"4424",77.420616,533.2511
"4425",77.452354,533.2644
"4426",77.77219,533.2777
"4427",78.49729,533.291
"4428",79.64721,533.3043
"4429",81.13649,533.3176
"4430",82.7625,533.33093
"4431",84.27863,533.34424
"4432",85.470055,533.35754
"4433",86.23422,533.37085
"4434",86.573586,533.38416
"4435",86.56138,533.39746
"4436",86.295265,533.41077
"4437",85.875336,533.4241
"4438",85.40658,533.4374
"4439",84.964676,533.4507
"4440",84.596016,533.464
"4441",84.29328,533.4773
"4442",84.017395,533.4906
"4443",83.70977,533.5039
"4444",83.34112,533.5172
"4445",82.90654,533.5305
"4446",82.44755,533.5438
"4447",82.022736,533.5571
"4448",81.671165,533.57043
"4449",81.39773,533.58374
"4450",81.18532,533.59705
"4451",80.99489,533.61035
"4452",80.782486,533.62366
"4453",80.52857,533.63696
"4454",80.22827,533.65027
"4455",79.88403,533.6636
"4456",79.50561,533.6769
"4457",79.11009,533.6902
"4458",78.70237,533.7035
"4459",78.2971,533.7168
"4460",77.89426,533.7301
"4461",77.51339,533.7434
"4462",77.16182,533.7567
"4463",76.84688,533.77
"4464",76.58076,533.7833
"4465",76.36591,533.79663
"4466",76.19745,533.80994
"4467",76.070496,533.82324
"4468",75.96796,533.83655
"4469",75.880066,533.84985
"4470",75.792175,533.86316
"4471",75.701836,533.87646
"4472",75.60174,533.8898
"4473",75.494316,533.9031
"4474",75.386894,533.9164
"4475",75.318535,533.9297
"4476",75.37957,533.943
"4477",75.7116,533.9563
"4478",76.44404,533.9696
"4479",77.61837,533.9829
"4480",79.15404,533.9962
"4481",80.85573,534.0095
"4482",82.459755,534.0228
"4483",83.7293,534.03613
"4484",84.52766,534.04944
"4485",84.85237,534.06274
"4486",84.79378,534.07605
"4487",84.473946,534.08936
"4488",84.02228,534.10266
"4489",83.54131,534.11597
"4490",83.09209,534.1293
"4491",82.70878,534.1426
"4492",82.37919,534.1559
"4493",82.08133,534.1692
"4494",81.78348,534.1825
"4495",81.47585,534.1958
"4496",81.16823,534.2091
"4497",80.88747,534.2224
"4498",80.66529,534.2357
"4499",80.50904,534.249
"4500",80.42603,534.2623
"4501",80.38453,534.27563
"4502",80.35767,534.28894
"4503",80.31373,534.30225
"4504",80.23071,534.31555
"4505",80.09155,534.32886
"4506",79.8938,534.34216
"4507",79.639885,534.35547
"4508",79.33959,534.3688
"4509",78.99779,534.3821
"4510",78.63157,534.3954
"4511",78.25559,534.4087
"4512",77.88205,534.422
"4513",77.53292,534.4353
"4514",77.225296,534.4486
"4515",76.964066,534.4619
"4516",76.75166,534.4752
"4517",76.5832,534.4885
"4518",76.439156,534.50183
"4519",76.314644,534.51514
"4520",76.19989,534.52844
"4521",76.09491,534.54175
"4522",75.99237,534.55505
"4523",75.89227,534.56836
"4524",75.79462,534.58167
"4525",75.699394,534.595
"4526",75.64324,534.6083
"4527",75.718925,534.6216
"4528",76.07294,534.6349
"4529",76.84444,534.6482
"4530",78.07736,534.6615
"4531",79.68627,534.6748
"4532",81.463646,534.6881
"4533",83.13115,534.7014
"4534",84.42756,534.7147
"4535",85.21614,534.728
"4536",85.49203,534.74133
"4537",85.36019,534.75464
"4538",84.95491,534.76794
