"","ppg","time"
"1",108.998245,833.7996
"2",106.88884,833.8129
"3",104.1178,833.82623
"4",101.21492,833.83954
"5",98.51957,833.85284
"6",96.20264,833.86615
"7",94.26414,833.87946
"8",92.55512,833.89276
"9",90.88274,833.90607
"10",89.110245,833.9194
"11",87.25475,833.9327
"12",85.46273,833.946
"13",83.95148,833.9593
"14",82.86992,833.9726
"15",82.24246,833.9859
"16",81.94461,833.9992
"17",81.78592,834.0125
"18",81.56374,834.0258
"19",81.1194,834.0391
"20",80.360115,834.0524
"21",79.27123,834.06573
"22",77.91623,834.07904
"23",76.387886,834.09235
"24",74.79851,834.10565
"25",73.23842,834.11896
"26",71.776,834.13226
"27",70.435646,834.14557
"28",69.222244,834.1589
"29",68.155334,834.1722
"30",67.25201,834.1855
"31",66.52445,834.1988
"32",65.97757,834.2121
"33",65.60403,834.2254
"34",65.36721,834.2387
"35",65.2256,834.252
"36",65.12306,834.2653
"37",65.01564,834.2786
"38",64.88869,834.29193
"39",64.73975,834.30524
"40",64.60548,834.31854
"41",64.57862,834.33185
"42",64.937515,834.34515
"43",66.251015,834.35846
"44",69.21004,834.37177
"45",74.215,834.3851
"46",81.03395,834.3984
"47",88.79042,834.4117
"48",96.2124,834.425
"49",102.05234,834.4383
"50",105.54116,834.4516
"51",106.649574,834.4649
"52",105.9025,834.4782
"53",104.010376,834.4915
"54",101.590904,834.5048
"55",99.09819,834.5181
"56",96.81056,834.53143
"57",94.837875,834.54474
"58",93.12398,834.55804
"59",91.493095,834.57135
"60",89.76944,834.58466
"61",87.887085,834.59796
"62",85.9144,834.61127
"63",84.05646,834.6246
"64",82.52323,834.6379
"65",81.449,834.6512
"66",80.814224,834.6645
"67",80.47242,834.6778
"68",80.21118,834.6911
"69",79.84741,834.7044
"70",79.259026,834.7177
"71",78.397194,834.731
"72",77.29122,834.7443
"73",76.00702,834.7576
"74",74.634926,834.77094
"75",73.253075,834.78424
"76",71.93225,834.79755
"77",70.71641,834.81085
"78",69.63241,834.82416
"79",68.69489,834.83746
"80",67.913635,834.85077
"81",67.29595,834.8641
"82",66.84917,834.8774
"83",66.58793,834.8907
"84",66.50004,834.904
"85",66.57572,834.9173
"86",66.7686,834.9306
"87",67.002975,834.9439
"88",67.19829,834.9572
"89",67.29839,834.9705
"90",67.27886,834.9838
"91",67.156784,834.99713
"92",66.97368,835.01044
"93",66.80766,835.02374
"94",66.80034,835.03705
"95",67.33013,835.05035
"96",69.051346,835.06366
"97",72.61097,835.07697
"98",78.19455,835.0903
"99",85.29427,835.1036
"100",92.843216,835.1169
"101",99.5523,835.1302
"102",104.33021,835.1435
"103",106.71549,835.1568
"104",106.94499,835.1701
"105",105.66811,835.1834
"106",103.54406,835.1967
"107",101.07332,835.21
"108",98.59525,835.2233
"109",96.30518,835.23663
"110",94.25681,835.24994
"111",92.367134,835.26324
"112",90.48722,835.27655
"113",88.50965,835.28986
"114",86.43687,835.30316
"115",84.39582,835.31647
"116",82.59159,835.3298
"117",81.231705,835.3431
"118",80.411385,835.3564
"119",80.076904,835.3697
"120",80.045166,835.383
"121",80.09155,835.3963
"122",80.02319,835.4096
"123",79.71313,835.4229
"124",79.11986,835.4362
"125",78.25803,835.4495
"126",77.17647,835.4628
"127",75.945984,835.47614
"128",74.63981,835.48944
"129",73.32632,835.50275
"130",72.06409,835.51605
"131",70.9044,835.52936
"132",69.85947,835.54266
"133",68.926834,835.55597
"134",68.08209,835.5693
"135",67.30816,835.5826
"136",66.60746,835.5959
"137",65.99466,835.6092
"138",65.50393,835.6225
"139",65.16945,835.6358
"140",64.99367,835.6491
"141",64.94972,835.6624
"142",64.98634,835.6757
"143",65.03761,835.689
"144",65.0547,835.70233
"145",65.01564,835.71564
"146",64.92531,835.72894
"147",64.832535,835.74225
"148",64.86183,835.75555
"149",65.374535,835.76886
"150",67.02495,835.78217
"151",70.50889,835.7955
"152",76.08026,835.8088
"153",83.27764,835.8221
"154",91.04143,835.8354
"155",98.05081,835.8487
"156",103.148544,835.862
"157",105.795074,835.8753
"158",106.212555,835.8886
"159",105.0724,835.9019
"160",103.08507,835.9152
"161",100.79988,835.9285
"162",98.58793,835.94183
"163",96.65919,835.95514
"164",95.05272,835.96844
"165",93.63912,835.98175
"166",92.21088,835.99506
"167",90.57755,836.00836
"168",88.68543,836.02167
"169",86.63218,836.035
"170",84.630196,836.0483
"171",82.90654,836.0616
"172",81.59548,836.0749
"173",80.69215,836.0882
"174",80.06714,836.1015
"175",79.55688,836.1148
"176",79.00755,836.1281
"177",78.31663,836.1414
"178",77.44259,836.1547
"179",76.404976,836.168
"180",75.2404,836.18134
"181",74.005035,836.19464
"182",72.75746,836.20795
"183",71.54894,836.22125
"184",70.41367,836.23456
"185",69.37362,836.24786
"186",68.44587,836.26117
"187",67.63775,836.2745
"188",66.94682,836.2878
"189",66.373085,836.3011
"190",65.91409,836.3144
"191",65.567406,836.3277
"192",65.33791,836.341
"193",65.22316,836.3543
"194",65.22316,836.3676
"195",65.32082,836.3809
"196",65.4844,836.3942
"197",65.67483,836.40753
"198",65.85062,836.42084
"199",65.967804,836.43414
"200",66.00687,836.44745
"201",65.96048,836.46075
"202",65.84329,836.47406
"203",65.71633,836.48737
"204",65.74563,836.5007
"205",66.40238,836.514
"206",68.42878,836.5273
"207",72.50111,836.5406
"208",78.73655,836.5539
"209",86.50767,836.5672
"210",94.59617,836.5805
"211",101.593346,836.5938
"212",106.38834,836.6071
"213",108.59052,836.6204
"214",108.56611,836.6337
"215",107.06462,836.64703
"216",104.813614,836.66034
"217",102.35264,836.67365
"218",100.04059,836.68695
"219",98.06058,836.70026
"220",96.412605,836.71356
"221",94.96239,836.72687
"222",93.49508,836.7402
"223",91.842224,836.7535
"224",89.98428,836.7668
"225",88.0531,836.7801
"226",86.27085,836.7934
"227",84.85237,836.8067
"228",83.90021,836.82
"229",83.353325,836.8333
"230",83.0457,836.8466
"231",82.76738,836.8599
"232",82.34745,836.8732
"233",81.68337,836.88654
"234",80.75319,836.89984
"235",79.60082,836.91315
"236",78.28489,836.92645
"237",76.876175,836.93976
"238",75.43328,836.95306
"239",74.00992,836.9664
"240",72.64271,836.9797
"241",71.35363,836.993
"242",70.15732,837.0063
"243",69.065994,837.0196
"244",68.07721,837.0329
"245",67.18852,837.0462
"246",66.40482,837.0595
"247",65.72854,837.0728
"248",65.164566,837.0861
"249",64.71534,837.0994
"250",64.393074,837.11273
"251",64.20508,837.12604
"252",64.14404,837.13934
"253",64.18799,837.15265
"254",64.307625,837.16595
"255",64.45411,837.17926
"256",64.58839,837.19257
"257",64.68116,837.2059
"258",64.72755,837.2192
"259",64.75685,837.2325
"260",64.89357,837.2458
"261",65.51125,837.2591
"262",67.28619,837.2724
"263",70.95079,837.2857
"264",76.78096,837.299
"265",84.32502,837.3123
"266",92.491646,837.3256
"267",99.8819,837.3389
"268",105.26772,837.35223
"269",108.053406,837.36554
"270",108.419624,837.37885
"271",107.054855,837.39215
"272",104.740364,837.40546
"273",102.11093,837.41876
"274",99.613335,837.43207
"275",97.49172,837.4454
"276",95.799805,837.4587
"277",94.41062,837.472
"278",93.07027,837.4853
"279",91.54681,837.4986
"280",89.7499,837.5119
"281",87.765015,837.5252
"282",85.79477,837.5385
"283",84.09064,837.5518
"284",82.82353,837.5651
"285",82.01297,837.5784
"286",81.54421,837.59174
"287",81.2195,837.60504
"288",80.85573,837.61835
"289",80.323494,837.63165
"290",79.57397,837.64496
"291",78.62913,837.65826
"292",77.52804,837.6716
"293",76.32441,837.6849
"294",75.06706,837.6982
"295",73.79996,837.7115
"296",72.56214,837.7248
"297",71.40734,837.7381
"298",70.36729,837.7514
"299",69.454185,837.7647
"300",68.67536,837.778
"301",68.02838,837.7913
"302",67.491264,837.8046
"303",67.037155,837.81793
"304",66.651405,837.83124
"305",66.33402,837.84454
"306",66.07767,837.85785
"307",65.87015,837.87115
"308",65.71145,837.88446
"309",65.599144,837.89777
"310",65.51125,837.9111
"311",65.42336,837.9244
"312",65.3135,837.9377
"313",65.17677,837.951
"314",65.00099,837.9643
"315",64.77394,837.9776
"316",64.517586,837.9909
"317",64.32227,838.0042
"318",64.48829,838.0175
"319",65.6675,838.0308
"320",68.69001,838.0441
"321",74.05386,838.05743
"322",81.53689,838.07074
"323",90.15518,838.08405
"324",98.46586,838.09735
"325",105.04799,838.11066
"326",109.03731,838.12396
"327",110.38987,838.13727
"328",109.71847,838.1506
"329",107.81171,838.1639
"330",105.32632,838.1772
"331",102.72129,838.1905
"332",100.28962,838.2038
"333",98.18265,838.2171
"334",96.38575,838.2304
"335",94.75731,838.2437
"336",93.08736,838.257
"337",91.2343,838.2703
"338",89.19325,838.2836
"339",87.10338,838.29694
"340",85.17464,838.31024
"341",83.60723,838.32355
"342",82.49149,838.33685
"343",81.77615,838.35016
"344",81.287865,838.36346
"345",80.831314,838.3768
"346",80.2478,838.3901
"347",79.432365,838.4034
"348",78.35081,838.4167
"349",77.02022,838.43
"350",75.48699,838.4433
"351",73.812164,838.4566
"352",72.061646,838.4699
"353",70.31846,838.4832
"354",68.67292,838.4965
"355",67.20073,838.5098
"356",65.933624,838.52313
"357",64.8716,838.53644
"358",63.98291,838.54974
"359",63.230946,838.56305
"360",62.588844,838.57635
"361",62.05417,838.58966
"362",61.636684,838.60297
"363",61.360798,838.6163
"364",61.233845,838.6296
"365",61.24361,838.6429
"366",61.368122,838.6562
"367",61.570763,838.6695
"368",61.792934,838.6828
"369",61.98581,838.6961
"370",62.11032,838.7094
"371",62.15671,838.7227
"372",62.15183,838.736
"373",62.25925,838.7493
"374",62.955063,838.76263
"375",65.059586,838.77594
"376",69.36385,838.78925
"377",76.12421,838.80255
"378",84.77913,838.81586
"379",94.07126,838.82916
"380",102.40635,838.84247
"381",108.41718,838.8558
"382",111.49096,838.8691
"383",111.86206,838.8824
"384",110.277565,838.8957
"385",107.57,838.909
"386",104.42054,838.9223
"387",101.315025,838.9356
"388",98.55375,838.9489
"389",96.24414,838.9622
"390",94.310524,838.9755
"391",92.542915,838.98883
"392",90.71427,839.00214
"393",88.71717,839.01544
"394",86.598,839.02875
"395",84.54475,839.04205
"396",82.81621,839.05536
"397",81.600365,839.06866
"398",80.936295,839.082
"399",80.719,839.0953
"400",80.743416,839.1086
"401",80.77272,839.1219
"402",80.58961,839.1352
"403",80.07202,839.1485
"404",79.1931,839.1618
"405",78.00656,839.1751
"406",76.60517,839.1884
"407",75.106125,839.2017
"408",73.582664,839.215
"409",72.08118,839.22833
"410",70.623634,839.24164
"411",69.25399,839.25494
"412",68.016174,839.26825
"413",66.96391,839.28156
"414",66.13138,839.29486
"415",65.52346,839.30817
"416",65.12062,839.3215
"417",64.866714,839.3348
"418",64.73243,839.3481
"419",64.70069,839.3614
"420",64.77394,839.3747
"421",64.94728,839.388
"422",65.20607,839.4013
"423",65.513695,839.4146
"424",65.80911,839.4279
"425",66.05081,839.4412
"426",66.2095,839.4545
"427",66.285194,839.46783
"428",66.30717,839.48114
"429",66.38773,839.49445
"430",66.87358,839.50775
"431",68.492256,839.52106
"432",72.095825,839.53436
"433",78.13107,839.54767
"434",86.29038,839.561
"435",95.519035,839.5743
"436",104.2765,839.5876
"437",111.0515,839.6009
"438",114.93828,839.6142
"439",115.90509,839.6275
"440",114.564735,839.6408
"441",111.74731,839.6541
"442",108.21454,839.6674
"443",104.569466,839.6807
"444",101.222244,839.69403
"445",98.38773,839.70734
"446",96.078125,839.72064
"447",94.12253,839.73395
"448",92.28901,839.74725
"449",90.40177,839.76056
"450",88.42176,839.77386
"451",86.4564,839.7872
"452",84.69611,839.8005
"453",83.299614,839.8138
"454",82.30839,839.8271
"455",81.62478,839.8404
"456",81.08278,839.8537
"457",80.499275,839.867
"458",79.73998,839.8803
"459",78.729225,839.8936
"460",77.452354,839.9069
"461",75.95819,839.9202
"462",74.319984,839.93353
"463",72.6305,839.94684
"464",70.98009,839.96014
"465",69.44198,839.97345
"466",68.065,839.98676
"467",66.87846,840.00006
"468",65.88968,840.01337
"469",65.084,840.0267
"470",64.4419,840.04
"471",63.921875,840.0533
"472",63.499504,840.0666
"473",63.157703,840.0799
"474",62.903793,840.0932
"475",62.74998,840.1065
"476",62.71092,840.1198
"477",62.796368,840.1331
"478",62.994125,840.1464
"479",63.279774,840.1597
"480",63.606926,840.17303
"481",63.926758,840.18634
"482",64.18799,840.19965
"483",64.378426,840.21295
"484",64.517586,840.22626
"485",64.71534,840.23956
"486",65.30129,840.25287
"487",66.97612,840.2662
"488",70.61387,840.2795
"489",76.773636,840.2928
"490",85.26498,840.3061
"491",95.09178,840.3194
"492",104.71595,840.3327
"493",112.50904,840.346
"494",117.37972,840.3593
"495",119.149765,840.3726
"496",118.39048,840.3859
"497",115.96124,840.39923
"498",112.67017,840.41254
"499",109.14717,840.42584
"500",105.79019,840.43915
"501",102.81407,840.45245
"502",100.253,840.46576
"503",97.99222,840.47906
"504",95.82422,840.4924
"505",93.58785,840.5057
"506",91.22209,840.519
"507",88.82704,840.5323
"508",86.60044,840.5456
"509",84.7596,840.5589
"510",83.42901,840.5722
"511",82.6038,840.5855
"512",82.125275,840.5988
"513",81.75662,840.6121
"514",81.270775,840.6254
"515",80.51148,840.63873
"516",79.398186,840.65204
"517",77.94797,840.66534
"518",76.24872,840.67865
"519",74.42252,840.69196
"520",72.58167,840.70526
"521",70.81163,840.71857
"522",69.173416,840.7319
"523",67.698784,840.7452
"524",66.38529,840.7585
"525",65.23781,840.7718
"526",64.26368,840.7851
"527",63.462883,840.7984
"528",62.8159,840.8117
"529",62.303196,840.825
"530",61.890594,840.8383
"531",61.53414,840.8516
"532",61.219196,840.8649
"533",60.950638,840.87823
"534",60.740673,840.89154
"535",60.58686,840.90485
"536",60.47944,840.91815
"537",60.406197,840.93146
"538",60.357365,840.94476
"539",60.372013,840.95807
"540",60.68452,840.9714
"541",61.89792,840.9847
"542",64.87648,840.998
"543",70.25742,841.0113
"544",78.028534,841.0246
"545",87.411,841.0379
"546",97.008316,841.0512
"547",105.20424,841.0645
"548",110.765854,841.0778
"549",113.28054,841.0911
"550",113.10475,841.10443
"551",110.94652,841.11774
"552",107.58465,841.13104
"553",103.727165,841.14435
"554",99.92584,841.15765
"555",96.52491,841.17096
"556",93.65133,841.18427
"557",91.23186,841.1976
"558",89.08583,841.2109
"559",87.04234,841.2242
"560",85.03548,841.2375
"561",83.14336,841.2508
"562",81.53445,841.2641
"563",80.343025,841.2774
"564",79.59106,841.2907
"565",79.183334,841.304
"566",78.95384,841.3173
"567",78.71946,841.3306
"568",78.37278,841.34393
"569",77.84787,841.35724
"570",77.13008,841.37054
"571",76.21942,841.38385
"572",75.15495,841.39716
"573",73.98306,841.41046
"574",72.75014,841.42377
"575",71.517204,841.4371
"576",70.35264,841.4504
"577",69.31014,841.4637
"578",68.39704,841.477
"579",67.596245,841.4903
"580",66.86626,841.5036
"581",66.15335,841.5169
"582",65.425804,841.5302
"583",64.69581,841.5435
"584",63.995117,841.5568
"585",63.377434,841.5701
"586",62.884262,841.58344
"587",62.532692,841.59674
"588",62.298313,841.61005
"589",62.13718,841.62335
"590",62.012665,841.63666
"591",61.9028,841.64996
"592",61.797817,841.66327
"593",61.741665,841.6766
"594",61.96872,841.6899
"595",63.10399,841.7032
"596",66.092316,841.7165
"597",71.66369,841.7298
"598",79.82056,841.7431
"599",89.70107,841.7564
"600",99.80621,841.7697
"601",108.404976,841.783
"602",114.18631,841.7963
"603",116.732735,841.80963
"604",116.491035,841.82294
"605",114.27665,841.83624
"606",110.92943,841.84955
"607",107.17204,841.86285
"608",103.54406,841.87616
"609",100.37507,841.88947
"610",97.75296,841.9028
"611",95.56054,841.9161
"612",93.56588,841.9294
"613",91.563896,841.9427
"614",89.46914,841.956
"615",87.34997,841.9693
"616",85.38705,841.9826
"617",83.76593,841.9959
"618",82.57694,842.0092
"619",81.77127,842.0225
"620",81.20485,842.0358
"621",80.69947,842.04913
"622",80.09155,842.06244
"623",79.281,842.07574
"624",78.23117,842.08905
"625",76.978714,842.10236
"626",75.596855,842.11566
"627",74.16617,842.12897
"628",72.75746,842.1423
"629",71.42931,842.1556
"630",70.21347,842.1689
"631",69.136795,842.1822
"632",68.1944,842.1955
"633",67.37896,842.2088
"634",66.668495,842.2221
"635",66.041046,842.2354
"636",65.48684,842.2487
"637",65.01076,842.262
"638",64.620125,842.2753
"639",64.327156,842.28864
"640",64.13916,842.30194
"641",64.04883,842.31525
"642",64.03662,842.32855
"643",64.07568,842.34186
"644",64.13916,842.35516
"645",64.20264,842.36847
"646",64.26856,842.3818
"647",64.48829,842.3951
"648",65.35256,842.4084
"649",67.718315,842.4217
"650",72.38148,842.435
"651",79.54955,842.4483
"652",88.604866,842.4616
"653",98.21683,842.4749
"654",106.73014,842.4882
"655",112.743416,842.5015
"656",115.665825,842.51483
"657",115.78546,842.52814
"658",113.89334,842.54144
"659",110.84642,842.55475
"660",107.372246,842.56805
"661",104.00061,842.58136
"662",101.04646,842.59467
"663",98.61967,842.608
"664",96.64942,842.6213
"665",94.93065,842.6346
"666",93.263145,842.6479
"667",91.54925,842.6612
"668",89.83536,842.6745
"669",88.272835,842.6878
"670",87.01793,842.7011
"671",86.13901,842.7144
"672",85.57015,842.7277
"673",85.16487,842.741
"674",84.732735,842.75433
"675",84.12482,842.76764
"676",83.26055,842.78094
"677",82.125275,842.79425
"678",80.75075,842.80756
"679",79.21019,842.82086
"680",77.58175,842.83417
"681",75.948425,842.8475
"682",74.390785,842.8608
"683",72.95766,842.8741
"684",71.68566,842.8874
"685",70.57969,842.9007
"686",69.63241,842.914
"687",68.80232,842.9273
"688",68.06256,842.9406
"689",67.38384,842.9539
"690",66.75639,842.9672
"691",66.160675,842.9805
"692",65.59426,842.99384
"693",65.04494,843.00714
"694",64.52247,843.02045
"695",64.041504,843.03375
"696",63.61669,843.04706
"697",63.25536,843.06036
"698",62.98436,843.07367
"699",62.889145,843.087
"700",63.301746,843.1003
"701",64.9131,843.1136
"702",68.51667,843.1269
"703",74.49088,843.1402
"704",82.45243,843.1535
"705",91.29534,843.1668
"706",99.527885,843.1801
"707",105.75357,843.1934
"708",109.205765,843.2067
"709",109.9675,843.22003
"710",108.697945,843.23334
"711",106.18326,843.24664
"712",103.06554,843.25995
"713",99.83307,843.27325
"714",96.83986,843.28656
"715",94.29099,843.29987
"716",92.18646,843.3132
"717",90.38468,843.3265
"718",88.68299,843.3398
"719",86.91295,843.3531
"720",85.0428,843.3664
"721",83.19707,843.3797
"722",81.57351,843.393
"723",80.33326,843.4063
"724",79.51537,843.4196
"725",79.027084,843.4329
"726",78.677956,843.4462
"727",78.2678,843.45953
"728",77.642784,843.47284
"729",76.72968,843.48615
"730",75.52361,843.49945
"731",74.0856,843.51276
"732",72.518196,843.52606
"733",70.93126,843.53937
"734",69.41512,843.5527
"735",68.04547,843.566
"736",66.85893,843.5793
"737",65.86771,843.5926
"738",65.04738,843.6059
"739",64.36866,843.6192
"740",63.804684,843.6325
"741",63.34325,843.6458
"742",62.989243,843.6591
"743",62.742657,843.6724
"744",62.60105,843.6857
"745",62.54734,843.69904
"746",62.554665,843.71234
"747",62.605934,843.72565
"748",62.684063,843.73895
"749",62.79881,843.75226
"750",62.95018,843.76556
"751",63.165028,843.7789
"752",63.54589,843.7922
"753",64.43702,843.8055
"754",66.55619,843.8188
"755",70.66758,843.8321
"756",77.083694,843.8454
"757",85.35775,843.8587
"758",94.35447,843.872
"759",102.55039,843.8853
"760",108.5832,843.8986
"761",111.77417,843.9119
"762",112.2942,843.92523
"763",110.86107,843.93854
"764",108.29023,843.95184
"765",105.253075,843.96515
"766",102.22568,843.97845
"767",99.4815,843.99176
"768",97.12306,844.00507
"769",95.099106,844.0184
"770",93.23872,844.0317
"771",91.34905,844.045
"772",89.33242,844.0583
"773",87.23033,844.0716
"774",85.19661,844.0849
"775",83.43145,844.0982
"776",82.074005,844.1115
"777",81.1487,844.1248
"778",80.54078,844.1381
"779",80.06714,844.1514
"780",79.534904,844.16473
"781",78.8098,844.17804
"782",77.81857,844.19135
"783",76.58076,844.20465
"784",75.1696,844.21796
"785",73.687645,844.23126
"786",72.24475,844.24457
"787",70.923935,844.2579
"788",69.78134,844.2712
"789",68.8365,844.2845
"790",68.0943,844.2978
"791",67.53521,844.3111
"792",67.122604,844.3244
"793",66.829636,844.3377
"794",66.62455,844.351
"795",66.48295,844.3643
"796",66.38529,844.3776
"797",66.32426,844.3909
"798",66.29496,844.40424
"799",66.287636,844.41754
"800",66.28275,844.43085
"801",66.270546,844.44415
"802",66.229034,844.45746
"803",66.14603,844.47076
"804",66.02884,844.4841
"805",65.98001,844.4974
"806",66.35111,844.5107
"807",67.83795,844.524
"808",71.22911,844.5373
"809",76.895706,844.5506
"810",84.471504,844.5639
"811",92.877396,844.5772
"812",100.66804,844.5905
"813",106.50065,844.6038
"814",109.67208,844.6171
"815",110.28977,844.63043
"816",109.02266,844.64374
"817",106.65446,844.65704
"818",103.81506,844.67035
"819",100.94148,844.68365
"820",98.31449,844.69696
"821",96.04883,844.71027
"822",94.100555,844.7236
"823",92.28657,844.7369
"824",90.41154,844.7502
"825",88.36317,844.7635
"826",86.18295,844.7768
"827",84.04913,844.7901
"828",82.2034,844.8034
"829",80.82399,844.8167
"830",79.937744,844.83
"831",79.432365,844.8433
"832",79.10033,844.8566
"833",78.73899,844.86993
"834",78.19211,844.88324
"835",77.38888,844.89655
"836",76.32197,844.90985
"837",75.04753,844.92316
"838",73.63149,844.93646
"839",72.1593,844.94977
"840",70.69932,844.9631
"841",69.30038,844.9764
"842",68.001526,844.9897
"843",66.829636,845.003
"844",65.80423,845.0163
"845",64.937515,845.0296
"846",64.23682,845.0429
"847",63.70947,845.0562
"848",63.34081,845.0695
"849",63.125965,845.0828
"850",63.062485,845.0961
"851",63.138172,845.10944
"852",63.3286,845.12274
"853",63.606926,845.13605
"854",63.93164,845.14935
"855",64.25147,845.16266
"856",64.52247,845.17596
"857",64.71778,845.1893
"858",64.89845,845.2026
"859",65.36233,845.2159
"860",66.77104,845.2292
"861",69.962006,845.2425
"862",75.440605,845.2558
"863",82.97246,845.2691
"864",91.53948,845.2824
"865",99.66949,845.2957
"866",105.94644,845.309
"867",109.53292,845.3223
"868",110.433815,845.33563
"869",109.30343,845.34894
"870",106.98161,845.36224
"871",104.15686,845.37555
"872",101.297935,845.38885
"873",98.71,845.40216
"874",96.52491,845.41547
"875",94.68894,845.4288
"876",93.019,845.4421
"877",91.29534,845.4554
"878",89.391014,845.4687
"879",87.325554,845.482
"880",85.2723,845.4953
"881",83.46075,845.5086
"882",82.07889,845.5219
"883",81.15358,845.5352
"884",80.58961,845.5485
"885",80.19165,845.5618
"886",79.77661,845.57513
"887",79.1931,845.58844
"888",78.37034,845.60175
"889",77.31075,845.61505
"890",76.070496,845.62836
"891",74.7277,845.64166
"892",73.358055,845.65497
"893",72.02258,845.6683
"894",70.76524,845.6816
"895",69.60555,845.6949
"896",68.56306,845.7082
"897",67.649956,845.7215
"898",66.87602,845.7348
"899",66.253456,845.7481
"900",65.79202,845.7614
"901",65.48928,845.7747
"902",65.33303,845.788
"903",65.29885,845.80133
"904",65.33547,845.81464
"905",65.394066,845.82794
"906",65.41848,845.84125
"907",65.37209,845.85455
"908",65.23537,845.86786
"909",65.03761,845.88116
"910",64.886246,845.8945
"911",65.14015,845.9078
"912",66.49027,845.9211
"913",69.76425,845.9344
"914",75.39178,845.9477
"915",83.03105,845.961
"916",91.595634,845.9743
"917",99.60845,845.9876
"918",105.687645,846.0009
"919",109.066605,846.0142
"920",109.83078,846.0275
"921",108.67597,846.04083
"922",106.43717,846.05414
"923",103.78821,846.06744
"924",101.188065,846.08075
"925",98.90532,846.09406
"926",96.99855,846.10736
"927",95.328606,846.12067
"928",93.661095,846.134
"929",91.793396,846.1473
"930",89.68154,846.1606
"931",87.467155,846.1739
"932",85.42855,846.1872
"933",83.826965,846.2005
"934",82.79668,846.2138
"935",82.29374,846.2271
"936",82.1326,846.2404
"937",82.06424,846.2537
"938",81.85916,846.267
"939",81.375755,846.28033
"940",80.54566,846.29364
"941",79.395744,846.30695
"942",78.00656,846.32025
"943",76.49775,846.33356
"944",75.020676,846.34686
"945",73.70718,846.36017
"946",72.620735,846.3735
"947",71.76868,846.3868
"948",71.131454,846.4001
"949",70.69688,846.4134
"950",70.42832,846.4267
"951",70.27451,846.44
"952",70.1915,846.4533
"953",70.10361,846.4666
"954",69.91806,846.4799
"955",69.56893,846.4932
"956",69.068436,846.50653
"957",68.46296,846.51984
"958",67.828186,846.53314
"959",67.24956,846.54645
"960",66.915085,846.55975
"961",67.29839,846.57306
"962",69.10994,846.58636
"963",72.91615,846.5997
"964",78.66331,846.613
"965",85.626305,846.6263
"966",92.630806,846.6396
"967",98.42191,846.6529
"968",102.101166,846.6662
"969",103.49035,846.6795
"970",103.06798,846.6928
"971",101.55184,846.7061
"972",99.54009,846.7194
"973",97.44778,846.7327
"974",95.54345,846.74603
"975",93.9321,846.75934
"976",92.55024,846.77264
"977",91.21965,846.78595
"978",89.723045,846.79926
"979",87.938354,846.81256
"980",85.89487,846.82587
"981",83.7879,846.8392
"982",81.88846,846.8525
"983",80.445564,846.8658
"984",79.5642,846.8791
"985",79.200424,846.8924
"986",79.183334,846.9057
"987",79.29565,846.919
"988",79.3225,846.9323
"989",79.11009,846.9456
"990",78.590065,846.9589
"991",77.75754,846.9722
"992",76.66621,846.98553
"993",75.41131,846.99884
"994",74.092926,847.01215
"995",72.796524,847.02545
"996",71.59289,847.03876
"997",70.50645,847.05206
"998",69.54452,847.06537
"999",68.682686,847.0787
"1000",67.88922,847.092
"1001",67.13725,847.1053
"1002",66.424355,847.1186
"1003",65.76517,847.1319
"1004",65.179214,847.1452
"1005",64.673836,847.1585
"1006",64.22705,847.1718
"1007",63.809566,847.1851
"1008",63.401848,847.1984
"1009",63.013657,847.21173
"1010",62.671856,847.22504
"1011",62.435036,847.23834
"1012",62.454567,847.25165
"1013",63.13573,847.26495
"1014",65.20851,847.27826
"1015",69.38827,847.29156
"1016",75.82391,847.3049
"1017",83.86359,847.3182
"1018",92.25971,847.3315
"1019",99.57427,847.3448
"1020",104.64271,847.3581
"1021",107.04265,847.3714
"1022",107.191574,847.3847
"1023",105.9147,847.398
"1024",103.96155,847.4113
"1025",101.85214,847.4246
"1026",99.90875,847.4379
"1027",98.29252,847.45123
"1028",97.008316,847.46454
"1029",95.91699,847.47784
"1030",94.784164,847.49115
"1031",93.37789,847.50446
"1032",91.580986,847.51776
"1033",89.444725,847.53107
"1034",87.17174,847.5444
"1035",85.0428,847.5577
"1036",83.30938,847.571
"1037",82.08133,847.5843
"1038",81.30984,847.5976
"1039",80.814224,847.6109
"1040",80.38697,847.6242
"1041",79.852295,847.6375
"1042",79.10765,847.6508
"1043",78.1384,847.6641
"1044",76.99336,847.6774
"1045",75.75067,847.69073
"1046",74.49088,847.70404
"1047",73.287254,847.71735
"1048",72.18616,847.73065
"1049",71.21202,847.74396
"1050",70.364845,847.75726
"1051",69.63729,847.77057
"1052",69.00008,847.7839
"1053",68.438545,847.7972
"1054",67.93561,847.8105
"1055",67.50347,847.8238
"1056",67.16411,847.8371
"1057",66.94438,847.8504
"1058",66.84184,847.8637
"1059",66.8394,847.877
"1060",66.88579,847.8903
"1061",66.91753,847.9036
"1062",66.88335,847.91693
"1063",66.7686,847.93024
"1064",66.583046,847.94354
"1065",66.39506,847.95685
"1066",66.37553,847.97015
"1067",66.97368,847.98346
"1068",68.89754,847.99677
"1069",72.7599,848.0101
"1070",78.57786,848.0234
"1071",85.66781,848.0367
"1072",92.88716,848.05
"1073",98.966354,848.0633
"1074",102.958115,848.0766
"1075",104.61829,848.0899
"1076",104.40589,848.1032
"1077",103.046005,848.1165
"1078",101.16853,848.1298
"1079",99.210495,848.1431
"1080",97.44045,848.15643
"1081",95.9707,848.16974
"1082",94.752426,848.18304
"1083",93.61471,848.19635
"1084",92.33784,848.20966
"1085",90.76555,848.22296
"1086",88.87587,848.23627
"1087",86.800644,848.2496
"1088",84.78645,848.2629
"1089",83.10185,848.2762
"1090",81.92264,848.2895
"1091",81.24635,848.3028
"1092",80.94362,848.3161
"1093",80.80446,848.3294
"1094",80.618904,848.3427
"1095",80.235596,848.356
"1096",79.59106,848.3693
"1097",78.692604,848.3826
"1098",77.591515,848.39594
"1099",76.35859,848.40924
"1100",75.0695,848.42255
"1101",73.797516,848.43585
"1102",72.59388,848.44916
"1103",71.485466,848.46246
"1104",70.48203,848.47577
"1105",69.573814,848.4891
"1106",68.753494,848.5024
"1107",68.001526,848.5157
"1108",67.31304,848.529
"1109",66.71488,848.5423
"1110",66.24124,848.5556
"1111",65.93851,848.5689
"1112",65.8262,848.5822
"1113",65.87747,848.5955
"1114",66.02396,848.6088
"1115",66.18021,848.62213
"1116",66.270546,848.63544
"1117",66.26566,848.64874
"1118",66.15823,848.66205
"1119",65.96536,848.67535
"1120",65.6968,848.68866
"1121",65.4136,848.70197
"1122",65.29153,848.7153
"1123",65.82132,848.7286
"1124",67.77936,848.7419
"1125",71.776,848.7552
"1126",77.78195,848.7685
"1127",85.04524,848.7818
"1128",92.3476,848.7951
"1129",98.39262,848.8084
"1130",102.259865,848.8217
"1131",103.78577,848.835
"1132",103.500114,848.8483
"1133",102.169525,848.86163
"1134",100.41169,848.87494
"1135",98.6392,848.88824
"1136",97.07912,848.90155
"1137",95.80713,848.91486
"1138",94.752426,848.92816
"1139",93.731895,848.94147
"1140",92.53559,848.9548
"1141",91.01213,848.9681
"1142",89.15175,848.9814
"1143",87.096054,848.9947
"1144",85.08675,849.008
"1145",83.3753,849.0213
"1146",82.127716,849.0346
"1147",81.35134,849.0479
"1148",80.92653,849.0612
"1149",80.6482,849.0745
"1150",80.32105,849.0878
"1151",79.80591,849.10114
"1152",79.04906,849.11444
"1153",78.07492,849.12775
"1154",76.93965,849.14105
"1155",75.72625,849.15436
"1156",74.50797,849.16766
"1157",73.33364,849.18097
"1158",72.234985,849.1943
"1159",71.22179,849.2076
"1160",70.29893,849.2209
"1161",69.46151,849.2342
"1162",68.69001,849.2475
"1163",67.981995,849.2608
"1164",67.32525,849.2741
"1165",66.722206,849.2874
"1166",66.18509,849.3007
"1167",65.73586,849.314
"1168",65.39895,849.32733
"1169",65.181656,849.34064
"1170",65.074234,849.35394
"1171",65.03273,849.36725
"1172",65.00099,849.38055
"1173",64.92775,849.39386
"1174",64.781265,849.40717
"1175",64.55421,849.4205
"1176",64.28321,849.4338
"1177",64.061035,849.4471
"1178",64.15869,849.4604
"1179",65.164566,849.4737
"1180",67.85748,849.487
"1181",72.706184,849.5003
"1182",79.4641,849.5136
"1183",87.186386,849.5269
"1184",94.56443,849.5402
"1185",100.32868,849.5535
"1186",103.72228,849.56683
"1187",104.78432,849.58014
"1188",104.166626,849.59344
"1189",102.63584,849.60675
"1190",100.753494,849.62006
"1191",98.88335,849.63336
"1192",97.2256,849.64667
"1193",95.8291,849.66
"1194",94.61082,849.6733
"1195",93.385216,849.6866
"1196",91.96185,849.6999
"1197",90.24307,849.7132
"1198",88.26795,849.7265
"1199",86.20737,849.7398
"1200",84.31281,849.7531
"1201",82.79668,849.7664
"1202",81.75662,849.7797
"1203",81.13405,849.793
"1204",80.76784,849.80634
"1205",80.44312,849.81964
"1206",79.9939,849.83295
"1207",79.327385,849.84625
"1208",78.43137,849.85956
"1209",77.35226,849.87286
"1210",76.16571,849.88617
"1211",74.94499,849.8995
"1212",73.7438,849.9128
"1213",72.59632,849.9261
"1214",71.52209,849.9394
"1215",70.53086,849.9527
"1216",69.625084,849.966
"1217",68.81209,849.9793
"1218",68.08942,849.9926
"1219",67.457085,850.0059
"1220",66.91264,850.0192
"1221",66.4683,850.03253
"1222",66.11429,850.04584
"1223",65.85062,850.05914
"1224",65.65774,850.07245
"1225",65.50637,850.08575
"1226",65.355,850.09906
"1227",65.179214,850.11237
"1228",64.97658,850.1257
"1229",64.75929,850.139
"1230",64.54688,850.1523
"1231",64.361336,850.1656
"1232",64.2417,850.1789
"1233",64.37354,850.1922
"1234",65.254906,850.2055
"1235",67.664604,850.2188
"1236",72.20325,850.2321
"1237",78.79759,850.2454
"1238",86.61753,850.2587
"1239",94.35691,850.27203
"1240",100.665596,850.28534
"1241",104.62562,850.29865
"1242",106.107574,850.31195
"1243",105.69009,850.32526
"1244",104.17395,850.33856
"1245",102.18417,850.35187
"1246",100.13336,850.3652
"1247",98.268105,850.3785
"1248",96.67628,850.3918
"1249",95.30419,850.4051
"1250",93.9736,850.4184
"1251",92.46967,850.4317
"1252",90.62394,850.445
"1253",88.41932,850.4583
"1254",86.00717,850.4716
"1255",83.67803,850.4849
"1256",81.74197,850.4982
"1257",80.39185,850.51154
"1258",79.64233,850.52484
"1259",79.3518,850.53815
"1260",79.293205,850.55145
"1261",79.217514,850.56476
"1262",78.96117,850.57806
"1263",78.45823,850.5914
"1264",77.72335,850.6047
"1265",76.807816,850.618
"1266",75.77753,850.6313
"1267",74.69596,850.6446
"1268",73.62417,850.6579
"1269",72.60609,850.6712
"1270",71.67101,850.6845
"1271",70.82628,850.6978
"1272",70.05722,850.7111
"1273",69.33456,850.7244
"1274",68.628975,850.73773
"1275",67.92584,850.75104
"1276",67.24956,850.76434
"1277",66.62943,850.77765
"1278",66.106964,850.79095
"1279",65.69924,850.80426
"1280",65.38918,850.81757
"1281",65.13771,850.8309
"1282",64.900894,850.8442
"1283",64.656746,850.8575
"1284",64.39796,850.8708
"1285",64.16846,850.8841
"1286",64.10742,850.8974
"1287",64.637215,850.9107
"1288",66.48051,850.924
"1289",70.345314,850.9373
"1290",76.383,850.9506
"1291",83.95392,850.9639
"1292",91.842224,850.97723
"1293",98.62943,850.99054
"1294",103.199814,851.00385
"1295",105.14809,851.01715
"1296",104.87465,851.03046
"1297",103.17296,851.04376
"1298",100.787674,851.05707
"1299",98.24124,851.0704
"1300",95.87549,851.0837
"1301",93.873505,851.097
"1302",92.22064,851.1103
"1303",90.760666,851.1236
"1304",89.26162,851.1369
"1305",87.57946,851.1502
"1306",85.72396,851.1635
"1307",83.878235,851.1768
"1308",82.31571,851.1901
"1309",81.24635,851.2034
"1310",80.726326,851.21674
"1311",80.62379,851.23004
"1312",80.69215,851.24335
"1313",80.67017,851.25665
"1314",80.377205,851.26996
"1315",79.7351,851.28326
"1316",78.751205,851.2966
"1317",77.51583,851.3099
"1318",76.1413,851.3232
"1319",74.73502,851.3365
"1320",73.38735,851.3498
"1321",72.15442,851.3631
"1322",71.07774,851.3764
"1323",70.15976,851.3897
"1324",69.39071,851.403
"1325",68.75105,851.4163
"1326",68.22125,851.4296
"1327",67.78668,851.44293
"1328",67.45464,851.45624
"1329",67.21294,851.46954
"1330",67.06157,851.48285
"1331",66.983444,851.49615
"1332",66.966354,851.50946
"1333",67.000534,851.52277
"1334",67.071335,851.5361
"1335",67.16899,851.5494
"1336",67.29351,851.5627
"1337",67.50347,851.576
"1338",68.04303,851.5893
"1339",69.48592,851.6026
"1340",72.5304,851.6159
"1341",77.503624,851.6292
"1342",84.03693,851.6425
"1343",91.16838,851.6558
"1344",97.64797,851.6691
"1345",102.34043,851.68243
"1346",104.67933,851.69574
"1347",104.86244,851.70905
"1348",103.57336,851.72235
"1349",101.51766,851.73566
"1350",99.21538,851.74896
"1351",97.00343,851.76227
"1352",95.07225,851.7756
"1353",93.46822,851.7889
"1354",92.088806,851.8022
"1355",90.74845,851.8155
"1356",89.2665,851.8288
"1357",87.55749,851.8421
"1358",85.68734,851.8554
"1359",83.8465,851.8687
"1360",82.25956,851.882
"1361",81.09743,851.8953
"1362",80.38209,851.9086
"1363",80.01099,851.92194
"1364",79.798584,851.93524
"1365",79.56664,851.94855
"1366",79.1638,851.96185
"1367",78.52659,851.97516
"1368",77.65255,851.98846
"1369",76.60029,852.0018
"1370",75.45037,852.0151
"1371",74.285805,852.0284
"1372",73.1725,852.0417
"1373",72.15686,852.055
"1374",71.255974,852.0683
"1375",70.47227,852.0816
"1376",69.79843,852.0949
"1377",69.222244,852.1082
"1378",68.73884,852.1215
"1379",68.34333,852.1348
"1380",68.03082,852.14813
"1381",67.79645,852.16144
"1382",67.62554,852.17474
"1383",67.49859,852.18805
"1384",67.40093,852.20135
"1385",67.320366,852.21466
"1386",67.23979,852.22797
"1387",67.1519,852.2413
"1388",67.06645,852.2546
"1389",67.0103,852.2679
"1390",67.125046,852.2812
"1391",67.84772,852.2945
"1392",69.90341,852.3078
"1393",73.829254,852.3211
"1394",79.517815,852.3344
"1395",86.18051,852.3477
"1396",92.65766,852.361
"1397",97.75784,852.3743
"1398",100.69245,852.38763
"1399",101.41268,852.40094
"1400",100.52888,852.41425
"1401",98.78325,852.42755
"1402",96.71534,852.44086
"1403",94.659645,852.45416
"1404",92.83101,852.46747
"1405",91.3222,852.4808
"1406",90.10635,852.4941
"1407",89.05165,852.5074
"1408",87.974976,852.5207
"1409",86.729836,852.534
"1410",85.2723,852.5473
"1411",83.682915,852.5606
"1412",82.11795,852.5739
"1413",80.75807,852.5872
"1414",79.725334,852.6005
"1415",79.029526,852.61383
"1416",78.57542,852.62714
"1417",78.22385,852.64044
"1418",77.83322,852.65375
"1419",77.29366,852.66705
"1420",76.54902,852.68036
"1421",75.60906,852.69366
"1422",74.53239,852.707
"1423",73.39956,852.7203
"1424",72.291145,852.7336
"1425",71.275505,852.7469
"1426",70.38682,852.7602
"1427",69.63729,852.7735
"1428",68.997635,852.7868
"1429",68.44831,852.8001
"1430",67.97711,852.8134
"1431",67.58648,852.8267
"1432",67.29107,852.84
"1433",67.107956,852.85333
"1434",67.04936,852.86664
"1435",67.10063,852.87994
"1436",67.22514,852.89325
"1437",67.37896,852.90656
"1438",67.508354,852.91986
"1439",67.579155,852.93317
"1440",67.56939,852.9465
"1441",67.48882,852.9598
"1442",67.37896,852.9731
"1443",67.40337,852.9864
"1444",68.02106,852.9997
"1445",69.9913,853.013
"1446",73.88052,853.0263
"1447",79.569084,853.0396
"1448",86.25376,853.0529
"1449",92.76021,853.0662
"1450",97.882355,853.0795
"1451",100.81941,853.09283
"1452",101.542076,853.10614
"1453",100.65827,853.11945
"1454",98.915085,853.13275
"1455",96.84474,853.14606
"1456",94.784164,853.15936
"1457",92.9482,853.17267
"1458",91.44427,853.186
"1459",90.23819,853.1993
"1460",89.195694,853.2126
"1461",88.14099,853.2259
"1462",86.956894,853.2392
"1463",85.63851,853.2525
"1464",84.298164,853.2658
"1465",83.104294,853.2791
"1466",82.2034,853.2924
"1467",81.64187,853.3057
"1468",81.35134,853.31903
"1469",81.18288,853.33234
"1470",80.9778,853.34564
"1471",80.601814,853.35895
"1472",79.98901,853.37225
"1473",79.12962,853.38556
"1474",78.06271,853.39886
"1475",76.86153,853.4122
"1476",75.62615,853.4255
"1477",74.43473,853.4388
"1478",73.358055,853.4521
"1479",72.447395,853.4654
"1480",71.727165,853.4787
"1481",71.19249,853.492
"1482",70.83116,853.5053
"1483",70.623634,853.5186
"1484",70.54307,853.5319
"1485",70.56748,853.5452
"1486",70.66758,853.55853
"1487",70.82384,853.57184
"1488",71.009384,853.58514
"1489",71.202255,853.59845
"1490",71.3756,853.61176
"1491",71.505,853.62506
"1492",71.59045,853.63837
"1493",71.66125,853.6517
"1494",71.91028,853.665
"1495",72.84779,853.6783
"1496",75.06706,853.6916
"1497",78.80492,853.7049
"1498",83.70977,853.7182
"1499",88.99306,853.7315
"1500",93.680626,853.7448
"1501",96.903336,853.7581
"1502",98.26078,853.7714
"1503",97.98978,853.7847
"1504",96.68116,853.79803
"1505",94.86961,853.81134
"1506",92.94087,853.82465
"1507",91.16594,853.83795
"1508",89.7084,853.85126
"1509",88.59266,853.86456
"1510",87.72106,853.87787
"1511",86.91783,853.8912
"1512",86.0267,853.9045
"1513",84.981766,853.9178
"1514",83.844055,853.9311
"1515",82.75517,853.9444
"1516",81.87625,853.9577
"1517",81.304955,853.971
"1518",81.024185,853.9843
"1519",80.92409,853.9976
"1520",80.85573,854.0109
"1521",80.68726,854.02423
"1522",80.3357,854.03754
"1523",79.77661,854.05084
"1524",79.03197,854.06415
"1525",78.15793,854.07745
"1526",77.222855,854.09076
"1527",76.29267,854.10406
"1528",75.43572,854.1174
"1529",74.69596,854.1307
"1530",74.10513,854.144
"1531",73.66567,854.1573
"1532",73.36538,854.1706
"1533",73.17738,854.1839
"1534",73.0724,854.1972
"1535",73.01625,854.2105
"1536",72.98695,854.2238
"1537",72.96254,854.2371
"1538",72.94301,854.2504
"1539",72.90639,854.26373
"1540",72.84291,854.27704
"1541",72.74769,854.29034
"1542",72.64759,854.30365
"1543",72.672005,854.31696
"1544",73.20668,854.33026
"1545",74.77409,854.34357
"1546",77.65011,854.3569
"1547",81.6321,854.3702
"1548",86.11459,854.3835
"1549",90.287025,854.3968
"1550",93.35348,854.4101
"1551",94.8745,854.4234
"1552",94.9453,854.4367
"1553",94.01511,854.45
"1554",92.560005,854.4633
"1555",90.92912,854.4766
"1556",89.393456,854.4899
"1557",88.114136,854.50323
"1558",87.14244,854.51654
"1559",86.42466,854.52985
"1560",85.821625,854.54315
"1561",85.169754,854.55646
"1562",84.3592,854.56976
"1563",83.38262,854.58307
"1564",82.3328,854.5964
"1565",81.36599,854.6097
"1566",80.61646,854.623
"1567",80.15991,854.6363
"1568",79.95972,854.6496
"1569",79.91577,854.6629
"1570",79.89624,854.6762
"1571",79.79614,854.6895
"1572",79.551994,854.7028
"1573",79.14671,854.7161
"1574",78.59983,854.72943
"1575",77.95285,854.74274
"1576",77.24727,854.75604
"1577",76.524605,854.76935
"1578",75.82391,854.78265
"1579",75.1696,854.79596
"1580",74.57877,854.80927
"1581",74.06119,854.8226
"1582",73.62173,854.8359
"1583",73.255516,854.8492
"1584",72.95766,854.8625
"1585",72.73304,854.8758
"1586",72.57679,854.8891
"1587",72.47669,854.9024
"1588",72.413216,854.9157
"1589",72.361946,854.929
"1590",72.30579,854.9423
"1591",72.22034,854.9556
"1592",72.10559,854.96893
"1593",71.9884,854.98224
"1594",72.00305,854.99554
"1595",72.54261,855.00885
"1596",74.13199,855.02216
"1597",77.069046,855.03546
"1598",81.160904,855.04877
"1599",85.79477,855.0621
"1600",90.14786,855.0754
"1601",93.399864,855.0887
"1602",95.08446,855.102
"1603",95.291985,855.1153
"1604",94.49119,855.1286
"1605",93.170364,855.1419
"1606",91.69817,855.1552
"1607",90.338295,855.1685
"1608",89.22743,855.1818
"1609",88.40467,855.1951
"1610",87.801636,855.20844
"1611",87.274284,855.22174
"1612",86.67124,855.23505
"1613",85.88022,855.24835
"1614",84.87923,855.26166
"1615",83.74639,855.27496
"1616",82.63065,855.28827
"1617",81.68337,855.3016
"1618",81.007095,855.3149
"1619",80.618904,855.3282
"1620",80.445564,855.3415
"1621",80.36256,855.3548
"1622",80.25025,855.3681
"1623",80.028076,855.3814
"1624",79.66186,855.3947
"1625",79.15892,855.408
"1626",78.551,855.4213
"1627",77.872284,855.43463
"1628",77.16426,855.44794
"1629",76.44892,855.46124
"1630",75.75311,855.47455
"1631",75.10124,855.48785
"1632",74.510414,855.50116
"1633",73.99283,855.51447
"1634",73.5436,855.5278
"1635",73.16762,855.5411
"1636",72.86244,855.5544
"1637",72.62318,855.5677
"1638",72.44984,855.581
"1639",72.33997,855.5943
"1640",72.274055,855.6076
"1641",72.22766,855.6209
"1642",72.17395,855.6342
"1643",72.10071,855.6475
"1644",71.9884,855.6608
"1645",71.851685,855.67413
"1646",71.73937,855.68744
"1647",71.81506,855.70074
"1648",72.50111,855.71405
"1649",74.3151,855.72736
"1650",77.49386,855.74066
"1651",81.78348,855.75397
"1652",86.52964,855.7673
"1653",90.8925,855.7806
"1654",94.083466,855.7939
"1655",95.692375,855.8072
"1656",95.868164,855.8205
"1657",95.10155,855.8338
"1658",93.85886,855.8471
"1659",92.489204,855.8604
"1660",91.21965,855.8737
"1661",90.16983,855.887
"1662",89.35195,855.9003
"1663",88.707405,855.91364
"1664",88.097046,855.92694
"1665",87.38903,855.94025
"1666",86.49058,855.95355
"1667",85.40902,855.96686
"1668",84.23956,855.98016
"1669",83.12627,855.99347
"1670",82.21561,856.0068
"1671",81.58572,856.0201
"1672",81.22438,856.0334
"1673",81.03639,856.0467
"1674",80.90944,856.06
"1675",80.73365,856.0733
"1676",80.45045,856.0866
"1677",80.03296,856.0999
"1678",79.500725,856.1132
"1679",78.887924,856.1265
"1680",78.24094,856.13983
"1681",77.591515,856.15314
"1682",76.96895,856.16644
"1683",76.40009,856.17975
"1684",75.90204,856.19305
"1685",75.48211,856.20636
"1686",75.13542,856.21967
"1687",74.85466,856.233
"1688",74.634926,856.2463
"1689",74.46647,856.2596
"1690",74.33219,856.2729
"1691",74.232086,856.2862
"1692",74.15396,856.2995
"1693",74.08072,856.3128
"1694",73.99039,856.3261
"1695",73.865875,856.3394
"1696",73.69009,856.3527
"1697",73.45083,856.366
"1698",73.1432,856.37933
"1699",72.80141,856.39264
"1700",72.49378,856.40594
"1701",72.430305,856.41925
"1702",73.05043,856.43256
"1703",74.830246,856.44586
"1704",77.90646,856.45917
"1705",81.951935,856.4725
"1706",86.30015,856.4858
"1707",90.14053,856.4991
"1708",92.76265,856.5124
"1709",93.87106,856.5257
"1710",93.697716,856.539
"1711",92.716255,856.5523
"1712",91.37347,856.5656
"1713",89.986725,856.5789
"1714",88.763565,856.5922
"1715",87.79675,856.6055
"1716",87.07164,856.61884
"1717",86.485695,856.63214
"1718",85.88266,856.64545
"1719",85.135574,856.65875
"1720",84.2005,856.67206
"1721",83.123825,856.68536
"1722",82.03494,856.69867
"1723",81.08034,856.712
"1724",80.36744,856.7253
"1725",79.920654,856.7386
"1726",79.68871,856.7519
"1727",79.56176,856.7652
"1728",79.432365,856.7785
"1729",79.20775,856.7918
"1730",78.84886,856.8051
"1731",78.348366,856.8184
"1732",77.73556,856.8317
"1733",77.051956,856.84503
"1734",76.34882,856.85834
"1735",75.65545,856.87164
"1736",74.99138,856.88495
"1737",74.36393,856.89825
"1738",73.777985,856.91156
"1739",73.23842,856.92487
"1740",72.75258,856.9382
"1741",72.32288,856.9515
"1742",71.96643,856.9648
"1743",71.675896,856.9781
"1744",71.4464,856.9914
"1745",71.26574,857.0047
"1746",71.11192,857.018
"1747",70.96544,857.0313
"1748",70.79698,857.0446
"1749",70.59678,857.0579
"1750",70.37461,857.0712
"1751",70.14511,857.08453
"1752",69.9205,857.09784
"1753",69.72274,857.11115
"1754",69.58358,857.12445
"1755",69.62997,857.13776
"1756",70.24765,857.15106
"1757",72.01282,857.16437
"1758",75.27703,857.1777
"1759",79.84741,857.191
"1760",85.04768,857.2043
"1761",89.96475,857.2176
"1762",93.7026,857.2309
"1763",95.73632,857.2442
"1764",96.14404,857.2575
"1765",95.45312,857.2708
"1766",94.2153,857.2841
"1767",92.81148,857.2974
"1768",91.490654,857.3107
"1769",90.389565,857.32404
"1770",89.53994,857.33734
"1771",88.868546,857.35065
"1772",88.24109,857.36395
"1773",87.53063,857.37726
"1774",86.66636,857.39056
"1775",85.677574,857.4039
"1776",84.661934,857.4172
"1777",83.76105,857.4305
"1778",83.072556,857.4438
"1779",82.62089,857.4571
"1780",82.35233,857.4704
"1781",82.16434,857.4837
"1782",81.94949,857.497
"1783",81.6321,857.5103
"1784",81.17067,857.5236
"1785",80.570076,857.5369
"1786",79.85962,857.55023
"1787",79.06859,857.56354
"1788",78.22629,857.57684
"1789",77.36202,857.59015
"1790",76.49775,857.60345
"1791",75.648125,857.61676
"1792",74.82536,857.63007
"1793",74.04654,857.6434
"1794",73.31899,857.6567
"1795",72.65247,857.67
"1796",72.059204,857.6833
"1797",71.55627,857.6966
"1798",71.15343,857.7099
"1799",70.8629,857.7232
"1800",70.68223,857.7365
"1801",70.59922,857.7498
"1802",70.57725,857.7631
"1803",70.58457,857.7764
"1804",70.58213,857.78973
"1805",70.555275,857.80304
"1806",70.48936,857.81635
"1807",70.41367,857.82965
"1808",70.37949,857.84296
"1809",70.54551,857.85626
"1810",71.309685,857.86957
"1811",73.22133,857.8829
"1812",76.58564,857.8962
"1813",81.17555,857.9095
"1814",86.312355,857.9228
"1815",91.11467,857.9361
"1816",94.728004,857.9494
"1817",96.654305,857.9627
"1818",96.988785,857.976
"1819",96.23193,857.9893
"1820",94.89403,858.0026
"1821",93.34371,858.0159
"1822",91.8349,858.02924
"1823",90.52628,858.04254
"1824",89.461815,858.05585
"1825",88.585335,858.06915
"1826",87.767456,858.08246
"1827",86.890976,858.09576
"1828",85.892426,858.1091
"1829",84.81087,858.1224
"1830",83.75128,858.1357
"1831",82.847946,858.149
"1832",82.18143,858.1623
"1833",81.74685,858.1756
"1834",81.463646,858.1889
"1835",81.214615,858.2022
"1836",80.89235,858.2155
"1837",80.43336,858.2288
"1838",79.81079,858.2421
"1839",79.046616,858.25543
"1840",78.17258,858.26874
"1841",77.2375,858.28204
"1842",76.280464,858.29535
"1843",75.338066,858.30865
"1844",74.44694,858.32196
"1845",73.63149,858.33527
"1846",72.91371,858.3486
"1847",72.29603,858.3619
"1848",71.78088,858.3752
"1849",71.363396,858.3885
"1850",71.04112,858.4018
"1851",70.81163,858.4151
"1852",70.67979,858.4284
"1853",70.640724,858.4417
"1854",70.68467,858.455
"1855",70.784775,858.4683
"1856",70.906845,858.4816
"1857",71.01671,858.49493
"1858",71.07774,858.50824
"1859",71.07774,858.52155
"1860",71.028915,858.53485
"1861",70.97032,858.54816
"1862",70.99718,858.56146
"1863",71.38537,858.57477
"1864",72.63294,858.5881
"1865",75.208664,858.6014
"1866",79.1638,858.6147
"1867",84.02472,858.628
"1868",89.00282,858.6413
"1869",93.19966,858.6546
"1870",95.91211,858.6679
"1871",96.92287,858.6812
"1872",96.56397,858.6945
"1873",95.37255,858.7078
"1874",93.785614,858.7211
"1875",92.120544,858.73444
"1876",90.5922,858.74774
"1877",89.31777,858.76105
"1878",88.29969,858.77435
"1879",87.4403,858.78766
"1880",86.60532,858.80096
"1881",85.69222,858.8143
"1882",84.68879,858.8276
"1883",83.67071,858.8409
"1884",82.76738,858.8542
"1885",82.08865,858.8675
"1886",81.668724,858.8808
"1887",81.45144,858.8941
"1888",81.31716,858.9074
"1889",81.143814,858.9207
"1890",80.848404,858.934
"1891",80.37965,858.9473
"1892",79.73998,858.96063
"1893",78.96605,858.97394
"1894",78.10666,858.98724
"1895",77.208206,859.00055
"1896",76.30976,859.01385
"1897",75.457695,859.02716
"1898",74.67399,859.04047
"1899",73.97818,859.0538
"1900",73.38491,859.0671
"1901",72.89662,859.0804
"1902",72.50599,859.0937
"1903",72.20325,859.107
"1904",71.98352,859.1203
"1905",71.837036,859.1336
"1906",71.74914,859.1469
"1907",71.707634,859.1602
"1908",71.690544,859.1735
"1909",71.675896,859.1868
"1910",71.6466,859.20013
"1911",71.58068,859.21344
"1912",71.4757,859.22675
"1913",71.33898,859.24005
"1914",71.202255,859.25336
"1915",71.15587,859.26666
"1916",71.49035,859.27997
"1917",72.708626,859.2933
"1918",75.2404,859.3066
"1919",79.07347,859.3199
"1920",83.72686,859.3332
"1921",88.41688,859.3465
"1922",92.281685,859.3598
"1923",94.66697,859.3731
"1924",95.43603,859.3864
"1925",94.93553,859.3997
"1926",93.66598,859.413
"1927",92.04486,859.42633
"1928",90.3798,859.43964
"1929",88.88075,859.45294
"1930",87.66247,859.46625
"1931",86.71763,859.47955
"1932",85.94614,859.49286
"1933",85.21126,859.50616
"1934",84.41291,859.5195
"1935",83.543755,859.5328
"1936",82.684364,859.5461
"1937",81.94949,859.5594
"1938",81.42947,859.5727
"1939",81.14137,859.586
"1940",81.0193,859.5993
"1941",80.94362,859.6126
"1942",80.80446,859.6259
"1943",80.51881,859.6392
"1944",80.05249,859.6525
"1945",79.40307,859.66583
"1946",78.61204,859.67914
"1947",77.72579,859.69244
"1948",76.81026,859.70575
"1949",75.90692,859.71906
"1950",75.05974,859.73236
"1951",74.27848,859.74567
"1952",73.568016,859.759
"1953",72.9308,859.7723
"1954",72.35462,859.7856
"1955",71.84192,859.7989
"1956",71.39269,859.8122
"1957",71.02403,859.8255
"1958",70.73594,859.8388
"1959",70.54307,859.8521
"1960",70.435646,859.8654
"1961",70.39414,859.8787
"1962",70.39414,859.892
"1963",70.40147,859.90533
"1964",70.3917,859.91864
"1965",70.35996,859.93195
"1966",70.33555,859.94525
"1967",70.38438,859.95856
"1968",70.74082,859.97186
"1969",71.871216,859.98517
"1970",74.23941,859.9985
"1971",77.95285,860.0118
"1972",82.62577,860.0251
"1973",87.52819,860.0384
"1974",91.80072,860.0517
"1975",94.72068,860.065
"1976",96.01221,860.0783
"1977",95.92676,860.0916
"1978",94.96483,860.1049
"1979",93.556114,860.1182
"1980",92.02045,860.13153
"1981",90.58732,860.14484
"1982",89.37148,860.15814
"1983",88.38758,860.17145
"1984",87.55749,860.18475
"1985",86.76402,860.19806
"1986",85.91928,860.21136
"1987",85.013504,860.2247
"1988",84.11017,860.238
"1989",83.31426,860.2513
"1990",82.71366,860.2646
"1991",82.33036,860.2779
"1992",82.11551,860.2912
"1993",81.969025,860.3045
"1994",81.78836,860.3178
"1995",81.497826,860.3311
"1996",81.058365,860.3444
"1997",80.46754,860.3577
"1998",79.7522,860.37103
"1999",78.95628,860.38434
"2000",78.13107,860.39764
"2001",77.31808,860.41095
"2002",76.561226,860.42426
"2003",75.88983,860.43756
"2004",75.31365,860.45087
"2005",74.82292,860.4642
"2006",74.39811,860.4775
"2007",74.022125,860.4908
"2008",73.69497,860.5041
"2009",73.41421,860.5174
"2010",73.18471,860.5307
"2011",73.01625,860.544
"2012",72.901505,860.5573
"2013",72.813614,860.5706
"2014",72.73304,860.5839
"2015",72.637825,860.5972
"2016",72.518196,860.61053
"2017",72.376595,860.62384
"2018",72.274055,860.63715
"2019",72.40833,860.65045
"2020",73.20912,860.66376
"2021",75.13054,860.67706
"2022",78.30198,860.69037
"2023",82.406044,860.7037
"2024",86.79332,860.717
"2025",90.67033,860.7303
"2026",93.33883,860.7436
"2027",94.49607,860.7569
"2028",94.33982,860.7702
"2029",93.314415,860.7835
"2030",91.82269,860.7968
"2031",90.196686,860.8101
"2032",88.68055,860.8234
"2033",87.40856,860.83673
"2034",86.41245,860.85004
"2035",85.60677,860.86334
"2036",84.86702,860.87665
"2037",84.102844,860.88995
"2038",83.29229,860.90326
"2039",82.50614,860.91656
"2040",81.85672,860.9299
"2041",81.43435,860.9432
"2042",81.25124,860.9565
"2043",81.23659,860.9698
"2044",81.26345,860.9831
"2045",81.214615,860.9964
"2046",81.004654,861.0097
"2047",80.60914,861.023
"2048",80.0354,861.0363
"2049",79.33227,861.0496
"2050",78.553444,861.0629
"2051",77.75998,861.07623
"2052",77.00313,861.08954
"2053",76.32441,861.10284
"2054",75.74578,861.11615
"2055",75.27947,861.12946
"2056",74.91325,861.14276
"2057",74.634926,861.15607
"2058",74.42252,861.1694
"2059",74.26139,861.1827
"2060",74.13443,861.196
"2061",74.022125,861.2093
"2062",73.90494,861.2226
"2063",73.77554,861.2359
"2064",73.62417,861.2492
"2065",73.45327,861.2625
"2066",73.27505,861.2758
"2067",73.1725,861.2891
"2068",73.38491,861.3024
"2069",74.31266,861.31573
"2070",76.29267,861.32904
"2071",79.32494,861.34235
"2072",83.04326,861.35565
"2073",86.84215,861.36896
"2074",90.02579,861.38226
"2075",92.05463,861.39557
"2076",92.79683,861.4089
"2077",92.48676,861.4222
"2078",91.5053,861.4355
"2079",90.196686,861.4488
"2080",88.84169,861.4621
"2081",87.638054,861.4754
"2082",86.68101,861.4887
"2083",85.94614,861.502
"2084",85.32845,861.5153
"2085",84.69367,861.5286
"2086",83.9588,861.54193
"2087",83.123825,861.55524
"2088",82.27909,861.56854
"2089",81.54665,861.58185
"2090",81.024185,861.59515
"2091",80.72877,861.60846
"2092",80.59937,861.62177
"2093",80.52369,861.6351
"2094",80.394295,861.6484
"2095",80.13306,861.6617
"2096",79.708244,861.675
"2097",79.11742,861.6883
"2098",78.4094,861.7016
"2099",77.63546,861.7149
"2100",76.85664,861.7282
"2101",76.11932,861.7415
"2102",75.46502,861.7548
"2103",74.91325,861.7681
"2104",74.47135,861.78143
"2105",74.13931,861.79474
"2106",73.900055,861.80804
"2107",73.73403,861.82135
"2108",73.619286,861.83466
"2109",73.53628,861.84796
"2110",73.463036,861.86127
"2111",73.38735,861.8746
"2112",73.306786,861.8879
"2113",73.22621,861.9012
"2114",73.17738,861.9145
"2115",73.27505,861.9278
"2116",73.78775,861.9411
"2117",75.06218,861.9544
"2118",77.296104,861.9677
"2119",80.35767,861.981
"2120",83.861145,861.9943
"2121",87.22789,862.0076
"2122",89.881744,862.02094
"2123",91.45159,862.03424
"2124",91.947205,862.04755
"2125",91.62493,862.06085
"2126",90.809494,862.07416
"2127",89.79874,862.08746
"2128",88.82948,862.10077
"2129",88.03357,862.1141
"2130",87.4403,862.1274
"2131",86.98131,862.1407
"2132",86.5272,862.154
"2133",85.94614,862.1673
"2134",85.17708,862.1806
"2135",84.23956,862.1939
"2136",83.243454,862.2072
"2137",82.3328,862.2205
"2138",81.619896,862.2338
"2139",81.143814,862.24713
"2140",80.87526,862.26044
"2141",80.71168,862.27374
"2142",80.56031,862.28705
"2143",80.33082,862.30035
"2144",79.98413,862.31366
"2145",79.51293,862.32697
"2146",78.94896,862.3403
"2147",78.331276,862.3536
"2148",77.69894,862.3669
"2149",77.09346,862.3802
"2150",76.53681,862.3935
"2151",76.04852,862.4068
"2152",75.63836,862.4201
"2153",75.30633,862.4334
"2154",75.04509,862.4467
"2155",74.847336,862.46
"2156",74.6984,862.4733
"2157",74.581215,862.48663
"2158",74.478676,862.49994
"2159",74.373695,862.51324
"2160",74.249176,862.52655
"2161",74.10269,862.53986
"2162",73.944,862.55316
"2163",73.814606,862.56647
"2164",73.8732,862.5798
"2165",74.43473,862.5931
"2166",75.82147,862.6064
"2167",78.1384,862.6197
"2168",81.1902,862.633
"2169",84.525215,862.6463
"2170",87.56481,862.6596
"2171",89.76944,862.6729
"2172",90.8925,862.6862
"2173",91.02922,862.6995
"2174",90.47501,862.7128
"2175",89.55215,862.72614
"2176",88.54627,862.73944
"2177",87.657585,862.75275
"2178",86.98619,862.76605
"2179",86.5272,862.77936
"2180",86.17807,862.79266
"2181",85.79477,862.80597
"2182",85.24788,862.8193
"2183",84.48371,862.8326
"2184",83.54131,862.8459
"2185",82.54276,862.8592
"2186",81.64431,862.8725
"2187",80.96803,862.8858
"2188",80.55543,862.8991
"2189",80.36744,862.9124
"2190",80.30396,862.9257
"2191",80.2478,862.939
"2192",80.09888,862.95233
"2193",79.80591,862.96564
"2194",79.364006,862.97894
"2195",78.80736,862.99225
"2196",78.167694,863.00555
"2197",77.49386,863.01886
"2198",76.824905,863.03217
"2199",76.1828,863.0455
"2200",75.58709,863.0588
"2201",75.04753,863.0721
"2202",74.57633,863.0854
"2203",74.175934,863.0987
"2204",73.85611,863.112
"2205",73.60708,863.1253
"2206",73.428856,863.1386
"2207",73.29946,863.1519
"2208",73.196915,863.1652
"2209",73.1017,863.1785
"2210",72.99428,863.19183
"2211",72.86488,863.20514
"2212",72.708626,863.21844
"2213",72.54749,863.23175
"2214",72.4596,863.24506
"2215",72.70374,863.25836
"2216",73.65591,863.27167
"2217",75.5993,863.285
"2218",78.51194,863.2983
"2219",82.04959,863.3116
"2220",85.63119,863.3249
"2221",88.61463,863.3382
"2222",90.531166,863.3515
"2223",91.283134,863.3648
"2224",91.107346,863.3781
"2225",90.35783,863.3914
"2226",89.3666,863.4047
"2227",88.38758,863.418
"2228",87.57458,863.43134
"2229",86.96666,863.44464
"2230",86.51255,863.45795
"2231",86.08774,863.47125
"2232",85.555504,863.48456
"2233",84.823074,863.49786
"2234",83.878235,863.51117
"2235",82.79912,863.5245
"2236",81.72732,863.5378
"2237",80.81911,863.5511
"2238",80.17212,863.5644
"2239",79.80347,863.5777
"2240",79.63744,863.591
"2241",79.551994,863.6043
"2242",79.43725,863.6176
"2243",79.202866,863.6309
"2244",78.81712,863.6442
"2245",78.2971,863.65753
"2246",77.67452,863.67084
"2247",77.00313,863.68414
"2248",76.31953,863.69745
"2249",75.648125,863.71075
"2250",75.01091,863.72406
"2251",74.42985,863.73737
"2252",73.9147,863.7507
"2253",73.46548,863.764
"2254",73.091934,863.7773
"2255",72.78676,863.7906
"2256",72.549934,863.8039
"2257",72.36683,863.8172
"2258",72.234985,863.8305
"2259",72.14465,863.8438
"2260",72.08118,863.8571
"2261",72.0177,863.8704
"2262",71.93713,863.8837
"2263",71.82727,863.89703
"2264",71.68322,863.91034
"2265",71.52697,863.92365
"2266",71.45129,863.93695
"2267",71.724724,863.95026
"2268",72.75746,863.96356
"2269",74.85954,863.97687
"2270",78.013885,863.9902
"2271",81.85184,864.0035
"2272",85.767914,864.0168
"2273",89.0663,864.0301
"2274",91.244064,864.0434
"2275",92.1889,864.0567
"2276",92.140076,864.07
"2277",91.46136,864.0833
"2278",90.4921,864.0966
"2279",89.49111,864.1099
"2280",88.62684,864.1232
"2281",87.955444,864.13654
"2282",87.43786,864.14984
"2283",86.959335,864.16315
"2284",86.38804,864.17645
"2285",85.63851,864.18976
"2286",84.69611,864.20306
"2287",83.65362,864.2164
"2288",82.6453,864.2297
"2289",81.81033,864.243
"2290",81.22194,864.2563
"2291",80.88747,864.2696
"2292",80.72144,864.2829
"2293",80.61646,864.2962
"2294",80.465096,864.3095
"2295",80.19653,864.3228
"2296",79.79126,864.3361
"2297",79.259026,864.3494
"2298",78.64622,864.36273
"2299",77.99191,864.37604
"2300",77.33761,864.38934
"2301",76.70527,864.40265
"2302",76.11688,864.41595
"2303",75.579765,864.42926
"2304",75.09392,864.44257
"2305",74.6569,864.4559
"2306",74.268715,864.4692
"2307",73.919586,864.4825
"2308",73.6144,864.4958
"2309",73.35317,864.5091
"2310",73.1432,864.5224
"2311",72.98451,864.5357
"2312",72.884415,864.549
"2313",72.82826,864.5623
"2314",72.80141,864.5756
"2315",72.77699,864.5889
"2316",72.73304,864.60223
"2317",72.65247,864.61554
"2318",72.52796,864.62885
"2319",72.361946,864.64215
"2320",72.1886,864.65546
"2321",72.12268,864.66876
"2322",72.47181,864.68207
"2323",73.670555,864.6954
"2324",76.00458,864.7087
"2325",79.39086,864.722
"2326",83.39239,864.7353
"2327",87.3402,864.7486
"2328",90.5214,864.7619
"2329",92.46723,864.7752
"2330",93.14595,864.7885
"2331",92.857864,864.8018
"2332",92.00824,864.8151
"2333",90.934006,864.8284
"2334",89.88907,864.84174
"2335",89.01503,864.85504
"2336",88.35584,864.86835
"2337",87.850464,864.88165
"2338",87.379265,864.89496
"2339",86.800644,864.90826
"2340",86.031586,864.9216
"2341",85.067215,864.9349
"2342",83.98566,864.9482
"2343",82.92607,864.9615
"2344",82.02762,864.9748
"2345",81.36599,864.9881
"2346",80.936295,865.0014
"2347",80.66773,865.0147
"2348",80.45533,865.028
"2349",80.198975,865.0413
"2350",79.84009,865.0546
"2351",79.35912,865.06793
"2352",78.77074,865.08124
"2353",78.10666,865.09454
"2354",77.40597,865.10785
"2355",76.70283,865.12115
"2356",76.02411,865.13446
"2357",75.389336,865.14777
"2358",74.810715,865.1611
"2359",74.285805,865.1744
"2360",73.812164,865.1877
"2361",73.38735,865.201
"2362",73.00893,865.2143
"2363",72.68421,865.2276
"2364",72.413216,865.2409
"2365",72.200806,865.2542
"2366",72.042114,865.2675
"2367",71.92737,865.2808
"2368",71.8468,865.2941
"2369",71.79553,865.30743
"2370",71.766235,865.32074
"2371",71.7467,865.33405
"2372",71.72228,865.34735
"2373",71.673454,865.36066
"2374",71.58312,865.37396
"2375",71.44396,865.38727
"2376",71.255974,865.4006
"2377",71.03868,865.4139
"2378",70.87999,865.4272
"2379",71.01915,865.4405
"2380",71.91272,865.4538
"2381",73.9733,865.4671
"2382",77.27169,865.4804
"2383",81.43923,865.4937
"2384",85.8143,865.507
"2385",89.6083,865.5203
"2386",92.17914,865.5336
"2387",93.31686,865.54694
"2388",93.26559,865.56024
"2389",92.45991,865.57355
"2390",91.285576,865.58685
"2391",90.037994,865.60016
"2392",88.919815,865.61346
"2393",88.0238,865.6268
"2394",87.3402,865.6401
"2395",86.78111,865.6534
"2396",86.21225,865.6667
"2397",85.52621,865.68
"2398",84.67414,865.6933
"2399",83.70489,865.7066
"2400",82.72831,865.7199
"2401",81.86893,865.7332
"2402",81.21706,865.7465
"2403",80.78737,865.7598
"2404",80.52613,865.77313
"2405",80.34058,865.78644
"2406",80.130615,865.79974
"2407",79.83032,865.81305
"2408",79.40795,865.82635
"2409",78.870834,865.83966
"2410",78.25559,865.85297
"2411",77.58907,865.8663
"2412",76.90791,865.8796
"2413",76.23163,865.8929
"2414",75.579765,865.9062
"2415",74.96208,865.9195
"2416",74.39811,865.9328
"2417",73.88785,865.9461
"2418",73.43862,865.9594
"2419",73.04799,865.9727
"2420",72.71351,865.986
"2421",72.43275,865.9993
"2422",72.20569,866.01263
"2423",72.027466,866.02594
"2424",71.90051,866.03925
"2425",71.82483,866.05255
"2426",71.79797,866.06586
"2427",71.81018,866.07916
"2428",71.84436,866.09247
"2429",71.87854,866.1058
"2430",71.888306,866.1191
"2431",71.85657,866.1324
"2432",71.77356,866.1457
"2433",71.64416,866.159
"2434",71.49279,866.1723
"2435",71.40978,866.1856
"2436",71.65148,866.1989
"2437",72.68177,866.2122
"2438",74.91081,866.2255
"2439",78.380104,866.23883
"2440",82.69169,866.25214
"2441",87.14244,866.26544
"2442",90.931564,866.27875
"2443",93.42184,866.29205
"2444",94.42771,866.30536
"2445",94.220184,866.31866
"2446",93.25826,866.332
"2447",91.932556,866.3453
"2448",90.531166,866.3586
"2449",89.25918,866.3719
"2450",88.21912,866.3852
"2451",87.40124,866.3985
"2452",86.72495,866.4118
"2453",86.06088,866.4251
"2454",85.30648,866.4384
"2455",84.44221,866.4517
"2456",83.52178,866.465
"2457",82.65507,866.47833
"2458",81.94949,866.49164
"2459",81.463646,866.50494
"2460",81.17311,866.51825
"2461",80.99977,866.53156
"2462",80.848404,866.54486
"2463",80.63111,866.55817
"2464",80.29908,866.5715
"2465",79.835205,866.5848
"2466",79.256584,866.5981
"2467",78.59251,866.6114
"2468",77.88693,866.6247
"2469",77.171585,866.638
"2470",76.46845,866.6513
"2471",75.7995,866.6646
"2472",75.18425,866.6779
"2473",74.63004,866.6912
"2474",74.14664,866.7045
"2475",73.72915,866.71783
"2476",73.38003,866.73114
"2477",73.094376,866.74445
"2478",72.85756,866.75775
"2479",72.672005,866.77106
"2480",72.535286,866.78436
"2481",72.44251,866.79767
"2482",72.39857,866.811
"2483",72.393684,866.8243
"2484",72.4181,866.8376
"2485",72.444954,866.8509
"2486",72.44984,866.8642
"2487",72.4181,866.8775
"2488",72.33265,866.8908
"2489",72.19348,866.9041
"2490",72.0177,866.9174
"2491",71.86633,866.9307
"2492",71.9469,866.94403
"2493",72.70374,866.95734
"2494",74.62272,866.97064
"2495",77.88205,866.98395
"2496",82.18631,866.99725
"2497",86.871445,867.01056
"2498",91.104904,867.02386
"2499",94.13229,867.0372
"2500",95.606926,867.0505
"2501",95.68993,867.0638
"2502",94.82323,867.0771
"2503",93.43893,867.0904
"2504",91.87396,867.1037
"2505",90.36759,867.117
"2506",89.07118,867.1303
"2507",88.03357,867.1436
"2508",87.203476,867.1569
"2509",86.47105,867.1702
"2510",85.72396,867.18353
"2511",84.910965,867.19684
"2512",84.06134,867.21014
"2513",83.25323,867.22345
"2514",82.58915,867.23676
"2515",82.1326,867.25006
"2516",81.864044,867.26337
"2517",81.705345,867.2767
"2518",81.55642,867.29
"2519",81.32693,867.3033
"2520",80.96071,867.3166
"2521",80.448006,867.3299
"2522",79.80835,867.3432
"2523",79.07591,867.3565
"2524",78.29221,867.3698
"2525",77.486534,867.3831
"2526",76.69306,867.3964
"2527",75.93866,867.4097
"2528",75.245285,867.42303
"2529",74.6276,867.43634
"2530",74.10513,867.44965
"2531",73.673,867.46295
"2532",73.31899,867.47626
"2533",73.02846,867.48956
"2534",72.798965,867.50287
"2535",72.62318,867.5162
"2536",72.49622,867.5295
"2537",72.4181,867.5428
"2538",72.3888,867.5561
"2539",72.396126,867.5694
"2540",72.430305,867.5827
"2541",72.4596,867.596
"2542",72.464485,867.6093
"2543",72.427864,867.6226
"2544",72.33997,867.6359
"2545",72.21301,867.64923
"2546",72.095825,867.66254
"2547",72.15686,867.67584
"2548",72.80629,867.68915
"2549",74.564125,867.70245
"2550",77.69894,867.71576
"2551",81.99344,867.72906
"2552",86.82262,867.7424
"2553",91.34661,867.7557
"2554",94.74265,867.769
"2555",96.54444,867.7823
"2556",96.82521,867.7956
"2557",96.01709,867.8089
"2558",94.574196,867.8222
"2559",92.85542,867.8355
"2560",91.14397,867.8488
"2561",89.62539,867.8621
"2562",88.39979,867.8754
"2563",87.44518,867.88873
"2564",86.65415,867.90204
"2565",85.89975,867.91534
"2566",85.09895,867.92865
"2567",84.24689,867.94196
"2568",83.421684,867.95526
"2569",82.72587,867.96857
"2570",82.23514,867.9819
"2571",81.94949,867.9952
"2572",81.78836,868.0085
"2573",81.654076,868.0218
"2574",81.45144,868.0351
"2575",81.11452,868.0484
"2576",80.621346,868.0617
"2577",79.97925,868.075
"2578",79.22484,868.0883
"2579",78.397194,868.1016
"2580",77.540245,868.1149
"2581",76.68818,868.12823
"2582",75.88251,868.14154
"2583",75.142746,868.15485
"2584",74.486,868.16815
"2585",73.917145,868.18146
"2586",73.43618,868.19476
"2587",73.03822,868.20807
"2588",72.72083,868.2214
"2589",72.47913,868.2347
"2590",72.31068,868.248
"2591",72.21057,868.2613
"2592",72.1593,868.2746
"2593",72.15442,868.2879
"2594",72.17151,868.3012
"2595",72.19104,868.3145
"2596",72.19348,868.3278
"2597",72.16174,868.3411
"2598",72.08606,868.35443
"2599",71.96399,868.36774
"2600",71.837036,868.38104
"2601",71.82727,868.39435
"2602",72.29359,868.40765
"2603",73.7731,868.42096
"2604",76.66132,868.43427
"2605",80.87526,868.4476
"2606",85.85336,868.4609
"2607",90.74845,868.4742
"2608",94.66697,868.4875
"2609",96.99855,868.5008
"2610",97.67727,868.5141
"2611",97.08644,868.5274
"2612",95.726555,868.5407
"2613",94.00046,868.554
"2614",92.20599,868.5673
"2615",90.56046,868.5806
"2616",89.18593,868.59393
"2617",88.09216,868.60724
"2618",87.201035,868.62054
"2619",86.38804,868.63385
"2620",85.56283,868.64716
"2621",84.70588,868.66046
"2622",83.878235,868.67377
"2623",83.18242,868.6871
"2624",82.69169,868.7004
"2625",82.41337,868.7137
"2626",82.27665,868.727
"2627",82.16922,868.7403
"2628",81.988556,868.7536
"2629",81.6614,868.7669
"2630",81.160904,868.7802
"2631",80.49683,868.7935
"2632",79.708244,868.8068
"2633",78.839096,868.8201
"2634",77.93088,868.83344
"2635",77.02754,868.84674
"2636",76.155945,868.86005
"2637",75.34539,868.87335
"2638",74.617836,868.88666
"2639",73.985504,868.89996
"2640",73.45083,868.91327
"2641",73.006485,868.9266
"2642",72.65003,868.9399
"2643",72.37171,868.9532
"2644",72.1593,868.9665
"2645",72.00305,868.9798
"2646",71.89563,868.9931
"2647",71.82971,869.0064
"2648",71.78821,869.0197
"2649",71.75891,869.033
"2650",71.73205,869.0463
"2651",71.69787,869.05963
"2652",71.64904,869.07294
"2653",71.59045,869.08624
"2654",71.568474,869.09955
"2655",71.75647,869.11285
"2656",72.586555,869.12616
"2657",74.58854,869.13947
"2658",78.01877,869.1528
"2659",82.62089,869.1661
"2660",87.71862,869.1794
"2661",92.42573,869.1927
"2662",95.904785,869.206
"2663",97.70168,869.2193
"2664",97.918976,869.2326
"2665",97.01564,869.2459
"2666",95.458,869.2592
"2667",93.60494,869.2725
"2668",91.737236,869.2858
"2669",90.055084,869.29913
"2670",88.656136,869.31244
"2671",87.52575,869.32574
"2672",86.588234,869.33905
"2673",85.76059,869.35236
"2674",84.99153,869.36566
"2675",84.281075,869.37897
"2676",83.68047,869.3923
"2677",83.25323,869.4056
"2678",83.01152,869.4189
"2679",82.90166,869.4322
"2680",82.83086,869.4455
"2681",82.71366,869.4588
"2682",82.4744,869.4721
"2683",82.0618,869.4854
"2684",81.47585,869.4987
"2685",80.73853,869.512
"2686",79.886475,869.5253
"2687",78.96849,869.53864
"2688",78.028534,869.55194
"2689",77.10811,869.56525
"2690",76.24872,869.57855
"2691",75.47723,869.59186
"2692",74.80583,869.60516
"2693",74.23697,869.61847
"2694",73.76578,869.6318
"2695",73.38979,869.6451
"2696",73.09926,869.6584
"2697",72.8893,869.6717
"2698",72.7599,869.685
"2699",72.69642,869.6983
"2700",72.672005,869.7116
"2701",72.66956,869.7249
"2702",72.654915,869.7382
"2703",72.59876,869.7515
"2704",72.4889,869.76483
"2705",72.33021,869.77814
"2706",72.149536,869.79144
"2707",72.00305,869.80475
"2708",72.05676,869.81805
"2709",72.69886,869.83136
"2710",74.459145,869.84467
"2711",77.61593,869.858
"2712",81.97391,869.8713
"2713",86.9276,869.8846
"2714",91.629814,869.8979
"2715",95.25048,869.9112
"2716",97.27932,869.9245
"2717",97.77005,869.9378
"2718",97.127945,869.9511
"2719",95.80957,869.9644
"2720",94.17868,869.9777
"2721",92.5185,869.991
"2722",91.019455,870.00433
"2723",89.776764,870.01764
"2724",88.76601,870.03094
"2725",87.89441,870.04425
"2726",87.0692,870.05756
"2727",86.24643,870.07086
"2728",85.46273,870.08417
"2729",84.8011,870.0975
"2730",84.32746,870.1108
"2731",84.05646,870.1241
"2732",83.90997,870.1374
"2733",83.76593,870.1507
"2734",83.50713,870.164
"2735",83.06523,870.1773
"2736",82.42069,870.1906
"2737",81.59792,870.2039
"2738",80.64332,870.2172
"2739",79.61303,870.2305
"2740",78.56809,870.24384
"2741",77.55489,870.25714
"2742",76.610054,870.27045
"2743",75.76532,870.28375
"2744",75.03044,870.29706
"2745",74.407875,870.31036
"2746",73.88541,870.32367
"2747",73.460594,870.337
"2748",73.12367,870.3503
"2749",72.86488,870.3636
"2750",72.674446,870.3769
"2751",72.53773,870.3902
"2752",72.43275,870.4035
"2753",72.33509,870.4168
"2754",72.22766,870.4301
"2755",72.095825,870.4434
"2756",71.9469,870.4567
"2757",71.8053,870.47003
"2758",71.77844,870.48334
"2759",72.166626,870.49664
"2760",73.4313,870.50995
"2761",75.894714,870.52325
"2762",79.50317,870.53656
"2763",83.807434,870.54987
"2764",88.097046,870.5632
"2765",91.612724,870.5765
"2766",93.81247,870.5898
"2767",94.59373,870.6031
"2768",94.24704,870.6164
"2769",93.18501,870.6297
"2770",91.756775,870.643
"2771",90.25773,870.6563
"2772",88.90761,870.6696
"2773",87.818726,870.6829
"2774",86.97887,870.6962
"2775",86.28306,870.70953
"2776",85.58724,870.72284
"2777",84.788895,870.73615
"2778",83.88312,870.74945
"2779",82.96025,870.76276
"2780",82.159454,870.77606
"2781",81.58572,870.78937
"2782",81.270775,870.8027
"2783",81.146255,870.816
"2784",81.092545,870.8293
"2785",80.987564,870.8426
"2786",80.743416,870.8559
"2787",80.32838,870.8692
"2788",79.74731,870.8825
"2789",79.03197,870.8958
"2790",78.23361,870.9091
"2791",77.41085,870.9224
"2792",76.610054,870.9357
"2793",75.862976,870.94904
"2794",75.1989,870.96234
"2795",74.63004,870.97565
"2796",74.144196,870.98895
"2797",73.721825,871.00226
"2798",73.35317,871.01556
"2799",73.02846,871.0289
"2800",72.74769,871.0422
"2801",72.52308,871.0555
"2802",72.361946,871.0688
"2803",72.256966,871.0821
"2804",72.198364,871.0954
"2805",72.149536,871.1087
"2806",72.08118,871.122
"2807",71.96643,871.1353
"2808",71.79553,871.1486
"2809",71.57336,871.1619
"2810",71.34142,871.17523
"2811",71.24132,871.18854
"2812",71.63439,871.20184
"2813",73.0309,871.21515
"2814",75.76044,871.22845
"2815",79.710686,871.24176
"2816",84.368965,871.25507
"2817",88.96132,871.2684
"2818",92.682076,871.2817
"2819",94.991684,871.295
"2820",95.86328,871.3083
"2821",95.638664,871.3216
"2822",94.747536,871.3349
"2823",93.54879,871.3482
"2824",92.32319,871.3615
"2825",91.246506,871.3748
"2826",90.39689,871.3881
"2827",89.740135,871.4014
"2828",89.161514,871.41473
"2829",88.516975,871.42804
"2830",87.69665,871.44135
"2831",86.69077,871.45465
"2832",85.57748,871.46796
"2833",84.50324,871.48126
"2834",83.59991,871.49457
"2835",82.948044,871.5079
"2836",82.52323,871.5212
"2837",82.247345,871.5345
"2838",82.00076,871.5478
"2839",81.685814,871.5611
"2840",81.24147,871.5744
"2841",80.6482,871.5877
"2842",79.92554,871.601
"2843",79.10765,871.6143
"2844",78.24338,871.6276
"2845",77.38155,871.6409
"2846",76.54902,871.65424
"2847",75.772644,871.66754
"2848",75.06706,871.68085
"2849",74.43473,871.69415
"2850",73.87076,871.70746
"2851",73.375145,871.72076
"2852",72.94789,871.7341
"2853",72.589,871.7474
"2854",72.30091,871.7607
"2855",72.0885,871.774
"2856",71.9469,871.7873
"2857",71.86389,871.8006
"2858",71.80774,871.8139
"2859",71.7467,871.8272
"2860",71.6466,871.8405
"2861",71.483025,871.8538
"2862",71.25353,871.8671
"2863",70.977646,871.88043
"2864",70.69688,871.89374
"2865",70.53086,871.90704
"2866",70.77013,871.92035
"2867",71.87366,871.93365
"2868",74.20035,871.94696
"2869",77.75021,871.96027
"2870",82.108185,871.9736
"2871",86.59312,871.9869
"2872",90.42863,872.0002
"2873",93.02144,872.0135
"2874",94.21042,872.0268
"2875",94.24704,872.0401
"2876",93.52926,872.0534
"2877",92.4184,872.0667
"2878",91.21965,872.08
"2879",90.14053,872.0933
"2880",89.27383,872.1066
"2881",88.60975,872.11993
"2882",88.04089,872.13324
"2883",87.411,872.14655
"2884",86.58579,872.15985
"2885",85.52621,872.17316
"2886",84.300606,872.18646
"2887",83.06767,872.19977
"2888",81.99832,872.2131
"2889",81.20729,872.2264
"2890",80.72144,872.2397
"2891",80.462654,872.253
"2892",80.30152,872.2663
"2893",80.10376,872.2796
"2894",79.781494,872.2929
"2895",79.28832,872.3062
"2896",78.64622,872.3195
"2897",77.88449,872.3328
"2898",77.06172,872.3461
"2899",76.22186,872.35944
"2900",75.406425,872.37274
"2901",74.64713,872.38605
"2902",73.953766,872.39935
"2903",73.338524,872.41266
"2904",72.80141,872.42596
"2905",72.33997,872.4393
"2906",71.94934,872.4526
"2907",71.63195,872.4659
"2908",71.380486,872.4792
"2909",71.19737,872.4925
"2910",71.080185,872.5058
"2911",71.03136,872.5191
"2912",71.03624,872.5324
"2913",71.06798,872.5457
"2914",71.09483,872.559
"2915",71.08751,872.5723
"2916",71.011826,872.58563
"2917",70.855576,872.59894
"2918",70.62852,872.61224
"2919",70.35996,872.62555
"2920",70.11093,872.63885
"2921",70.05722,872.65216
"2922",70.59922,872.66547
"2923",72.22278,872.6788
"2924",75.18913,872.6921
"2925",79.327385,872.7054
"2926",84.068665,872.7187
"2927",88.621956,872.732
"2928",92.21088,872.7453
"2929",94.36668,872.7586
"2930",95.113754,872.7719
"2931",94.82567,872.7852
"2932",93.93454,872.7985
"2933",92.789505,872.8118
"2934",91.65667,872.82513
"2935",90.68009,872.83844
"2936",89.91104,872.85175
"2937",89.28115,872.86505
"2938",88.64881,872.87836
"2939",87.87732,872.89166
"2940",86.89586,872.90497
"2941",85.72884,872.9183
"2942",84.50324,872.9316
"2943",83.387505,872.9449
"2944",82.51591,872.9582
"2945",81.93729,872.9715
"2946",81.59304,872.9848
"2947",81.373314,872.9981
"2948",81.143814,873.0114
"2949",80.81178,873.0247
"2950",80.32838,873.038
"2951",79.691154,873.05133
"2952",78.93187,873.06464
"2953",78.09445,873.07794
"2954",77.225296,873.09125
"2955",76.35859,873.10455
"2956",75.53094,873.11786
"2957",74.76189,873.13116
"2958",74.06851,873.1445
"2959",73.463036,873.1578
"2960",72.94789,873.1711
"2961",72.52064,873.1844
"2962",72.17639,873.1977
"2963",71.905396,873.211
"2964",71.69543,873.2243
"2965",71.5465,873.2376
"2966",71.448845,873.2509
"2967",71.395134,873.2642
"2968",71.37072,873.2775
"2969",71.34142,873.29083
"2970",71.28283,873.30414
"2971",71.17296,873.31744
"2972",71.00694,873.33075
"2973",70.78233,873.34406
"2974",70.521095,873.35736
"2975",70.26475,873.37067
"2976",70.10849,873.384
"2977",70.34043,873.3973
"2978",71.4464,873.4106
"2979",73.831696,873.4239
"2980",77.5256,873.4372
"2981",82.108185,873.4505
"2982",86.86168,873.4638
"2983",90.95842,873.4771
"2984",93.75632,873.4904
"2985",95.0576,873.5037
"2986",95.12108,873.517
"2987",94.37644,873.53033
"2988",93.21675,873.54364
"2989",91.94476,873.55695
"2990",90.77287,873.57025
"2991",89.796295,873.58356
"2992",89.00038,873.59686
"2993",88.26795,873.61017
"2994",87.45251,873.6235
"2995",86.46128,873.6368
"2996",85.29916,873.6501
"2997",84.08087,873.6634
"2998",82.98222,873.6767
"2999",82.15457,873.69
"3000",81.65652,873.7033
"3001",81.43923,873.7166
"3002",81.358665,873.7299
"3003",81.25857,873.7432
"3004",81.00954,873.75653
"3005",80.550545,873.76984
"3006",79.88403,873.78314
"3007",79.05394,873.79645
"3008",78.12131,873.80975
"3009",77.15694,873.82306
"3010",76.209656,873.83636
"3011",75.3283,873.8497
"3012",74.54215,873.863
"3013",73.86832,873.8763
"3014",73.304344,873.8896
"3015",72.84047,873.9029
"3016",72.464485,873.9162
"3017",72.1593,873.9295
"3018",71.920044,873.9428
"3019",71.74181,873.9561
"3020",71.624626,873.9694
"3021",71.56603,873.9827
"3022",71.56603,873.99603
"3023",71.60265,874.00934
"3024",71.641716,874.02264
"3025",71.65392,874.03595
"3026",71.60754,874.04926
"3027",71.48058,874.06256
"3028",71.27306,874.07587
"3029",71.00206,874.0892
"3030",70.73106,874.1025
"3031",70.65537,874.1158
"3032",71.22667,874.1291
"3033",72.97475,874.1424
"3034",76.15839,874.1557
"3035",80.552986,874.169
"3036",85.51888,874.1823
"3037",90.1918,874.1956
"3038",93.73678,874.2089
"3039",95.69482,874.2222
"3040",96.146484,874.23553
"3041",95.519035,874.24884
"3042",94.276344,874.26215
"3043",92.80904,874.27545
"3044",91.41253,874.28876
"3045",90.252846,874.30206
"3046",89.359276,874.31537
"3047",88.62928,874.3287
"3048",87.89929,874.342
"3049",87.01305,874.3553
"3050",85.926605,874.3686
"3051",84.72785,874.3819
"3052",83.59014,874.3952
"3053",82.69657,874.4085
"3054",82.144806,874.4218
"3055",81.90311,874.4351
"3056",81.84207,874.4484
"3057",81.79324,874.46173
"3058",81.602806,874.47504
"3059",81.1902,874.48834
"3060",80.53834,874.50165
"3061",79.68627,874.51495
"3062",78.69749,874.52826
"3063",77.65255,874.54156
"3064",76.612495,874.5549
"3065",75.6408,874.5682
"3066",74.78386,874.5815
"3067",74.05875,874.5948
"3068",73.46548,874.6081
"3069",72.99428,874.6214
"3070",72.6305,874.6347
"3071",72.342415,874.648
"3072",72.1178,874.6613
"3073",71.94202,874.6746
"3074",71.80286,874.6879
"3075",71.68566,874.70123
"3076",71.57824,874.71454
"3077",71.45861,874.72784
"3078",71.31945,874.74115
"3079",71.14122,874.75446
"3080",70.92638,874.76776
"3081",70.7042,874.78107
"3082",70.59434,874.7944
"3083",70.93126,874.8077
"3084",72.22766,874.821
"3085",74.85954,874.8343
"3086",78.78294,874.8476
"3087",83.51202,874.8609
"3088",88.28016,874.8742
"3089",92.242615,874.8875
"3090",94.786606,874.9008
"3091",95.79248,874.9141
"3092",95.570305,874.9274
"3093",94.56931,874.94073
"3094",93.2021,874.95404
"3095",91.78851,874.96735
"3096",90.55558,874.98065
"3097",89.6083,874.99396
"3098",88.90761,875.00726
"3099",88.30457,875.02057
"3100",87.61608,875.0339
"3101",86.6981,875.0472
"3102",85.52865,875.0605
"3103",84.21515,875.0738
"3104",82.94316,875.0871
"3105",81.90799,875.1004
"3106",81.2195,875.1137
"3107",80.850845,875.127
"3108",80.68482,875.1403
"3109",80.56275,875.1536
"3110",80.33814,875.16693
"3111",79.92554,875.18024
"3112",79.30053,875.19354
"3113",78.487526,875.20685
"3114",77.540245,875.22015
"3115",76.524605,875.23346
"3116",75.494316,875.24677
"3117",74.50309,875.2601
"3118",73.59243,875.2734
"3119",72.7892,875.2867
"3120",72.10071,875.3
"3121",71.519646,875.3133
"3122",71.046005,875.3266
"3123",70.66758,875.3399
"3124",70.37461,875.3532
"3125",70.15732,875.3665
"3126",70.013275,875.3798
"3127",69.92294,875.3931
"3128",69.86191,875.40643
"3129",69.79843,875.41974
"3130",69.70077,875.43304
"3131",69.54696,875.44635
"3132",69.32723,875.45966
"3133",69.07576,875.47296
"3134",68.929276,875.48627
"3135",69.28573,875.4996
"3136",70.73106,875.5129
"3137",73.70229,875.5262
"3138",78.133514,875.5395
"3139",83.47051,875.5528
"3140",88.834366,875.5661
"3141",93.27291,875.5794
"3142",96.112305,875.5927
"3143",97.24513,875.606
"3144",97.04738,875.6193
"3145",96.04883,875.6326
"3146",94.69138,875.64594
"3147",93.32174,875.65924
"3148",92.16205,875.67255
"3149",91.29046,875.68585
"3150",90.66056,875.69916
"3151",90.11368,875.71246
"3152",89.45205,875.72577
"3153",88.514534,875.7391
"3154",87.26208,875.7524
"3155",85.78012,875.7657
"3156",84.2591,875.779
"3157",82.91142,875.7923
"3158",81.89578,875.8056
"3159",81.248795,875.8189
"3160",80.89235,875.8322
"3161",80.672615,875.8455
"3162",80.428474,875.8588
"3163",80.02319,875.87213
"3164",79.395744,875.88544
"3165",78.54612,875.89874
"3166",77.51583,875.91205
"3167",76.37568,875.92535
"3168",75.18913,875.93866
"3169",74.02457,875.95197
"3170",72.92592,875.9653
"3171",71.922485,875.9786
"3172",71.0338,875.9919
"3173",70.27451,876.0052
"3174",69.644615,876.0185
"3175",69.13435,876.0318
"3176",68.74616,876.0451
"3177",68.47517,876.0584
"3178",68.316475,876.0717
"3179",68.253,876.085
"3180",68.27009,876.0983
"3181",68.32868,876.11163
"3182",68.39948,876.12494
"3183",68.45319,876.13824
"3184",68.455635,876.15155
"3185",68.39216,876.16486
"3186",68.27741,876.17816
"3187",68.16754,876.19147
"3188",68.2945,876.2048
"3189",69.18318,876.2181
"3190",71.45373,876.2314
"3191",75.39422,876.2447
"3192",80.726326,876.258
"3193",86.68345,876.2713
"3194",92.2475,876.2846
"3195",96.46143,876.2979
"3196",98.81499,876.3112
"3197",99.41802,876.3245
"3198",98.79057,876.3378
"3199",97.4844,876.35114
"3200",95.921875,876.36444
"3201",94.41306,876.37775
"3202",93.14595,876.39105
"3203",92.16205,876.40436
"3204",91.38567,876.41766
"3205",90.64591,876.43097
"3206",89.75479,876.4443
"3207",88.585335,876.4576
"3208",87.14,876.4709
"3209",85.54574,876.4842
"3210",83.99786,876.4975
"3211",82.701454,876.5108
"3212",81.77615,876.5241
"3213",81.20729,876.5374
"3214",80.88747,876.5507
"3215",80.65064,876.564
"3216",80.343025,876.57733
"3217",79.85718,876.59064
"3218",79.15404,876.60394
"3219",78.25559,876.61725
"3220",77.21309,876.63055
"3221",76.087585,876.64386
"3222",74.94499,876.65717
"3223",73.83658,876.6705
"3224",72.798965,876.6838
"3225",71.86389,876.6971
"3226",71.046005,876.7104
"3227",70.35264,876.7237
"3228",69.77402,876.737
"3229",69.30282,876.7503
"3230",68.92195,876.7636
"3231",68.62165,876.7769
"3232",68.39704,876.7902
"3233",68.24078,876.8035
"3234",68.155334,876.81683
"3235",68.13336,876.83014
"3236",68.16754,876.84344
"3237",68.2359,876.85675
"3238",68.30427,876.87006
"3239",68.350655,876.88336
"3240",68.34333,876.89667
"3241",68.265205,876.91
"3242",68.11383,876.9233
"3243",67.93561,876.9366
"3244",67.90143,876.9499
"3245",68.45075,876.9632
"3246",70.26963,876.9765
"3247",73.88541,876.9898
"3248",79.23949,877.0031
"3249",85.65316,877.0164
"3250",92.06195,877.0297
"3251",97.32815,877.043
"3252",100.65095,877.05634
"3253",101.89853,877.06964
"3254",101.542076,877.08295
"3255",100.23102,877.09625
"3256",98.50248,877.10956
"3257",96.73731,877.12286
"3258",95.17723,877.13617
"3259",93.9321,877.1495
"3260",92.97261,877.1628
"3261",92.154724,877.1761
"3262",91.283134,877.1894
"3263",90.19913,877.2027
"3264",88.834366,877.216
"3265",87.25475,877.2293
"3266",85.61654,877.2426
"3267",84.12482,877.2559
"3268",82.93584,877.2692
"3269",82.108185,877.28253
"3270",81.583275,877.29584
"3271",81.23659,877.30914
"3272",80.91676,877.32245
"3273",80.50172,877.33575
"3274",79.91577,877.34906
"3275",79.13939,877.36237
"3276",78.2092,877.3757
"3277",77.1667,877.389
"3278",76.06073,877.4023
"3279",74.94499,877.4156
"3280",73.86832,877.4289
"3281",72.86244,877.4422
"3282",71.96399,877.4555
"3283",71.182724,877.4688
"3284",70.52354,877.4821
"3285",69.979095,877.4954
"3286",69.53231,877.5087
"3287",69.16365,877.52203
"3288",68.858475,877.53534
"3289",68.607,877.54865
"3290",68.40681,877.56195
"3291",68.262764,877.57526
"3292",68.174866,877.58856
"3293",68.14557,877.60187
"3294",68.1651,877.6152
"3295",68.21149,877.6285
"3296",68.25788,877.6418
"3297",68.279854,877.6551
"3298",68.25056,877.6684
"3299",68.157776,877.6817
"3300",68.018616,877.695
"3301",67.913635,877.7083
"3302",68.13092,877.7216
"3303",69.263756,877.7349
"3304",71.98352,877.7482
"3305",76.561226,877.76154
"3306",82.598915,877.77484
"3307",89.17128,877.78815
"3308",95.12108,877.80145
"3309",99.41314,877.81476
"3310",101.56161,877.82806
"3311",101.78134,877.8414
"3312",100.699776,877.8547
"3313",98.9395,877.868
"3314",96.96193,877.8813
"3315",95.09178,877.8946
"3316",93.52926,877.9079
"3317",92.33051,877.9212
"3318",91.41985,877.9345
"3319",90.60929,877.9478
"3320",89.70107,877.9611
"3321",88.54871,877.9744
"3322",87.14488,877.98773
"3323",85.60189,878.00104
"3324",84.10773,878.01434
"3325",82.84062,878.02765
"3326",81.90311,878.04095
"3327",81.28054,878.05426
"3328",80.88014,878.06757
"3329",80.55787,878.0809
"3330",80.177,878.0942
"3331",79.64477,878.1075
"3332",78.93187,878.1208
"3333",78.04318,878.1341
"3334",77.0251,878.1474
"3335",75.931335,878.1607
"3336",74.82048,878.174
"3337",73.738914,878.1873
"3338",72.7306,878.2006
"3339",71.81506,878.2139
"3340",71.00694,878.22723
"3341",70.30625,878.24054
"3342",69.712975,878.25385
"3343",69.21492,878.26715
"3344",68.79988,878.28046
"3345",68.46296,878.29376
"3346",68.19684,878.30707
"3347",67.9942,878.3204
"3348",67.85748,878.3337
"3349",67.78668,878.347
"3350",67.77692,878.3603
"3351",67.81354,878.3736
"3352",67.86725,878.3869
"3353",67.90875,878.4002
"3354",67.913635,878.4135
"3355",67.859924,878.4268
"3356",67.74273,878.4401
"3357",67.58404,878.4534
"3358",67.44732,878.46674
"3359",67.55962,878.48004
"3360",68.44099,878.49335
"3361",70.79454,878.50665
"3362",75.04997,878.51996
"3363",80.99489,878.53326
"3364",87.79187,878.5466
"3365",94.26414,878.5599
"3366",99.26177,878.5732
"3367",102.07675,878.5865
"3368",102.7335,878.5998
"3369",101.80087,878.6131
"3370",99.964905,878.6264
"3371",97.75052,878.6397
"3372",95.53368,878.653
"3373",93.56588,878.6663
"3374",91.97162,878.6796
"3375",90.72892,878.69293
"3376",89.69619,878.70624
"3377",88.68299,878.71954
"3378",87.54772,878.73285
"3379",86.2562,878.74615
"3380",84.89632,878.75946
"3381",83.6292,878.77277
"3382",82.6038,878.7861
"3383",81.88846,878.7994
"3384",81.444115,878.8127
"3385",81.163345,878.826
"3386",80.89967,878.8393
"3387",80.53101,878.8526
"3388",79.974365,878.8659
"3389",79.18822,878.8792
"3390",78.19943,878.8925
"3391",77.069046,878.9058
"3392",75.87274,878.9191
"3393",74.683754,878.93243
"3394",73.56313,878.94574
"3395",72.54749,878.95905
"3396",71.65392,878.97235
"3397",70.87755,878.98566
"3398",70.203705,878.99896
"3399",69.610435,879.01227
"3400",69.07576,879.0256
"3401",68.594795,879.0389
"3402",68.16998,879.0522
"3403",67.81354,879.0655
"3404",67.53765,879.0788
"3405",67.34722,879.0921
"3406",67.23247,879.1054
"3407",67.176315,879.1187
"3408",67.14946,879.132
"3409",67.122604,879.1453
"3410",67.08354,879.1586
"3411",67.020065,879.17194
"3412",66.93706,879.18524
"3413",66.85649,879.19855
"3414",66.94438,879.21185
"3415",67.6524,879.22516
"3416",69.68368,879.23846
"3417",73.62661,879.2518
"3418",79.51293,879.2651
"3419",86.65415,879.2784
"3420",93.87106,879.2917
"3421",99.862366,879.305
"3422",103.6881,879.3183
"3423",105.094376,879.3316
"3424",104.50843,879.3449
"3425",102.63584,879.3582
"3426",100.11139,879.3715
"3427",97.38674,879.3848
"3428",94.78172,879.39813
"3429",92.50385,879.41144
"3430",90.614174,879.42474
"3431",89.04677,879.43805
"3432",87.67712,879.45135
"3433",86.400246,879.46466
"3434",85.19417,879.47797
"3435",84.12726,879.4913
"3436",83.3167,879.5046
"3437",82.84306,879.5179
"3438",82.68925,879.5312
"3439",82.72831,879.5445
"3440",82.78203,879.5578
"3441",82.67704,879.5711
"3442",82.29618,879.5844
"3443",81.600365,879.5977
"3444",80.621346,879.611
"3445",79.429924,879.6243
"3446",78.116425,879.63763
"3447",76.771194,879.65094
"3448",75.46746,879.66425
"3449",74.25651,879.67755
"3450",73.17494,879.69086
"3451",72.256966,879.70416
"3452",71.502556,879.71747
"3453",70.9044,879.7308
"3454",70.45518,879.7441
"3455",70.135345,879.7574
"3456",69.925385,879.7707
"3457",69.803314,879.784
"3458",69.74227,879.7973
"3459",69.71053,879.8106
"3460",69.68856,879.8239
"3461",69.65438,879.8372
"3462",69.59579,879.8505
"3463",69.522545,879.86383
"3464",69.51034,879.87714
"3465",69.84482,879.89044
"3466",71.10216,879.90375
"3467",73.94156,879.91705
"3468",78.63401,879.93036
"3469",84.8011,879.94366
"3470",91.48821,879.957
"3471",97.496605,879.9703
"3472",101.76181,879.9836
"3473",103.763794,879.9969
"3474",103.675896,880.0102
"3475",102.11337,880.0235
"3476",99.71587,880.0368
"3477",96.98146,880.0501
"3478",94.276344,880.0634
"3479",91.85443,880.0767
"3480",89.82315,880.09
"3481",88.1532,880.10333
"3482",86.727394,880.11664
"3483",85.435875,880.12994
"3484",84.242004,880.14325
"3485",83.2166,880.15656
"3486",82.47929,880.16986
"3487",82.12283,880.18317
"3488",82.13504,880.1965
"3489",82.37675,880.2098
"3490",82.6453,880.2231
"3491",82.75029,880.2364
"3492",82.55985,880.2497
"3493",82.01297,880.263
"3494",81.13649,880.2763
"3495",80.0061,880.2896
"3496",78.73167,880.3029
"3497",77.41085,880.3162
"3498",76.1413,880.3295
"3499",74.99626,880.34283
"3500",74.02457,880.35614
"3501",73.24574,880.36945
"3502",72.66468,880.38275
"3503",72.24963,880.39606
"3504",71.96643,880.40936
"3505",71.76868,880.42267
"3506",71.6173,880.436
"3507",71.483025,880.4493
"3508",71.34142,880.4626
"3509",71.18028,880.4759
"3510",71.00206,880.4892
"3511",70.84337,880.5025
"3512",70.853134,880.5158
"3513",71.43908,880.5291
"3514",73.21156,880.5424
"3515",76.60761,880.5557
"3516",81.53689,880.56903
"3517",87.34753,880.58234
"3518",93.048294,880.59564
"3519",97.60403,880.60895
"3520",100.29694,880.62225
"3521",101.02449,880.63556
"3522",100.21881,880.64886
"3523",98.46586,880.6622
"3524",96.24414,880.6755
"3525",93.9321,880.6888
"3526",91.810486,880.7021
"3527",90.04532,880.7154
"3528",88.64881,880.7287
"3529",87.51598,880.742
"3530",86.49546,880.7553
"3531",85.47494,880.7686
"3532",84.437325,880.7819
"3533",83.47051,880.7952
"3534",82.70634,880.80853
"3535",82.2327,880.82184
"3536",82.03494,880.83514
"3537",81.99832,880.84845
"3538",81.96414,880.86176
"3539",81.7908,880.87506
"3540",81.38064,880.88837
"3541",80.706795,880.9017
"3542",79.79126,880.915
"3543",78.695045,880.9283
"3544",77.49386,880.9416
"3545",76.26826,880.9549
"3546",75.08415,880.9682
"3547",74.002594,880.9815
"3548",73.060196,880.9948
"3549",72.27894,881.0081
"3550",71.658806,881.0214
"3551",71.182724,881.0347
"3552",70.82628,881.04803
"3553",70.55039,881.06134
"3554",70.32334,881.07465
"3555",70.115814,881.08795
"3556",69.90585,881.10126
"3557",69.68612,881.11456
"3558",69.48104,881.12787
"3559",69.4078,881.1412
"3560",69.820404,881.1545
"3561",71.30724,881.1678
"3562",74.339516,881.1811
"3563",78.905014,881.1944
"3564",84.43244,881.2077
"3565",90.01846,881.221
"3566",94.66209,881.2343
"3567",97.618675,881.2476
"3568",98.71732,881.2609
"3569",98.32914,881.27423
"3570",97.00099,881.28754
"3571",95.20409,881.30084
"3572",93.30221,881.31415
"3573",91.57122,881.32745
"3574",90.17471,881.34076
"3575",89.127335,881.35406
"3576",88.326546,881.3674
"3577",87.5819,881.3807
"3578",86.73472,881.394
"3579",85.70443,881.4073
"3580",84.53254,881.4206
"3581",83.36065,881.4339
"3582",82.354774,881.4472
"3583",81.619896,881.4605
"3584",81.15846,881.4738
"3585",80.88747,881.4871
"3586",80.6775,881.5004
"3587",80.396736,881.51373
"3588",79.95239,881.52704
"3589",79.30297,881.54034
"3590",78.450905,881.55365
"3591",77.44747,881.56696
"3592",76.34882,881.58026
"3593",75.22087,881.59357
"3594",74.124664,881.6069
"3595",73.11391,881.6202
"3596",72.22522,881.6335
"3597",71.483025,881.6468
"3598",70.889755,881.6601
"3599",70.433205,881.6734
"3600",70.098724,881.6867
"3601",69.84726,881.7
"3602",69.6495,881.7133
"3603",69.47372,881.7266
"3604",69.30526,881.7399
"3605",69.12703,881.75323
"3606",68.94881,881.76654
"3607",68.80965,881.77985
"3608",68.90486,881.79315
"3609",69.68612,881.80646
"3610",71.707634,881.81976
"3611",75.23552,881.83307
"3612",80.01587,881.8464
"3613",85.36263,881.8597
"3614",90.36515,881.873
"3615",94.13718,881.8863
"3616",96.200195,881.8996
"3617",96.64698,881.9129
"3618",95.93652,881.9262
"3619",94.55955,881.9395
"3620",92.91402,881.9528
"3621",91.31243,881.9661
"3622",89.95499,881.97943
"3623",88.919815,881.99274
"3624",88.15808,882.00604
"3625",87.518425,882.01935
"3626",86.81529,882.03265
"3627",85.91928,882.04596
"3628",84.80354,882.05927
"3629",83.5584,882.0726
"3630",82.34257,882.0859
"3631",81.3196,882.0992
"3632",80.57496,882.1125
"3633",80.10132,882.1258
"3634",79.80835,882.1391
"3635",79.57397,882.1524
"3636",79.27856,882.1657
"3637",78.84642,882.179
"3638",78.24338,882.1923
"3639",77.47921,882.2056
"3640",76.59052,882.21893
"3641",75.63348,882.23224
"3642",74.6569,882.24554
"3643",73.70229,882.25885
"3644",72.816055,882.27216
"3645",72.025024,882.28546
"3646",71.343864,882.29877
"3647",70.77501,882.3121
"3648",70.32334,882.3254
"3649",69.96445,882.3387
"3650",69.695885,882.352
"3651",69.49813,882.3653
"3652",69.36141,882.3786
"3653",69.26864,882.3919
"3654",69.21248,882.4052
"3655",69.16609,882.4185
"3656",69.11238,882.4318
"3657",69.03914,882.4451
"3658",68.95125,882.45844
"3659",68.94881,882.47174
"3660",69.34676,882.48505
"3661",70.677345,882.49835
"3662",73.358055,882.51166
"3663",77.366905,882.52496
"3664",82.21561,882.53827
"3665",87.113144,882.5516
"3666",91.17082,882.5649
"3667",93.73922,882.5782
"3668",94.69138,882.5915
"3669",94.374,882.6048
"3670",93.28268,882.6181
"3671",91.844666,882.6314
"3672",90.389565,882.6447
"3673",89.13466,882.658
"3674",88.17029,882.6713
"3675",87.464714,882.68463
"3676",86.8983,882.69794
"3677",86.30747,882.71124
"3678",85.55062,882.72455
"3679",84.58137,882.73785
"3680",83.458305,882.75116
"3681",82.31083,882.76447
"3682",81.29519,882.7778
"3683",80.52125,882.7911
"3684",80.02319,882.8044
"3685",79.73266,882.8177
"3686",79.54711,882.831
"3687",79.3518,882.8443
"3688",79.063705,882.8576
"3689",78.63157,882.8709
"3690",78.05295,882.8842
"3691",77.35714,882.8975
"3692",76.5832,882.9108
"3693",75.77753,882.92413
"3694",74.98161,882.93744
"3695",74.232086,882.95074
"3696",73.56069,882.96405
"3697",72.97475,882.97736
"3698",72.481575,882.99066
"3699",72.07385,883.00397
"3700",71.74914,883.0173
"3701",71.49279,883.0306
"3702",71.3048,883.0439
"3703",71.17296,883.0572
"3704",71.08507,883.0705
"3705",71.03136,883.0838
"3706",70.99962,883.0971
"3707",70.97032,883.1104
"3708",70.92638,883.1237
"3709",70.86046,883.137
"3710",70.76036,883.1503
"3711",70.6334,883.16364
"3712",70.54307,883.17694
"3713",70.74082,883.19025
"3714",71.67834,883.20355
"3715",73.78531,883.21686
"3716",77.1252,883.23016
"3717",81.32937,883.24347
"3718",85.714195,883.2568
"3719",89.481346,883.2701
"3720",91.983826,883.2834
"3721",93.02144,883.2967
"3722",92.85054,883.31
"3723",91.92523,883.3233
"3724",90.64347,883.3366
"3725",89.31777,883.3499
"3726",88.1532,883.3632
"3727",87.24986,883.3765
"3728",86.59556,883.38983
"3729",86.07797,883.40314
"3730",85.55306,883.41644
"3731",84.89876,883.42975
"3732",84.06378,883.44305
"3733",83.09697,883.45636
"3734",82.11551,883.46967
"3735",81.253685,883.483
"3736",80.6067,883.4963
"3737",80.19653,883.5096
"3738",79.971924,883.5229
"3739",79.83276,883.5362
"3740",79.68383,883.5495
"3741",79.447014,883.5628
"3742",79.080795,883.5761
"3743",78.58518,883.5894
"3744",77.98947,883.6027
"3745",77.332726,883.616
"3746",76.654,883.62933
"3747",75.98993,883.64264
"3748",75.36492,883.65594
"3749",74.80095,883.66925
"3750",74.31266,883.68256
"3751",73.900055,883.69586
"3752",73.55337,883.70917
"3753",73.26284,883.7225
"3754",73.01625,883.7358
"3755",72.80141,883.7491
"3756",72.61585,883.7624
"3757",72.47669,883.7757
"3758",72.38392,883.789
"3759",72.33753,883.8023
"3760",72.32777,883.8156
"3761",72.33509,883.8289
"3762",72.32288,883.8422
"3763",72.271614,883.8555
"3764",72.16907,883.86884
"3765",72.01282,883.88214
"3766",71.83215,883.89545
"3767",71.73449,883.90875
"3768",72.02258,883.92206
"3769",73.15785,883.93536
"3770",75.47234,883.94867
"3771",78.9099,883.962
"3772",83.00664,883.9753
"3773",87.05699,883.9886
"3774",90.30656,884.0019
"3775",92.242615,884.0152
"3776",92.80171,884.0285
"3777",92.32563,884.0418
"3778",91.25628,884.0551
"3779",89.95987,884.0684
"3780",88.70496,884.0817
"3781",87.65026,884.09503
"3782",86.85924,884.10834
"3783",86.275734,884.12164
"3784",85.770355,884.13495
"3785",85.206375,884.14825
"3786",84.49836,884.16156
"3787",83.63409,884.17487
"3788",82.701454,884.1882
"3789",81.8201,884.2015
"3790",81.11452,884.2148
"3791",80.62867,884.2281
"3792",80.34547,884.2414
"3793",80.181885,884.2547
"3794",80.0354,884.268
"3795",79.815674,884.2813
"3796",79.47387,884.2946
"3797",78.98558,884.3079
"3798",78.37766,884.3212
"3799",77.696495,884.33453
"3800",76.9836,884.34784
"3801",76.29267,884.36115
"3802",75.66277,884.37445
"3803",75.12077,884.38776
"3804",74.68131,884.40106
"3805",74.337074,884.41437
"3806",74.06851,884.4277
"3807",73.85611,884.441
"3808",73.67788,884.4543
"3809",73.51186,884.4676
"3810",73.35317,884.4809
"3811",73.20424,884.4942
"3812",73.06996,884.5075
"3813",72.952774,884.5208
"3814",72.867325,884.5341
"3815",72.80141,884.5474
"3816",72.74769,884.5607
"3817",72.689095,884.57404
"3818",72.60609,884.58734
"3819",72.4889,884.60065
"3820",72.33265,884.61395
"3821",72.149536,884.62726
"3822",72.00305,884.64056
"3823",72.10071,884.6539
"3824",72.86244,884.6672
"3825",74.6984,884.6805
"3826",77.7087,884.6938
"3827",81.56863,884.7071
"3828",85.65804,884.7204
"3829",89.22255,884.7337
"3830",91.64202,884.747
"3831",92.682076,884.7603
"3832",92.56733,884.7736
"3833",91.720146,884.7869
"3834",90.5214,884.80023
"3835",89.254295,884.81354
"3836",88.11658,884.82684
"3837",87.19859,884.84015
"3838",86.4979,884.85345
"3839",85.93149,884.86676
"3840",85.37484,884.88007
"3841",84.72541,884.8934
"3842",83.95148,884.9067
"3843",83.09941,884.92
"3844",82.27421,884.9333
"3845",81.58572,884.9466
"3846",81.092545,884.9599
"3847",80.78737,884.9732
"3848",80.604256,884.9865
"3849",80.45533,884.9998
"3850",80.26002,885.0131
"3851",79.971924,885.0264
"3852",79.5642,885.03973
"3853",79.04906,885.05304
"3854",78.45335,885.06635
"3855",77.81613,885.07965
"3856",77.16426,885.09296
"3857",76.52949,885.10626
"3858",75.93622,885.11957
"3859",75.39666,885.1329
"3860",74.91325,885.1462
"3861",74.48356,885.1595
"3862",74.10513,885.1728
"3863",73.76822,885.1861
"3864",73.45815,885.1994
"3865",73.17738,885.2127
"3866",72.92348,885.226
"3867",72.7013,885.2393
"3868",72.51331,885.2526
"3869",72.37415,885.2659
"3870",72.28626,885.27924
"3871",72.23987,885.29254
"3872",72.232544,885.30585
"3873",72.2301,885.31915
"3874",72.21301,885.33246
"3875",72.15198,885.34576
"3876",72.042114,885.3591
"3877",71.871216,885.3724
"3878",71.66369,885.3857
"3879",71.485466,885.399
"3880",71.5465,885.4123
"3881",72.28382,885.4256
"3882",74.161285,885.4389
"3883",77.33517,885.4522
"3884",81.47585,885.4655
"3885",85.924164,885.4788
"3886",89.8793,885.4921
"3887",92.65034,885.50543
"3888",93.944305,885.51874
"3889",93.97116,885.53204
"3890",93.187454,885.54535
"3891",92.000916,885.55865
"3892",90.69962,885.57196
"3893",89.48623,885.58527
"3894",88.47303,885.5986
"3895",87.67956,885.6119
"3896",87.04967,885.6252
"3897",86.47349,885.6385
"3898",85.83627,885.6518
"3899",85.08675,885.6651
"3900",84.244446,885.6784
"3901",83.39483,885.6917
"3902",82.64286,885.705
"3903",82.07156,885.7183
"3904",81.688255,885.7316
"3905",81.446556,885.74493
"3906",81.26833,885.75824
"3907",81.058365,885.77155
"3908",80.75563,885.78485
"3909",80.34058,885.79816
"3910",79.818115,885.81146
"3911",79.21263,885.82477
"3912",78.56077,885.8381
"3913",77.88693,885.8514
"3914",77.21309,885.8647
"3915",76.55634,885.878
"3916",75.931335,885.8913
"3917",75.35027,885.9046
"3918",74.82292,885.9179
"3919",74.354164,885.9312
"3920",73.93912,885.9445
"3921",73.57778,885.9578
"3922",73.27505,885.9711
"3923",73.02113,885.98444
"3924",72.82338,885.99774
"3925",72.68421,886.01105
"3926",72.601204,886.02435
"3927",72.56458,886.03766
"3928",72.567024,886.05096
"3929",72.59144,886.0643
"3930",72.61097,886.0776
"3931",72.60609,886.0909
"3932",72.55482,886.1042
"3933",72.447395,886.1175
"3934",72.29603,886.1308
"3935",72.13733,886.1441
"3936",72.12024,886.1574
"3937",72.601204,886.1707
"3938",74.07828,886.184
"3939",76.8542,886.1973
"3940",80.76784,886.21063
"3941",85.25765,886.22394
"3942",89.54238,886.23724
"3943",92.85298,886.25055
"3944",94.7158,886.26385
"3945",95.1577,886.27716
"3946",94.5864,886.29047
"3947",93.44381,886.3038
"3948",92.05951,886.3171
"3949",90.67277,886.3304
"3950",89.45205,886.3437
"3951",88.463264,886.357
"3952",87.682,886.3703
"3953",87.01793,886.3836
"3954",86.348976,886.3969
"3955",85.59701,886.4102
"3956",84.75227,886.4235
"3957",83.88556,886.4368
"3958",83.10185,886.45013
"3959",82.48661,886.46344
"3960",82.06912,886.47675
"3961",81.81766,886.49005
"3962",81.64431,886.50336
"3963",81.45876,886.51666
"3964",81.1902,886.52997
"3965",80.79469,886.5433
"3966",80.272224,886.5566
"3967",79.639885,886.5699
"3968",78.93431,886.5832
"3969",78.20187,886.5965
"3970",77.467,886.6098
"3971",76.749214,886.6231
"3972",76.07294,886.6364
"3973",75.44793,886.6497
"3974",74.881516,886.663
"3975",74.3859,886.67633
"3976",73.95865,886.68964
"3977",73.59487,886.70294
"3978",73.289696,886.71625
"3979",73.040665,886.72955
"3980",72.84535,886.74286
"3981",72.71351,886.75616
"3982",72.64027,886.7695
"3983",72.61341,886.7828
"3984",72.61585,886.7961
"3985",72.61829,886.8094
"3986",72.59388,886.8227
"3987",72.515755,886.836
"3988",72.379036,886.8493
"3989",72.19592,886.8626
"3990",72.007935,886.8759
"3991",71.973755,886.8892
"3992",72.498665,886.9025
"3993",74.110016,886.91583
"3994",77.11055,886.92914
"3995",81.31716,886.94244
"3996",86.11215,886.95575
"3997",90.64835,886.96906
"3998",94.103,886.98236
"3999",95.990234,886.99567
"4000",96.36622,887.009
"4001",95.658195,887.0223
"4002",94.34226,887.0356
"4003",92.76265,887.0489
"4004",91.175705,887.0622
"4005",89.75723,887.0755
"4006",88.59022,887.0888
"4007",87.657585,887.1021
"4008",86.85924,887.1154
"4009",86.07553,887.1287
"4010",85.22835,887.142
"4011",84.317696,887.15533
"4012",83.41924,887.16864
"4013",82.6453,887.18195
"4014",82.08621,887.19525
"4015",81.761505,887.20856
"4016",81.600365,887.22186
"4017",81.50027,887.23517
"4018",81.35134,887.2485
"4019",81.08034,887.2618
"4020",80.638435,887.2751
"4021",80.0354,887.2884
"4022",79.30785,887.3017
"4023",78.502174,887.315
"4024",77.66964,887.3283
"4025",76.85176,887.3416
"4026",76.08026,887.3549
"4027",75.37957,887.3682
"4028",74.759445,887.38153
"4029",74.21744,887.39484
"4030",73.75357,887.40814
"4031",73.3605,887.42145
"4032",73.03578,887.43475
"4033",72.779434,887.44806
"4034",72.59388,887.46136
"4035",72.47913,887.4747
"4036",72.42542,887.488
"4037",72.413216,887.5013
"4038",72.42298,887.5146
"4039",72.43763,887.5279
"4040",72.430305,887.5412
"4041",72.38148,887.5545
"4042",72.28138,887.5678
"4043",72.13733,887.5811
"4044",72.007935,887.5944
"4045",72.12756,887.6077
"4046",73.00404,887.62103
"4047",75.17937,887.63434
"4048",78.84398,887.64764
"4049",83.63897,887.66095
"4050",88.800186,887.67426
"4051",93.385216,887.68756
"4052",96.57374,887.70087
"4053",98.004425,887.7142
"4054",97.884796,887.7275
"4055",96.72022,887.7408
"4056",94.9868,887.7541
"4057",93.050735,887.7674
"4058",91.18791,887.7807
"4059",89.58144,887.794
"4060",88.289925,887.8073
"4061",87.2694,887.8206
"4062",86.400246,887.8339
"4063",85.575035,887.8472
"4064",84.754715,887.86053
"4065",83.99542,887.87384
"4066",83.39239,887.88715
"4067",83.03349,887.90045
"4068",82.92119,887.91376
"4069",82.97978,887.92706
"4070",83.06767,887.94037
"4071",83.0457,887.9537
"4072",82.828415,887.967
"4073",82.371864,887.9803
"4074",81.685814,887.9936
"4075",80.82155,888.0069
"4076",79.85474,888.0202
"4077",78.84886,888.0335
"4078",77.86984,888.0468
"4079",76.97139,888.0601
"4080",76.18036,888.0734
"4081",75.51873,888.08673
"4082",74.99138,888.10004
"4083",74.58366,888.11334
"4084",74.27848,888.12665
"4085",74.05142,888.13995
"4086",73.87564,888.15326
"4087",73.72671,888.16656
"4088",73.582664,888.1799
"4089",73.428856,888.1932
"4090",73.25063,888.2065
"4091",73.05043,888.2198
"4092",72.84535,888.2331
"4093",72.74769,888.2464
"4094",73.08705,888.2597
"4095",74.371254,888.273
"4096",76.961624,888.2863
"4097",80.79225,888.2996
"4098",85.34066,888.3129
"4099",89.83292,888.32623
"4100",93.436485,888.33954
"4101",95.57763,888.35284
"4102",96.18799,888.36615
"4103",95.61181,888.37946
"4104",94.29832,888.39276
"4105",92.6186,888.40607
"4106",90.86809,888.4194
"4107",89.26406,888.4327
"4108",87.923706,888.446
"4109",86.84703,888.4593
"4110",85.95102,888.4726
"4111",85.1136,888.4859
"4112",84.25178,888.4992
"4113",83.37774,888.5125
"4114",82.59403,888.5258
"4115",82.01785,888.5391
"4116",81.71999,888.5524
"4117",81.685814,888.56573
"4118",81.80057,888.57904
"4119",81.90555,888.59235
"4120",81.87137,888.60565
"4121",81.60769,888.61896
"4122",81.092545,888.63226
"4123",80.35035,888.64557
"4124",79.43969,888.6589
"4125",78.4387,888.6722
"4126",77.42794,888.6855
"4127",76.473335,888.6988
"4128",75.62371,888.7121
"4129",74.91325,888.7254
"4130",74.354164,888.7387
"4131",73.934235,888.752
"4132",73.6144,888.7653
"4133",73.36782,888.7786
"4134",73.15785,888.79193
"4135",72.955215,888.80524
"4136",72.74769,888.81854
"4137",72.52064,888.83185
"4138",72.291145,888.84515
"4139",72.11536,888.85846
"4140",72.19348,888.87177
"4141",72.938126,888.8851
"4142",74.76921,888.8984
"4143",77.821014,888.9117
"4144",81.80057,888.925
"4145",86.10483,888.9383
"4146",89.97452,888.9516
"4147",92.74311,888.9649
"4148",94.11032,888.9782
"4149",94.220184,888.9915
"4150",93.45113,889.0048
"4151",92.17914,889.0181
"4152",90.71671,889.03143
"4153",89.31533,889.04474
"4154",88.14343,889.05804
"4155",87.257195,889.07135
"4156",86.590675,889.08466
"4157",86.00473,889.09796
"4158",85.36263,889.11127
"4159",84.58137,889.1246
"4160",83.67803,889.1379
"4161",82.7625,889.1512
"4162",81.97391,889.1645
"4163",81.40505,889.1778
"4164",81.075455,889.1911
"4165",80.91676,889.2044
"4166",80.81911,889.2177
"4167",80.672615,889.231
"4168",80.38697,889.2443
"4169",79.92554,889.2576
"4170",79.28832,889.27094
"4171",78.50706,889.28424
"4172",77.63546,889.29755
"4173",76.734566,889.31085
"4174",75.862976,889.32416
"4175",75.06706,889.33746
"4176",74.37858,889.35077
"4177",73.812164,889.3641
"4178",73.36294,889.3774
"4179",73.01381,889.3907
"4180",72.73548,889.404
"4181",72.50111,889.4173
"4182",72.28626,889.4306
"4183",72.07141,889.4439
"4184",71.84924,889.4572
"4185",71.624626,889.4705
"4186",71.448845,889.4838
"4187",71.517204,889.49713
"4188",72.215454,889.51044
"4189",73.95865,889.52374
"4190",76.88594,889.53705
"4191",80.7483,889.55035
"4192",84.981766,889.56366
"4193",88.85878,889.57697
"4194",91.72503,889.5903
"4195",93.25582,889.6036
"4196",93.57076,889.6169
"4197",93.019,889.6302
"4198",91.97406,889.6435
"4199",90.75578,889.6568
"4200",89.60586,889.6701
"4201",88.673225,889.6834
"4202",87.98474,889.6967
"4203",87.46227,889.71
"4204",86.96422,889.7233
"4205",86.33921,889.73663
"4206",85.506676,889.74994
"4207",84.49348,889.76324
"4208",83.40215,889.77655
"4209",82.39384,889.78986
"4210",81.59792,889.80316
"4211",81.07301,889.81647
"4212",80.780045,889.8298
"4213",80.62379,889.8431
"4214",80.479744,889.8564
"4215",80.2478,889.8697
"4216",79.8645,889.883
"4217",79.31762,889.8963
"4218",78.63645,889.9096
"4219",77.857635,889.9229
"4220",77.02754,889.9362
"4221",76.19501,889.9495
"4222",75.40154,889.9628
"4223",74.67887,889.97614
"4224",74.05386,889.98944
"4225",73.53384,890.00275
"4226",73.12367,890.01605
"4227",72.80629,890.02936
"4228",72.56214,890.04266
"4229",72.36439,890.05597
"4230",72.198364,890.0693
"4231",72.042114,890.0826
"4232",71.8761,890.0959
"4233",71.69543,890.1092
"4234",71.51232,890.1225
"4235",71.38537,890.1358
"4236",71.52941,890.1491
"4237",72.33753,890.1624
"4238",74.18326,890.1757
"4239",77.15694,890.189
"4240",80.96559,890.20233
"4241",85.050125,890.21564
"4242",88.70252,890.22894
"4243",91.33196,890.24225
"4244",92.6894,890.25555
"4245",92.93111,890.26886
"4246",92.40864,890.28217
"4247",91.47112,890.2955
"4248",90.41154,890.3088
"4249",89.444725,890.3221
"4250",88.673225,890.3354
"4251",88.094604,890.3487
"4252",87.61852,890.362
"4253",87.10338,890.3753
"4254",86.417336,890.3886
"4255",85.504234,890.4019
"4256",84.39826,890.4152
"4257",83.2166,890.4285
"4258",82.11307,890.44183
"4259",81.22194,890.45514
"4260",80.59693,890.46844
"4261",80.216064,890.48175
"4262",79.98657,890.49506
"4263",79.79126,890.50836
"4264",79.520256,890.52167
"4265",79.114975,890.535
"4266",78.555885,890.5483
"4267",77.872284,890.5616
"4268",77.11055,890.5749
"4269",76.30488,890.5882
"4270",75.50164,890.6015
"4271",74.73258,890.6148
"4272",74.019684,890.6281
"4273",73.38247,890.6414
"4274",72.833145,890.6547
"4275",72.37171,890.668
"4276",71.990845,890.68134
"4277",71.68322,890.69464
"4278",71.44152,890.70795
"4279",71.24864,890.72125
"4280",71.10216,890.73456
"4281",70.98985,890.74786
"4282",70.8922,890.76117
"4283",70.79698,890.7745
"4284",70.68467,890.7878
"4285",70.54307,890.8011
"4286",70.37705,890.8144
"4287",70.26475,890.8277
"4288",70.469826,890.841
"4289",71.42687,890.8543
"4290",73.494774,890.8676
"4291",76.71015,890.8809
"4292",80.70435,890.8942
"4293",84.84749,890.90753
"4294",88.40467,890.92084
"4295",90.811935,890.93414
"4296",91.91058,890.94745
"4297",91.930115,890.96075
"4298",91.26116,890.97406
"4299",90.25773,890.98737
"4300",89.198135,891.0007
"4301",88.272835,891.014
"4302",87.55016,891.0273
"4303",87.00572,891.0406
"4304",86.5272,891.0539
"4305",85.97055,891.0672
"4306",85.2137,891.0805
"4307",84.227356,891.0938
"4308",83.06523,891.1071
"4309",81.864044,891.1204
"4310",80.79225,891.1337
"4311",79.974365,891.14703
"4312",79.449455,891.16034
"4313",79.16136,891.17365
"4314",79.00267,891.18695
"4315",78.8513,891.20026
"4316",78.60471,891.21356
"4317",78.2092,891.22687
"4318",77.66476,891.2402
"4319",77.00557,891.2535
"4320",76.27558,891.2668
"4321",75.51873,891.2801
"4322",74.77165,891.2934
"4323",74.06607,891.3067
"4324",73.41665,891.32
"4325",72.833145,891.3333
"4326",72.325325,891.3466
"4327",71.888306,891.3599
"4328",71.517204,891.3732
"4329",71.202255,891.38654
"4330",70.94591,891.39984
"4331",70.74326,891.41315
"4332",70.589455,891.42645
"4333",70.484474,891.43976
"4334",70.416115,891.45306
"4335",70.364845,891.4664
"4336",70.311134,891.4797
"4337",70.237885,891.493
"4338",70.132904,891.5063
"4339",69.98886,891.5196
"4340",69.82529,891.5329
"4341",69.74471,891.5462
"4342",70.0499,891.5595
"4343",71.20714,891.5728
"4344",73.5729,891.5861
"4345",77.12764,891.5994
"4346",81.45144,891.61273
"4347",85.87045,891.62604
"4348",89.6083,891.63934
"4349",92.09613,891.65265
"4350",93.21187,891.66595
"4351",93.23384,891.67926
"4352",92.55756,891.69257
"4353",91.544365,891.7059
"4354",90.46525,891.7192
"4355",89.5082,891.7325
"4356",88.7367,891.7458
"4357",88.12146,891.7591
"4358",87.55749,891.7724
"4359",86.92027,891.7857
"4360",86.10971,891.799
"4361",85.120926,891.8123
"4362",84.0296,891.8256
"4363",82.9749,891.8389
"4364",82.10086,891.85223
"4365",81.49294,891.86554
"4366",81.146255,891.87885
"4367",80.97536,891.89215
"4368",80.87038,891.90546
"4369",80.709236,891.91876
"4370",80.42359,891.93207
"4371",79.98413,891.9454
"4372",79.40063,891.9587
"4373",78.70725,891.972
"4374",77.94797,891.9853
"4375",77.16914,891.9986
"4376",76.402534,892.0119
"4377",75.67498,892.0252
"4378",75.003586,892.0385
"4379",74.39811,892.0518
"4380",73.86099,892.0651
"4381",73.38735,892.0784
"4382",72.97719,892.09174
"4383",72.62318,892.10504
"4384",72.31556,892.11835
"4385",72.05676,892.13165
"4386",71.837036,892.14496
"4387",71.66857,892.15826
"4388",71.54894,892.1716
"4389",71.4757,892.1849
"4390",71.43908,892.1982
"4391",71.42199,892.2115
"4392",71.40002,892.2248
"4393",71.343864,892.2381
"4394",71.23888,892.2514
"4395",71.07042,892.2647
"4396",70.84337,892.278
"4397",70.6041,892.2913
"4398",70.51133,892.3046
"4399",70.96788,892.31793
"4400",72.50599,892.33124
"4401",75.41863,892.34454
"4402",79.53246,892.35785
"4403",84.25422,892.37115
"4404",88.76112,892.38446
"4405",92.25483,892.39777
"4406",94.26902,892.4111
"4407",94.86229,892.4244
"4408",94.45945,892.4377
"4409",93.51461,892.451
"4410",92.367134,892.4643
"4411",91.25628,892.4776
"4412",90.309,892.4909
"4413",89.55947,892.5042
"4414",88.95155,892.5175
"4415",88.37293,892.5308
"4416",87.68688,892.5441
"4417",86.82262,892.55743
"4418",85.785,892.57074
"4419",84.65949,892.58405
"4420",83.580376,892.59735
"4421",82.67948,892.61066
"4422",82.02518,892.62396
"4423",81.61013,892.63727
"4424",81.36355,892.6506
"4425",81.18288,892.6639
"4426",80.972916,892.6772
"4427",80.66285,892.6905
"4428",80.22095,892.7038
"4429",79.65453,892.7171
"4430",78.99046,892.7304
"4431",78.27268,892.7437
"4432",77.54513,892.757
"4433",76.83467,892.7703
"4434",76.16327,892.7836
"4435",75.53094,892.79694
"4436",74.94011,892.81024
"4437",74.40055,892.82355
"4438",73.919586,892.83685
"4439",73.50454,892.85016
"4440",73.15785,892.86346
"4441",72.87709,892.8768
"4442",72.64759,892.8901
"4443",72.4596,892.9034
"4444",72.31556,892.9167
"4445",72.217896,892.93
"4446",72.17883,892.9433
"4447",72.19104,892.9566
"4448",72.23743,892.9699
"4449",72.291145,892.9832
"4450",72.32044,892.9965
"4451",72.29359,893.0098
"4452",72.198364,893.02313
"4453",72.042114,893.03644
"4454",71.84436,893.04974
"4455",71.67834,893.06305
"4456",71.72961,893.07635
"4457",72.430305,893.08966
"4458",74.25407,893.10297
"4459",77.37911,893.1163
"4460",81.512474,893.1296
"4461",86.03403,893.1429
"4462",90.14786,893.1562
"4463",93.12886,893.1695
"4464",94.640114,893.1828
"4465",94.8452,893.1961
"4466",94.17624,893.2094
"4467",93.03853,893.2227
"4468",91.73968,893.236
"4469",90.50187,893.2493
"4470",89.45205,893.26263
"4471",88.621956,893.27594
"4472",87.94812,893.28925
"4473",87.30358,893.30255
"4474",86.56626,893.31586
"4475",85.662926,893.32916
"4476",84.613106,893.34247
"4477",83.51202,893.3558
"4478",82.496376,893.3691
"4479",81.68093,893.3824
"4480",81.112076,893.3957
"4481",80.75075,893.409
"4482",80.51881,893.4223
"4483",80.306404,893.4356
"4484",80.03052,893.4489
"4485",79.639885,893.4622
"4486",79.11742,893.4755
"4487",78.49485,893.48883
"4488",77.803925,893.50214
"4489",77.08125,893.51544
"4490",76.35859,893.52875
"4491",75.665215,893.54205
"4492",75.01091,893.55536
"4493",74.40055,893.56866
"4494",73.85367,893.582
"4495",73.3727,893.5953
"4496",72.955215,893.6086
"4497",72.603645,893.6219
"4498",72.31556,893.6352
"4499",72.08118,893.6485
"4500",71.888306,893.6618
"4501",71.744255,893.6751
"4502",71.6466,893.6884
"4503",71.59289,893.7017
"4504",71.58068,893.715
"4505",71.60754,893.72833
"4506",71.64416,893.74164
"4507",71.66857,893.75494
"4508",71.65148,893.76825
"4509",71.58312,893.78156
"4510",71.45617,893.79486
"4511",71.28283,893.80817
"4512",71.10948,893.8215
"4513",71.10948,893.8348
"4514",71.6881,893.8481
"4515",73.3727,893.8614
"4516",76.46845,893.8747
"4517",80.780045,893.888
"4518",85.68734,893.9013
"4519",90.338295,893.9146
"4520",93.89548,893.9279
"4521",95.87549,893.9412
"4522",96.33692,893.9545
"4523",95.71191,893.96783
"4524",94.47166,893.98114
"4525",92.979935,893.99445
"4526",91.50042,894.00775
"4527",90.19913,894.02106
"4528",89.15663,894.03436
"4529",88.33631,894.04767
"4530",87.620964,894.061
"4531",86.873886,894.0743
"4532",86.00717,894.0876
"4533",85.015945,894.1009
"4534",83.97345,894.1142
"4535",83.021286,894.1275
"4536",82.27421,894.1408
"4537",81.77371,894.1541
"4538",81.478294,894.1674
"4539",81.29519,894.1807
"4540",81.109634,894.19403
"4541",80.833755,894.20734
"4542",80.41627,894.22064
"4543",79.84497,894.23395
"4544",79.14671,894.24725
"4545",78.365456,894.26056
"4546",77.54513,894.27386
"4547",76.7248,894.2872
"4548",75.93866,894.3005
"4549",75.21355,894.3138
"4550",74.56657,894.3271
"4551",74.00015,894.3404
"4552",73.52163,894.3537
"4553",73.126114,894.367
"4554",72.81117,894.3803
"4555",72.57191,894.3936
"4556",72.40101,894.4069
"4557",72.291145,894.4202
"4558",72.23987,894.43353
"4559",72.22522,894.44684
"4560",72.22278,894.46014
"4561",72.20813,894.47345
"4562",72.16907,894.48676
"4563",72.0885,894.50006
"4564",71.973755,894.51337
"4565",71.85657,894.5267
