"","ppg","time"
"1",88.04822,597.5436
"2",87.23277,597.5569
"3",86.63706,597.57025
"4",86.219574,597.58356
"5",85.86313,597.5969
"6",85.435875,597.6102
"7",84.84749,597.6236
"8",84.09796,597.6369
"9",83.26299,597.65027
"10",82.45487,597.6636
"11",81.78592,597.67694
"12",81.31228,597.69025
"13",81.0193,597.7036
"14",80.833755,597.7169
"15",80.66529,597.7303
"16",80.45289,597.7436
"17",80.147705,597.75696
"18",79.742424,597.77026
"19",79.256584,597.7836
"20",78.729225,597.79694
"21",78.184784,597.8103
"22",77.64767,597.8236
"23",77.13008,597.837
"24",76.64423,597.8503
"25",76.18768,597.8636
"26",75.76532,597.8769
"27",75.38445,597.8902
"28",75.054855,597.9035
"29",74.76921,597.9168
"30",74.52018,597.9301
"31",74.29557,597.9434
"32",74.08316,597.9567
"33",73.8732,597.97003
"34",73.66811,597.98334
"35",73.47036,597.99664
"36",73.289696,598.00995
"37",73.131,598.02325
"38",72.99428,598.03656
"39",72.884415,598.04987
"40",72.80141,598.0632
"41",72.742805,598.0765
"42",72.7013,598.0898
"43",72.66956,598.1031
"44",72.637825,598.1164
"45",72.586555,598.1297
"46",72.515755,598.143
"47",72.427864,598.1563
"48",72.325325,598.1696
"49",72.22766,598.1829
"50",72.20325,598.1962
"51",72.40345,598.20953
"52",73.08217,598.22284
"53",74.42008,598.23615
"54",76.40742,598.24945
"55",78.8098,598.26276
"56",81.24635,598.27606
"57",83.27764,598.28937
"58",84.576485,598.3027
"59",85.067215,598.316
"60",84.90608,598.3293
"61",84.332344,598.3426
"62",83.59014,598.3559
"63",82.8748,598.3692
"64",82.30595,598.3825
"65",81.92508,598.3958
"66",81.70779,598.4091
"67",81.56863,598.4224
"68",81.38064,598.4357
"69",81.05592,598.44904
"70",80.5481,598.46234
"71",79.89136,598.47565
"72",79.166245,598.48895
"73",78.467995,598.50226
"74",77.88693,598.51556
"75",77.44015,598.5289
"76",77.11543,598.5422
"77",76.87373,598.5555
"78",76.66865,598.5688
"79",76.453804,598.5821
"80",76.209656,598.5954
"81",75.92401,598.6087
"82",75.60418,598.622
"83",75.27215,598.6353
"84",74.94743,598.6486
"85",74.66178,598.6619
"86",74.41764,598.67523
"87",74.22232,598.68854
"88",74.07095,598.70184
"89",73.95865,598.71515
"90",73.88785,598.72845
"91",73.846344,598.74176
"92",73.83658,598.75507
"93",73.85367,598.7684
"94",73.89517,598.7817
"95",73.95621,598.795
"96",74.03433,598.8083
"97",74.11978,598.8216
"98",74.21744,598.8349
"99",74.32975,598.8482
"100",74.459145,598.8615
"101",74.60563,598.8748
"102",74.76433,598.8881
"103",74.92546,598.9014
"104",75.07927,598.91473
"105",75.22087,598.92804
"106",75.34295,598.94135
"107",75.44305,598.95465
"108",75.51629,598.96796
"109",75.560234,598.98126
"110",75.58465,598.99457
"111",75.60418,599.0079
"112",75.682304,599.0212
"113",75.97772,599.0345
"114",76.70283,599.0478
"115",77.97238,599.0611
"116",79.73754,599.0744
"117",81.761505,599.0877
"118",83.70489,599.101
"119",85.20149,599.1143
"120",86.0267,599.1276
"121",86.16098,599.1409
"122",85.767914,599.15424
"123",85.06966,599.16754
"124",84.28596,599.18085
"125",83.59014,599.19415
"126",83.089645,599.20746
"127",82.81621,599.22076
"128",82.718544,599.2341
"129",82.69901,599.2474
"130",82.64774,599.2607
"131",82.496376,599.274
"132",82.24246,599.2873
"133",81.934845,599.3006
"134",81.64187,599.3139
"135",81.43191,599.3272
"136",81.33181,599.3405
"137",81.31716,599.3538
"138",81.34646,599.3671
"139",81.36599,599.38043
"140",81.341576,599.39374
"141",81.253685,599.40704
"142",81.10475,599.42035
"143",80.907,599.43365
"144",80.67994,599.44696
"145",80.448006,599.46027
"146",80.22583,599.4736
"147",80.01831,599.4869
"148",79.83032,599.5002
"149",79.674065,599.5135
"150",79.54223,599.5268
"151",79.432365,599.5401
"152",79.33959,599.5534
"153",79.26147,599.5667
"154",79.19554,599.58
"155",79.13451,599.5933
"156",79.08568,599.6066
"157",79.05638,599.61993
"158",79.04906,599.63324
"159",79.05638,599.64655
"160",79.078354,599.65985
"161",79.10521,599.67316
"162",79.11742,599.68646
"163",79.11009,599.69977
"164",79.07347,599.7131
"165",79.012436,599.7264
"166",78.941635,599.7397
"167",78.91722,599.753
"168",79.078354,599.7663
"169",79.59594,599.7796
"170",80.56519,599.7929
"171",81.93729,599.8062
"172",83.51446,599.8195
"173",84.998856,599.8328
"174",86.09018,599.8461
"175",86.598,599.85944
"176",86.519875,599.87274
"177",85.99252,599.88605
"178",85.21614,599.89935
"179",84.3885,599.91266
"180",83.65606,599.92596
"181",83.12627,599.9393
"182",82.81621,599.9526
"183",82.6746,599.9659
"184",82.59159,599.9792
"185",82.4744,599.9925
"186",82.26444,600.0058
"187",81.96658,600.0191
"188",81.64187,600.0324
"189",81.375755,600.0457
"190",81.22682,600.059
"191",81.20241,600.0723
"192",81.270775,600.08563
"193",81.37087,600.09894
"194",81.446556,600.11224
"195",81.449,600.12555
"196",81.36355,600.13885
"197",81.18776,600.15216
"198",80.94362,600.16547
"199",80.66041,600.1788
"200",80.36744,600.1921
"201",80.09155,600.2054
"202",79.85474,600.2187
"203",79.66674,600.232
"204",79.52758,600.2453
"205",79.43481,600.2586
"206",79.37377,600.2719
"207",79.33959,600.2852
"208",79.32983,600.2985
"209",79.33715,600.3118
"210",79.35912,600.32513
"211",79.38354,600.33844
"212",79.40307,600.35175
"213",79.40551,600.36505
"214",79.38842,600.37836
"215",79.34936,600.39166
"216",79.28344,600.40497
"217",79.200424,600.4183
"218",79.11742,600.4316
"219",79.05638,600.4449
"220",79.10277,600.4582
"221",79.40795,600.4715
"222",80.111084,600.4848
"223",81.231705,600.4981
"224",82.6453,600.5114
"225",84.10773,600.5247
"226",85.32113,600.538
"227",86.03891,600.55133
"228",86.16098,600.56464
"229",85.76547,600.57794
"230",85.04036,600.59125
"231",84.19318,600.60455
"232",83.39971,600.61786
"233",82.78935,600.63116
"234",82.408485,600.6445
"235",82.230255,600.6578
"236",82.16678,600.6711
"237",82.11307,600.6844
"238",81.988556,600.6977
"239",81.77127,600.711
"240",81.50271,600.7243
"241",81.24391,600.7376
"242",81.058365,600.7509
"243",80.970474,600.7642
"244",80.96559,600.7775
"245",81.004654,600.79083
"246",81.02907,600.80414
"247",81.00221,600.81744
"248",80.902115,600.83075
"249",80.72877,600.84406
"250",80.48951,600.85736
"251",80.216064,600.87067
"252",79.93286,600.884
"253",79.66918,600.8973
"254",79.44213,600.9106
"255",79.26635,600.9239
"256",79.14671,600.9372
"257",79.080795,600.9505
"258",79.05882,600.9638
"259",79.063705,600.9771
"260",79.08812,600.9904
"261",79.12718,601.0037
"262",79.18089,601.017
"263",79.24681,601.03033
"264",79.32006,601.04364
"265",79.3933,601.05695
"266",79.46166,601.07025
"267",79.50805,601.08356
"268",79.52758,601.09686
"269",79.5227,601.11017
"270",79.4934,601.1235
"271",79.44457,601.1368
"272",79.378654,601.1501
"273",79.30541,601.1634
"274",79.25414,601.1767
"275",79.30785,601.19
"276",79.62524,601.2033
"277",80.343025,601.2166
"278",81.48318,601.2299
"279",82.90898,601.2432
"280",84.368965,601.25653
"281",85.56283,601.26984
"282",86.24399,601.28314
"283",86.31968,601.29645
"284",85.87778,601.30975
"285",85.103836,601.32306
"286",84.19318,601.33636
"287",83.319145,601.3497
"288",82.61356,601.363
"289",82.1326,601.3763
"290",81.87381,601.3896
"291",81.76395,601.4029
"292",81.7029,601.4162
"293",81.61013,601.4295
"294",81.444115,601.4428
"295",81.2195,601.4561
"296",80.990005,601.4694
"297",80.8069,601.4827
"298",80.69947,601.49603
"299",80.65797,601.50934
"300",80.6482,601.52264
"301",80.638435,601.53595
"302",80.58961,601.54926
"303",80.48951,601.56256
"304",80.33814,601.57587
"305",80.15015,601.5892
"306",79.93286,601.6025
"307",79.708244,601.6158
"308",79.48852,601.6291
"309",79.29565,601.6424
"310",79.1223,601.6557
"311",78.9807,601.669
"312",78.86839,601.6823
"313",78.785385,601.6956
"314",78.71702,601.7089
"315",78.66819,601.7222
"316",78.61936,601.73553
"317",78.57053,601.74884
"318",78.52903,601.76215
"319",78.49485,601.77545
"320",78.46555,601.78876
"321",78.450905,601.80206
"322",78.450905,601.81537
"323",78.45823,601.8287
"324",78.467995,601.842
"325",78.485085,601.8553
"326",78.5095,601.8686
"327",78.536354,601.8819
"328",78.56077,601.8952
"329",78.57786,601.9085
"330",78.58274,601.9218
"331",78.56809,601.9351
"332",78.536354,601.9484
"333",78.48997,601.96173
"334",78.487526,601.97504
"335",78.65354,601.98834
"336",79.168686,602.00165
"337",80.14526,602.01495
"338",81.54177,602.02826
"339",83.16777,602.04156
"340",84.73029,602.0549
"341",85.91196,602.0682
"342",86.502785,602.0815
"343",86.47593,602.0948
"344",85.96323,602.1081
"345",85.152664,602.1214
"346",84.23712,602.1347
"347",83.38506,602.148
"348",82.71122,602.1613
"349",82.266884,602.1746
"350",82.039825,602.1879
"351",81.95438,602.20123
"352",81.90799,602.21454
"353",81.815216,602.22784
"354",81.64187,602.24115
"355",81.39773,602.25446
"356",81.13161,602.26776
"357",80.902115,602.28107
"358",80.743416,602.2944
"359",80.66285,602.3077
"360",80.62379,602.321
"361",80.59449,602.3343
"362",80.54566,602.3476
"363",80.45289,602.3609
"364",80.31373,602.3742
"365",80.14038,602.3875
"366",79.940186,602.4008
"367",79.73022,602.4141
"368",79.5227,602.4274
"369",79.32983,602.44073
"370",79.15892,602.45404
"371",79.01732,602.46735
"372",78.905014,602.48065
"373",78.82445,602.49396
"374",78.765854,602.50726
"375",78.7219,602.52057
"376",78.6804,602.5339
"377",78.641335,602.5472
"378",78.60227,602.5605
"379",78.56809,602.5738
"380",78.54124,602.5871
"381",78.52659,602.6004
"382",78.519264,602.6137
"383",78.52415,602.627
"384",78.53391,602.6403
"385",78.551,602.6536
"386",78.57542,602.66693
"387",78.59495,602.68024
"388",78.60471,602.69354
"389",78.59495,602.70685
"390",78.55833,602.72015
"391",78.49485,602.73346
"392",78.416725,602.74677
"393",78.34104,602.7601
"394",78.33616,602.7734
"395",78.54856,602.7867
"396",79.14183,602.8
"397",80.19409,602.8133
"398",81.634544,602.8266
"399",83.250786,602.8399
"400",84.74494,602.8532
"401",85.8143,602.8665
"402",86.28794,602.8798
"403",86.168304,602.8931
"404",85.60189,602.90643
"405",84.76692,602.91974
"406",83.85382,602.93304
"407",83.01396,602.94635
"408",82.35233,602.95966
"409",81.91287,602.97296
"410",81.68093,602.98627
"411",81.57839,602.9996
"412",81.5198,603.0129
"413",81.43435,603.0262
"414",81.29519,603.0395
"415",81.12184,603.0528
"416",80.94606,603.0661
"417",80.81178,603.0794
"418",80.73609,603.0927
"419",80.69947,603.106
"420",80.672615,603.1193
"421",80.62379,603.1326
"422",80.53101,603.14594
"423",80.39185,603.15924
"424",80.22095,603.17255
"425",80.028076,603.18585
"426",79.82788,603.19916
"427",79.62524,603.21246
"428",79.42748,603.22577
"429",79.23216,603.2391
"430",79.0515,603.2524
"431",78.887924,603.2657
"432",78.74876,603.279
"433",78.63645,603.2923
"434",78.553444,603.3056
"435",78.487526,603.3189
"436",78.44358,603.3322
"437",78.416725,603.3455
"438",78.40696,603.3588
"439",78.40696,603.37213
"440",78.42161,603.38544
"441",78.44358,603.39874
"442",78.470436,603.41205
"443",78.49485,603.42535
"444",78.52415,603.43866
"445",78.54856,603.45197
"446",78.56809,603.4653
"447",78.5803,603.4786
"448",78.58274,603.4919
"449",78.56077,603.5052
"450",78.521706,603.5185
"451",78.47776,603.5318
"452",78.49485,603.5451
"453",78.709694,603.5584
"454",79.29565,603.5717
"455",80.32838,603.585
"456",81.739525,603.5983
"457",83.3167,603.61163
"458",84.76692,603.62494
"459",85.79721,603.63824
"460",86.23422,603.65155
"461",86.082855,603.66486
"462",85.4847,603.67816
"463",84.61799,603.69147
"464",83.67559,603.7048
"465",82.81865,603.7181
"466",82.15457,603.7314
"467",81.71999,603.7447
"468",81.48318,603.758
"469",81.36599,603.7713
"470",81.290306,603.7846
"471",81.20485,603.7979
"472",81.10231,603.8112
"473",81.00221,603.8245
"474",80.93385,603.8378
"475",80.91188,603.85114
"476",80.921646,603.86444
"477",80.938736,603.87775
"478",80.92653,603.89105
"479",80.86549,603.90436
"480",80.7483,603.91766
"481",80.57496,603.93097
"482",80.36256,603.9443
"483",80.12329,603.9576
"484",79.87427,603.9709
"485",79.62035,603.9842
"486",79.381096,603.9975
"487",79.17113,604.0108
"488",79.00023,604.0241
"489",78.870834,604.0374
"490",78.78783,604.0507
"491",78.73655,604.064
"492",78.69749,604.07733
"493",78.660866,604.09064
"494",78.6218,604.10394
"495",78.58274,604.11725
"496",78.54612,604.13055
"497",78.52659,604.14386
"498",78.51438,604.15717
"499",78.5095,604.1705
"500",78.504616,604.1838
"501",78.485085,604.1971
"502",78.44846,604.2104
"503",78.40208,604.2237
"504",78.365456,604.237
"505",78.42405,604.2503
"506",78.73411,604.2636
"507",79.43969,604.2769
"508",80.57252,604.2902
"509",82.02762,604.3035
"510",83.57061,604.31683
"511",84.9012,604.33014
"512",85.76303,604.34344
"513",86.046234,604.35675
"514",85.804535,604.37006
"515",85.19173,604.38336
"516",84.39582,604.39667
"517",83.59258,604.41
"518",82.90898,604.4233
"519",82.41581,604.4366
"520",82.11307,604.4499
"521",81.93729,604.4632
"522",81.80545,604.4765
"523",81.651634,604.4898
"524",81.45632,604.5031
"525",81.24391,604.5164
"526",81.06081,604.5297
"527",80.9485,604.543
"528",80.91188,604.55634
"529",80.936295,604.56964
"530",80.970474,604.58295
"531",80.972916,604.59625
"532",80.919205,604.60956
"533",80.799576,604.62286
"534",80.62379,604.63617
"535",80.40894,604.6495
"536",80.184326,604.6628
"537",79.96948,604.6761
"538",79.783936,604.6894
"539",79.63256,604.7027
"540",79.520256,604.716
"541",79.43969,604.7293
"542",79.38354,604.7426
"543",79.34203,604.7559
"544",79.30541,604.7692
"545",79.26879,604.78253
"546",79.22972,604.79584
"547",79.1931,604.80914
"548",79.16136,604.82245
"549",79.132065,604.83575
"550",79.10521,604.84906
"551",79.078354,604.86237
"552",79.05394,604.8757
"553",79.02464,604.889
"554",78.99779,604.9023
"555",78.98558,604.9156
"556",79.044174,604.9289
"557",79.29565,604.9422
"558",79.89136,604.9555
"559",80.90456,604.9688
"560",82.27421,604.9821
"561",83.80499,604.9954
"562",85.223465,605.0087
"563",86.25376,605.02203
"564",86.73716,605.03534
"565",86.68589,605.04865
"566",86.24155,605.06195
"567",85.58724,605.07526
"568",84.9012,605.08856
"569",84.31281,605.10187
"570",83.90021,605.1152
"571",83.66338,605.1285
"572",83.546196,605.1418
"573",83.458305,605.1551
"574",83.30938,605.1684
"575",83.06035,605.1817
"576",82.72343,605.195
"577",82.35966,605.2083
"578",82.04471,605.2216
"579",81.832306,605.2349
"580",81.72732,605.2482
"581",81.69558,605.26154
"582",81.68337,605.27484
"583",81.64431,605.28815
"584",81.549095,605.30145
"585",81.38796,605.31476
"586",81.17067,605.32806
"587",80.90944,605.3414
"588",80.63111,605.3547
"589",80.34547,605.368
"590",80.08179,605.3813
"591",79.84741,605.3946
"592",79.65453,605.4079
"593",79.49828,605.4212
"594",79.378654,605.4345
"595",79.27856,605.4478
"596",79.1931,605.4611
"597",79.114975,605.4744
"598",79.044174,605.48773
"599",78.975815,605.50104
"600",78.91478,605.51434
"601",78.85863,605.52765
"602",78.80492,605.54095
"603",78.75365,605.55426
"604",78.69016,605.56757
"605",78.61204,605.5809
"606",78.53391,605.5942
"607",78.50706,605.6075
"608",78.65598,605.6208
"609",79.14427,605.6341
"610",80.079346,605.6474
"611",81.42458,605.6607
"612",83.004196,605.674
"613",84.53986,605.6873
"614",85.74105,605.7006
"615",86.417336,605.7139
"616",86.54429,605.72723
"617",86.24155,605.74054
"618",85.70199,605.75385
"619",85.10628,605.76715
"620",84.593575,605.78046
"621",84.23956,605.79376
"622",84.05646,605.80707
"623",83.9881,605.8204
"624",83.93927,605.8337
"625",83.81476,605.847
"626",83.560844,605.8603
"627",83.177536,605.8736
"628",82.70878,605.8869
"629",82.24246,605.9002
"630",81.85916,605.9135
"631",81.60525,605.9268
"632",81.480736,605.9401
"633",81.43679,605.9534
"634",81.41238,605.96674
"635",81.3489,605.98004
"636",81.21217,605.99335
"637",80.990005,606.00665
"638",80.706795,606.01996
"639",80.38697,606.03326
"640",80.062256,606.0466
"641",79.7522,606.0599
"642",79.46899,606.0732
"643",79.21507,606.0865
"644",78.98802,606.0998
"645",78.78783,606.1131
"646",78.61204,606.1264
"647",78.46311,606.1397
"648",78.33372,606.153
"649",78.21896,606.1663
"650",78.116425,606.1796
"651",78.02121,606.19293
"652",77.93332,606.20624
"653",77.86252,606.21954
"654",77.80148,606.23285
"655",77.752655,606.24615
"656",77.7087,606.25946
"657",77.659874,606.27277
"658",77.59884,606.2861
"659",77.5256,606.2994
"660",77.43282,606.3127
"661",77.330284,606.326
"662",77.24727,606.3393
"663",77.29122,606.3526
"664",77.64034,606.3659
"665",78.45335,606.3792
"666",79.77173,606.3925
"667",81.47585,606.4058
"668",83.3045,606.4191
"669",84.91829,606.43243
"670",86.03403,606.44574
"671",86.52964,606.45905
"672",86.47105,606.47235
"673",86.03647,606.48566
"674",85.44076,606.49896
"675",84.86946,606.51227
"676",84.44953,606.5256
"677",84.21759,606.5389
"678",84.14435,606.5522
"679",84.139465,606.5655
"680",84.09796,606.5788
"681",83.929504,606.5921
"682",83.60723,606.6054
"683",83.15556,606.6187
"684",82.64774,606.632
"685",82.17166,606.6453
"686",81.79813,606.6586
"687",81.55154,606.67194
"688",81.41238,606.68524
"689",81.33425,606.69855
"690",81.25857,606.71185
"691",81.13649,606.72516
"692",80.94118,606.73846
"693",80.672615,606.7518
"694",80.34547,606.7651
"695",79.991455,606.7784
"696",79.63012,606.7917
"697",79.28832,606.805
"698",78.975815,606.8183
"699",78.69749,606.8316
"700",78.450905,606.8449
"701",78.23117,606.8582
"702",78.0383,606.8715
"703",77.86008,606.8848
"704",77.69894,606.89813
"705",77.54757,606.91144
"706",77.41085,606.92474
"707",77.28634,606.93805
"708",77.171585,606.95135
"709",77.07149,606.96466
"710",76.97627,606.97797
"711",76.88838,606.9913
"712",76.807816,607.0046
"713",76.72968,607.0179
"714",76.65644,607.0312
"715",76.5832,607.0445
"716",76.50996,607.0578
"717",76.42695,607.0711
"718",76.33906,607.0844
"719",76.243835,607.0977
"720",76.14618,607.111
"721",76.050964,607.1243
"722",75.99481,607.13763
"723",76.087585,607.15094
"724",76.5124,607.16425
"725",77.43282,607.17755
"726",78.87572,607.19086
"727",80.71168,607.20416
"728",82.65995,607.21747
"729",84.37141,607.2308
"730",85.55306,607.2441
"731",86.09506,607.2574
"732",86.07309,607.2707
"733",85.67025,607.284
"734",85.103836,607.2973
"735",84.55451,607.3106
"736",84.14923,607.3239
"737",83.929504,607.3372
"738",83.86603,607.3505
"739",83.86847,607.36383
"740",83.83429,607.37714
"741",83.67071,607.39044
"742",83.34112,607.40375
"743",82.87236,607.41705
"744",82.34257,607.43036
"745",81.83963,607.44366
"746",81.43679,607.457
"747",81.15602,607.4703
"748",80.987564,607.4836
"749",80.88014,607.4969
"750",80.7776,607.5102
"751",80.638435,607.5235
"752",80.43336,607.5368
"753",80.15747,607.5501
"754",79.82544,607.5634
"755",79.45434,607.5767
"756",79.07103,607.59
"757",78.69749,607.60333
"758",78.348366,607.61664
"759",78.03586,607.62994
"760",77.75754,607.64325
"761",77.51339,607.65656
"762",77.30343,607.66986
"763",77.11543,607.68317
"764",76.93965,607.6965
"765",76.77608,607.7098
"766",76.62226,607.7231
"767",76.47578,607.7364
"768",76.34394,607.7497
"769",76.226746,607.763
"770",76.121765,607.7763
"771",76.02167,607.7896
"772",75.93622,607.8029
"773",75.85565,607.8162
"774",75.77753,607.8295
"775",75.699394,607.84283
"776",75.62615,607.85614
"777",75.55535,607.86945
"778",75.48699,607.88275
"779",75.421074,607.89606
"780",75.352715,607.90936
"781",75.27703,607.92267
"782",75.18425,607.936
"783",75.08415,607.9493
"784",75.001144,607.9626
"785",75.028,607.9759
"786",75.338066,607.9892
"787",76.10956,608.0025
"788",77.41573,608.0158
"789",79.17113,608.0291
"790",81.13893,608.0424
"791",82.97978,608.0557
"792",84.37385,608.06903
"793",85.14778,608.08234
"794",85.313805,608.09564
"795",85.02083,608.10895
"796",84.46906,608.12225
"797",83.85626,608.13556
"798",83.33868,608.14886
"799",83.00664,608.1622
"800",82.862595,608.1755
"801",82.85527,608.1888
"802",82.88457,608.2021
"803",82.83574,608.2154
"804",82.63798,608.2287
"805",82.28397,608.242
"806",81.82742,608.2553
"807",81.35134,608.2686
"808",80.94118,608.2819
"809",80.64576,608.2952
"810",80.462654,608.30853
"811",80.35035,608.32184
"812",80.25269,608.33514
"813",80.12573,608.34845
"814",79.93286,608.36176
"815",79.66918,608.37506
"816",79.33959,608.38837
"817",78.96361,608.4017
"818",78.555885,608.415
"819",78.14084,608.4283
"820",77.733116,608.4416
"821",77.366905,608.4549
"822",77.05928,608.4682
"823",76.82735,608.4815
"824",76.67353,608.4948
"825",76.595406,608.5081
"826",76.56611,608.5214
"827",76.558784,608.5347
"828",76.5539,608.54803
"829",76.52705,608.56134
"830",76.473335,608.57465
"831",76.39277,608.58795
"832",76.29023,608.60126
"833",76.18036,608.61456
"834",76.070496,608.62787
"835",75.965515,608.6412
"836",75.87518,608.6545
"837",75.80194,608.6678
"838",75.74578,608.6811
"839",75.70672,608.6944
"840",75.67254,608.7077
"841",75.63836,608.721
"842",75.60418,608.7343
"843",75.55779,608.7476
"844",75.50164,608.7609
"845",75.440605,608.77423
"846",75.37469,608.78754
"847",75.33074,608.80084
"848",75.406425,608.81415
"849",75.76776,608.82745
"850",76.58076,608.84076
"851",77.90646,608.85406
"852",79.64477,608.8674
"853",81.566185,608.8807
"854",83.346,608.894
"855",84.68879,608.9073
"856",85.43832,608.9206
"857",85.6141,608.9339
"858",85.347984,608.9472
"859",84.81331,608.9605
"860",84.190735,608.9738
"861",83.62188,608.9871
"862",83.19951,609.0004
"863",82.948044,609.01373
"864",82.828415,609.02704
"865",82.757614,609.04034
"866",82.6453,609.05365
"867",82.44511,609.06696
"868",82.14725,609.08026
"869",81.79813,609.09357
"870",81.45144,609.1069
"871",81.160904,609.1202
"872",80.94606,609.1335
"873",80.79469,609.1468
"874",80.66773,609.1601
"875",80.5359,609.1734
"876",80.37476,609.1867
"877",80.16724,609.2
"878",79.91333,609.2133
"879",79.62524,609.2266
"880",79.31762,609.2399
"881",79.00267,609.25323
"882",78.69749,609.26654
"883",78.41184,609.27985
"884",78.14816,609.29315
"885",77.90646,609.30646
"886",77.68673,609.31976
"887",77.48409,609.33307
"888",77.296104,609.3464
"889",77.12276,609.3597
"890",76.964066,609.373
"891",76.82002,609.3863
"892",76.68818,609.3996
"893",76.575874,609.4129
"894",76.47822,609.4262
"895",76.39277,609.4395
"896",76.31953,609.4528
"897",76.25849,609.4661
"898",76.209656,609.47943
"899",76.16571,609.49274
"900",76.13397,609.50604
"901",76.10712,609.51935
"902",76.087585,609.53265
"903",76.070496,609.54596
"904",76.05829,609.55927
"905",76.04364,609.5726
"906",76.02411,609.5859
"907",75.99237,609.5992
"908",75.945984,609.6125
"909",75.88495,609.6258
"910",75.82391,609.6391
"911",75.789734,609.6524
"912",75.88739,609.6657
"913",76.299995,609.679
"914",77.20088,609.6923
"915",78.65354,609.7056
"916",80.552986,609.71893
"917",82.65751,609.73224
"918",84.62531,609.74554
"919",86.136566,609.75885
"920",87.010605,609.77216
"921",87.257195,609.78546
"922",86.9984,609.79877
"923",86.41245,609.8121
"924",85.6849,609.8254
"925",84.972,609.8387
"926",84.39582,609.852
"927",84.00275,609.8653
"928",83.77814,609.8786
"929",83.65606,609.8919
"930",83.543755,609.9052
"931",83.372856,609.9185
"932",83.1165,609.9318
"933",82.79668,609.9451
"934",82.46464,609.95844
"935",82.1741,609.97174
"936",81.951935,609.98505
"937",81.78836,609.99835
"938",81.654076,610.01166
"939",81.50759,610.02496
"940",81.32693,610.03827
"941",81.094986,610.0516
"942",80.81178,610.0649
"943",80.48951,610.0782
"944",80.14038,610.0915
"945",79.79126,610.1048
"946",79.447014,610.1181
"947",79.1223,610.1314
"948",78.82201,610.1447
"949",78.54368,610.158
"950",78.28489,610.1713
"951",78.05295,610.18463
"952",77.84299,610.19794
"953",77.65743,610.21124
"954",77.488976,610.22455
"955",77.34005,610.23785
"956",77.20332,610.25116
"957",77.08125,610.26447
"958",76.96895,610.2778
"959",76.86641,610.2911
"960",76.771194,610.3044
"961",76.68818,610.3177
"962",76.6247,610.331
"963",76.575874,610.3443
"964",76.54902,610.3576
"965",76.53437,610.3709
"966",76.524605,610.3842
"967",76.50263,610.3975
"968",76.46113,610.4108
"969",76.387886,610.42413
"970",76.29023,610.43744
"971",76.1828,610.45074
"972",76.11932,610.46405
"973",76.24628,610.47736
"974",76.771194,610.49066
"975",77.85275,610.50397
"976",79.49828,610.5173
"977",81.54665,610.5306
"978",83.700005,610.5439
"979",85.58724,610.5572
"980",86.91539,610.5705
"981",87.55993,610.5838
"982",87.57702,610.5971
"983",87.113144,610.6104
"984",86.35142,610.6237
"985",85.47738,610.637
"986",84.647285,610.6503
"987",83.96857,610.66364
"988",83.492485,610.67694
"989",83.18974,610.69025
"990",82.98711,610.70355
"991",82.80644,610.71686
"992",82.58671,610.73016
"993",82.320595,610.74347
"994",82.02762,610.7568
"995",81.75662,610.7701
"996",81.54177,610.7834
"997",81.3904,610.7967
"998",81.2781,610.81
"999",81.17067,610.8233
"1000",81.03395,610.8366
"1001",80.848404,610.8499
"1002",80.604256,610.8632
"1003",80.30152,610.8765
"1004",79.957275,610.88983
"1005",79.588615,610.90314
"1006",79.21263,610.91644
"1007",78.84398,610.92975
"1008",78.49485,610.94305
"1009",78.167694,610.95636
"1010",77.872284,610.96967
"1011",77.608604,610.983
"1012",77.37667,610.9963
"1013",77.17403,611.0096
"1014",76.99336,611.0229
"1015",76.83223,611.0362
"1016",76.680855,611.0495
"1017",76.54658,611.0628
"1018",76.42939,611.0761
"1019",76.33906,611.0894
"1020",76.2707,611.1027
"1021",76.224304,611.116
"1022",76.192566,611.12933
"1023",76.17792,611.14264
"1024",76.173035,611.15594
"1025",76.173035,611.16925
"1026",76.17059,611.18256
"1027",76.1535,611.19586
"1028",76.112,611.20917
"1029",76.04852,611.2225
"1030",75.97284,611.2358
"1031",75.928894,611.2491
"1032",76.06561,611.2624
"1033",76.612495,611.2757
"1034",77.74532,611.289
"1035",79.49584,611.3023
"1036",81.70046,611.3156
"1037",84.051575,611.3289
"1038",86.14633,611.3422
"1039",87.65514,611.3555
"1040",88.429085,611.36884
"1041",88.516975,611.38214
"1042",88.060425,611.39545
"1043",87.24498,611.40875
"1044",86.258644,611.42206
"1045",85.27474,611.43536
"1046",84.42756,611.44867
"1047",83.7879,611.462
"1048",83.353325,611.4753
"1049",83.06767,611.4886
"1050",82.85039,611.5019
"1051",82.64042,611.5152
"1052",82.41825,611.5285
"1053",82.20584,611.5418
"1054",82.03006,611.5551
"1055",81.917755,611.5684
"1056",81.85428,611.5817
"1057",81.80545,611.59503
"1058",81.72732,611.60834
"1059",81.58816,611.62164
"1060",81.373314,611.63495
"1061",81.077896,611.64825
"1062",80.71656,611.66156
"1063",80.30396,611.67487
"1064",79.87427,611.6882
"1065",79.447014,611.7015
"1066",79.03685,611.7148
"1067",78.6511,611.7281
"1068",78.29954,611.7414
"1069",77.97482,611.7547
"1070",77.68185,611.768
"1071",77.4255,611.7813
"1072",77.208206,611.7946
"1073",77.02754,611.8079
"1074",76.87862,611.8212
"1075",76.75899,611.83453
"1076",76.65888,611.84784
"1077",76.57343,611.86115
"1078",76.49775,611.87445
"1079",76.436714,611.88776
"1080",76.39277,611.90106
"1081",76.368355,611.91437
"1082",76.36347,611.9277
"1083",76.36591,611.941
"1084",76.36103,611.9543
"1085",76.334175,611.9676
"1086",76.27558,611.9809
"1087",76.192566,611.9942
"1088",76.09247,612.0075
"1089",76.04364,612.0208
"1090",76.209656,612.0341
"1091",76.822464,612.0474
"1092",78.05051,612.0607
"1093",79.886475,612.07404
"1094",82.142365,612.08734
"1095",84.491035,612.10065
"1096",86.5272,612.11395
"1097",87.940796,612.12726
"1098",88.61219,612.14056
"1099",88.604866,612.1539
"1100",88.06531,612.1672
"1101",87.1815,612.1805
"1102",86.15854,612.1938
"1103",85.16487,612.2071
"1104",84.332344,612.2204
"1105",83.72442,612.2337
"1106",83.32647,612.247
"1107",83.070114,612.2603
"1108",82.87236,612.2736
"1109",82.67704,612.2869
"1110",82.46952,612.30023
"1111",82.26444,612.31354
"1112",82.09598,612.32684
"1113",81.97391,612.34015
"1114",81.8909,612.35345
"1115",81.80789,612.36676
"1116",81.688255,612.38007
"1117",81.50027,612.3934
"1118",81.24391,612.4067
"1119",80.919205,612.42
"1120",80.54322,612.4333
"1121",80.1355,612.4466
"1122",79.72045,612.4599
"1123",79.31762,612.4732
"1124",78.93431,612.4865
"1125",78.572975,612.4998
"1126",78.24582,612.5131
"1127",77.94797,612.5264
"1128",77.68185,612.53973
"1129",77.44747,612.55304
"1130",77.24483,612.56635
"1131",77.066605,612.57965
"1132",76.90547,612.59296
"1133",76.756546,612.60626
"1134",76.62226,612.61957
"1135",76.49775,612.6329
"1136",76.39277,612.6462
"1137",76.314644,612.6595
"1138",76.263374,612.6728
"1139",76.23163,612.6861
"1140",76.20477,612.6994
"1141",76.173035,612.7127
"1142",76.11688,612.726
"1143",76.03143,612.7393
"1144",75.92157,612.7526
"1145",75.82391,612.7659
"1146",75.8703,612.77924
"1147",76.280464,612.79254
"1148",77.264366,612.80585
"1149",78.90013,612.81915
"1150",81.07057,612.83246
"1151",83.4876,612.84576
"1152",85.75571,612.8591
"1153",87.51354,612.8724
"1154",88.5536,612.8857
"1155",88.87831,612.899
"1156",88.60731,612.9123
"1157",87.923706,612.9256
"1158",87.01793,612.9389
"1159",86.082855,612.9522
"1160",85.25277,612.9655
"1161",84.613106,612.9788
"1162",84.17609,612.9921
"1163",83.88312,613.00543
"1164",83.65362,613.01874
"1165",83.424126,613.03204
"1166",83.175095,613.04535
"1167",82.913864,613.05865
"1168",82.68192,613.07196
"1169",82.50126,613.08527
"1170",82.371864,613.0986
"1171",82.25956,613.1119
"1172",82.11795,613.1252
"1173",81.9202,613.1385
"1174",81.651634,613.1518
"1175",81.31716,613.1651
"1176",80.92897,613.1784
"1177",80.5066,613.1917
"1178",80.06958,613.205
"1179",79.63012,613.2183
"1180",79.202866,613.2316
"1181",78.79027,613.24493
"1182",78.40452,613.25824
"1183",78.05295,613.27155
"1184",77.733116,613.28485
"1185",77.44015,613.29816
"1186",77.17403,613.31146
"1187",76.927444,613.32477
"1188",76.700386,613.3381
"1189",76.490425,613.3514
"1190",76.299995,613.3647
"1191",76.13153,613.378
"1192",75.97772,613.3913
"1193",75.84589,613.4046
"1194",75.733574,613.4179
"1195",75.64324,613.4312
"1196",75.57,613.4445
"1197",75.51385,613.4578
"1198",75.457695,613.4711
"1199",75.389336,613.48444
"1200",75.29412,613.49774
"1201",75.17937,613.51105
"1202",75.08659,613.52435
"1203",75.18669,613.53766
"1204",75.73113,613.55096
"1205",76.927444,613.5643
"1206",78.8098,613.5776
"1207",81.19264,613.5909
"1208",83.734184,613.6042
"1209",86.00473,613.6175
"1210",87.64538,613.6308
"1211",88.497444,613.6441
"1212",88.61219,613.6574
"1213",88.15076,613.6707
"1214",87.31335,613.684
"1215",86.30259,613.6973
"1216",85.313805,613.71063
"1217",84.47883,613.72394
"1218",83.861145,613.73724
"1219",83.441216,613.75055
"1220",83.15068,613.76385
"1221",82.90898,613.77716
"1222",82.67704,613.79047
"1223",82.44022,613.8038
"1224",82.22781,613.8171
"1225",82.06424,613.8304
"1226",81.96658,613.8437
"1227",81.90311,613.857
"1228",81.82742,613.8703
"1229",81.69802,613.8836
"1230",81.48318,613.8969
"1231",81.17555,613.9102
"1232",80.782486,613.9235
"1233",80.323494,613.9368
"1234",79.82544,613.95013
"1235",79.3225,613.96344
"1236",78.84154,613.97675
"1237",78.399635,613.99005
"1238",78.00412,614.00336
"1239",77.662315,614.01666
"1240",77.366905,614.02997
"1241",77.10811,614.0433
"1242",76.87862,614.0566
"1243",76.67109,614.0699
"1244",76.48798,614.0832
"1245",76.32685,614.0965
"1246",76.190125,614.1098
"1247",76.08026,614.1231
"1248",75.99237,614.1364
"1249",75.90936,614.1497
"1250",75.81171,614.163
"1251",75.682304,614.17633
"1252",75.508965,614.18964
"1253",75.301445,614.20294
"1254",75.071945,614.21625
"1255",74.88884,614.22955
"1256",74.9279,614.24286
"1257",75.4284,614.25616
"1258",76.56367,614.2695
"1259",78.34348,614.2828
"1260",80.587166,614.2961
"1261",82.948044,614.3094
"1262",85.00374,614.3227
"1263",86.42222,614.336
"1264",87.07164,614.3493
"1265",87.01793,614.3626
"1266",86.43931,614.3759
"1267",85.55306,614.3892
"1268",84.576485,614.4025
"1269",83.69512,614.41583
"1270",83.01396,614.42914
"1271",82.547646,614.44244
"1272",82.24002,614.45575
"1273",81.991,614.46906
"1274",81.72976,614.48236
"1275",81.44167,614.49567
"1276",81.15602,614.509
"1277",80.93385,614.5223
"1278",80.81911,614.5356
"1279",80.81178,614.5489
"1280",80.86305,614.5622
"1281",80.90456,614.5755
"1282",80.87282,614.5888
"1283",80.73121,614.6021
"1284",80.4773,614.6154
"1285",80.12329,614.6287
"1286",79.70092,614.642
"1287",79.24925,614.65533
"1288",78.79515,614.66864
"1289",78.36057,614.68195
"1290",77.96506,614.69525
"1291",77.625694,614.70856
"1292",77.347374,614.72186
"1293",77.12764,614.73517
"1294",76.961624,614.7485
"1295",76.839554,614.7618
"1296",76.74189,614.7751
"1297",76.64912,614.7884
"1298",76.55634,614.8017
"1299",76.44892,614.815
"1300",76.33173,614.8283
"1301",76.20233,614.8416
"1302",76.068054,614.8549
"1303",75.95819,614.8682
"1304",75.93622,614.88153
"1305",76.17792,614.89484
"1306",76.90791,614.90814
"1307",78.28245,614.92145
"1308",80.28199,614.93475
"1309",82.70878,614.94806
"1310",85.206375,614.96136
"1311",87.35241,614.9747
"1312",88.831924,614.988
"1313",89.532616,615.0013
"1314",89.53506,615.0146
"1315",89.02968,615.0279
"1316",88.24353,615.0412
"1317",87.40612,615.0545
"1318",86.678566,615.0678
"1319",86.14145,615.0811
"1320",85.78012,615.0944
"1321",85.506676,615.1077
"1322",85.21126,615.12103
"1323",84.81819,615.13434
"1324",84.30793,615.14764
"1325",83.736626,615.16095
"1326",83.18974,615.17426
"1327",82.7454,615.18756
"1328",82.43534,615.20087
"1329",82.23758,615.2142
"1330",82.091095,615.2275
"1331",81.934845,615.2408
"1332",81.71511,615.2541
"1333",81.40017,615.2674
"1334",80.98512,615.2807
"1335",80.48951,615.294
"1336",79.94263,615.3073
"1337",79.37621,615.3206
"1338",78.82689,615.3339
"1339",78.32151,615.3472
"1340",77.872284,615.36053
"1341",77.48409,615.37384
"1342",77.15694,615.38715
"1343",76.876175,615.40045
"1344",76.63447,615.41376
"1345",76.419624,615.42706
"1346",76.226746,615.44037
"1347",76.04608,615.4537
"1348",75.8703,615.467
"1349",75.69695,615.4803
"1350",75.526054,615.4936
"1351",75.36248,615.5069
"1352",75.23308,615.5202
"1353",75.245285,615.5335
"1354",75.5993,615.5468
"1355",76.52216,615.5601
"1356",78.12863,615.5734
"1357",80.36256,615.58673
"1358",82.96025,615.60004
"1359",85.51644,615.61334
"1360",87.606316,615.62665
"1361",88.94667,615.63995
"1362",89.48867,615.65326
"1363",89.35195,615.66656
"1364",88.76845,615.6799
"1365",87.989624,615.6932
"1366",87.22545,615.7065
"1367",86.61753,615.7198
"1368",86.20737,615.7331
"1369",85.94858,615.7464
"1370",85.72884,615.7597
"1371",85.43343,615.773
"1372",84.97688,615.7863
"1373",84.34699,615.7996
"1374",83.60967,615.8129
"1375",82.862595,615.82623
"1376",82.2034,615.83954
"1377",81.69558,615.85284
"1378",81.33669,615.86615
"1379",81.077896,615.87946
"1380",80.85573,615.89276
"1381",80.604256,615.90607
"1382",80.27711,615.9194
"1383",79.85718,615.9327
"1384",79.35424,615.946
"1385",78.78783,615.9593
"1386",78.19455,615.9726
"1387",77.60616,615.9859
"1388",77.04707,615.9992
"1389",76.53193,616.0125
"1390",76.07538,616.0258
"1391",75.67986,616.0391
"1392",75.34051,616.0524
"1393",75.0573,616.06573
"1394",74.82292,616.07904
"1395",74.63737,616.09235
"1396",74.478676,616.10565
"1397",74.34196,616.11896
"1398",74.21744,616.13226
"1399",74.09781,616.14557
"1400",73.97818,616.1589
"1401",73.848785,616.1722
"1402",73.71938,616.1855
"1403",73.60708,616.1988
"1404",73.6144,616.2121
"1405",73.95865,616.2254
"1406",74.90593,616.2387
"1407",76.62226,616.252
"1408",79.063705,616.2653
"1409",81.969025,616.2786
"1410",84.89876,616.29193
"1411",87.37438,616.30524
"1412",89.05653,616.31854
"1413",89.850006,616.33185
"1414",89.8793,616.34515
"1415",89.38125,616.35846
"1416",88.619514,616.37177
"1417",87.8407,616.3851
"1418",87.2108,616.3984
"1419",86.79332,616.4117
"1420",86.554054,616.425
"1421",86.37827,616.4383
"1422",86.12436,616.4516
"1423",85.68734,616.4649
"1424",85.02327,616.4782
"1425",84.17853,616.4915
"1426",83.27276,616.5048
"1427",82.42069,616.5181
"1428",81.71755,616.53143
"1429",81.19508,616.54474
"1430",80.82399,616.55804
"1431",80.52613,616.57135
"1432",80.233154,616.58466
"1433",79.87915,616.59796
"1434",79.43725,616.61127
"1435",78.9099,616.6246
"1436",78.32151,616.6379
"1437",77.70138,616.6512
"1438",77.07637,616.6645
"1439",76.473335,616.6778
"1440",75.90204,616.6911
"1441",75.37713,616.7044
"1442",74.90837,616.7177
"1443",74.50065,616.731
"1444",74.144196,616.7443
"1445",73.83902,616.7576
"1446",73.57534,616.77094
"1447",73.35073,616.78424
"1448",73.16518,616.79755
"1449",73.02113,616.81085
"1450",72.91127,616.82416
"1451",72.833145,616.83746
"1452",72.77455,616.85077
"1453",72.72816,616.8641
"1454",72.66712,616.8774
"1455",72.57923,616.8907
"1456",72.464485,616.904
"1457",72.361946,616.9173
"1458",72.430305,616.9306
"1459",72.94301,616.9439
"1460",74.17349,616.9572
"1461",76.23895,616.9705
"1462",79.01732,616.9838
"1463",82.15213,616.99713
"1464",85.138016,617.01044
"1465",87.49645,617.02374
"1466",88.953995,617.03705
"1467",89.50332,617.05035
"1468",89.325096,617.06366
"1469",88.6952,617.07697
"1470",87.89441,617.0903
"1471",87.15465,617.1036
"1472",86.607765,617.1169
"1473",86.278175,617.1302
"1474",86.10239,617.1435
"1475",85.943695,617.1568
"1476",85.65804,617.1701
"1477",85.155106,617.1834
"1478",84.43244,617.1967
"1479",83.563286,617.21
"1480",82.67216,617.2233
"1481",81.87869,617.23663
"1482",81.25857,617.24994
"1483",80.816666,617.26324
"1484",80.50904,617.27655
"1485",80.25025,617.28986
"1486",79.971924,617.30316
"1487",79.61791,617.31647
"1488",79.15892,617.3298
"1489",78.59983,617.3431
"1490",77.9675,617.3564
"1491",77.29366,617.3697
"1492",76.61738,617.383
"1493",75.97284,617.3963
"1494",75.38201,617.4096
"1495",74.85222,617.4229
"1496",74.38834,617.4362
"1497",73.985504,617.4495
"1498",73.636375,617.4628
"1499",73.32876,617.47614
"1500",73.057755,617.48944
"1501",72.82094,617.50275
"1502",72.61829,617.51605
"1503",72.45228,617.52936
"1504",72.32777,617.54266
"1505",72.24963,617.55597
"1506",72.20569,617.5693
"1507",72.17395,617.5826
"1508",72.13977,617.5959
"1509",72.08118,617.6092
"1510",71.99573,617.6225
"1511",71.888306,617.6358
"1512",71.81506,617.6491
"1513",71.95178,617.6624
"1514",72.586555,617.6757
"1515",73.98062,617.689
"1516",76.22186,617.70233
"1517",79.14671,617.71564
"1518",82.371864,617.72894
"1519",85.36996,617.74225
"1520",87.674675,617.75555
"1521",89.037,617.76886
"1522",89.48867,617.78217
"1523",89.22743,617.7955
"1524",88.52918,617.8088
"1525",87.674675,617.8221
"1526",86.890976,617.8354
"1527",86.312355,617.8487
"1528",85.960785,617.862
"1529",85.76547,617.8753
"1530",85.58724,617.8886
"1531",85.28939,617.9019
"1532",84.788895,617.9152
"1533",84.08331,617.9285
"1534",83.25811,617.94183
"1535",82.423134,617.95514
"1536",81.685814,617.96844
"1537",81.112076,617.98175
"1538",80.69459,617.99506
"1539",80.39185,618.00836
"1540",80.13306,618.02167
"1541",79.852295,618.035
"1542",79.49828,618.0483
"1543",79.046616,618.0616
"1544",78.5095,618.0749
"1545",77.908905,618.0882
"1546",77.27657,618.1015
"1547",76.64423,618.1148
"1548",76.0412,618.1281
"1549",75.48943,618.1414
"1550",74.99626,618.1547
"1551",74.57145,618.168
"1552",74.212555,618.18134
"1553",73.90982,618.19464
"1554",73.6437,618.20795
"1555",73.39956,618.22125
"1556",73.179825,618.23456
"1557",72.98451,618.24786
"1558",72.8185,618.26117
"1559",72.689095,618.2745
"1560",72.601204,618.2878
"1561",72.55482,618.3011
"1562",72.532845,618.3144
"1563",72.52552,618.3277
"1564",72.51087,618.341
"1565",72.46693,618.3543
"1566",72.3888,618.3676
"1567",72.27894,618.3809
"1568",72.198364,618.3942
"1569",72.33997,618.40753
"1570",73.01137,618.42084
"1571",74.47379,618.43414
"1572",76.79561,618.44745
"1573",79.79614,618.46075
"1574",83.070114,618.47406
"1575",86.080414,618.48737
"1576",88.35584,618.5007
"1577",89.66689,618.514
"1578",90.055084,618.5273
"1579",89.73281,618.5406
"1580",88.98573,618.5539
"1581",88.09949,618.5672
"1582",87.30602,618.5805
"1583",86.74204,618.5938
"1584",86.42466,618.6071
"1585",86.26353,618.6204
"1586",86.117035,618.6337
"1587",85.838715,618.64703
"1588",85.35287,618.66034
"1589",84.661934,618.67365
"1590",83.85138,618.68695
"1591",83.02617,618.70026
"1592",82.2913,618.71356
"1593",81.69802,618.72687
"1594",81.23903,618.7402
"1595",80.87038,618.7535
"1596",80.533455,618.7668
"1597",80.16968,618.7801
"1598",79.725334,618.7934
"1599",79.18822,618.8067
"1600",78.56321,618.82
"1601",77.87717,618.8333
"1602",77.16426,618.8466
"1603",76.46357,618.8599
"1604",75.809265,618.8732
"1605",75.21843,618.88654
"1606",74.69352,618.89984
"1607",74.24185,618.91315
"1608",73.85855,618.92645
"1609",73.531395,618.93976
"1610",73.253075,618.95306
"1611",73.01381,618.9664
"1612",72.80385,618.9797
"1613",72.62318,618.993
"1614",72.46693,619.0063
"1615",72.33753,619.0196
"1616",72.24475,619.0329
"1617",72.1886,619.0462
"1618",72.166626,619.0595
"1619",72.17151,619.0728
"1620",72.183716,619.0861
"1621",72.19104,619.0994
"1622",72.181274,619.11273
"1623",72.147095,619.12604
"1624",72.08606,619.13934
"1625",72.05188,619.15265
"1626",72.20813,619.16595
"1627",72.85512,619.17926
"1628",74.26139,619.19257
"1629",76.51972,619.2059
"1630",79.483635,619.2192
"1631",82.76982,619.2325
"1632",85.85336,619.2458
"1633",88.24841,619.2591
"1634",89.70107,619.2724
"1635",90.230865,619.2857
"1636",90.020905,619.299
"1637",89.32998,619.3123
"1638",88.4242,619.3256
"1639",87.54528,619.3389
"1640",86.84215,619.35223
"1641",86.36851,619.36554
"1642",86.0853,619.37885
"1643",85.875336,619.39215
"1644",85.60677,619.40546
"1645",85.186844,619.41876
"1646",84.60578,619.43207
"1647",83.91974,619.4454
"1648",83.226364,619.4587
"1649",82.61356,619.472
"1650",82.127716,619.4853
"1651",81.75662,619.4986
"1652",81.449,619.5119
"1653",81.15358,619.5252
"1654",80.80934,619.5385
"1655",80.38941,619.5518
"1656",79.88159,619.5651
"1657",79.29565,619.5784
"1658",78.6511,619.59174
"1659",77.979706,619.60504
"1660",77.30831,619.61835
"1661",76.663765,619.63165
"1662",76.06317,619.64496
"1663",75.528496,619.65826
"1664",75.06218,619.6716
"1665",74.666664,619.6849
"1666",74.33463,619.6982
"1667",74.06119,619.7115
"1668",73.83414,619.7248
"1669",73.64614,619.7381
"1670",73.49233,619.7514
"1671",73.375145,619.7647
"1672",73.29458,619.778
"1673",73.24574,619.7913
"1674",73.231094,619.8046
"1675",73.24574,619.81793
"1676",73.27505,619.83124
"1677",73.29946,619.84454
"1678",73.306786,619.85785
"1679",73.287254,619.87115
"1680",73.22865,619.88446
"1681",73.13344,619.89777
"1682",73.02113,619.9111
"1683",72.99184,619.9244
"1684",73.29946,619.9377
"1685",74.2736,619.951
"1686",76.13153,619.9643
"1687",78.83177,619.9776
"1688",82.08621,619.9909
"1689",85.40658,620.0042
"1690",88.233765,620.0175
"1691",90.160065,620.0308
"1692",91.073166,620.0441
"1693",91.107346,620.05743
"1694",90.50187,620.07074
"1695",89.532616,620.08405
"1696",88.47791,620.09735
"1697",87.54284,620.11066
"1698",86.83238,620.12396
"1699",86.3563,620.13727
"1700",86.02182,620.1506
"1701",85.69955,620.1639
"1702",85.28451,620.1772
"1703",84.7425,620.1905
"1704",84.105286,620.2038
"1705",83.46563,620.2171
"1706",82.90898,620.2304
"1707",82.493935,620.2437
"1708",82.213165,620.257
"1709",82.01785,620.2703
"1710",81.83719,620.2836
"1711",81.61501,620.29694
"1712",81.31472,620.31024
"1713",80.90944,620.32355
"1714",80.40406,620.33685
"1715",79.823,620.35016
"1716",79.1931,620.36346
"1717",78.54856,620.3768
"1718",77.91867,620.3901
"1719",77.34249,620.4034
"1720",76.83223,620.4167
"1721",76.39521,620.43
"1722",76.03143,620.4433
"1723",75.72625,620.4566
"1724",75.46746,620.4699
"1725",75.23796,620.4832
"1726",75.03044,620.4965
"1727",74.847336,620.5098
"1728",74.683754,620.52313
"1729",74.54215,620.53644
"1730",74.42985,620.54974
"1731",74.35172,620.56305
"1732",74.30045,620.57635
"1733",74.2736,620.58966
"1734",74.25895,620.60297
"1735",74.24429,620.6163
"1736",74.21011,620.6296
"1737",74.14664,620.6429
"1738",74.04654,620.6562
"1739",73.99039,620.6695
"1740",74.19058,620.6828
"1741",74.969406,620.6961
"1742",76.578316,620.7094
"1743",79.04906,620.7227
"1744",82.14969,620.736
"1745",85.43832,620.7493
"1746",88.36561,620.76263
"1747",90.48234,620.77594
"1748",91.60296,620.78925
"1749",91.80316,620.80255
"1750",91.2929,620.81586
"1751",90.33341,620.82916
"1752",89.19081,620.84247
"1753",88.10681,620.8558
"1754",87.22301,620.8691
"1755",86.590675,620.8824
"1756",86.151215,620.8957
"1757",85.79721,620.909
"1758",85.39437,620.9223
"1759",84.88411,620.9356
"1760",84.27131,620.9489
"1761",83.617,620.9622
"1762",83.01396,620.9755
"1763",82.52567,620.98883
"1764",82.16678,621.00214
"1765",81.900665,621.01544
"1766",81.67849,621.02875
"1767",81.43923,621.04205
"1768",81.143814,621.05536
"1769",80.75807,621.06866
"1770",80.28199,621.082
"1771",79.727776,621.0953
"1772",79.12474,621.1086
"1773",78.5095,621.1219
"1774",77.908905,621.1352
"1775",77.349815,621.1485
"1776",76.84688,621.1618
"1777",76.404976,621.1751
"1778",76.016785,621.1884
"1779",75.67986,621.2017
"1780",75.37713,621.215
"1781",75.0988,621.22833
"1782",74.84001,621.24164
"1783",74.59586,621.25494
"1784",74.371254,621.26825
"1785",74.175934,621.28156
"1786",74.019684,621.29486
"1787",73.90494,621.30817
"1788",73.83902,621.3215
"1789",73.80728,621.3348
"1790",73.79019,621.3481
"1791",73.7731,621.3614
"1792",73.73159,621.3747
"1793",73.651024,621.388
"1794",73.531395,621.4013
"1795",73.42153,621.4146
"1796",73.50698,621.4279
"1797",74.124664,621.4412
"1798",75.58953,621.4545
"1799",78.00412,621.46783
"1800",81.19264,621.48114
"1801",84.735176,621.49445
"1802",88.04822,621.50775
"1803",90.597084,621.52106
"1804",92.105896,621.53436
"1805",92.59174,621.54767
"1806",92.2475,621.561
"1807",91.336845,621.5743
"1808",90.14542,621.5876
"1809",88.92958,621.6009
"1810",87.8822,621.6142
"1811",87.096054,621.6275
"1812",86.554054,621.6408
"1813",86.153656,621.6541
"1814",85.7728,621.6674
"1815",85.32113,621.6807
"1816",84.78157,621.69403
"1817",84.19806,621.70734
"1818",83.65362,621.72064
"1819",83.21416,621.73395
"1820",82.89433,621.74725
"1821",82.667274,621.76056
"1822",82.476845,621.77386
"1823",82.25956,621.7872
"1824",81.97635,621.8005
"1825",81.59304,621.8138
"1826",81.11452,621.8271
"1827",80.550545,621.8404
"1828",79.93286,621.8537
"1829",79.293205,621.867
"1830",78.66575,621.8803
"1831",78.07248,621.8936
"1832",77.523155,621.9069
"1833",77.02998,621.9202
"1834",76.592964,621.93353
"1835",76.209656,621.94684
"1836",75.87518,621.96014
"1837",75.58709,621.97345
"1838",75.33318,621.98676
"1839",75.11101,622.00006
"1840",74.91814,622.01337
"1841",74.75212,622.0267
"1842",74.617836,622.04
"1843",74.51774,622.0533
"1844",74.44694,622.0666
"1845",74.39811,622.0799
"1846",74.36393,622.0932
"1847",74.32975,622.1065
"1848",74.285805,622.1198
"1849",74.22232,622.1331
"1850",74.14664,622.1464
"1851",74.15152,622.1597
"1852",74.486,622.17303
"1853",75.46502,622.18634
"1854",77.30587,622.19965
"1855",79.9939,622.21295
"1856",83.25567,622.22626
"1857",86.61021,622.23956
"1858",89.50332,622.25287
"1859",91.52972,622.2662
"1860",92.53559,622.2795
"1861",92.62348,622.2928
"1862",92.01068,622.3061
"1863",90.97307,622.3194
"1864",89.78897,622.3327
"1865",88.687874,622.346
"1866",87.82117,622.3593
"1867",87.22545,622.3726
"1868",86.82994,622.3859
"1869",86.50034,622.39923
"1870",86.11459,622.41254
"1871",85.60433,622.42584
"1872",84.97688,622.43915
"1873",84.30549,622.45245
"1874",83.682915,622.46576
"1875",83.175095,622.47906
"1876",82.79668,622.4924
"1877",82.51591,622.5057
"1878",82.27421,622.519
"1879",82.01297,622.5323
"1880",81.685814,622.5456
"1881",81.26101,622.5589
"1882",80.72877,622.5722
"1883",80.09888,622.5855
"1884",79.415276,622.5988
"1885",78.709694,622.6121
"1886",78.01877,622.6254
"1887",77.37667,622.63873
"1888",76.79561,622.65204
"1889",76.28779,622.66534
"1890",75.84833,622.67865
"1891",75.46746,622.69196
"1892",75.140305,622.70526
"1893",74.85954,622.71857
"1894",74.61051,622.7319
"1895",74.38834,622.7452
"1896",74.19302,622.7585
"1897",74.02457,622.7718
"1898",73.88541,622.7851
"1899",73.78775,622.7984
"1900",73.72671,622.8117
"1901",73.69985,622.825
"1902",73.69741,622.8383
"1903",73.69985,622.8516
"1904",73.687645,622.8649
"1905",73.6437,622.87823
"1906",73.56069,622.89154
"1907",73.480125,622.90485
"1908",73.585106,622.91815
"1909",74.19058,622.93146
"1910",75.59441,622.94476
"1911",77.91135,622.95807
"1912",80.99245,622.9714
"1913",84.437325,622.9847
"1914",87.69421,622.998
"1915",90.23819,623.0113
"1916",91.790955,623.0246
"1917",92.3476,623.0379
"1918",92.086365,623.0512
"1919",91.27581,623.0645
"1920",90.20889,623.0778
"1921",89.1371,623.0911
"1922",88.24353,623.10443
"1923",87.61852,623.11774
"1924",87.22789,623.13104
"1925",86.96178,623.14435
"1926",86.6688,623.15765
"1927",86.24399,623.17096
"1928",85.660484,623.18427
"1929",84.964676,623.1976
"1930",84.25422,623.2109
"1931",83.63409,623.2242
"1932",83.15312,623.2375
"1933",82.80888,623.2508
"1934",82.545204,623.2641
"1935",82.29862,623.2774
"1936",82.01541,623.2907
"1937",81.654076,623.304
"1938",81.19264,623.3173
"1939",80.64332,623.3306
"1940",80.028076,623.34393
"1941",79.381096,623.35724
"1942",78.73655,623.37054
"1943",78.118866,623.38385
"1944",77.54757,623.39716
"1945",77.02754,623.41046
"1946",76.55146,623.42377
"1947",76.11444,623.4371
"1948",75.718925,623.4504
"1949",75.355156,623.4637
"1950",75.02556,623.477
"1951",74.72282,623.4903
"1952",74.444496,623.5036
"1953",74.195465,623.5169
"1954",73.97818,623.5302
"1955",73.795074,623.5435
"1956",73.651024,623.5568
"1957",73.5436,623.5701
"1958",73.46548,623.58344
"1959",73.40688,623.59674
"1960",73.34585,623.61005
"1961",73.26772,623.62335
"1962",73.15785,623.63666
"1963",73.00404,623.64996
"1964",72.82582,623.66327
"1965",72.762344,623.6766
"1966",73.09926,623.6899
"1967",74.17349,623.7032
"1968",76.192566,623.7165
"1969",79.09544,623.7298
"1970",82.55253,623.7431
"1971",86.04135,623.7564
"1972",89.00282,623.7697
"1973",91.04875,623.783
"1974",92.07172,623.7963
"1975",92.20355,623.80963
"1976",91.67376,623.82294
"1977",90.74845,623.83624
"1978",89.69131,623.84955
"1979",88.707405,623.86285
"1980",87.923706,623.87616
"1981",87.3695,623.88947
"1982",86.97154,623.9028
"1983",86.61265,623.9161
"1984",86.18051,623.9294
"1985",85.6141,623.9427
"1986",84.93538,623.956
"1987",84.207825,623.9693
"1988",83.529106,623.9826
"1989",82.95293,623.9959
"1990",82.496376,624.0092
"1991",82.12039,624.0225
"1992",81.77371,624.0358
"1993",81.41238,624.04913
"1994",80.99489,624.06244
"1995",80.50416,624.07574
"1996",79.94507,624.08905
"1997",79.32983,624.10236
"1998",78.68528,624.11566
"1999",78.03342,624.12897
"2000",77.39132,624.1423
"2001",76.77608,624.1556
"2002",76.19989,624.1689
"2003",75.67742,624.1822
"2004",75.20378,624.1955
"2005",74.7863,624.2088
"2006",74.42008,624.2221
"2007",74.10269,624.2354
"2008",73.82681,624.2487
"2009",73.59243,624.262
"2010",73.39468,624.2753
"2011",73.23842,624.28864
"2012",73.12367,624.30194
"2013",73.05287,624.31525
"2014",73.02602,624.32855
"2015",73.04799,624.34186
"2016",73.091934,624.35516
"2017",73.128555,624.36847
"2018",73.13344,624.3818
"2019",73.08461,624.3951
"2020",72.972305,624.4084
"2021",72.80141,624.4217
"2022",72.60853,624.435
"2023",72.45472,624.4483
"2024",72.552376,624.4616
"2025",73.24086,624.4749
"2026",74.84001,624.4882
"2027",77.437706,624.5015
"2028",80.84596,624.51483
"2029",84.63508,624.52814
"2030",88.20935,624.54144
"2031",91.019455,624.55475
"2032",92.772415,624.56805
"2033",93.48287,624.58136
"2034",93.33639,624.59467
"2035",92.59907,624.608
"2036",91.55413,624.6213
"2037",90.45548,624.6346
"2038",89.481346,624.6479
"2039",88.71717,624.6612
"2040",88.13855,624.6745
"2041",87.657585,624.6878
"2042",87.15465,624.7011
"2043",86.554054,624.7144
"2044",85.838715,624.7277
"2045",85.05989,624.741
"2046",84.30549,624.75433
"2047",83.65362,624.76764
"2048",83.13115,624.78094
"2049",82.71366,624.79425
"2050",82.34745,624.80756
"2051",81.9617,624.82086
"2052",81.51736,624.83417
"2053",80.990005,624.8475
"2054",80.38453,624.8608
"2055",79.72045,624.8741
"2056",79.027084,624.8874
"2057",78.32395,624.9007
"2058",77.6379,624.914
"2059",76.981155,624.9273
"2060",76.36591,624.9406
"2061",75.79706,624.9539
"2062",75.284355,624.9672
"2063",74.82048,624.9805
"2064",74.40055,624.99384
"2065",74.01724,625.00714
"2066",73.67544,625.02045
"2067",73.3727,625.03375
"2068",73.11635,625.04706
"2069",72.90883,625.06036
"2070",72.75502,625.07367
"2071",72.65003,625.087
"2072",72.59632,625.1003
"2073",72.59144,625.1136
"2074",72.620735,625.1269
"2075",72.65736,625.1402
"2076",72.672005,625.1535
"2077",72.637825,625.1668
"2078",72.53773,625.1801
"2079",72.37171,625.1934
"2080",72.16174,625.2067
"2081",71.993286,625.22003
"2082",72.11047,625.23334
"2083",72.884415,625.24664
"2084",74.615395,625.25995
"2085",77.35226,625.27325
"2086",80.85329,625.28656
"2087",84.63508,625.29987
"2088",88.08728,625.3132
"2089",90.6923,625.3265
"2090",92.2182,625.3398
"2091",92.716255,625.3531
"2092",92.39399,625.3664
"2093",91.510185,625.3797
"2094",90.33097,625.393
"2095",89.11513,625.4063
"2096",88.0531,625.4196
"2097",87.23033,625.4329
"2098",86.6273,625.4462
"2099",86.13901,625.45953
"2100",85.645836,625.47284
"2101",85.06233,625.48615
"2102",84.38361,625.49945
"2103",83.66338,625.51276
"2104",82.984665,625.52606
"2105",82.41581,625.53937
"2106",81.98123,625.5527
"2107",81.654076,625.566
"2108",81.38064,625.5793
"2109",81.09743,625.5926
"2110",80.75563,625.6059
"2111",80.31861,625.6192
"2112",79.78638,625.6325
"2113",79.17845,625.6458
"2114",78.52415,625.6591
"2115",77.86252,625.6724
"2116",77.222855,625.6857
"2117",76.61494,625.69904
"2118",76.04608,625.71234
"2119",75.511406,625.72565
"2120",75.01335,625.73895
"2121",74.54459,625.75226
"2122",74.11246,625.76556
"2123",73.7145,625.7789
"2124",73.35561,625.7922
"2125",73.04799,625.8055
"2126",72.7892,625.8188
"2127",72.57923,625.8321
"2128",72.42298,625.8454
"2129",72.32044,625.8587
"2130",72.26673,625.872
"2131",72.25208,625.8853
"2132",72.254524,625.8986
"2133",72.25208,625.9119
"2134",72.217896,625.92523
"2135",72.13245,625.93854
"2136",71.98108,625.95184
"2137",71.78088,625.96515
"2138",71.59289,625.97845
"2139",71.63195,625.99176
"2140",72.274055,626.00507
"2141",73.87808,626.0184
"2142",76.5539,626.0317
"2143",80.093994,626.045
"2144",84.02716,626.0583
"2145",87.725945,626.0716
"2146",90.60929,626.0849
"2147",92.37934,626.0982
"2148",93.065384,626.1115
"2149",92.88228,626.1248
"2150",92.086365,626.1381
"2151",90.951096,626.1514
"2152",89.723045,626.16473
"2153",88.604866,626.17804
"2154",87.69421,626.19135
"2155",86.99107,626.20465
"2156",86.42466,626.21796
"2157",85.889984,626.23126
"2158",85.31136,626.24457
"2159",84.68391,626.2579
"2160",84.051575,626.2712
"2161",83.48272,626.2845
"2162",83.03349,626.2978
"2163",82.703896,626.3111
"2164",82.44755,626.3244
"2165",82.20096,626.3377
"2166",81.900665,626.351
"2167",81.51003,626.3643
"2168",81.01198,626.3776
"2169",80.42115,626.3909
"2170",79.76196,626.40424
"2171",79.061264,626.41754
"2172",78.348366,626.43085
"2173",77.65011,626.44415
"2174",76.99092,626.45746
"2175",76.383,626.47076
"2176",75.8288,626.4841
"2177",75.335625,626.4974
"2178",74.90349,626.5107
"2179",74.52262,626.524
"2180",74.1857,626.5373
"2181",73.89517,626.5506
"2182",73.64126,626.5639
"2183",73.428856,626.5772
"2184",73.2604,626.5905
"2185",73.14076,626.6038
"2186",73.05531,626.6171
"2187",72.99916,626.63043
"2188",72.952774,626.64374
"2189",72.8893,626.65704
"2190",72.796524,626.67035
"2191",72.66712,626.68365
"2192",72.53773,626.69696
"2193",72.56214,626.71027
"2194",73.060196,626.7236
"2195",74.38102,626.7369
"2196",76.68818,626.7502
"2197",79.852295,626.7635
"2198",83.4876,626.7768
"2199",87.030136,626.7901
"2200",89.91104,626.8034
"2201",91.78607,626.8167
"2202",92.6186,626.83
"2203",92.57465,626.8433
"2204",91.89105,626.8566
"2205",90.83879,626.86993
"2206",89.671776,626.88324
"2207",88.59754,626.89655
"2208",87.71862,626.90985
"2209",87.0399,626.92316
"2210",86.47837,626.93646
"2211",85.93149,626.94977
"2212",85.33822,626.9631
"2213",84.71076,626.9764
"2214",84.10773,626.9897
"2215",83.60967,627.003
"2216",83.265434,627.0163
"2217",83.05058,627.0296
"2218",82.896774,627.0429
"2219",82.72343,627.0562
"2220",82.4622,627.0695
"2221",82.07889,627.0828
"2222",81.56374,627.0961
"2223",80.93385,627.10944
"2224",80.22339,627.12274
"2225",79.466545,627.13605
"2226",78.69749,627.14935
"2227",77.94797,627.16266
"2228",77.24971,627.17596
"2229",76.6247,627.1893
"2230",76.0827,627.2026
"2231",75.62615,627.2159
"2232",75.24773,627.2292
"2233",74.94011,627.2425
"2234",74.69108,627.2558
"2235",74.49088,627.2691
"2236",74.33219,627.2824
"2237",74.20035,627.2957
"2238",74.07828,627.309
"2239",73.94888,627.3223
"2240",73.79996,627.33563
"2241",73.62173,627.34894
"2242",73.41665,627.36224
"2243",73.21156,627.37555
"2244",73.14076,627.38885
"2245",73.480125,627.40216
"2246",74.56657,627.41547
"2247",76.60761,627.4288
"2248",79.53246,627.4421
"2249",83.00908,627.4554
"2250",86.50767,627.4687
"2251",89.45693,627.482
"2252",91.456474,627.4953
"2253",92.40864,627.5086
"2254",92.457466,627.5219
"2255",91.83734,627.5352
"2256",90.829025,627.5485
"2257",89.688866,627.5618
"2258",88.62684,627.57513
"2259",87.75769,627.58844
"2260",87.09361,627.60175
"2261",86.56382,627.61505
"2262",86.031586,627.62836
"2263",85.39437,627.64166
"2264",84.627754,627.65497
"2265",83.78302,627.6683
"2266",82.95293,627.6816
"2267",82.24002,627.6949
"2268",81.69802,627.7082
"2269",81.31228,627.7215
"2270",81.01442,627.7348
"2271",80.723885,627.7481
"2272",80.37965,627.7614
"2273",79.94751,627.7747
"2274",79.4226,627.788
"2275",78.81468,627.80133
"2276",78.153046,627.81464
"2277",77.467,627.82794
"2278",76.79317,627.84125
"2279",76.14374,627.85455
"2280",75.53338,627.86786
"2281",74.96452,627.88116
"2282",74.442055,627.8945
"2283",73.95621,627.9078
"2284",73.50698,627.9211
"2285",73.09682,627.9344
"2286",72.73792,627.9477
"2287",72.43763,627.961
"2288",72.21057,627.9743
"2289",72.059204,627.9876
"2290",71.98352,628.0009
"2291",71.95911,628.0142
"2292",71.95911,628.0275
"2293",71.95178,628.04083
"2294",71.91516,628.05414
"2295",71.83948,628.06744
"2296",71.72961,628.08075
"2297",71.66125,628.09406
"2298",71.854126,628.10736
"2299",72.66468,628.12067
"2300",74.41276,628.134
"2301",77.17403,628.1473
"2302",80.73609,628.1606
"2303",84.61555,628.1739
"2304",88.199585,628.1872
"2305",90.93889,628.2005
"2306",92.56733,628.2138
"2307",93.1313,628.2271
"2308",92.857864,628.2404
"2309",92.03754,628.2537
"2310",90.96086,628.267
"2311",89.8793,628.28033
"2312",88.96864,628.29364
"2313",88.2826,628.30695
"2314",87.77478,628.32025
"2315",87.32311,628.33356
"2316",86.79332,628.34686
"2317",86.09262,628.36017
"2318",85.21858,628.3735
"2319",84.244446,628.3868
"2320",83.29229,628.4001
"2321",82.4744,628.4134
"2322",81.83719,628.4267
"2323",81.36599,628.44
"2324",80.99977,628.4533
"2325",80.65797,628.4666
"2326",80.272224,628.4799
"2327",79.79614,628.4932
"2328",79.219955,628.50653
"2329",78.551,628.51984
"2330",77.81369,628.53314
"2331",77.049515,628.54645
"2332",76.29023,628.55975
"2333",75.562675,628.57306
"2334",74.8864,628.58636
"2335",74.28092,628.5997
"2336",73.738914,628.613
"2337",73.2604,628.6263
"2338",72.84291,628.6396
"2339",72.47669,628.6529
"2340",72.149536,628.6662
"2341",71.854126,628.6795
"2342",71.57336,628.6928
"2343",71.29748,628.7061
"2344",71.01915,628.7194
"2345",70.7335,628.7327
"2346",70.44541,628.74603
"2347",70.17929,628.75934
"2348",70.01572,628.77264
"2349",70.17197,628.78595
"2350",71.00694,628.79926
"2351",72.83803,628.81256
"2352",75.699394,628.82587
"2353",79.32983,628.8392
"2354",83.21416,628.8525
"2355",86.72007,628.8658
"2356",89.31045,628.8791
"2357",90.758224,628.8924
"2358",91.16594,628.9057
"2359",90.792404,628.919
"2360",89.933014,628.9323
"2361",88.868546,628.9456
"2362",87.82849,628.9589
"2363",86.96178,628.9722
"2364",86.30259,628.98553
"2365",85.77524,628.99884
"2366",85.25765,629.01215
"2367",84.63752,629.02545
"2368",83.87335,629.03876
"2369",83.004196,629.05206
"2370",82.14725,629.06537
"2371",81.43191,629.0787
"2372",80.92897,629.092
"2373",80.62867,629.1053
"2374",80.46754,629.1186
"2375",80.34791,629.1319
"2376",80.17212,629.1452
"2377",79.88159,629.1585
"2378",79.447014,629.1718
"2379",78.86839,629.1851
"2380",78.17258,629.1984
"2381",77.39132,629.21173
"2382",76.544136,629.22504
"2383",75.667656,629.23834
"2384",74.80339,629.25165
"2385",73.99283,629.26495
"2386",73.28481,629.27826
"2387",72.71107,629.29156
"2388",72.291145,629.3049
"2389",72.01526,629.3182
"2390",71.8468,629.3315
"2391",71.74181,629.3448
"2392",71.658806,629.3581
"2393",71.570915,629.3714
"2394",71.468376,629.3847
"2395",71.36828,629.398
"2396",71.40002,629.4113
"2397",71.86389,629.4246
"2398",73.1432,629.4379
"2399",75.457695,629.45123
"2400",78.7219,629.46454
"2401",82.562294,629.47784
"2402",86.39048,629.49115
"2403",89.57412,629.50446
"2404",91.69817,629.51776
"2405",92.69428,629.53107
"2406",92.76997,629.5444
"2407",92.22064,629.5577
"2408",91.351494,629.571
"2409",90.4213,629.5843
"2410",89.59853,629.5976
"2411",88.94911,629.6109
"2412",88.42176,629.6242
"2413",87.89197,629.6375
"2414",87.21324,629.6508
"2415",86.29771,629.6641
"2416",85.152664,629.6774
"2417",83.895325,629.69073
"2418",82.686806,629.70404
"2419",81.688255,629.71735
"2420",80.987564,629.73065
"2421",80.5774,629.74396
"2422",80.36256,629.75726
"2423",80.22095,629.77057
"2424",80.042725,629.7839
"2425",79.742424,629.7972
"2426",79.293205,629.8105
"2427",78.69749,629.8238
"2428",77.98947,629.8371
"2429",77.21065,629.8504
"2430",76.40742,629.8637
"2431",75.631035,629.877
"2432",74.92546,629.8903
"2433",74.322426,629.9036
"2434",73.829254,629.91693
"2435",73.43862,629.93024
"2436",73.12367,629.94354
"2437",72.86,629.95685
"2438",72.62562,629.97015
"2439",72.40833,629.98346
"2440",72.1886,629.99677
"2441",71.97131,630.0101
"2442",71.77112,630.0234
"2443",71.68566,630.0367
"2444",71.96399,630.05
"2445",72.96742,630.0633
"2446",74.94743,630.0766
"2447",77.88937,630.0899
"2448",81.47341,630.1032
"2449",85.16487,630.1165
"2450",88.34608,630.1298
"2451",90.545815,630.1431
"2452",91.62249,630.15643
"2453",91.72747,630.16974
"2454",91.14641,630.18304
"2455",90.18936,630.19635
"2456",89.1371,630.20966
"2457",88.1947,630.22296
"2458",87.45739,630.23627
"2459",86.90074,630.2496
"2460",86.40757,630.2629
"2461",85.821625,630.2762
"2462",85.02815,630.2895
"2463",84.01007,630.3028
"2464",82.845505,630.3161
"2465",81.6907,630.3294
"2466",80.69947,630.3427
"2467",79.97681,630.356
"2468",79.53002,630.3693
"2469",79.28588,630.3826
"2470",79.12962,630.39594
"2471",78.94652,630.40924
"2472",78.658424,630.42255
"2473",78.22873,630.43585
"2474",77.64767,630.44916
"2475",76.94942,630.46246
"2476",76.17792,630.47577
"2477",75.37957,630.4891
"2478",74.598305,630.5024
"2479",73.87076,630.5157
"2480",73.216446,630.529
"2481",72.65736,630.5423
"2482",72.19592,630.5556
"2483",71.82483,630.5689
"2484",71.534294,630.5822
"2485",71.31701,630.5955
"2486",71.14366,630.6088
"2487",70.99718,630.62213
"2488",70.86534,630.63544
"2489",70.73838,630.64874
"2490",70.608986,630.66205
"2491",70.467384,630.67535
"2492",70.31846,630.68866
"2493",70.22812,630.70197
"2494",70.43076,630.7153
"2495",71.346306,630.7286
"2496",73.34341,630.7419
"2497",76.50019,630.7552
"2498",80.51148,630.7685
"2499",84.808426,630.7818
"2500",88.653694,630.7951
"2501",91.4345,630.8084
"2502",92.90181,630.8217
"2503",93.19234,630.835
"2504",92.628365,630.8483
"2505",91.56634,630.86163
"2506",90.338295,630.87494
"2507",89.20058,630.88824
"2508",88.289925,630.90155
"2509",87.620964,630.91486
"2510",87.09117,630.92816
"2511",86.539406,630.94147
"2512",85.82895,630.9548
"2513",84.910965,630.9681
"2514",83.83429,630.9814
"2515",82.735634,630.9947
"2516",81.76395,631.008
"2517",81.02174,631.0213
"2518",80.533455,631.0346
"2519",80.24048,631.0479
"2520",80.03784,631.0612
"2521",79.818115,631.0745
"2522",79.49584,631.0878
"2523",79.029526,631.10114
"2524",78.41428,631.11444
"2525",77.67208,631.12775
"2526",76.84444,631.14105
"2527",75.97772,631.15436
"2528",75.12077,631.16766
"2529",74.31022,631.18097
"2530",73.57778,631.1943
"2531",72.94301,631.2076
"2532",72.40589,631.2209
"2533",71.95911,631.2342
"2534",71.59289,631.2475
"2535",71.28527,631.2608
"2536",71.01915,631.2741
"2537",70.78233,631.2874
"2538",70.57725,631.3007
"2539",70.40879,631.314
"2540",70.28672,631.32733
"2541",70.20859,631.34064
"2542",70.17197,631.35394
"2543",70.15488,631.36725
"2544",70.132904,631.38055
"2545",70.08652,631.39386
"2546",69.996185,631.40717
"2547",69.85458,631.4205
"2548",69.730064,631.4338
"2549",69.910736,631.4471
"2550",70.9337,631.4604
"2551",73.28237,631.4737
"2552",77.051956,631.487
"2553",81.8616,631.5003
"2554",86.97887,631.5136
"2555",91.510185,631.5269
"2556",94.710915,631.5402
"2557",96.3003,631.5535
"2558",96.500496,631.56683
"2559",95.73632,631.58014
"2560",94.435036,631.59344
"2561",92.95796,631.60675
"2562",91.60052,631.62006
"2563",90.528725,631.63336
"2564",89.762115,631.64667
"2565",89.195694,631.66
"2566",88.65125,631.6733
"2567",87.96765,631.6866
"2568",87.064316,631.6999
"2569",85.97299,631.7132
"2570",84.823074,631.7265
"2571",83.76593,631.7398
"2572",82.916306,631.7531
"2573",82.30106,631.7664
"2574",81.87625,631.7797
"2575",81.55398,631.793
"2576",81.234146,631.80634
"2577",80.833755,631.81964
"2578",80.308846,631.83295
"2579",79.635,631.84625
"2580",78.82689,631.85956
"2581",77.92355,631.87286
"2582",76.96651,631.88617
"2583",76.00458,631.8995
"2584",75.09148,631.9128
"2585",74.26627,631.9261
"2586",73.54604,631.9394
"2587",72.94301,631.9527
"2588",72.444954,631.966
"2589",72.03723,631.9793
"2590",71.69543,631.9926
"2591",71.397575,632.0059
"2592",71.133896,632.0192
"2593",70.91905,632.03253
"2594",70.77013,632.04584
"2595",70.71885,632.05914
"2596",70.7921,632.07245
"2597",70.99718,632.08575
"2598",71.3048,632.09906
"2599",71.658806,632.11237
"2600",71.9884,632.1257
"2601",72.22766,632.139
"2602",72.32288,632.1523
"2603",72.24231,632.1656
"2604",71.990845,632.1789
"2605",71.63683,632.1922
"2606",71.46105,632.2055
"2607",72.02258,632.2188
"2608",73.9025,632.2321
"2609",77.31075,632.2454
"2610",81.94949,632.2587
"2611",87.115585,632.27203
"2612",91.8764,632.28534
"2613",95.3872,632.29865
"2614",97.23781,632.31195
"2615",97.56008,632.32526
"2616",96.778824,632.33856
"2617",95.326164,632.35187
"2618",93.60006,632.3652
"2619",91.93744,632.3785
"2620",90.56779,632.3918
"2621",89.57412,632.4051
"2622",88.883194,632.4184
"2623",88.32166,632.4317
"2624",87.69665,632.445
"2625",86.87877,632.4583
"2626",85.87045,632.4716
"2627",84.77669,632.4849
"2628",83.74639,632.4982
"2629",82.9041,632.51154
"2630",82.29862,632.52484
"2631",81.8909,632.53815
"2632",81.5906,632.55145
"2633",81.29519,632.56476
"2634",80.90944,632.57806
"2635",80.38697,632.5914
"2636",79.69604,632.6047
"2637",78.8513,632.618
"2638",77.87717,632.6313
"2639",76.82735,632.6446
"2640",75.755554,632.6579
"2641",74.71793,632.6712
"2642",73.76822,632.6845
"2643",72.94545,632.6978
"2644",72.26429,632.7111
"2645",71.71496,632.7244
"2646",71.27795,632.73773
"2647",70.92882,632.75104
"2648",70.640724,632.76434
"2649",70.39414,632.77765
"2650",70.17929,632.79095
"2651",69.98886,632.80426
"2652",69.822845,632.81757
"2653",69.68124,632.8309
"2654",69.56649,632.8442
"2655",69.48592,632.8575
"2656",69.43954,632.8708
"2657",69.417564,632.8841
"2658",69.41024,632.8974
"2659",69.402916,632.9107
"2660",69.37118,632.924
"2661",69.30038,632.9373
"2662",69.1783,632.9506
"2663",69.0074,632.9639
"2664",68.892654,632.97723
"2665",69.18318,632.99054
"2666",70.51133,633.00385
"2667",73.45327,633.01715
"2668",78.12131,633.03046
"2669",84.01495,633.04376
"2670",90.20889,633.05707
"2671",95.61913,633.0704
"2672",99.352104,633.0837
"2673",101.08797,633.097
"2674",101.1075,633.1103
"2675",99.9527,633.1236
"2676",98.126495,633.1369
"2677",96.03906,633.1502
"2678",94.01999,633.1635
"2679",92.31342,633.1768
"2680",91.00725,633.1901
"2681",90.04776,633.2034
"2682",89.27627,633.21674
"2683",88.52186,633.23004
"2684",87.66979,633.24335
"2685",86.71519,633.25665
"2686",85.74105,633.26996
"2687",84.86458,633.28326
"2688",84.16632,633.2966
"2689",83.65362,633.3099
"2690",83.25811,633.3232
"2691",82.89189,633.3365
"2692",82.46952,633.3498
"2693",81.92264,633.3631
"2694",81.214615,633.3764
"2695",80.343025,633.3897
"2696",79.327385,633.403
"2697",78.20187,633.4163
"2698",77.02022,633.4296
"2699",75.83124,633.44293
"2700",74.69108,633.45624
"2701",73.64614,633.46954
"2702",72.72816,633.48285
"2703",71.95422,633.49615
"2704",71.31457,633.50946
"2705",70.78966,633.52277
"2706",70.35752,633.5361
"2707",69.993744,633.5494
"2708",69.68124,633.5627
"2709",69.4078,633.576
"2710",69.16853,633.5893
"2711",68.95613,633.6026
"2712",68.77547,633.6159
"2713",68.61921,633.6292
"2714",68.49714,633.6425
"2715",68.40681,633.6558
"2716",68.350655,633.6691
"2717",68.31892,633.68243
"2718",68.30671,633.69574
"2719",68.30427,633.70905
"2720",68.29694,633.72235
"2721",68.262764,633.73566
"2722",68.189514,633.74896
"2723",68.06012,633.76227
"2724",67.91852,633.7756
"2725",68.035706,633.7889
"2726",69.05379,633.8022
"2727",71.707634,633.8155
"2728",76.34394,633.8288
"2729",82.63554,633.8421
"2730",89.66201,633.8554
"2731",96.19287,633.8687
"2732",101.085526,633.882
"2733",103.73937,633.8953
"2734",104.28382,633.9086
"2735",103.28771,633.92194
"2736",101.35409,633.93524
"2737",98.968796,633.94855
"2738",96.52491,633.96185
"2739",94.34226,633.97516
"2740",92.60395,633.98846
"2741",91.33929,634.0018
"2742",90.426186,634.0151
"2743",89.66201,634.0284
"2744",88.87099,634.0417
"2745",87.98718,634.055
"2746",87.044785,634.0683
"2747",86.14877,634.0816
"2748",85.40414,634.0949
"2749",84.83772,634.1082
"2750",84.403145,634.1215
"2751",84.017395,634.1348
"2752",83.597466,634.14813
"2753",83.06767,634.16144
"2754",82.38163,634.17474
"2755",81.512474,634.18805
"2756",80.47486,634.20135
"2757",79.290764,634.21466
"2758",78.011444,634.22797
"2759",76.700386,634.2413
"2760",75.421074,634.2546
"2761",74.2272,634.2679
"2762",73.15297,634.2812
"2763",72.22034,634.2945
"2764",71.42931,634.3078
"2765",70.77501,634.3211
"2766",70.23056,634.3344
"2767",69.77646,634.3477
"2768",69.39071,634.361
"2769",69.051346,634.3743
"2770",68.74128,634.38763
"2771",68.44831,634.40094
"2772",68.172424,634.41425
"2773",67.91852,634.42755
"2774",67.69146,634.44086
"2775",67.493706,634.45416
"2776",67.335014,634.46747
"2777",67.21538,634.4808
"2778",67.11772,634.4941
"2779",67.0396,634.5074
"2780",66.968796,634.5207
"2781",66.89555,634.534
"2782",66.7979,634.5473
"2783",66.67094,634.5606
"2784",66.51713,634.5739
"2785",66.40238,634.5872
"2786",66.6807,634.6005
"2787",68.1236,634.61383
"2788",71.53918,634.62714
"2789",77.20332,634.64044
"2790",84.62287,634.65375
"2791",92.67719,634.66705
"2792",99.93561,634.68036
"2793",105.145645,634.69366
"2794",107.75311,634.707
"2795",108.03143,634.7203
"2796",106.666664,634.7336
"2797",104.32288,634.7469
"2798",101.5201,634.7602
"2799",98.66605,634.7735
"2800",96.08057,634.7868
"2801",93.97116,634.8001
"2802",92.38178,634.8134
"2803",91.21965,634.8267
"2804",90.304115,634.84
"2805",89.48379,634.85333
"2806",88.68543,634.86664
"2807",87.92859,634.87994
"2808",87.2694,634.89325
"2809",86.7567,634.90656
"2810",86.36851,634.91986
"2811",86.014496,634.93317
"2812",85.60433,634.9465
"2813",85.06233,634.9598
"2814",84.33723,634.9731
"2815",83.407036,634.9864
"2816",82.28153,634.9997
"2817",80.99489,635.013
"2818",79.5935,635.0263
"2819",78.14572,635.0396
"2820",76.70771,635.0529
"2821",75.34051,635.0662
"2822",74.0856,635.0795
"2823",72.972305,635.09283
"2824",72.0177,635.10614
"2825",71.219345,635.11945
"2826",70.5626,635.13275
"2827",70.02548,635.14606
"2828",69.58358,635.15936
"2829",69.21004,635.17267
"2830",68.892654,635.186
"2831",68.61677,635.1993
"2832",68.38239,635.2126
"2833",68.18707,635.2259
"2834",68.02838,635.2392
"2835",67.90631,635.2525
"2836",67.82086,635.2658
"2837",67.76227,635.2791
"2838",67.72564,635.2924
"2839",67.6939,635.3057
"2840",67.6524,635.31903
"2841",67.59136,635.33234
"2842",67.49859,635.34564
"2843",67.35943,635.35895
"2844",67.19585,635.37225
"2845",67.159225,635.38556
"2846",67.76715,635.39886
"2847",69.837494,635.4122
"2848",74.00992,635.4255
"2849",80.274666,635.4388
"2850",87.89929,635.4521
"2851",95.62646,635.4654
"2852",102.0621,635.4787
"2853",106.19791,635.492
"2854",107.80194,635.5053
"2855",107.32342,635.5186
"2856",105.43374,635.5319
"2857",102.7335,635.5452
"2858",99.68658,635.55853
"2859",96.68116,635.57184
"2860",94.02487,635.58514
"2861",91.9057,635.59845
"2862",90.32853,635.61176
"2863",89.16884,635.62506
"2864",88.24353,635.63837
"2865",87.413445,635.6517
"2866",86.6273,635.665
"2867",85.91928,635.6783
"2868",85.34554,635.6916
"2869",84.93538,635.7049
"2870",84.6424,635.7182
"2871",84.368965,635.7315
"2872",84.01495,635.7448
"2873",83.51202,635.7581
"2874",82.80644,635.7714
"2875",81.883575,635.7847
"2876",80.75807,635.79803
"2877",79.46899,635.81134
"2878",78.07004,635.82465
"2879",76.6247,635.83795
"2880",75.1989,635.85126
"2881",73.8439,635.86456
"2882",72.61097,635.87787
"2883",71.52697,635.8912
"2884",70.606544,635.9045
"2885",69.839935,635.9178
"2886",69.21492,635.9311
"2887",68.70954,635.9444
"2888",68.299385,635.9577
"2889",67.95758,635.971
"2890",67.67437,635.9843
"2891",67.43267,635.9976
"2892",67.23003,636.0109
"2893",67.06645,636.02423
"2894",66.94438,636.03754
"2895",66.86626,636.05084
"2896",66.82475,636.06415
"2897",66.81499,636.07745
"2898",66.83208,636.09076
"2899",66.863815,636.10406
"2900",66.90532,636.1174
"2901",66.951706,636.1307
"2902",66.99077,636.144
"2903",67.0103,636.1573
"2904",67.00786,636.1706
"2905",67.06645,636.1839
"2906",67.56695,636.1972
"2907",69.28329,636.2105
"2908",72.989395,636.2238
"2909",78.90257,636.2371
"2910",86.47349,636.2504
"2911",94.54978,636.26373
"2912",101.70809,636.27704
"2913",106.73014,636.29034
"2914",109.134964,636.30365
"2915",109.23506,636.31696
"2916",107.72381,636.33026
"2917",105.2433,636.34357
"2918",102.30869,636.3569
"2919",99.3106,636.3702
"2920",96.56397,636.3835
"2921",94.2739,636.3968
"2922",92.49409,636.4101
"2923",91.15373,636.4234
"2924",90.11612,636.4367
"2925",89.251854,636.45
"2926",88.499886,636.4633
"2927",87.85779,636.4766
"2928",87.35241,636.4899
"2929",86.98863,636.50323
"2930",86.70542,636.51654
"2931",86.40269,636.52985
"2932",85.99008,636.54315
"2933",85.40658,636.55646
"2934",84.61799,636.56976
"2935",83.61944,636.58307
"2936",82.43778,636.5964
"2937",81.109634,636.6097
"2938",79.693596,636.623
"2939",78.24582,636.6363
"2940",76.82735,636.6496
"2941",75.47234,636.6629
"2942",74.215,636.6762
"2943",73.074844,636.6895
"2944",72.06409,636.7028
"2945",71.17784,636.7161
"2946",70.416115,636.72943
"2947",69.769135,636.74274
"2948",69.2198,636.75604
"2949",68.753494,636.76935
"2950",68.350655,636.78265
"2951",67.9942,636.79596
"2952",67.67681,636.80927
"2953",67.39361,636.8226
"2954",67.14946,636.8359
"2955",66.94438,636.8492
"2956",66.78813,636.8625
"2957",66.68803,636.8758
"2958",66.64164,636.8891
"2959",66.634315,636.9024
"2960",66.65385,636.9157
"2961",66.685585,636.929
"2962",66.71,636.9423
"2963",66.719765,636.9556
"2964",66.71488,636.96893
"2965",66.75395,636.98224
"2966",67.142136,636.99554
"2967",68.592354,637.00885
"2968",71.89807,637.02216
"2969",77.383995,637.03546
"2970",84.59846,637.04877
"2971",92.474556,637.0621
"2972",99.630424,637.0754
"2973",104.83559,637.0887
"2974",107.51629,637.102
"2975",107.92645,637.1153
"2976",106.76677,637.1286
"2977",104.71351,637.1419
"2978",102.26475,637.1552
"2979",99.7818,637.1685
"2980",97.5259,637.1818
"2981",95.65331,637.1951
"2982",94.18356,637.20844
"2983",93.02632,637.22174
"2984",92.02533,637.23505
"2985",91.056076,637.24835
"2986",90.06485,637.26166
"2987",89.08339,637.27496
"2988",88.19226,637.28827
"2989",87.45739,637.3016
"2990",86.88365,637.3149
"2991",86.41978,637.3282
"2992",85.97543,637.3415
"2993",85.472496,637.3548
"2994",84.85481,637.3681
"2995",84.09552,637.3814
"2996",83.18974,637.3947
"2997",82.15457,637.408
"2998",81.02907,637.4213
"2999",79.8645,637.43463
"3000",78.712135,637.44794
"3001",77.61593,637.46124
"3002",76.629585,637.47455
"3003",75.775085,637.48785
"3004",75.06218,637.50116
"3005",74.48112,637.51447
"3006",74.0148,637.5278
"3007",73.63149,637.5411
"3008",73.304344,637.5544
"3009",73.01869,637.5677
"3010",72.75258,637.581
"3011",72.50843,637.5943
"3012",72.288704,637.6076
"3013",72.09827,637.6209
"3014",71.94934,637.6342
"3015",71.854126,637.6475
"3016",71.81018,637.6608
"3017",71.80774,637.67413
"3018",71.83215,637.68744
"3019",71.85657,637.70074
"3020",71.86633,637.71405
"3021",71.84436,637.72736
"3022",71.76868,637.74066
"3023",71.63195,637.75397
"3024",71.431755,637.7673
"3025",71.185165,637.7806
"3026",71.06065,637.7939
"3027",71.536736,637.8072
"3028",73.2604,637.8205
"3029",76.592964,637.8338
"3030",81.35378,637.8471
"3031",86.87877,637.8604
"3032",92.225525,637.8737
"3033",96.43214,637.887
"3034",98.91264,637.9003
"3035",99.70855,637.91364
"3036",99.25201,637.92694
"3037",98.021515,637.94025
"3038",96.395515,637.95355
"3039",94.68894,637.96686
"3040",93.13374,637.98016
"3041",91.87152,637.99347
"3042",90.91936,638.0068
"3043",90.18448,638.0201
"3044",89.5082,638.0334
"3045",88.744026,638.0467
"3046",87.82361,638.06
"3047",86.77623,638.0733
"3048",85.70443,638.0866
"3049",84.732735,638.0999
"3050",83.94415,638.1132
"3051",83.34112,638.1265
"3052",82.87724,638.13983
"3053",82.47196,638.15314
"3054",82.04227,638.16644
"3055",81.53445,638.17975
"3056",80.91676,638.19305
"3057",80.19165,638.20636
"3058",79.381096,638.21967
"3059",78.51682,638.233
"3060",77.64034,638.2463
"3061",76.788284,638.2596
"3062",75.98505,638.2729
"3063",75.25262,638.2862
"3064",74.59586,638.2995
"3065",74.02701,638.3128
"3066",73.53384,638.3261
"3067",73.111465,638.3394
"3068",72.74525,638.3527
"3069",72.42298,638.366
"3070",72.130005,638.37933
"3071",71.86389,638.39264
"3072",71.61974,638.40594
"3073",71.40246,638.41925
"3074",71.22667,638.43256
"3075",71.09483,638.44586
"3076",71.0045,638.45917
"3077",70.958115,638.4725
"3078",70.95323,638.4858
"3079",70.97032,638.4991
"3080",70.98985,638.5124
"3081",70.994736,638.5257
"3082",70.958115,638.539
"3083",70.86046,638.5523
"3084",70.68711,638.5656
"3085",70.433205,638.5789
"3086",70.132904,638.5922
"3087",69.908295,638.6055
"3088",70.11093,638.61884
"3089",71.30724,638.63214
"3090",73.94156,638.64545
"3091",77.996796,638.65875
"3092",82.99687,638.67206
"3093",88.148315,638.68536
"3094",92.55512,638.69867
"3095",95.55566,638.712
"3096",96.971695,638.7253
"3097",97.09621,638.7386
"3098",96.34913,638.7519
"3099",95.10399,638.7652
"3100",93.66598,638.7785
"3101",92.2768,638.7918
"3102",91.09514,638.8051
"3103",90.17227,638.8184
"3104",89.45449,638.8317
"3105",88.8246,638.84503
"3106",88.1532,638.85834
"3107",87.36462,638.87164
"3108",86.46128,638.88495
"3109",85.51644,638.89825
"3110",84.63752,638.91156
"3111",83.90265,638.92487
"3112",83.33379,638.9382
"3113",82.89189,638.9515
"3114",82.50614,638.9648
"3115",82.11063,638.9781
"3116",81.65896,638.9914
"3117",81.12428,639.0047
"3118",80.5066,639.018
"3119",79.81323,639.0313
"3120",79.07103,639.0446
"3121",78.3093,639.0579
"3122",77.56222,639.0712
"3123",76.86153,639.08453
"3124",76.224304,639.09784
"3125",75.64568,639.11115
"3126",75.123215,639.12445
"3127",74.649574,639.13776
"3128",74.2272,639.15106
"3129",73.85123,639.16437
"3130",73.52407,639.1777
"3131",73.23598,639.191
"3132",72.98207,639.2043
"3133",72.75502,639.2176
"3134",72.55482,639.2309
"3135",72.38392,639.2442
"3136",72.24963,639.2575
"3137",72.149536,639.2708
"3138",72.08118,639.2841
"3139",72.044556,639.2974
"3140",72.03479,639.3107
"3141",72.03235,639.32404
"3142",72.010376,639.33734
"3143",71.94446,639.35065
"3144",71.80774,639.36395
"3145",71.588005,639.37726
"3146",71.292595,639.39056
"3147",70.95323,639.4039
"3148",70.65537,639.4172
"3149",70.657814,639.4305
"3150",71.43664,639.4438
"3151",73.45815,639.4571
"3152",76.82979,639.4704
"3153",81.23903,639.4837
"3154",86.03403,639.497
"3155",90.41154,639.5103
"3156",93.65865,639.5236
"3157",95.46288,639.5369
"3158",95.96826,639.55023
"3159",95.52148,639.56354
"3160",94.43748,639.57684
"3161",93.016556,639.59015
"3162",91.5346,639.60345
"3163",90.20401,639.61676
"3164",89.12489,639.63007
"3165",88.29969,639.6434
"3166",87.63317,639.6567
"3167",86.976425,639.67
"3168",86.21713,639.6833
"3169",85.347984,639.6966
"3170",84.44953,639.7099
"3171",83.64141,639.7232
"3172",83.00908,639.7365
"3173",82.57206,639.7498
"3174",82.27909,639.7631
"3175",82.04227,639.7764
"3176",81.76883,639.78973
"3177",81.40017,639.80304
"3178",80.91188,639.81635
"3179",80.31129,639.82965
"3180",79.61791,639.84296
"3181",78.86595,639.85626
"3182",78.099335,639.86957
"3183",77.34493,639.8829
"3184",76.63691,639.8962
"3185",75.98505,639.9095
"3186",75.39422,639.9228
"3187",74.8571,639.9361
"3188",74.371254,639.9494
"3189",73.936676,639.9627
"3190",73.5436,639.976
"3191",73.196915,639.9893
"3192",72.89418,640.0026
"3193",72.6305,640.0159
"3194",72.39857,640.02924
"3195",72.19592,640.04254
"3196",72.02014,640.05585
"3197",71.87366,640.06915
"3198",71.76135,640.08246
"3199",71.68322,640.09576
"3200",71.64416,640.1091
"3201",71.64416,640.1224
"3202",71.658806,640.1357
"3203",71.66613,640.149
"3204",71.639275,640.1623
"3205",71.54162,640.1756
"3206",71.360954,640.1889
"3207",71.09972,640.2022
"3208",70.77745,640.2155
"3209",70.47227,640.2288
"3210",70.416115,640.2421
"3211",71.07774,640.25543
"3212",72.96254,640.26874
"3213",76.25849,640.28204
"3214",80.69459,640.29535
"3215",85.63607,640.30865
"3216",90.25529,640.32196
"3217",93.78073,640.33527
"3218",95.82178,640.3486
"3219",96.483406,640.3619
"3220",96.13428,640.3752
"3221",95.147934,640.3885
"3222",93.84421,640.4018
"3223",92.477,640.4151
"3224",91.244064,640.4284
"3225",90.22598,640.4417
"3226",89.41787,640.455
"3227",88.72694,640.4683
"3228",88.03357,640.4816
"3229",87.24498,640.49493
"3230",86.3563,640.50824
"3231",85.43343,640.52155
"3232",84.578926,640.53485
"3233",83.89044,640.54816
"3234",83.39483,640.56146
"3235",83.05791,640.57477
"3236",82.804,640.5881
"3237",82.54032,640.6014
"3238",82.20096,640.6147
"3239",81.74441,640.628
"3240",81.160904,640.6413
"3241",80.47486,640.6546
"3242",79.727776,640.6679
"3243",78.958725,640.6812
"3244",78.19699,640.6945
"3245",77.467,640.7078
"3246",76.77608,640.7211
"3247",76.12909,640.73444
"3248",75.53582,640.74774
"3249",75.001144,640.76105
"3250",74.52018,640.77435
"3251",74.09781,640.78766
"3252",73.724266,640.80096
"3253",73.392235,640.8143
"3254",73.094376,640.8276
"3255",72.83803,640.8409
"3256",72.61341,640.8542
"3257",72.430305,640.8675
"3258",72.288704,640.8808
"3259",72.1886,640.8941
"3260",72.12756,640.9074
"3261",72.09827,640.9207
"3262",72.08118,640.934
"3263",72.04944,640.9473
"3264",71.97131,640.96063
"3265",71.834595,640.97394
"3266",71.62951,640.98724
"3267",71.35119,641.00055
"3268",71.01915,641.01385
"3269",70.69932,641.02716
"3270",70.591896,641.04047
"3271",71.13878,641.0538
"3272",72.833145,641.0671
"3273",75.90204,641.0804
"3274",80.12085,641.0937
"3275",84.91341,641.107
"3276",89.48379,641.1203
"3277",93.07759,641.1336
"3278",95.26513,641.1469
"3279",96.095215,641.1602
"3280",95.89258,641.1735
"3281",95.011215,641.1868
"3282",93.76608,641.20013
"3283",92.42573,641.21344
"3284",91.192795,641.22675
"3285",90.177155,641.24005
"3286",89.37148,641.25336
"3287",88.687874,641.26666
"3288",87.99695,641.27997
"3289",87.19859,641.2933
"3290",86.26841,641.3066
"3291",85.279625,641.3199
"3292",84.34455,641.3332
"3293",83.57305,641.3465
"3294",83.0164,641.3598
"3295",82.64042,641.3731
"3296",82.3621,641.3864
"3297",82.08377,641.3997
"3298",81.72732,641.413
"3299",81.25124,641.42633
"3300",80.6482,641.43964
"3301",79.93286,641.45294
"3302",79.14671,641.46625
"3303",78.331276,641.47955
"3304",77.5256,641.49286
"3305",76.76387,641.50616
"3306",76.06561,641.5195
"3307",75.440605,641.5328
"3308",74.89128,641.5461
"3309",74.41032,641.5594
"3310",73.99039,641.5727
"3311",73.619286,641.586
"3312",73.28481,641.5993
"3313",72.98207,641.6126
"3314",72.708626,641.6259
"3315",72.46693,641.6392
"3316",72.271614,641.6525
"3317",72.12268,641.66583
"3318",72.02991,641.67914
"3319",71.9884,641.69244
"3320",71.993286,641.70575
"3321",72.027466,641.71906
"3322",72.06409,641.73236
"3323",72.07141,641.74567
"3324",72.027466,641.759
"3325",71.90784,641.7723
"3326",71.70275,641.7856
"3327",71.42931,641.7989
"3328",71.1046,641.8122
"3329",70.804306,641.8255
"3330",70.75548,641.8388
"3331",71.42931,641.8521
"3332",73.31655,641.8654
"3333",76.5832,641.8787
"3334",80.95094,641.892
"3335",85.79233,641.90533
"3336",90.29679,641.91864
"3337",93.71969,641.93195
"3338",95.692375,641.94525
"3339",96.324715,641.95856
"3340",95.96582,641.97186
"3341",94.97215,641.98517
"3342",93.661095,641.9985
"3343",92.298775,642.0118
"3344",91.07805,642.0251
"3345",90.10147,642.0384
"3346",89.34463,642.0517
"3347",88.707405,642.065
"3348",88.0531,642.0783
"3349",87.30114,642.0916
"3350",86.43687,642.1049
"3351",85.52865,642.1182
"3352",84.68635,642.13153
"3353",84.00519,642.14484
"3354",83.51934,642.15814
"3355",83.19707,642.17145
"3356",82.95781,642.18475
"3357",82.72587,642.19806
"3358",82.43046,642.21136
"3359",82.0325,642.2247
"3360",81.51736,642.238
"3361",80.89479,642.2513
"3362",80.181885,642.2646
"3363",79.42016,642.2779
"3364",78.63645,642.2912
"3365",77.86496,642.3045
"3366",77.120316,642.3178
"3367",76.41718,642.3311
"3368",75.755554,642.3444
"3369",75.140305,642.3577
"3370",74.57389,642.37103
"3371",74.06363,642.38434
"3372",73.60708,642.39764
"3373",73.20668,642.41095
"3374",72.85512,642.42426
"3375",72.549934,642.43756
"3376",72.29359,642.45087
"3377",72.09094,642.4642
"3378",71.94446,642.4775
"3379",71.86145,642.4908
"3380",71.837036,642.5041
"3381",71.854126,642.5174
"3382",71.89075,642.5307
"3383",71.91028,642.544
"3384",71.87854,642.5573
"3385",71.77112,642.5706
"3386",71.57336,642.5839
"3387",71.292595,642.5972
"3388",70.94835,642.61053
"3389",70.608986,642.62384
"3390",70.484474,642.63715
"3391",71.0338,642.65045
"3392",72.764786,642.66376
"3393",75.8996,642.67706
"3394",80.2063,642.69037
"3395",85.08186,642.7037
"3396",89.72549,642.717
"3397",93.3608,642.7303
"3398",95.5581,642.7436
"3399",96.3711,642.7569
"3400",96.131836,642.7702
"3401",95.1992,642.7835
"3402",93.88815,642.7968
"3403",92.48188,642.8101
"3404",91.20256,642.8234
"3405",90.15518,642.83673
"3406",89.34707,642.85004
"3407",88.68299,642.86334
"3408",88.02869,642.87665
"3409",87.27917,642.88995
"3410",86.42954,642.90326
"3411",85.575035,642.91656
"3412",84.842606,642.9299
"3413",84.3299,642.9432
"3414",84.017395,642.9565
"3415",83.77814,642.9698
"3416",83.46319,642.9831
"3417",82.98711,642.9964
"3418",82.340126,643.0097
"3419",81.56863,643.023
"3420",80.76051,643.0363
"3421",79.971924,643.0496
"3422",79.21019,643.0629
"3423",78.450905,643.07623
"3424",77.70138,643.08954
"3425",76.97383,643.10284
"3426",76.29267,643.11615
"3427",75.66277,643.12946
"3428",75.09392,643.14276
"3429",74.57145,643.15607
"3430",74.08316,643.1694
"3431",73.599754,643.1827
"3432",73.109024,643.196
"3433",72.59876,643.2093
"3434",72.07141,643.2226
"3435",71.52697,643.2359
"3436",70.98253,643.2492
"3437",70.44297,643.2625
"3438",69.91318,643.2758
"3439",69.40536,643.2891
"3440",68.93172,643.3024
"3441",68.489815,643.31573
"3442",68.067444,643.32904
"3443",67.64507,643.34235
"3444",67.19829,643.35565
"3445",66.71488,643.36896
"3446",66.18265,643.38226
"3447",65.61379,643.39557
"3448",65.03517,643.4089
"3449",64.50538,643.4222
"3450",64.23193,643.4355
"3451",64.72999,643.4488
"3452",66.69535,643.4621
"3453",70.50889,643.4754
"3454",75.945984,643.4887
"3455",82.2449,643.502
"3456",88.35584,643.5153
"3457",93.2314,643.5286
"3458",96.234375,643.54193
"3459",97.38918,643.55524
"3460",97.1841,643.56854
"3461",96.15137,643.58185
"3462",94.69871,643.59515
"3463",93.1606,643.60846
"3464",91.793396,643.62177
"3465",90.74113,643.6351
"3466",89.99649,643.6484
"3467",89.44228,643.6617
"3468",88.90761,643.675
"3469",88.24841,643.6883
"3470",87.40856,643.7016
"3471",86.4564,643.7149
"3472",85.53353,643.7282
"3473",84.76692,643.7415
"3474",84.2298,643.7548
"3475",83.912415,643.7681
"3476",83.734184,643.78143
"3477",83.58282,643.79474
"3478",83.372856,643.80804
"3479",83.04326,643.82135
"3480",82.57206,643.83466
"3481",81.97635,643.84796
"3482",81.29763,643.86127
"3483",80.567635,643.8746
"3484",79.82788,643.8879
"3485",79.10277,643.9012
"3486",78.41428,643.9145
"3487",77.78195,643.9278
"3488",77.21065,643.9411
"3489",76.70527,643.9544
"3490",76.263374,643.9677
"3491",75.83124,643.981
"3492",75.3283,643.9943
"3493",74.72526,644.0076
"3494",74.05875,644.02094
"3495",73.402,644.03424
"3496",72.8307,644.04755
"3497",72.413216,644.06085
"3498",72.166626,644.07416
"3499",72.03479,644.08746
"3500",71.92981,644.10077
"3501",71.80286,644.1141
"3502",71.62951,644.1274
"3503",71.39269,644.1407
"3504",71.09483,644.154
"3505",70.77257,644.1673
"3506",70.6334,644.1806
"3507",71.15587,644.1939
"3508",72.903946,644.2072
"3509",76.112,644.2205
"3510",80.552986,644.2338
"3511",85.609215,644.24713
"3512",90.43107,644.26044
"3513",94.19089,644.27374
"3514",96.42725,644.28705
"3515",97.20363,644.30035
"3516",96.869156,644.31366
"3517",95.80469,644.32697
"3518",94.35691,644.3403
"3519",92.840775,644.3536
"3520",91.48089,644.3669
"3521",90.39933,644.3802
"3522",89.57656,644.3935
"3523",88.885635,644.4068
"3524",88.145874,644.4201
"3525",87.22301,644.4334
"3526",86.09018,644.4467
"3527",84.842606,644.46
"3528",83.64141,644.4733
"3529",82.6453,644.48663
"3530",81.93729,644.49994
"3531",81.50759,644.51324
"3532",81.25613,644.52655
"3533",81.05104,644.53986
"3534",80.7776,644.55316
"3535",80.365,644.56647
"3536",79.77173,644.5798
"3537",78.99779,644.5931
"3538",78.07736,644.6064
"3539",77.06172,644.6197
"3540",75.999695,644.633
"3541",74.95232,644.6463
"3542",73.97818,644.6596
"3543",73.11635,644.6729
"3544",72.393684,644.6862
"3545",71.81995,644.6995
"3546",71.39025,644.7128
"3547",71.080185,644.72614
"3548",70.8629,644.73944
"3549",70.70908,644.75275
"3550",70.58457,644.76605
"3551",70.46494,644.77936
"3552",70.33799,644.79266
"3553",70.19394,644.80597
"3554",70.03281,644.8193
"3555",69.86435,644.8326
"3556",69.73983,644.8459
"3557",69.8497,644.8592
"3558",70.62852,644.8725
"3559",72.54505,644.8858
"3560",75.7995,644.8991
"3561",80.15747,644.9124
"3562",85.04768,644.9257
"3563",89.68154,644.939
"3564",93.29488,644.95233
"3565",95.467766,644.96564
"3566",96.2417,644.97894
"3567",95.94141,644.99225
"3568",94.940414,645.00555
"3569",93.59762,645.01886
"3570",92.225525,645.03217
"3571",91.036545,645.0455
"3572",90.11124,645.0588
"3573",89.39834,645.0721
"3574",88.744026,645.0854
"3575",87.96277,645.0987
"3576",86.95201,645.112
"3577",85.74105,645.1253
"3578",84.473946,645.1386
"3579",83.336235,645.1519
"3580",82.493935,645.1652
"3581",81.99588,645.1785
"3582",81.78836,645.19183
"3583",81.73464,645.20514
"3584",81.6907,645.21844
"3585",81.53445,645.23175
"3586",81.19997,645.24506
"3587",80.65308,645.25836
"3588",79.91821,645.27167
"3589",79.03685,645.285
"3590",78.07248,645.2983
"3591",77.09102,645.3116
"3592",76.14618,645.3249
"3593",75.2868,645.3382
"3594",74.527504,645.3515
"3595",73.87808,645.3648
"3596",73.338524,645.3781
"3597",72.91127,645.3914
"3598",72.57435,645.4047
"3599",72.318,645.418
"3600",72.1178,645.43134
"3601",71.9469,645.44464
"3602",71.77844,645.45795
"3603",71.58556,645.47125
"3604",71.35363,645.48456
"3605",71.08995,645.49786
"3606",70.838486,645.51117
"3607",70.73838,645.5245
"3608",71.133896,645.5378
"3609",72.47913,645.5511
"3610",75.037766,645.5644
"3611",78.71458,645.5777
"3612",83.07744,645.591
"3613",87.44274,645.6043
"3614",91.07805,645.6176
"3615",93.46578,645.6309
"3616",94.51316,645.6442
"3617",94.43748,645.65753
"3618",93.58053,645.67084
"3619",92.30366,645.68414
"3620",90.934006,645.69745
"3621",89.71572,645.71075
"3622",88.76845,645.72406
"3623",88.06287,645.73737
"3624",87.45495,645.7507
"3625",86.7567,645.764
"3626",85.824066,645.7773
"3627",84.6424,645.7906
"3628",83.3167,645.8039
"3629",82.03494,645.8172
"3630",80.9778,645.8305
"3631",80.255135,645.8438
"3632",79.85718,645.8571
"3633",79.676506,645.8704
"3634",79.571526,645.8837
"3635",79.412834,645.89703
"3636",79.10277,645.91034
"3637",78.6096,645.92365
"3638",77.93332,645.93695
"3639",77.11299,645.95026
"3640",76.192566,645.96356
"3641",75.23552,645.97687
"3642",74.29557,645.9902
"3643",73.41909,646.0035
"3644",72.637825,646.0168
"3645",71.96643,646.0301
"3646",71.40002,646.0434
"3647",70.92638,646.0567
"3648",70.52842,646.07
"3649",70.1915,646.0833
"3650",69.910736,646.0966
"3651",69.68124,646.1099
"3652",69.5079,646.1232
"3653",69.39559,646.13654
"3654",69.34676,646.14984
"3655",69.34432,646.16315
"3656",69.37118,646.17645
"3657",69.385826,646.18976
"3658",69.34676,646.20306
"3659",69.21492,646.2164
"3660",69.00496,646.2297
"3661",68.83406,646.243
"3662",69.09285,646.2563
"3663",70.38682,646.2696
"3664",73.18227,646.2829
"3665",77.47433,646.2962
"3666",82.774704,646.3095
"3667",88.26795,646.3228
"3668",93.00923,646.3361
"3669",96.27589,646.3494
"3670",97.86771,646.36273
"3671",98.04837,646.37604
"3672",97.26223,646.38934
"3673",95.93164,646.40265
"3674",94.42771,646.41595
"3675",93.031204,646.42926
"3676",91.88861,646.44257
"3677",91.00725,646.4559
"3678",90.26505,646.4692
"3679",89.49355,646.4825
"3680",88.53651,646.4958
"3681",87.31823,646.5091
"3682",85.8851,646.5224
"3683",84.39582,646.5357
"3684",83.04082,646.549
"3685",81.98123,646.5623
"3686",81.27322,646.5756
"3687",80.86305,646.5889
"3688",80.62379,646.60223
"3689",80.40406,646.61554
"3690",80.08423,646.62885
"3691",79.59838,646.64215
"3692",78.941635,646.65546
"3693",78.12863,646.66876
"3694",77.208206,646.68207
"3695",76.241394,646.6954
"3696",75.284355,646.7087
"3697",74.38102,646.722
"3698",73.568016,646.7353
"3699",72.86488,646.7486
"3700",72.26429,646.7619
"3701",71.75891,646.7752
"3702",71.326775,646.7885
"3703",70.95567,646.8018
"3704",70.6334,646.8151
"3705",70.35996,646.8284
"3706",70.13779,646.84174
"3707",69.98154,646.85504
"3708",69.891205,646.86835
"3709",69.86191,646.88165
"3710",69.88144,646.89496
"3711",69.92294,646.90826
"3712",69.96445,646.9216
"3713",69.96689,646.9349
"3714",69.908295,646.9482
"3715",69.76669,646.9615
"3716",69.5494,646.9748
"3717",69.36874,646.9881
"3718",69.61776,647.0014
"3719",70.889755,647.0147
"3720",73.63149,647.028
"3721",77.823456,647.0413
"3722",82.98711,647.0546
"3723",88.309456,647.06793
"3724",92.860306,647.08124
"3725",95.94873,647.09454
"3726",97.4136,647.10785
"3727",97.547874,647.12115
"3728",96.79103,647.13446
"3729",95.56054,647.14777
"3730",94.2153,647.1611
"3731",93.016556,647.1744
"3732",92.09125,647.1877
"3733",91.43206,647.201
"3734",90.92424,647.2143
"3735",90.38712,647.2276
"3736",89.64248,647.2409
"3737",88.59022,647.2542
"3738",87.24986,647.2675
"3739",85.74593,647.2808
"3740",84.25422,647.2941
"3741",82.96513,647.30743
"3742",81.991,647.32074
"3743",81.34402,647.33405
"3744",80.94606,647.34735
"3745",80.66529,647.36066
"3746",80.36988,647.37396
"3747",79.96948,647.38727
"3748",79.412834,647.4006
"3749",78.70481,647.4139
"3750",77.872284,647.4272
"3751",76.96895,647.4405
"3752",76.04852,647.4538
"3753",75.16228,647.4671
"3754",74.34928,647.4804
"3755",73.633934,647.4937
"3756",73.023575,647.507
"3757",72.515755,647.5203
"3758",72.08606,647.5336
"3759",71.7174,647.54694
"3760",71.397575,647.56024
"3761",71.116806,647.57355
"3762",70.872665,647.58685
"3763",70.66758,647.60016
"3764",70.49912,647.61346
"3765",70.37217,647.6268
"3766",70.28184,647.6401
"3767",70.22568,647.6534
"3768",70.19638,647.6667
"3769",70.18906,647.68
"3770",70.18417,647.6933
"3771",70.169525,647.7066
"3772",70.1207,647.7199
"3773",70.0206,647.7332
"3774",69.857025,647.7465
"3775",69.61776,647.7598
"3776",69.332115,647.77313
"3777",69.16365,647.78644
"3778",69.57137,647.79974
"3779",71.165634,647.81305
"3780",74.32487,647.82635
"3781",78.89525,647.83966
"3782",84.283516,647.85297
"3783",89.60586,647.8663
"3784",93.927216,647.8796
"3785",96.639656,647.8929
"3786",97.723656,647.9062
"3787",97.567406,647.9195
"3788",96.620125,647.9328
"3789",95.27978,647.9461
"3790",93.890594,647.9594
"3791",92.696724,647.9727
"3792",91.80316,647.986
"3793",91.19524,647.9993
"3794",90.75334,648.01263
"3795",90.29923,648.02594
"3796",89.65957,648.03925
"3797",88.7367,648.05255
"3798",87.552605,648.06586
"3799",86.22934,648.07916
"3800",84.93782,648.09247
"3801",83.83917,648.1058
"3802",83.02617,648.1191
"3803",82.49149,648.1324
"3804",82.144806,648.1457
"3805",81.87137,648.159
"3806",81.56863,648.1723
"3807",81.17311,648.1856
"3808",80.64576,648.1989
"3809",79.97925,648.2122
"3810",79.19798,648.2255
"3811",78.33616,648.23883
"3812",77.43038,648.25214
"3813",76.51972,648.26544
"3814",75.64568,648.27875
"3815",74.84245,648.29205
"3816",74.12955,648.30536
"3817",73.51675,648.31866
"3818",72.99916,648.332
"3819",72.57435,648.3453
"3820",72.2301,648.3586
"3821",71.95178,648.3719
"3822",71.72228,648.3852
"3823",71.5465,648.3985
"3824",71.40978,648.4118
"3825",71.29992,648.4251
"3826",71.19737,648.4384
"3827",71.09239,648.4517
"3828",70.960556,648.465
"3829",70.79454,648.47833
"3830",70.58457,648.49164
"3831",70.34043,648.50494
"3832",70.07187,648.51825
"3833",69.79843,648.53156
"3834",69.54452,648.54486
"3835",69.33456,648.55817
"3836",69.18074,648.5715
"3837",69.083084,648.5848
"3838",69.03914,648.5981
"3839",69.02937,648.6114
"3840",69.02449,648.6247
"3841",68.99031,648.638
"3842",68.90242,648.6513
"3843",68.81453,648.6646
"3844",69.0074,648.6779
"3845",70.0914,648.6912
"3846",72.654915,648.7045
"3847",76.81758,648.71783
"3848",82.13016,648.73114
"3849",87.77966,648.74445
"3850",92.76509,648.75775
"3851",96.22949,648.77106
"3852",97.87015,648.78436
"3853",97.970245,648.79767
"3854",97.03273,648.811
"3855",95.50439,648.8243
"3856",93.76608,648.8376
"3857",92.137634,648.8509
"3858",90.829025,648.8642
"3859",89.91348,648.8775
"3860",89.32998,648.8908
"3861",88.90761,648.9041
"3862",88.43885,648.9174
"3863",87.77234,648.9307
"3864",86.86412,648.94403
"3865",85.79477,648.95734
"3866",84.70832,648.97064
"3867",83.756165,648.98395
"3868",83.03105,648.99725
"3869",82.54032,649.01056
"3870",82.21561,649.02386
"3871",81.95682,649.0372
"3872",81.671165,649.0505
"3873",81.287865,649.0638
"3874",80.77272,649.0771
"3875",80.1355,649.0904
"3876",79.40307,649.1037
"3877",78.61204,649.117
"3878",77.81369,649.1303
"3879",77.04707,649.1436
"3880",76.33662,649.1569
"3881",75.69451,649.1702
"3882",75.11833,649.18353
"3883",74.60319,649.19684
"3884",74.14664,649.21014
"3885",73.7438,649.22345
"3886",73.38979,649.23676
"3887",73.08461,649.25006
"3888",72.82582,649.26337
"3889",72.61097,649.2767
"3890",72.43519,649.29
"3891",72.29359,649.3033
"3892",72.181274,649.3166
"3893",72.09338,649.3299
"3894",72.025024,649.3432
"3895",71.96399,649.3565
"3896",71.90784,649.3698
"3897",71.8468,649.3831
"3898",71.77844,649.3964
"3899",71.69787,649.4097
"3900",71.59289,649.42303
"3901",71.465935,649.43634
"3902",71.31457,649.44965
"3903",71.14122,649.46295
"3904",70.95079,649.47626
"3905",70.750595,649.48956
"3906",70.55039,649.50287
"3907",70.39414,649.5162
"3908",70.52842,649.5295
"3909",71.50744,649.5428
"3910",73.882965,649.5561
"3911",77.77951,649.5694
"3912",82.774704,649.5827
"3913",88.10681,649.596
"3914",92.82857,649.6093
"3915",96.12207,649.6226
"3916",97.672386,649.6359
"3917",97.74319,649.64923
"3918",96.813,649.66254
"3919",95.291985,649.67584
"3920",93.5317,649.68915
"3921",91.83246,649.70245
"3922",90.406654,649.71576
"3923",89.3666,649.72906
"3924",88.68543,649.7424
"3925",88.22156,649.7557
"3926",87.782104,649.769
"3927",87.2108,649.7823
"3928",86.451515,649.7956
"3929",85.55306,649.8089
"3930",84.63996,649.8222
"3931",83.844055,649.8355
"3932",83.243454,649.8488
"3933",82.8333,649.8621
"3934",82.55009,649.8754
"3935",82.303505,649.88873
"3936",82.01541,649.90204
"3937",81.62722,649.91534
"3938",81.11452,649.92865
"3939",80.479744,649.94196
"3940",79.7522,649.95526
"3941",78.96849,649.96857
"3942",78.170135,649.9819
"3943",77.3962,649.9952
"3944",76.67841,650.0085
"3945",76.036316,650.0218
"3946",75.47967,650.0351
"3947",75.003586,650.0484
"3948",74.60319,650.0617
"3949",74.26139,650.075
"3950",73.95621,650.0883
"3951",73.68032,650.1016
"3952",73.42397,650.1149
"3953",73.18227,650.12823
"3954",72.95766,650.14154
"3955",72.75746,650.15485
"3956",72.59144,650.16815
"3957",72.45716,650.18146
"3958",72.35218,650.19476
"3959",72.2765,650.20807
"3960",72.22278,650.2214
"3961",72.17639,650.2347
"3962",72.130005,650.248
"3963",72.076294,650.2613
"3964",72.007935,650.2746
"3965",71.922485,650.2879
"3966",71.817505,650.3012
"3967",71.68078,650.3145
"3968",71.52209,650.3278
"3969",71.3341,650.3411
"3970",71.12413,650.35443
"3971",70.90196,650.36774
"3972",70.72617,650.38104
"3973",70.89464,650.39435
"3974",72.02991,650.40765
"3975",74.6984,650.42096
"3976",78.96117,650.43427
"3977",84.32014,650.4476
"3978",89.91348,650.4609
"3979",94.74265,650.4742
"3980",97.970245,650.4875
"3981",99.354546,650.5008
"3982",99.23735,650.5141
"3983",98.15579,650.5274
"3984",96.52491,650.5407
"3985",94.68894,650.554
"3986",92.93355,650.5673
"3987",91.47112,650.5806
"3988",90.40177,650.59393
"3989",89.686424,650.60724
"3990",89.195694,650.62054
"3991",88.741585,650.63385
"3992",88.15808,650.64716
"3993",87.37438,650.66046
"3994",86.434425,650.67377
"3995",85.452965,650.6871
"3996",84.55695,650.7004
"3997",83.844055,650.7137
"3998",83.33135,650.727
"3999",82.97734,650.7403
"4000",82.69169,650.7536
"4001",82.391396,650.7669
"4002",82.01541,650.7802
"4003",81.514915,650.7935
"4004",80.88258,650.8068
"4005",80.14282,650.8201
"4006",79.3225,650.83344
"4007",78.46067,650.84674
"4008",77.5964,650.86005
"4009",76.76143,650.87335
"4010",75.98749,650.88666
"4011",75.29168,650.89996
"4012",74.683754,650.91327
"4013",74.16373,650.9266
"4014",73.724266,650.9399
"4015",73.35317,650.9532
"4016",73.03822,650.9665
"4017",72.7599,650.9798
"4018",72.51087,650.9931
"4019",72.29359,651.0064
"4020",72.10559,651.0197
"4021",71.94934,651.033
"4022",71.82727,651.0463
"4023",71.73693,651.05963
"4024",71.66857,651.07294
"4025",71.622185,651.08624
"4026",71.588005,651.09955
"4027",71.56603,651.11285
"4028",71.54894,651.12616
"4029",71.519646,651.13947
"4030",71.465935,651.1528
"4031",71.380486,651.1661
"4032",71.25109,651.1794
"4033",71.080185,651.1927
"4034",70.872665,651.206
"4035",70.643166,651.2193
"4036",70.45762,651.2326
"4037",70.62119,651.2459
"4038",71.8053,651.2592
"4039",74.64713,651.2725
"4040",79.22484,651.2858
"4041",84.98421,651.29913
"4042",90.98039,651.31244
"4043",96.129395,651.32574
"4044",99.53033,651.33905
"4045",100.926834,651.35236
"4046",100.714424,651.36566
"4047",99.491264,651.37897
"4048",97.706566,651.3923
"4049",95.69482,651.4056
"4050",93.748985,651.4189
"4051",92.086365,651.4322
"4052",90.826584,651.4455
"4053",89.95743,651.4588
"4054",89.359276,651.4721
"4055",88.83925,651.4854
"4056",88.24353,651.4987
"4057",87.49157,651.512
"4058",86.61509,651.5253
"4059",85.71908,651.53864
"4060",84.92073,651.55194
"4061",84.29572,651.56525
"4062",83.84161,651.57855
"4063",83.50713,651.59186
"4064",83.209274,651.60516
"4065",82.86748,651.61847
"4066",82.425575,651.6318
"4067",81.849396,651.6451
"4068",81.13405,651.6584
"4069",80.2942,651.6717
"4070",79.36889,651.685
"4071",78.39231,651.6983
"4072",77.41329,651.7116
"4073",76.473335,651.7249
"4074",75.60906,651.7382
"4075",74.844894,651.7515
"4076",74.18326,651.76483
"4077",73.62661,651.77814
"4078",73.16762,651.79144
"4079",72.78432,651.80475
"4080",72.46204,651.81805
"4081",72.183716,651.83136
"4082",71.94202,651.84467
"4083",71.73449,651.858
"4084",71.56115,651.8713
"4085",71.41955,651.8846
"4086",71.31457,651.8979
"4087",71.24132,651.9112
"4088",71.19249,651.9245
"4089",71.165634,651.9378
"4090",71.15831,651.9511
"4091",71.16075,651.9644
"4092",71.165634,651.9777
"4093",71.16075,651.991
"4094",71.133896,652.00433
"4095",71.07286,652.01764
"4096",70.96788,652.03094
"4097",70.81651,652.04425
"4098",70.61875,652.05756
"4099",70.3917,652.07086
"4100",70.1915,652.08417
"4101",70.28672,652.0975
"4102",71.34142,652.1108
"4103",74.092926,652.1241
"4104",78.751205,652.1374
"4105",84.808426,652.1507
"4106",91.28802,652.164
"4107",97.02785,652.1773
"4108",100.997635,652.1906
"4109",102.78966,652.2039
"4110",102.73838,652.2172
"4111",101.505455,652.2305
"4112",99.60845,652.24384
"4113",97.411156,652.25714
"4114",95.21629,652.27045
"4115",93.28268,652.28375
"4116",91.773865,652.29706
"4117",90.721596,652.31036
"4118",90.003815,652.32367
"4119",89.444725,652.337
"4120",88.866104,652.3503
"4121",88.17517,652.3636
"4122",87.3695,652.3769
"4123",86.554054,652.3902
"4124",85.82895,652.4035
"4125",85.26009,652.4168
"4126",84.83528,652.4301
"4127",84.48127,652.4434
"4128",84.119934,652.4567
"4129",83.68047,652.47003
"4130",83.1165,652.48334
"4131",82.40116,652.49664
"4132",81.54665,652.50995
"4133",80.58228,652.52325
"4134",79.55688,652.53656
"4135",78.51194,652.54987
"4136",77.4963,652.5632
"4137",76.54658,652.5765
"4138",75.68719,652.5898
"4139",74.93767,652.6031
"4140",74.30045,652.6164
"4141",73.76578,652.6297
"4142",73.321434,652.643
"4143",72.94789,652.6563
"4144",72.62318,652.6696
"4145",72.342415,652.6829
"4146",72.09338,652.6962
"4147",71.87854,652.70953
"4148",71.70031,652.72284
"4149",71.553825,652.73615
"4150",71.4342,652.74945
"4151",71.343864,652.76276
"4152",71.27795,652.77606
"4153",71.23155,652.78937
"4154",71.20714,652.8027
"4155",71.19493,652.816
"4156",71.19005,652.8293
"4157",71.17784,652.8426
"4158",71.14366,652.8559
"4159",71.0753,652.8692
"4160",70.960556,652.8825
"4161",70.79698,652.8958
"4162",70.58701,652.9091
"4163",70.33799,652.9224
"4164",70.0914,652.9357
"4165",70.03769,652.94904
"4166",70.74326,652.96234
"4167",72.98451,652.97565
"4168",77.16182,652.98895
"4169",82.95781,653.00226
"4170",89.48867,653.01556
"4171",95.60204,653.0289
"4172",100.17975,653.0422
"4173",102.59922,653.0555
"4174",103.0045,653.0688
"4175",102.030365,653.0821
"4176",100.25544,653.0954
"4177",98.072784,653.1087
"4178",95.80713,653.122
"4179",93.7441,653.1353
"4180",92.0766,653.1486
"4181",90.87053,653.1619
"4182",90.05264,653.17523
"4183",89.44717,653.18854
"4184",88.86122,653.20184
"4185",88.17517,653.21515
"4186",87.38415,653.22845
"4187",86.56626,653.24176
"4188",85.83627,653.25507
"4189",85.262535,653.2684
"4190",84.83772,653.2817
"4191",84.48615,653.295
"4192",84.11749,653.3083
"4193",83.65118,653.3216
"4194",83.04326,653.3349
"4195",82.28153,653.3482
"4196",81.373314,653.3615
"4197",80.35279,653.3748
"4198",79.26879,653.3881
"4199",78.16281,653.4014
"4200",77.083694,653.41473
"4201",76.068054,653.42804
"4202",75.14763,653.44135
"4203",74.34196,653.45465
"4204",73.653465,653.46796
"4205",73.07973,653.48126
"4206",72.61097,653.49457
"4207",72.22522,653.5079
"4208",71.90784,653.5212
"4209",71.62951,653.5345
"4210",71.38293,653.5478
"4211",71.15343,653.5611
"4212",70.93614,653.5744
"4213",70.72373,653.5877
"4214",70.51621,653.601
"4215",70.313576,653.6143
"4216",70.118256,653.6276
"4217",69.927826,653.6409
"4218",69.747154,653.65424
"4219",69.576256,653.66754
"4220",69.4078,653.68085
"4221",69.24422,653.69415
"4222",69.083084,653.70746
"4223",68.91463,653.72076
"4224",68.7364,653.7341
"4225",68.53376,653.7474
"4226",68.30183,653.7607
"4227",68.033264,653.774
"4228",67.72808,653.7873
"4229",67.40826,653.8006
"4230",67.227585,653.8139
"4231",67.72564,653.8272
"4232",69.78378,653.8405
"4233",74.03433,653.8538
"4234",80.32105,653.8671
"4235",87.745476,653.88043
"4236",95.00633,653.89374
"4237",100.75838,653.90704
"4238",104.11047,653.92035
"4239",105.03334,653.93365
"4240",104.19348,653.94696
"4241",102.3209,653.96027
"4242",99.92096,653.9736
"4243",97.357445,653.9869
"4244",94.959946,654.0002
"4245",92.9897,654.0135
"4246",91.55901,654.0268
"4247",90.616615,654.0401
"4248",89.9794,654.0534
"4249",89.43496,654.0667
"4250",88.834366,654.08
"4251",88.1532,654.0933
"4252",87.467155,654.1066
"4253",86.890976,654.11993
"4254",86.49546,654.13324
"4255",86.25376,654.14655
"4256",86.07065,654.15985
"4257",85.841156,654.17316
"4258",85.48226,654.18646
"4259",84.9427,654.19977
"4260",84.20538,654.2131
"4261",83.28741,654.2264
"4262",82.2327,654.2397
"4263",81.092545,654.253
"4264",79.92554,654.2663
"4265",78.77806,654.2796
"4266",77.696495,654.2929
"4267",76.71259,654.3062
"4268",75.85077,654.3195
"4269",75.10857,654.3328
"4270",74.48844,654.3461
"4271",73.97574,654.35944
"4272",73.54116,654.37274
"4273",73.162735,654.38605
"4274",72.8185,654.39935
"4275",72.50355,654.41266
"4276",72.21301,654.42596
"4277",71.95178,654.4393
"4278",71.727165,654.4526
"4279",71.5465,654.4659
"4280",71.412224,654.4792
"4281",71.326775,654.4925
"4282",71.28039,654.5058
"4283",71.2462,654.5191
"4284",71.202255,654.5324
"4285",71.11925,654.5457
"4286",70.97276,654.559
"4287",70.74326,654.5723
"4288",70.43809,654.58563
"4289",70.064545,654.59894
"4290",69.66659,654.61224
"4291",69.39315,654.62555
"4292",69.68856,654.63885
"4293",71.28039,654.65216
"4294",74.70573,654.66547
"4295",79.869385,654.6788
"4296",86.063324,654.6921
"4297",92.23773,654.7054
"4298",97.26711,654.7187
"4299",100.36286,654.732
"4300",101.42977,654.7453
"4301",100.95125,654.7586
"4302",99.51812,654.7719
"4303",97.57961,654.7852
"4304",95.49218,654.7985
"4305",93.54879,654.8118
"4306",91.96185,654.82513
"4307",90.81438,654.83844
"4308",90.03067,654.85175
"4309",89.42275,654.86505
"4310",88.79042,654.87836
"4311",88.00427,654.89166
"4312",87.07408,654.90497
"4313",86.10239,654.9183
"4314",85.23567,654.9316
"4315",84.56916,654.9449
"4316",84.102844,654.9582
"4317",83.75128,654.9715
"4318",83.407036,654.9848
"4319",82.96513,654.9981
"4320",82.374306,655.0114
"4321",81.60769,655.0247
"4322",80.69215,655.038
"4323",79.66186,655.05133
"4324",78.56809,655.06464
"4325",77.45724,655.07794
"4326",76.38056,655.09125
"4327",75.372246,655.10455
"4328",74.459145,655.11786
"4329",73.66323,655.13116
"4330",72.99184,655.1445
"4331",72.44007,655.1578
"4332",71.9884,655.1711
"4333",71.61974,655.1844
"4334",71.31457,655.1977
"4335",71.04845,655.211
"4336",70.80675,655.2243
"4337",70.58701,655.2376
"4338",70.38926,655.2509
"4339",70.220795,655.2642
"4340",70.08652,655.2775
"4341",69.996185,655.29083
"4342",69.95468,655.30414
"4343",69.95224,655.31744
"4344",69.97177,655.33075
"4345",69.993744,655.34406
"4346",69.993744,655.35736
"4347",69.942474,655.37067
"4348",69.822845,655.384
"4349",69.62997,655.3973
"4350",69.36874,655.4106
"4351",69.051346,655.4239
"4352",68.71198,655.4372
"4353",68.455635,655.4505
"4354",68.646065,655.4638
"4355",69.979095,655.4771
"4356",73.09682,655.4904
"4357",78.07736,655.5037
"4358",84.332344,655.517
"4359",90.84856,655.53033
"4360",96.45411,655.54364
"4361",100.21637,655.55695
"4362",101.84726,655.57025
"4363",101.72518,655.58356
"4364",100.4654,655.59686
"4365",98.5684,655.61017
"4366",96.410164,655.6235
"4367",94.312965,655.6368
"4368",92.523384,655.6501
"4369",91.1635,655.6634
"4370",90.20401,655.6767
"4371",89.498436,655.69
"4372",88.8539,655.7033
"4373",88.114136,655.7166
"4374",87.24254,655.7299
"4375",86.30259,655.7432
"4376",85.41634,655.75653
"4377",84.68879,655.76984
"4378",84.14679,655.78314
"4379",83.73907,655.79645
"4380",83.372856,655.80975
"4381",82.94316,655.82306
"4382",82.374306,655.83636
"4383",81.62966,655.8497
"4384",80.71412,655.863
"4385",79.64965,655.8763
"4386",78.49729,655.8896
"4387",77.313194,655.9029
"4388",76.155945,655.9162
"4389",75.06462,655.9295
"4390",74.073395,655.9428
"4391",73.2018,655.9561
"4392",72.45228,655.9694
"4393",71.81506,655.9827
"4394",71.28527,655.99603
"4395",70.84825,656.00934
"4396",70.486916,656.02264
"4397",70.18417,656.03595
"4398",69.93027,656.04926
"4399",69.71786,656.06256
"4400",69.539635,656.07587
"4401",69.39071,656.0892
"4402",69.27352,656.1025
"4403",69.19539,656.1158
"4404",69.153885,656.1291
"4405",69.14656,656.1424
"4406",69.16365,656.1557
"4407",69.19539,656.169
"4408",69.21492,656.1823
"4409",69.20271,656.1956
"4410",69.13924,656.2089
"4411",69.00984,656.2222
"4412",68.80965,656.23553
"4413",68.541084,656.24884
"4414",68.21881,656.26215
"4415",67.8819,656.27545
"4416",67.70611,656.28876
"4417",68.18707,656.30206
"4418",70.1207,656.31537
"4419",74.090485,656.3287
"4420",79.98657,656.342
"4421",87.01793,656.3553
"4422",93.99313,656.3686
"4423",99.649956,656.3819
"4424",103.12657,656.3952
"4425",104.318,656.4085
"4426",103.763794,656.4218
"4427",102.12802,656.4351
"4428",99.92096,656.4484
"4429",97.530785,656.46173
"4430",95.28222,656.47504
"4431",93.40963,656.48834
"4432",92.015564,656.50165
"4433",91.036545,656.51495
"4434",90.29191,656.52826
"4435",89.57412,656.54156
"4436",88.744026,656.5549
"4437",87.78699,656.5682
"4438",86.7982,656.5815
"4439",85.909515,656.5948
"4440",85.20393,656.6081
"4441",84.681465,656.6214
"4442",84.266426,656.6347
"4443",83.84894,656.648
"4444",83.32647,656.6613
"4445",82.64286,656.6746
"4446",81.78348,656.6879
"4447",80.76051,656.70123
"4448",79.61547,656.71454
"4449",78.38743,656.72784
"4450",77.13008,656.74115
"4451",75.8996,656.75446
"4452",74.74235,656.76776
"4453",73.70229,656.78107
"4454",72.80385,656.7944
"4455",72.05188,656.8077
"4456",71.431755,656.821
"4457",70.91661,656.8343
"4458",70.47959,656.8476
"4459",70.10605,656.8609
"4460",69.786224,656.8742
"4461",69.51278,656.8875
"4462",69.28817,656.9008
"4463",69.10506,656.9141
"4464",68.963455,656.9274
"4465",68.860916,656.94073
"4466",68.795,656.95404
"4467",68.76082,656.96735
"4468",68.75838,656.98065
"4469",68.77791,656.99396
"4470",68.807205,657.00726
"4471",68.824295,657.02057
"4472",68.81209,657.0339
"4473",68.748604,657.0472
"4474",68.61433,657.0605
"4475",68.40681,657.0738
"4476",68.1358,657.0871
"4477",67.825745,657.1004
"4478",67.51324,657.1137
"4479",67.35699,657.127
"4480",67.85016,657.1403
"4481",69.79599,657.1536
"4482",73.84146,657.16693
"4483",79.954834,657.18024
"4484",87.35973,657.19354
"4485",94.818344,657.20685
"4486",100.98299,657.22015
"4487",104.8893,657.23346
"4488",106.33463,657.24677
"4489",105.8439,657.2601
"4490",104.13489,657.2734
"4491",101.78378,657.2867
"4492",99.210495,657.3
"4493",96.761734,657.3133
"4494",94.69871,657.3266
"4495",93.14351,657.3399
"4496",92.0473,657.3532
"4497",91.229416,657.3665
"4498",90.46525,657.3798
"4499",89.59609,657.3931
"4500",88.59998,657.40643
"4501",87.57702,657.41974
"4502",86.6688,657.43304
"4503",85.97055,657.44635
"4504",85.47982,657.45966
"4505",85.101395,657.47296
"4506",84.70344,657.48627
"4507",84.17853,657.4996
"4508",83.46319,657.5129
"4509",82.54276,657.5262
"4510",81.43435,657.5395
"4511",80.184326,657.5528
"4512",78.84154,657.5661
"4513",77.471886,657.5794
"4514",76.13397,657.5927
"4515",74.87419,657.606
"4516",73.73159,657.6193
"4517",72.723274,657.6326
"4518",71.86389,657.64594
"4519",71.150986,657.65924
"4520",70.56992,657.67255
"4521",70.098724,657.68585
"4522",69.71786,657.69916
"4523",69.400475,657.71246
"4524",69.12703,657.72577
"4525",68.892654,657.7391
"4526",68.69245,657.7524
"4527",68.51911,657.7657
"4528",68.384834,657.779
"4529",68.28474,657.7923
"4530",68.21393,657.8056
"4531",68.16998,657.8189
"4532",68.14801,657.8322
"4533",68.140686,657.8455
"4534",68.13336,657.8588
"4535",68.10895,657.87213
"4536",68.04791,657.88544
"4537",67.93561,657.89874
"4538",67.757385,657.91205
"4539",67.51324,657.92535
"4540",67.210495,657.93866
"4541",66.87358,657.95197
"4542",66.62455,657.9653
"4543",66.8687,657.9786
"4544",68.39704,657.9919
"4545",72.0177,658.0052
"4546",77.95041,658.0185
"4547",85.57748,658.0318
"4548",93.67574,658.0451
"4549",100.79988,658.0584
"4550",105.7438,658.0717
"4551",108.03143,658.085
"4552",108.03876,658.0983
"4553",106.5153,658.11163
"4554",104.14221,658.12494
"4555",101.417564,658.13824
"4556",98.73441,658.15155
"4557",96.40528,658.16486
"4558",94.6157,658.17816
"4559",93.36324,658.19147
"4560",92.48188,658.2048
"4561",91.72503,658.2181
"4562",90.88762,658.2314
"4563",89.89151,658.2447
"4564",88.79286,658.258
"4565",87.728386,658.2713
"4566",86.82506,658.2846
"4567",86.12436,658.2979
"4568",85.56527,658.3112
"4569",85.0428,658.3245
"4570",84.44709,658.3378
"4571",83.700005,658.35114
