"","ppg","time"
"1",99.60357,177.63574
"2",98.09964,177.64941
"3",95.87793,177.66309
"4",93.18501,177.67676
"5",90.2211,177.69043
"6",87.15221,177.7041
"7",84.14679,177.71777
"8",81.41482,177.73145
"9",79.200424,177.74512
"10",77.70138,177.75879
"11",77.01045,177.77246
"12",77.066605,177.78613
"13",77.66476,177.7998
"14",78.51438,177.81348
"15",79.33715,177.82715
"16",79.940186,177.84082
"17",80.23804,177.85449
"18",80.216064,177.86816
"19",79.903564,177.88184
"20",79.34936,177.89551
"21",78.6096,177.90918
"22",77.733116,177.92285
"23",76.771194,177.93652
"24",75.78241,177.9502
"25",74.827805,177.96387
"26",73.968414,177.97754
"27",73.2433,177.99121
"28",72.65736,178.00488
"29",72.20325,178.01855
"30",71.85657,178.03223
"31",71.57824,178.0459
"32",71.343864,178.05957
"33",71.131454,178.07324
"34",70.91905,178.08691
"35",70.68467,178.10059
"36",70.416115,178.11426
"37",70.08896,178.12793
"38",69.70565,178.1416
"39",69.31014,178.15527
"40",69.06355,178.16895
"41",69.36385,178.18262
"42",70.77013,178.19629
"43",73.6852,178.20996
"44",78.09689,178.22363
"45",83.55596,178.2373
"46",89.29336,178.25098
"47",94.41062,178.26465
"48",98.2095,178.27832
"49",100.419014,178.29199
"50",101.13924,178.30566
"51",100.61433,178.31934
"52",99.11528,178.33301
"53",96.900894,178.34668
"54",94.220184,178.36035
"55",91.29534,178.37402
"56",88.292366,178.3877
"57",85.35775,178.40137
"58",82.667274,178.41504
"59",80.41627,178.42871
"60",78.78783,178.44238
"61",77.88205,178.45605
"62",77.68673,178.46973
"63",78.05783,178.4834
"64",78.75365,178.49707
"65",79.500725,178.51074
"66",80.08667,178.52441
"67",80.39185,178.53809
"68",80.36988,178.55176
"69",80.0354,178.56543
"70",79.44457,178.5791
"71",78.660866,178.59277
"72",77.74532,178.60645
"73",76.75166,178.62012
"74",75.72137,178.63379
"75",74.6984,178.64746
"76",73.721825,178.66113
"77",72.833145,178.6748
"78",72.06897,178.68848
"79",71.44396,178.70215
"80",70.95323,178.71582
"81",70.57725,178.72949
"82",70.28672,178.74316
"83",70.0499,178.75684
"84",69.83505,178.77051
"85",69.61776,178.78418
"86",69.385826,178.79785
"87",69.12703,178.81152
"88",68.83162,178.8252
"89",68.50446,178.83887
"90",68.16998,178.85254
"91",67.96246,178.86621
"92",68.25544,178.87988
"93",69.62264,178.89355
"94",72.50599,178.90723
"95",76.927444,178.9209
"96",82.44511,178.93457
"97",88.292366,178.94824
"98",93.54635,178.96191
"99",97.46487,178.97559
"100",99.74761,178.98926
"101",100.49958,179.00293
"102",99.984436,179.0166
"103",98.47074,179.03027
"104",96.21484,179.04395
"105",93.46334,179.05762
"106",90.426186,179.07129
"107",87.26696,179.08496
"108",84.137024,179.09863
"109",81.2195,179.1123
"110",78.746315,179.12598
"111",76.93233,179.13965
"112",75.92645,179.15332
"113",75.74578,179.16699
"114",76.243835,179.18066
"115",77.15694,179.19434
"116",78.17746,179.20801
"117",79.061264,179.22168
"118",79.65942,179.23535
"119",79.91089,179.24902
"120",79.81079,179.2627
"121",79.395744,179.27637
"122",78.71946,179.29004
"123",77.83566,179.30371
"124",76.81758,179.31738
"125",75.73846,179.33105
"126",74.66178,179.34473
"127",73.64126,179.3584
"128",72.71351,179.37207
"129",71.90051,179.38574
"130",71.20958,179.39941
"131",70.63096,179.41309
"132",70.169525,179.42676
"133",69.81064,179.44043
"134",69.54452,179.4541
"135",69.33944,179.46777
"136",69.170975,179.48145
"137",68.997635,179.49512
"138",68.80965,179.50879
"139",68.594795,179.52246
"140",68.34821,179.53613
"141",68.08942,179.5498
"142",67.84039,179.56348
"143",67.70367,179.57715
"144",67.9942,179.59082
"145",69.278404,179.60449
"146",72.08118,179.61816
"147",76.50996,179.63184
"148",82.16434,179.64551
"149",88.26307,179.65918
"150",93.8613,179.67285
"151",98.126495,179.68652
"152",100.69001,179.7002
"153",101.644615,179.71387
"154",101.29305,179.72754
"155",99.911194,179.74121
"156",97.73098,179.75488
"157",94.96483,179.76855
"158",91.8056,179.78223
"159",88.40955,179.7959
"160",84.92317,179.80957
"161",81.529564,179.82324
"162",78.49729,179.83691
"163",76.14862,179.85059
"164",74.78386,179.86426
"165",74.547035,179.87793
"166",75.355156,179.8916
"167",76.88838,179.90527
"168",78.70725,179.91895
"169",80.394295,179.93262
"170",81.651634,179.94629
"171",82.36454,179.95996
"172",82.55741,179.97363
"173",82.320595,179.9873
"174",81.74441,180.00098
"175",80.921646,180.01465
"176",79.93042,180.02832
"177",78.84154,180.04199
"178",77.730675,180.05566
"179",76.67597,180.06934
"180",75.73846,180.08301
"181",74.96452,180.09668
"182",74.36149,180.11035
"183",73.9147,180.12402
"184",73.5729,180.1377
"185",73.27749,180.15137
"186",72.96498,180.16504
"187",72.589,180.17871
"188",72.12268,180.19238
"189",71.58068,180.20605
"190",71.06798,180.21973
"191",70.870224,180.2334
"192",71.51232,180.24707
"193",73.48989,180.26074
"194",76.9543,180.27441
"195",81.61501,180.28809
"196",86.82506,180.30176
"197",91.74944,180.31543
"198",95.63622,180.3291
"199",98.089874,180.34277
"200",99.12749,180.35645
"201",98.97368,180.37012
"202",97.84329,180.38379
"203",95.93408,180.39746
"204",93.42184,180.41113
"205",90.46769,180.4248
"206",87.21324,180.43848
"207",83.81476,180.45215
"208",80.46998,180.46582
"209",77.44991,180.47949
"210",75.08415,180.49316
"211",73.673,180.50684
"212",73.37026,180.52051
"213",74.10025,180.53418
"214",75.57488,180.54785
"215",77.36202,180.56152
"216",79.0515,180.5752
"217",80.35523,180.58887
"218",81.13893,180.60254
"219",81.41238,180.61621
"220",81.253685,180.62988
"221",80.743416,180.64355
"222",79.96216,180.65723
"223",78.97826,180.6709
"224",77.872284,180.68457
"225",76.72968,180.69824
"226",75.62615,180.71191
"227",74.632484,180.72559
"228",73.79263,180.73926
"229",73.126114,180.75293
"230",72.61829,180.7666
"231",72.24719,180.78027
"232",71.96643,180.79395
"233",71.73449,180.80762
"234",71.505,180.82129
"235",71.23155,180.83496
"236",70.87755,180.84863
"237",70.44785,180.8623
"238",70.02304,180.87598
"239",69.93027,180.88965
"240",70.77745,180.90332
"241",73.15785,180.91699
"242",77.23506,180.93066
"243",82.64774,180.94434
"244",88.653694,180.95801
"245",94.29099,180.97168
"246",98.69779,180.98535
"247",101.44686,180.99902
"248",102.59678,181.0127
"249",102.41856,181.02637
"250",101.16121,181.04004
"251",99.05669,181.05371
"252",96.33936,181.06738
"253",93.221634,181.08105
"254",89.8793,181.09473
"255",86.468605,181.1084
"256",83.16777,181.12207
"257",80.20386,181.13574
"258",77.840546,181.14941
"259",76.31953,181.16309
"260",75.755554,181.17676
"261",76.085144,181.19043
"262",77.069046,181.2041
"263",78.363014,181.21777
"264",79.62035,181.23145
"265",80.59449,181.24512
"266",81.160904,181.25879
"267",81.30251,181.27246
"268",81.06325,181.28613
"269",80.50904,181.2998
"270",79.72045,181.31348
"271",78.77318,181.32715
"272",77.73556,181.34082
"273",76.66621,181.35449
"274",75.61883,181.36816
"275",74.632484,181.38184
"276",73.7438,181.39551
"277",72.97475,181.40918
"278",72.34486,181.42285
"279",71.85657,181.43652
"280",71.502556,181.4502
"281",71.25353,181.46387
"282",71.06798,181.47754
"283",70.89708,181.49121
"284",70.7042,181.50488
"285",70.45762,181.51855
"286",70.14755,181.53223
"287",69.788666,181.5459
"288",69.43954,181.55957
"289",69.32479,181.57324
"290",69.96933,181.58691
"291",71.97864,181.60059
"292",75.64568,181.61426
"293",80.75807,181.62793
"294",86.693214,181.6416
"295",92.5478,181.65527
"296",97.411156,181.66895
"297",100.716866,181.68262
"298",102.38926,181.69629
"299",102.660255,181.70996
"300",101.771576,181.72363
"301",99.94537,181.7373
"302",97.411156,181.75098
"303",94.38621,181.76465
"304",91.073166,181.77832
"305",87.64294,181.79199
"306",84.263985,181.80566
"307",81.13893,181.81934
"308",78.51682,181.83301
"309",76.654,181.84668
"310",75.70916,181.86035
"311",75.682304,181.87402
"312",76.40009,181.8877
"313",77.56222,181.90137
"314",78.82201,181.91504
"315",79.8938,181.92871
"316",80.61646,181.94238
"317",80.93141,181.95605
"318",80.84596,181.96973
"319",80.40406,181.9834
"320",79.67895,181.99707
"321",78.746315,182.01074
"322",77.68429,182.02441
"323",76.56855,182.03809
"324",75.46258,182.05176
"325",74.42008,182.06543
"326",73.48501,182.0791
"327",72.691536,182.09277
"328",72.042114,182.10645
"329",71.52209,182.12012
"330",71.097275,182.13379
"331",70.72617,182.14746
"332",70.362404,182.16113
"333",69.959564,182.1748
"334",69.50301,182.18848
"335",68.98543,182.20215
"336",68.44587,182.21582
"337",68.02106,182.22949
"338",68.10895,182.24316
"339",69.30282,182.25684
"340",72.07385,182.27051
"341",76.45136,182.28418
"342",81.99588,182.29785
"343",87.90906,182.31152
"344",93.25826,182.3252
"345",97.27932,182.33887
"346",99.667046,182.35254
"347",100.53132,182.36621
"348",100.1236,182.37988
"349",98.6807,182.39355
"350",96.41993,182.40723
"351",93.55367,182.4209
"352",90.28214,182.43457
"353",86.77379,182.44824
"354",83.19951,182.46191
"355",79.75464,182.47559
"356",76.70771,182.48926
"357",74.36881,182.50293
"358",73.01381,182.5166
"359",72.76723,182.53027
"360",73.53872,182.54395
"361",75.01335,182.55762
"362",76.771194,182.57129
"363",78.399635,182.58496
"364",79.622795,182.59863
"365",80.325935,182.6123
"366",80.52857,182.62598
"367",80.306404,182.63965
"368",79.75708,182.65332
"369",78.958725,182.66699
"370",77.994354,182.68066
"371",76.929886,182.69434
"372",75.843445,182.70801
"373",74.79118,182.72168
"374",73.82681,182.73535
"375",72.98207,182.74902
"376",72.26429,182.7627
"377",71.658806,182.77637
"378",71.133896,182.79004
"379",70.65049,182.80371
"380",70.15976,182.81738
"381",69.63485,182.83105
"382",69.06355,182.84473
"383",68.489815,182.8584
"384",68.10895,182.87207
"385",68.3946,182.88574
"386",69.96445,182.89941
"387",73.196915,182.91309
"388",77.977264,182.92676
"389",83.717094,182.94043
"390",89.547264,182.9541
"391",94.53025,182.96777
"392",98.01663,182.98145
"393",99.84039,182.99512
"394",100.209045,183.00879
"395",99.39605,183.02246
"396",97.63821,183.03613
"397",95.14061,183.0498
"398",92.103455,183.06348
"399",88.68299,183.07715
"400",85.04036,183.09082
"401",81.36843,183.10449
"402",77.94064,183.11816
"403",75.11101,183.13184
"404",73.23842,183.14551
"405",72.58167,183.15918
"406",73.15053,183.17285
"407",74.69108,183.18652
"408",76.74677,183.2002
"409",78.82201,183.21387
"410",80.52125,183.22754
"411",81.6321,183.24121
"412",82.11307,183.25488
"413",82.054474,183.26855
"414",81.57351,183.28223
"415",80.78737,183.2959
"416",79.79614,183.30957
"417",78.69993,183.32324
"418",77.58907,183.33691
"419",76.54658,183.35059
"420",75.62615,183.36426
"421",74.84978,183.37793
"422",74.21011,183.3916
"423",73.67788,183.40527
"424",73.21156,183.41895
"425",72.7599,183.43262
"426",72.288704,183.44629
"427",71.77844,183.45996
"428",71.24132,183.47363
"429",70.80675,183.4873
"430",70.84825,183.50098
"431",71.905396,183.51465
"432",74.39323,183.52832
"433",78.331276,183.54199
"434",83.302055,183.55566
"435",88.58045,183.56934
"436",93.31686,183.58301
"437",96.832535,183.59668
"438",98.85161,183.61035
"439",99.47173,183.62402
"440",98.91264,183.6377
"441",97.391624,183.65137
"442",95.11131,183.66504
"443",92.26704,183.67871
"444",89.01991,183.69238
"445",85.52865,183.70605
"446",81.988556,183.71973
"447",78.677956,183.7334
"448",75.95087,183.74707
"449",74.161285,183.76074
"450",73.52651,183.77441
"451",74.03189,183.78809
"452",75.41619,183.80176
"453",77.24483,183.81543
"454",79.07103,183.8291
"455",80.5359,183.84277
"456",81.46853,183.85645
"457",81.85428,183.87012
"458",81.761505,183.88379
"459",81.28542,183.89746
"460",80.52369,183.91113
"461",79.57397,183.9248
"462",78.51438,183.93848
"463",77.43038,183.95215
"464",76.39765,183.96582
"465",75.4699,183.97949
"466",74.67887,183.99316
"467",74.02945,184.00684
"468",73.50698,184.02051
"469",73.06508,184.03418
"470",72.66224,184.04785
"471",72.25208,184.06152
"472",71.79553,184.0752
"473",71.29992,184.08887
"474",70.89708,184.10254
"475",70.958115,184.11621
"476",72.047,184.12988
"477",74.59342,184.14355
"478",78.6218,184.15723
"479",83.72686,184.1709
"480",89.17616,184.18457
"481",94.11032,184.19824
"482",97.82864,184.21191
"483",100.03815,184.22559
"484",100.807205,184.23926
"485",100.34089,184.25293
"486",98.861374,184.2666
"487",96.59571,184.28027
"488",93.78317,184.29395
"489",90.633705,184.30762
"490",87.34753,184.32129
"491",84.10773,184.33496
"492",81.146255,184.34863
"493",78.71946,184.3623
"494",77.05684,184.37598
"495",76.280464,184.38965
"496",76.36103,184.40332
"497",77.09834,184.41699
"498",78.184784,184.43066
"499",79.29809,184.44434
"500",80.184326,184.45801
"501",80.71168,184.47168
"502",80.833755,184.48535
"503",80.57984,184.49902
"504",80.01831,184.5127
"505",79.23216,184.52637
"506",78.30686,184.54004
"507",77.315636,184.55371
"508",76.32197,184.56738
"509",75.38201,184.58105
"510",74.54459,184.59473
"511",73.83902,184.6084
"512",73.2604,184.62207
"513",72.796524,184.63574
"514",72.39857,184.64941
"515",72.01282,184.66309
"516",71.59289,184.67676
"517",71.10948,184.69043
"518",70.5626,184.7041
"519",70.01083,184.71777
"520",69.68368,184.73145
"521",70.030365,184.74512
"522",71.54162,184.75879
"523",74.48844,184.77246
"524",78.76097,184.78613
"525",83.861145,184.7998
"526",89.039444,184.81348
"527",93.51461,184.82715
"528",96.73487,184.84082
"529",98.52201,184.85449
"530",98.96391,184.86816
"531",98.253456,184.88184
"532",96.61524,184.89551
"533",94.30076,184.90918
"534",91.55169,184.92285
"535",88.58289,184.93652
"536",85.57015,184.9502
"537",82.69169,184.96387
"538",80.164795,184.97754
"539",78.19943,184.99121
"540",76.94942,185.00488
"541",76.46845,185.01855
"542",76.663765,185.03223
"543",77.32784,185.0459
"544",78.184784,185.05957
"545",78.995346,185.07324
"546",79.588615,185.08691
"547",79.88403,185.10059
"548",79.86206,185.11426
"549",79.537346,185.12793
"550",78.95384,185.1416
"551",78.18234,185.15527
"552",77.28878,185.16895
"553",76.33906,185.18262
"554",75.389336,185.19629
"555",74.48356,185.20996
"556",73.65835,185.22363
"557",72.938126,185.2373
"558",72.33509,185.25098
"559",71.84192,185.26465
"560",71.43664,185.27832
"561",71.08751,185.29199
"562",70.750595,185.30566
"563",70.39658,185.31934
"564",70.00595,185.33301
"565",69.56893,185.34668
"566",69.09041,185.36035
"567",68.592354,185.37402
"568",68.140686,185.3877
"569",67.93317,185.40137
"570",68.3946,185.41504
"571",70.02548,185.42871
"572",73.12123,185.44238
"573",77.574425,185.45605
"574",82.899216,185.46973
"575",88.341194,185.4834
"576",93.08003,185.49707
"577",96.52491,185.51074
"578",98.47074,185.52441
"579",99.01518,185.53809
"580",98.34867,185.55176
"581",96.71046,185.56543
"582",94.35447,185.5791
"583",91.52239,185.59277
"584",88.429085,185.60645
"585",85.25521,185.62012
"586",82.18143,185.63379
"587",79.42504,185.64746
"588",77.23262,185.66113
"589",75.80682,185.6748
"590",75.250175,185.68848
"591",75.494316,185.70215
"592",76.32929,185.71582
"593",77.44503,185.72949
"594",78.54368,185.74316
"595",79.40307,185.75684
"596",79.920654,185.77051
"597",80.07202,185.78418
"598",79.886475,185.79785
"599",79.415276,185.81152
"600",78.72434,185.8252
"601",77.88449,185.83887
"602",76.9543,185.85254
"603",75.97528,185.86621
"604",75.01091,185.87988
"605",74.10269,185.89355
"606",73.29214,185.90723
"607",72.61097,185.9209
"608",72.07141,185.93457
"609",71.65148,185.94824
"610",71.32189,185.96191
"611",71.03136,185.97559
"612",70.73838,185.98926
"613",70.41123,186.00293
"614",70.03769,186.0166
"615",69.62264,186.03027
"616",69.18562,186.04395
"617",68.78279,186.05762
"618",68.577705,186.07129
"619",68.9366,186.08496
"620",70.35996,186.09863
"621",73.196915,186.1123
"622",77.41085,186.12598
"623",82.58671,186.13965
"624",88.0238,186.15332
"625",92.90181,186.16699
"626",96.5713,186.18066
"627",98.75395,186.19434
"628",99.49859,186.20801
"629",98.97856,186.22168
"630",97.4136,186.23535
"631",95.04295,186.24902
"632",92.11078,186.2627
"633",88.82948,186.27637
"634",85.401695,186.29004
"635",82.03494,186.30371
"636",78.99046,186.31738
"637",76.57099,186.33105
"638",75.054855,186.34473
"639",75.089035,186.37207
"640",76.32929,186.38574
"641",77.92111,186.39941
"642",79.47875,186.41309
"643",80.71656,186.42676
"644",81.50027,186.44043
"645",81.80789,186.4541
"646",81.685814,186.46777
"647",81.21217,186.48145
"648",80.47486,186.49512
"649",79.55932,186.50879
"650",78.551,186.52246
"651",77.53048,186.53613
"652",76.55146,186.5498
"653",75.665215,186.56348
"654",74.88396,186.57715
"655",74.212555,186.59082
"656",73.62173,186.60449
"657",73.077286,186.61816
"658",72.54261,186.63184
"659",71.990845,186.64551
"660",71.42199,186.65918
"661",70.8629,186.67285
"662",70.421,186.68652
"663",70.38926,186.7002
"664",71.2169,186.71387
"665",73.289696,186.72754
"666",76.70283,186.74121
"667",81.19508,186.75488
"668",86.1976,186.76855
"669",90.968185,186.78223
"670",94.820786,186.7959
"671",97.357445,186.80957
"672",98.51713,186.82324
"673",98.41459,186.83691
"674",97.232925,186.85059
"675",95.19188,186.86426
"676",92.5185,186.87793
"677",89.43008,186.8916
"678",86.117035,186.90527
"679",82.77959,186.91895
"680",79.66186,186.93262
"681",77.051956,186.94629
"682",75.22331,186.95996
"683",74.354164,186.97363
"684",74.444496,186.9873
"685",75.29168,187.00098
"686",76.575874,187.01465
"687",77.9382,187.02832
"688",79.08812,187.04199
"689",79.871826,187.05566
"690",80.23804,187.06934
"691",80.201416,187.08301
"692",79.818115,187.09668
"693",79.168686,187.11035
"694",78.33616,187.12402
"695",77.401085,187.1377
"696",76.453804,187.15137
"697",75.56512,187.16504
"698",74.79118,187.17871
"699",74.144196,187.19238
"700",73.62417,187.20605
"701",73.199356,187.21973
"702",72.82338,187.2334
"703",72.44984,187.24707
"704",72.047,187.26074
"705",71.59533,187.27441
"706",71.08263,187.28809
"707",70.51133,187.30176
"708",69.94003,187.31543
"709",69.56405,187.3291
"710",69.82773,187.34277
"711",71.28527,187.35645
"712",74.29801,187.37012
"713",78.80492,187.38379
"714",84.3299,187.39746
"715",90.07706,187.41113
"716",95.1577,187.4248
"717",98.88823,187.43848
"718",101.01228,187.45215
"719",101.607994,187.46582
"720",100.88533,187.47949
"721",99.10063,187.49316
"722",96.532234,187.50684
"723",93.46334,187.52051
"724",90.12833,187.53418
"725",86.74204,187.54785
"726",83.49493,187.56152
"727",80.61402,187.5752
"728",78.31663,187.58887
"729",76.78096,187.60254
"730",76.07782,187.61621
"731",76.14374,187.62988
"732",76.771194,187.64355
"733",77.68917,187.65723
"734",78.626686,187.6709
"735",79.37621,187.68457
"736",79.82544,187.69824
"737",79.937744,187.71191
"738",79.72045,187.72559
"739",79.21507,187.73926
"740",78.485085,187.75293
"741",77.60372,187.7666
"742",76.63447,187.78027
"743",75.6408,187.79395
"744",74.669106,187.80762
"745",73.75845,187.82129
"746",72.938126,187.83496
"747",72.22766,187.84863
"748",71.63439,187.8623
"749",71.15831,187.87598
"750",70.78722,187.88965
"751",70.49668,187.90332
"752",70.24521,187.91699
"753",69.996185,187.93066
"754",69.72274,187.94434
"755",69.40536,187.95801
"756",69.04402,187.97168
"757",68.65339,187.98535
"758",68.28962,187.99902
"759",68.14313,188.0127
"760",68.646065,188.02637
"761",70.35264,188.04004
"762",73.62905,188.05371
"763",78.399635,188.06738
"764",84.16876,188.08105
"765",90.125885,188.09473
"766",95.37255,188.1084
"767",99.20561,188.12207
"768",101.36874,188.13574
"769",101.95468,188.14941
"770",101.18318,188.16309
"771",99.320366,188.17676
"772",96.656746,188.19043
"773",93.47555,188.2041
"774",90.023346,188.21777
"775",86.502785,188.23145
"776",83.10185,188.24512
"777",80.02075,188.25879
"778",77.50118,188.27246
"779",75.755554,188.28613
"780",74.90349,188.2998
"781",74.91814,188.31348
"782",75.60906,188.32715
"783",76.6833,188.34082
"784",77.823456,188.35449
"785",78.77562,188.36816
"786",79.38842,188.38184
"787",79.61059,188.39551
"788",79.45434,188.40918
"789",78.97337,188.42285
"790",78.23361,188.43652
"791",77.31075,188.4502
"792",76.27802,188.46387
"793",75.18425,188.47754
"794",74.090485,188.49121
"795",73.04799,188.50488
"796",72.10071,188.51855
"797",71.27795,188.53223
"798",70.59678,188.5459
"799",70.05478,188.55957
"800",69.625084,188.57324
"801",69.278404,188.58691
"802",68.98787,188.60059
"803",68.72663,188.61426
"804",68.46296,188.62793
"805",68.174866,188.6416
"806",67.84039,188.65527
"807",67.457085,188.66895
"808",67.04204,188.68262
"809",66.685585,188.69629
"810",66.67338,188.70996
"811",67.56939,188.72363
"812",69.9913,188.7373
"813",74.19058,188.75098
"814",79.886475,188.76465
"815",86.36118,188.77832
"816",92.63813,188.79199
"817",97.74319,188.80566
"818",101.100174,188.81934
"819",102.65049,188.83301
"820",102.64561,188.84668
"821",101.366295,188.86035
"822",99.07866,188.87402
"823",96.03662,188.8877
"824",92.48188,188.90137
"825",88.63416,188.91504
"826",84.68879,188.92871
"827",80.87282,188.94238
"828",77.47433,188.95605
"829",74.830246,188.96973
"830",73.25063,188.9834
"831",72.884415,188.99707
"832",73.65591,189.01074
"833",75.25506,189.02441
"834",77.23262,189.03809
"835",79.132065,189.05176
"836",80.621346,189.06543
"837",81.53689,189.0791
"838",81.86893,189.09277
"839",81.68337,189.10645
"840",81.077896,189.12012
"841",80.16724,189.13379
"842",79.05394,189.14746
"843",77.838104,189.16113
"844",76.60761,189.1748
"845",75.421074,189.18848
"846",74.305336,189.20215
"847",73.26528,189.21582
"848",72.30091,189.22949
"849",71.414665,189.24316
"850",70.608986,189.25684
"851",69.89365,189.27051
"852",69.261314,189.28418
"853",68.6778,189.29785
"854",68.10651,189.31152
"855",67.57427,189.3252
"856",67.244675,189.33887
"857",67.596245,189.35254
"858",69.28329,189.36621
"859",72.725716,189.37988
"860",77.81125,189.39355
"861",83.92218,189.40723
"862",90.125885,189.4209
"863",95.42382,189.43457
"864",99.11284,189.44824
"865",101.01228,189.46191
"866",101.35409,189.47559
"867",100.436104,189.48926
"868",98.4976,189.50293
"869",95.75586,189.5166
"870",92.39399,189.53027
"871",88.59022,189.54395
"872",84.525215,189.55762
"873",80.428474,189.57129
"874",76.61494,189.58496
"875",73.48989,189.59863
"876",71.45617,189.6123
"877",70.77745,189.62598
"878",71.46349,189.63965
"879",73.22377,189.65332
"880",75.55047,189.66699
"881",77.891815,189.68066
"882",79.81323,189.69434
"883",81.08278,189.70801
"884",81.66384,189.72168
"885",81.64187,189.73535
"886",81.13893,189.74902
"887",80.26978,189.7627
"888",79.13451,189.77637
"889",77.8259,189.79004
"890",76.44892,189.80371
"891",75.11345,189.81738
"892",73.919586,189.83105
"893",72.93324,189.84473
"894",72.16907,189.8584
"895",71.59777,189.87207
"896",71.15343,189.88574
"897",70.75548,189.89941
"898",70.33799,189.91309
"899",69.86923,189.92676
"900",69.34432,189.94043
"901",68.78523,189.9541
"902",68.31892,189.96777
"903",68.33112,189.98145
"904",69.52987,189.99512
"905",72.54261,190.00879
"906",77.49142,190.02246
"907",83.88068,190.03613
"908",90.7802,190.0498
"909",97.05226,190.06348
"910",101.72274,190.07715
"911",104.37415,190.09082
"912",105.15541,190.10449
"913",104.444954,190.11816
"914",102.555275,190.13184
"915",99.74761,190.14551
"916",96.2588,190.15918
"917",92.315865,190.17285
"918",88.10681,190.18652
"919",83.824524,190.2002
"920",79.727776,190.21387
"921",76.16815,190.22754
"922",73.53872,190.24121
"923",72.166626,190.25488
"924",72.17883,190.26855
"925",73.41909,190.28223
"926",75.4699,190.2959
"927",77.786835,190.30957
"928",79.86694,190.32324
"929",81.373314,190.33691
"930",82.18631,190.35059
"931",82.3328,190.36426
"932",81.9324,190.37793
"933",81.12428,190.3916
"934",80.0354,190.40527
"935",78.765854,190.41895
"936",77.41085,190.43262
"937",76.050964,190.44629
"938",74.76433,190.45996
"939",73.60952,190.47363
"940",72.64027,190.4873
"941",71.87366,190.50098
"942",71.28771,190.51465
"943",70.821396,190.52832
"944",70.421,190.54199
"945",70.01816,190.55566
"946",69.573814,190.56934
"947",69.05379,190.58301
"948",68.45808,190.59668
"949",67.842834,190.61035
"950",67.476616,190.62402
"951",67.97955,190.6377
"952",70.14267,190.65137
"953",74.38834,190.66504
"954",80.47242,190.67871
"955",87.572136,190.69238
"956",94.540016,190.70605
"957",100.22125,190.71973
"958",103.89319,190.7334
"959",105.50942,190.74707
"960",105.45571,190.76074
"961",104.12024,190.77441
"962",101.79111,190.78809
"963",98.70756,190.80176
"964",95.08446,190.81543
"965",91.104904,190.8291
"966",86.94957,190.84277
"967",82.83818,190.85645
"968",79.07103,190.87012
"969",76.00946,190.88379
"970",73.98306,190.89746
"971",73.2018,190.91113
"972",73.64614,190.9248
"973",75.052414,190.93848
"974",76.981155,190.95215
"975",78.96849,190.96582
"976",80.62379,190.97949
"977",81.71999,190.99316
"978",82.1741,191.00684
"979",82.01541,191.02051
"980",81.33425,191.03418
"981",80.23804,191.04785
"982",78.84886,191.06152
"983",77.30587,191.0752
"984",75.74334,191.08887
"985",74.27604,191.10254
"986",72.99428,191.11621
"987",71.94202,191.12988
"988",71.116806,191.14355
"989",70.47471,191.15723
"990",69.962006,191.1709
"991",69.52499,191.18457
"992",69.136795,191.19824
"993",68.790115,191.21191
"994",68.48493,191.22559
"995",68.20172,191.23926
"996",67.90631,191.25293
"997",67.55474,191.2666
"998",67.11284,191.28027
"999",66.600136,191.29395
"1000",66.17288,191.30762
"1001",66.31205,191.32129
"1002",67.842834,191.33496
"1003",71.468376,191.34863
"1004",77.261925,191.3623
"1005",84.559395,191.37598
"1006",92.23529,191.38965
"1007",99.01274,191.40332
"1008",103.84436,191.41699
"1009",106.36637,191.43066
"1010",106.864426,191.44434
"1011",105.85367,191.45801
"1012",103.73205,191.47168
"1013",100.79256,191.48535
"1014",97.269554,191.49902
"1015",93.36324,191.5127
"1016",89.232315,191.52637
"1017",85.03792,191.54004
"1018",81.00221,191.55371
"1019",77.46456,191.56738
"1020",74.81804,191.58105
"1021",73.37759,191.59473
"1022",73.26284,191.6084
"1023",74.322426,191.62207
"1024",76.15839,191.63574
"1025",78.23605,191.64941
"1026",80.079346,191.66309
"1027",81.38308,191.67676
"1028",82.04227,191.69043
"1029",82.10086,191.7041
"1030",81.671165,191.71777
"1031",80.8777,191.73145
"1032",79.815674,191.74512
"1033",78.553444,191.75879
"1034",77.14717,191.77246
"1035",75.67254,191.78613
"1036",74.20035,191.7998
"1037",72.8307,191.81348
"1038",71.65392,191.82715
"1039",70.7335,191.84082
"1040",70.07919,191.85449
"1041",69.661705,191.86816
"1042",69.41024,191.88184
"1043",69.23201,191.89551
"1044",69.05623,191.90918
"1045",68.82674,191.92285
"1046",68.52155,191.93652
"1047",68.13336,191.9502
"1048",67.681694,191.96387
"1049",67.21538,191.97754
"1050",66.92973,191.99121
"1051",67.34966,192.00488
"1052",69.24422,192.01855
"1053",73.16518,192.03223
"1054",79.03685,192.0459
"1055",86.134125,192.05957
"1056",93.34127,192.07324
"1057",99.44976,192.08691
"1058",103.57336,192.10059
"1059",105.50698,192.11426
"1060",105.58755,192.12793
"1061",104.274055,192.1416
"1062",101.9205,192.15527
"1063",98.795456,192.16895
"1064",95.11864,192.18262
"1065",91.08293,192.19629
"1066",86.84459,192.20996
"1067",82.59647,192.22363
"1068",78.61448,192.2373
"1069",75.264824,192.25098
"1070",72.95766,192.26465
"1071",72.02014,192.27832
"1072",72.54505,192.29199
"1073",74.29557,192.30566
"1074",76.77608,192.31934
"1075",79.378654,192.33301
"1076",81.57351,192.34668
"1077",83.03105,192.36035
"1078",83.66827,192.37402
"1079",83.59258,192.3877
"1080",82.97978,192.40137
"1081",81.991,192.41504
"1082",80.7483,192.42871
"1083",79.3518,192.44238
"1084",77.88937,192.45605
"1085",76.44892,192.46973
"1086",75.123215,192.4834
"1087",73.98306,192.49707
"1088",73.060196,192.51074
"1089",72.342415,192.52441
"1090",71.78577,192.53809
"1091",71.32433,192.55176
"1092",70.8922,192.56543
"1093",70.44053,192.5791
"1094",69.942474,192.59277
"1095",69.41024,192.60645
"1096",68.94148,192.62012
"1097",68.84627,192.63379
"1098",69.70077,192.64746
"1099",72.10315,192.66113
"1100",76.263374,192.6748
"1101",81.83475,192.68848
"1102",88.03113,192.70215
"1103",93.85886,192.71582
"1104",98.39994,192.72949
"1105",101.153885,192.74316
"1106",102.15976,192.75684
"1107",101.73739,192.77051
"1108",100.20416,192.78418
"1109",97.80179,192.79785
"1110",94.747536,192.81152
"1111",91.21477,192.8252
"1112",87.35485,192.83887
"1113",83.32891,192.85254
"1114",79.37133,192.86621
"1115",75.82147,192.87988
"1116",73.1017,192.89355
"1117",71.59289,192.90723
"1118",71.50988,192.9209
"1119",72.75746,192.93457
"1120",74.949875,192.94824
"1121",77.51583,192.96191
"1122",79.888916,192.97559
"1123",81.671165,192.98926
"1124",82.68925,193.00293
"1125",82.98222,193.0166
"1126",82.686806,193.03027
"1127",81.951935,193.04395
"1128",80.90456,193.05762
"1129",79.64721,193.07129
"1130",78.27024,193.08496
"1131",76.8835,193.09863
"1132",75.58953,193.1123
"1133",74.46647,193.12598
"1134",73.55337,193.13965
"1135",72.85268,193.15332
"1136",72.33509,193.16699
"1137",71.9469,193.18066
"1138",71.63683,193.19434
"1139",71.346306,193.20801
"1140",71.026474,193.22168
"1141",70.6334,193.23535
"1142",70.15488,193.24902
"1143",69.63729,193.2627
"1144",69.27352,193.27637
"1145",69.57137,193.29004
"1146",71.23888,193.30371
"1147",74.73258,193.31738
"1148",79.940186,193.33105
"1149",86.2269,193.34473
"1150",92.62348,193.3584
"1151",98.08499,193.37207
"1152",101.85947,193.38574
"1153",103.77844,193.39941
"1154",104.095825,193.41309
"1155",103.148544,193.42676
"1156",101.19295,193.44043
"1157",98.46586,193.4541
"1158",95.187,193.46777
"1159",91.55413,193.48145
"1160",87.75037,193.49512
"1161",83.96124,193.50879
"1162",80.45045,193.52246
"1163",77.54269,193.53613
"1164",75.577324,193.5498
"1165",74.78386,193.56348
"1166",75.1696,193.57715
"1167",76.48554,193.59082
"1168",78.2971,193.60449
"1169",80.128174,193.61816
"1170",81.617455,193.63184
"1171",82.55741,193.64551
"1172",82.916306,193.65918
"1173",82.75517,193.67285
"1174",82.16678,193.68652
"1175",81.22926,193.7002
"1176",80.03296,193.71387
"1177",78.66819,193.72754
"1178",77.23262,193.74121
"1179",75.82147,193.75488
"1180",74.527504,193.76855
"1181",73.41421,193.78223
"1182",72.52064,193.7959
"1183",71.851685,193.80957
"1184",71.3756,193.82324
"1185",71.05089,193.83691
"1186",70.836044,193.85059
"1187",70.68223,193.86426
"1188",70.54063,193.87793
"1189",70.362404,193.8916
"1190",70.115814,193.90527
"1191",69.78378,193.91895
"1192",69.35409,193.93262
"1193",68.87068,193.94629
"1194",68.44099,193.95996
"1195",68.40681,193.97363
"1196",69.37606,193.9873
"1197",71.95422,194.00098
"1198",76.32929,194.01465
"1199",82.144806,194.02832
"1200",88.61463,194.04199
"1201",94.73289,194.05566
"1202",99.57671,194.06934
"1203",102.66514,194.08301
"1204",104.02991,194.09668
"1205",103.956665,194.11035
"1206",102.71397,194.12402
"1207",100.55085,194.1377
"1208",97.706566,194.15137
"1209",94.41306,194.16504
"1210",90.86565,194.17871
"1211",87.24498,194.19238
"1212",83.75128,194.20605
"1213",80.64332,194.21973
"1214",78.20676,194.2334
"1215",76.67841,194.24707
"1216",76.16571,194.26074
"1217",76.575874,194.27441
"1218",77.6379,194.28809
"1219",78.98558,194.30176
"1220",80.26002,194.31543
"1221",81.2195,194.3291
"1222",81.75662,194.34277
"1223",81.85428,194.35645
"1224",81.55886,194.37012
"1225",80.95094,194.38379
"1226",80.1062,194.39746
"1227",79.10765,194.41113
"1228",78.01877,194.4248
"1229",76.912796,194.43848
"1230",75.843445,194.45215
"1231",74.86687,194.46582
"1232",74.03189,194.47949
"1233",73.36538,194.49316
"1234",72.85512,194.50684
"1235",72.47181,194.52051
"1236",72.166626,194.53418
"1237",71.89319,194.54785
"1238",71.605095,194.56152
"1239",71.292595,194.5752
"1240",70.941025,194.58887
"1241",70.538185,194.60254
"1242",70.08652,194.61621
"1243",69.61288,194.62988
"1244",69.21004,194.64355
"1245",69.15877,194.65723
"1246",69.96933,194.6709
"1247",72.14221,194.68457
"1248",75.862976,194.69824
"1249",80.86305,194.71191
"1250",86.51255,194.72559
"1251",91.96185,194.73926
"1252",96.395515,194.75293
"1253",99.33013,194.7666
"1254",100.71198,194.78027
"1255",100.72175,194.79395
"1256",99.59136,194.80762
"1257",97.567406,194.82129
"1258",94.89159,194.83496
"1259",91.77875,194.84863
"1260",88.41444,194.8623
"1261",84.964676,194.87598
"1262",81.62722,194.88965
"1263",78.66819,194.90332
"1264",76.37324,194.91699
"1265",74.97673,194.93066
"1266",74.56657,194.94434
"1267",75.04509,194.95801
"1268",76.13397,194.97168
"1269",77.471886,194.98535
"1270",78.71458,194.99902
"1271",79.64233,195.0127
"1272",80.147705,195.02637
"1273",80.22095,195.04004
"1274",79.903564,195.05371
"1275",79.27123,195.06738
"1276",78.40696,195.08105
"1277",77.401085,195.09473
"1278",76.3415,195.1084
"1279",75.299,195.12207
"1280",74.35172,195.13574
"1281",73.53384,195.14941
"1282",72.86977,195.16309
"1283",72.35218,195.17676
"1284",71.95178,195.19043
"1285",71.61486,195.2041
"1286",71.27795,195.21777
"1287",70.887314,195.23145
"1288",70.39414,195.24512
"1289",69.79111,195.25879
"1290",69.100174,195.27246
"1291",68.41657,195.28613
"1292",68.00397,195.2998
"1293",68.35554,195.31348
"1294",70.01083,195.32715
"1295",73.23598,195.34082
"1296",77.86008,195.35449
"1297",83.30694,195.36816
"1298",88.75868,195.38184
"1299",93.365685,195.39551
"1300",96.5713,195.40918
"1301",98.24124,195.42285
"1302",98.52689,195.43652
"1303",97.65774,195.4502
"1304",95.86572,195.46387
"1305",93.37545,195.47754
"1306",90.38712,195.49121
"1307",87.07164,195.50488
"1308",83.597466,195.51855
"1309",80.17944,195.53223
"1310",77.09834,195.5459
"1311",74.6984,195.55957
"1312",73.27749,195.57324
"1313",72.97475,195.58691
"1314",73.69497,195.60059
"1315",75.13786,195.61426
"1316",76.87129,195.62793
"1317",78.487526,195.6416
"1318",79.691154,195.65527
"1319",80.360115,195.66895
"1320",80.49195,195.68262
"1321",80.15503,195.69629
"1322",79.45434,195.70996
"1323",78.502174,195.72363
"1324",77.40597,195.7373
"1325",76.263374,195.75098
"1326",75.14763,195.76465
"1327",74.13443,195.77832
"1328",73.26284,195.79199
"1329",72.549934,195.80566
"1330",72.00061,195.81934
"1331",71.59533,195.83301
"1332",71.29015,195.84668
"1333",71.03136,195.86035
"1334",70.76036,195.87402
"1335",70.44053,195.8877
"1336",70.066986,195.90137
"1337",69.7203,195.91504
"1338",69.65438,195.92871
"1339",70.345314,195.94238
"1340",72.29359,195.95605
"1341",75.699394,195.96973
"1342",80.34547,195.9834
"1343",85.6556,195.99707
"1344",90.82414,196.01074
"1345",95.05516,196.02441
"1346",97.86771,196.03809
"1347",99.1812,196.05176
"1348",99.156784,196.06543
"1349",98.02884,196.0791
"1350",96.03906,196.09277
"1351",93.41451,196.10645
"1352",90.338295,196.12012
"1353",86.96178,196.13379
"1354",83.43633,196.14746
"1355",79.974365,196.16113
"1356",76.8835,196.1748
"1357",74.53483,196.18848
"1358",73.2433,196.20215
"1359",73.131,196.21582
"1360",74.07095,196.22949
"1361",75.70672,196.24316
"1362",77.574425,196.25684
"1363",79.25414,196.27051
"1364",80.482185,196.28418
"1365",81.15846,196.29785
"1366",81.30251,196.31152
"1367",80.99733,196.3252
"1368",80.33814,196.33887
"1369",79.415276,196.35254
"1370",78.31663,196.36621
"1371",77.14961,196.37988
"1372",76.00458,196.39355
"1373",74.97185,196.40723
"1374",74.10269,196.4209
"1375",73.42153,196.43457
"1376",72.90883,196.44824
"1377",72.50843,196.46191
"1378",72.1593,196.47559
"1379",71.79309,196.48926
"1380",71.363396,196.50293
"1381",70.870224,196.5166
"1382",70.38926,196.53027
"1383",70.17929,196.54395
"1384",70.74082,196.55762
"1385",72.603645,196.57129
"1386",76.0119,196.58496
"1387",80.76784,196.59863
"1388",86.28062,196.6123
"1389",91.717705,196.62598
"1390",96.23682,196.63965
"1391",99.30572,196.65332
"1392",100.81453,196.66699
"1393",100.92195,196.68066
"1394",99.86725,196.69434
"1395",97.899445,196.70801
"1396",95.27978,196.72168
"1397",92.2475,196.73535
"1398",89.00038,196.74902
"1399",85.714195,196.7627
"1400",82.579384,196.77637
"1401",79.83276,196.79004
"1402",77.71114,196.80371
"1403",76.39765,196.81738
"1404",75.95819,196.83105
"1405",76.29511,196.84473
"1406",77.152054,196.8584
"1407",78.221405,196.87207
"1408",79.21263,196.88574
"1409",79.9353,196.89941
"1410",80.28443,196.91309
"1411",80.257576,196.92676
"1412",79.88159,196.94043
"1413",79.2224,196.9541
"1414",78.35813,196.96777
"1415",77.37911,196.98145
"1416",76.3708,196.99512
"1417",75.41131,197.00879
"1418",74.55924,197.02246
"1419",73.848785,197.03613
"1420",73.289696,197.0498
"1421",72.86,197.06348
"1422",72.52552,197.07715
"1423",72.25208,197.09082
"1424",71.993286,197.10449
"1425",71.707634,197.11816
"1426",71.35363,197.13184
"1427",70.92149,197.14551
"1428",70.4625,197.15918
"1429",70.17685,197.17285
"1430",70.50645,197.18652
"1431",71.97864,197.2002
"1432",74.91081,197.21387
"1433",79.219955,197.22754
"1434",84.437325,197.24121
"1435",89.796295,197.25488
"1436",94.47166,197.26855
"1437",97.848175,197.28223
"1438",99.72564,197.2959
"1439",100.19928,197.30957
"1440",99.49859,197.32324
"1441",97.882355,197.33691
"1442",95.62646,197.35059
"1443",92.98482,197.36426
"1444",90.160065,197.37793
"1445",87.308464,197.3916
"1446",84.576485,197.40527
"1447",82.11795,197.41895
"1448",80.09888,197.43262
"1449",78.641335,197.44629
"1450",77.79904,197.45996
"1451",77.53536,197.47363
"1452",77.71847,197.4873
"1453",78.135956,197.50098
"1454",78.58518,197.51465
"1455",78.9099,197.52832
"1456",79.01732,197.54199
"1457",78.86351,197.55566
"1458",78.46311,197.56934
"1459",77.85275,197.58301
"1460",77.08858,197.59668
"1461",76.23163,197.61035
"1462",75.352715,197.62402
"1463",74.49821,197.6377
"1464",73.724266,197.65137
"1465",73.06264,197.66504
"1466",72.54749,197.67871
"1467",72.17395,197.69238
"1468",71.92737,197.70605
"1469",71.77112,197.71973
"1470",71.65148,197.7334
"1471",71.51232,197.74707
"1472",71.29015,197.76074
"1473",70.95567,197.77441
"1474",70.50645,197.78809
"1475",70.00839,197.80176
"1476",69.66415,197.81543
"1477",69.86435,197.8291
"1478",71.07042,197.84277
"1479",73.56069,197.85645
"1480",77.27657,197.87012
"1481",81.812775,197.88379
"1482",86.522316,197.89746
"1483",90.6923,197.91113
"1484",93.78073,197.9248
"1485",95.57763,197.93848
"1486",96.131836,197.95215
"1487",95.624016,197.96582
"1488",94.26902,197.97949
"1489",92.3061,197.99316
"1490",89.96475,198.00684
"1491",87.432976,198.02051
"1492",84.857254,198.03418
"1493",82.35966,198.04785
"1494",80.076904,198.06152
"1495",78.16525,198.0752
"1496",76.749214,198.08887
"1497",75.894714,198.10254
"1498",75.58709,198.11621
"1499",75.72381,198.12988
"1500",76.12665,198.14355
"1501",76.61982,198.15723
"1502",77.05928,198.1709
"1503",77.35226,198.18457
"1504",77.44259,198.19824
"1505",77.31075,198.21191
"1506",76.96895,198.22559
"1507",76.45869,198.23926
"1508",75.826355,198.25293
"1509",75.13054,198.2666
"1510",74.42008,198.28027
"1511",73.74868,198.29395
"1512",73.15053,198.30762
"1513",72.65003,198.32129
"1514",72.254524,198.33496
"1515",71.96643,198.34863
"1516",71.77112,198.3623
"1517",71.65148,198.37598
"1518",71.57824,198.38965
"1519",71.519646,198.40332
"1520",71.43664,198.41699
"1521",71.29015,198.43066
"1522",71.05821,198.44434
"1523",70.728615,198.45801
"1524",70.313576,198.47168
"1525",69.84238,198.48535
"1526",69.39803,198.49902
"1527",69.19539,198.5127
"1528",69.65682,198.52637
"1529",71.24376,198.54004
"1530",74.20035,198.55371
"1531",78.37766,198.56738
"1532",83.284966,198.58105
"1533",88.1947,198.59473
"1534",92.35981,198.6084
"1535",95.27245,198.62207
"1536",96.80568,198.63574
"1537",97.084,198.64941
"1538",96.324715,198.66309
"1539",94.73777,198.67676
"1540",92.55756,198.69043
"1541",90.0087,198.7041
"1542",87.291374,198.71777
"1543",84.55695,198.73145
"1544",81.94949,198.74512
"1545",79.61791,198.75879
"1546",77.74532,198.77246
"1547",76.48066,198.78613
"1548",75.91669,198.7998
"1549",76.02167,198.81348
"1550",76.64912,198.82715
"1551",77.56466,198.84082
"1552",78.51194,198.85449
"1553",79.28588,198.86816
"1554",79.77173,198.88184
"1555",79.92554,198.89551
"1556",79.74731,198.90918
"1557",79.281,198.92285
"1558",78.59739,198.93652
"1559",77.7673,198.9502
"1560",76.86397,198.96387
"1561",75.95575,198.97754
"1562",75.10857,198.99121
"1563",74.36637,199.00488
"1564",73.763336,199.01855
"1565",73.3019,199.03223
"1566",72.96254,199.0459
"1567",72.69886,199.05957
"1568",72.46204,199.07324
"1569",72.21057,199.08691
"1570",71.91516,199.10059
"1571",71.58312,199.11426
"1572",71.28771,199.12793
"1573",71.2462,199.1416
"1574",71.851685,199.15527
"1575",73.49966,199.16895
"1576",76.3415,199.18262
"1577",80.20874,199.19629
"1578",84.62043,199.20996
"1579",88.91493,199.22363
"1580",92.44282,199.2373
"1581",94.80858,199.25098
"1582",95.93164,199.26465
"1583",95.94141,199.27832
"1584",95.02586,199.29199
"1585",93.3901,199.30566
"1586",91.2343,199.31934
"1587",88.74647,199.33301
"1588",86.07553,199.34668
"1589",83.36797,199.36035
"1590",80.7776,199.37402
"1591",78.485085,199.3877
"1592",76.68574,199.40137
"1593",75.55291,199.41504
"1594",75.15495,199.42871
"1595",75.43328,199.44238
"1596",76.19989,199.45605
"1597",77.20332,199.46973
"1598",78.1799,199.4834
"1599",78.94408,199.49707
"1600",79.398186,199.51074
"1601",79.520256,199.52441
"1602",79.327385,199.53809
"1603",78.86595,199.55176
"1604",78.19455,199.56543
"1605",77.38155,199.5791
"1606",76.50263,199.59277
"1607",75.62859,199.60645
"1608",74.82292,199.62012
"1609",74.13199,199.63379
"1610",73.57778,199.64746
"1611",73.16518,199.66113
"1612",72.88197,199.6748
"1613",72.69886,199.68848
"1614",72.584114,199.70215
"1615",72.51087,199.71582
"1616",72.44251,199.72949
"1617",72.3473,199.74316
"1618",72.20569,199.75684
"1619",72.00061,199.77051
"1620",71.72228,199.78418
"1621",71.37072,199.79785
"1622",70.977646,199.81152
"1623",70.67246,199.8252
"1624",70.80675,199.83887
"1625",71.93713,199.85254
"1626",74.48844,199.86621
"1627",78.49485,199.87988
"1628",83.55352,199.89355
"1629",88.95888,199.90723
"1630",93.8613,199.9209
"1631",97.55276,199.93457
"1632",99.757385,199.94824
"1633",100.56306,199.96191
"1634",100.19684,199.97559
"1635",98.89311,199.98926
"1636",96.87648,200.00293
"1637",94.37644,200.0166
"1638",91.60784,200.03027
"1639",88.744026,200.04395
"1640",85.92905,200.05762
"1641",83.3045,200.07129
"1642",81.03395,200.08496
"1643",79.281,200.09863
"1644",78.153046,200.1123
"1645",77.68917,200.12598
"1646",77.81369,200.13965
"1647",78.35081,200.15332
"1648",79.07347,200.16699
"1649",79.77173,200.18066
"1650",80.28687,200.19434
"1651",80.54322,200.20801
"1652",80.50904,200.22168
"1653",80.19653,200.23535
"1654",79.64965,200.24902
"1655",78.924545,200.2627
"1656",78.08469,200.27637
"1657",77.18623,200.29004
"1658",76.27314,200.30371
"1659",75.386894,200.31738
"1660",74.56901,200.33105
"1661",73.85123,200.34473
"1662",73.248184,200.3584
"1663",72.762344,200.37207
"1664",72.396126,200.38574
"1665",72.13733,200.39941
"1666",71.96643,200.41309
"1667",71.84436,200.42676
"1668",71.744255,200.44043
"1669",71.62707,200.4541
"1670",71.46105,200.46777
"1671",71.21446,200.48145
"1672",70.889755,200.49512
"1673",70.521095,200.50879
"1674",70.233,200.52246
"1675",70.40879,200.53613
"1676",71.6173,200.5498
"1677",74.288246,200.56348
"1678",78.433815,200.57715
"1679",83.62676,200.59082
"1680",89.12245,200.60449
"1681",94.05173,200.61816
"1682",97.7261,200.63184
"1683",99.88678,200.64551
"1684",100.648506,200.65918
"1685",100.24811,200.67285
"1686",98.897995,200.68652
"1687",96.82277,200.7002
"1688",94.25437,200.71387
"1689",91.41253,200.72754
"1690",88.47303,200.74121
"1691",85.57992,200.75488
"1692",82.86748,200.76855
"1693",80.482185,200.78223
"1694",78.58274,200.7959
"1695",77.30099,200.80957
"1696",76.70527,200.82324
"1697",76.73701,200.83691
"1698",77.239944,200.85059
"1699",77.98703,200.86426
"1700",78.75609,200.87793
"1701",79.364006,200.8916
"1702",79.71557,200.90527
"1703",79.77173,200.91895
"1704",79.54711,200.93262
"1705",79.07591,200.94629
"1706",78.41428,200.95996
"1707",77.611046,200.97363
"1708",76.71992,200.9873
"1709",75.77997,201.00098
"1710",74.83513,201.01465
"1711",73.92447,201.02832
"1712",73.091934,201.04199
"1713",71.78821,201.06934
"1714",71.35363,201.08301
"1715",71.04845,201.09668
"1716",70.836044,201.11035
"1717",70.66514,201.12402
"1718",70.486916,201.1377
"1719",70.26475,201.15137
"1720",69.98398,201.16504
"1721",69.64217,201.17871
"1722",69.25155,201.19238
"1723",68.86336,201.20605
"1724",68.65095,201.21973
"1725",69.09529,201.2334
"1726",70.83116,201.24707
"1727",74.21744,201.26074
"1728",79.10521,201.27441
"1729",84.90852,201.28809
"1730",90.74845,201.30176
"1731",95.68749,201.31543
"1732",99.10307,201.3291
"1733",100.88045,201.34277
"1734",101.25155,201.35645
"1735",100.48493,201.37012
"1736",98.810104,201.38379
"1737",96.43702,201.39746
"1738",93.57076,201.41113
"1739",90.40421,201.4248
"1740",87.081406,201.43848
"1741",83.7293,201.45215
"1742",80.50904,201.46582
"1743",77.64034,201.47949
"1744",75.369804,201.49316
"1745",73.917145,201.50684
"1746",73.39956,201.52051
"1747",73.760895,201.53418
"1748",74.76677,201.54785
"1749",76.087585,201.56152
"1750",77.38888,201.5752
"1751",78.42405,201.58887
"1752",79.05882,201.60254
"1753",79.26391,201.61621
"1754",79.07591,201.62988
"1755",78.56321,201.64355
"1756",77.80148,201.65723
"1757",76.85664,201.6709
"1758",75.79706,201.68457
"1759",74.68131,201.69824
"1760",73.5729,201.71191
"1761",72.52552,201.72559
"1762",71.59289,201.73926
"1763",70.80675,201.75293
"1764",70.18906,201.7666
"1765",69.730064,201.78027
"1766",69.40536,201.79395
"1767",69.18562,201.80762
"1768",69.02449,201.82129
"1769",68.88777,201.83496
"1770",68.731514,201.84863
"1771",68.523994,201.8623
"1772",68.243225,201.87598
"1773",67.894104,201.88965
"1774",67.54986,201.90332
"1775",67.562065,201.91699
"1776",68.64362,201.93066
"1777",71.505,201.94434
"1778",76.32929,201.95801
"1779",82.633095,201.97168
"1780",89.48867,201.98535
"1781",95.765625,201.99902
"1782",100.4654,202.0127
"1783",103.16319,202.02637
"1784",104.06653,202.04004
"1785",103.605095,202.05371
"1786",102.08652,202.06738
"1787",99.72808,202.08105
"1788",96.708015,202.09473
"1789",93.19966,202.1084
"1790",89.34463,202.12207
"1791",85.28451,202.13574
"1792",81.18532,202.14941
"1793",77.30831,202.16309
"1794",73.97574,202.17676
"1795",71.551384,202.19043
"1796",70.31602,202.2041
"1797",70.40391,202.21777
"1798",71.692986,202.23145
"1799",73.82681,202.24512
"1800",76.29511,202.25879
"1801",78.60471,202.27246
"1802",80.38453,202.28613
"1803",81.43923,202.2998
"1804",81.76639,202.31348
"1805",81.47585,202.32715
"1806",80.719,202.34082
"1807",79.639885,202.35449
"1808",78.35569,202.36816
"1809",76.964066,202.38184
"1810",75.560234,202.39551
"1811",74.22476,202.40918
"1812",73.01869,202.42285
"1813",71.98108,202.43652
"1814",71.12413,202.4502
"1815",70.44785,202.46387
"1816",69.927826,202.47754
"1817",69.53475,202.49121
"1818",69.224686,202.50488
"1819",68.946365,202.51855
"1820",68.67292,202.53223
"1821",68.52155,202.5459
"1822",68.93416,202.55957
"1823",70.65537,202.57324
"1824",74.249176,202.58691
"1825",79.6643,202.60059
"1826",86.22446,202.61426
"1827",92.90181,202.62793
"1828",98.5684,202.6416
"1829",102.40147,202.65527
"1830",104.22278,202.66895
"1831",104.39124,202.68262
"1832",103.343864,202.69629
"1833",101.34432,202.70996
"1834",98.57084,202.72363
"1835",95.16502,202.7373
"1836",91.25872,202.75098
"1837",86.97154,202.76465
"1838",82.46952,202.77832
"1839",77.996796,202.79199
"1840",73.9025,202.80566
"1841",70.59434,202.81934
"1842",68.47761,202.83301
"1843",67.84039,202.84668
"1844",68.72663,202.86035
"1845",70.889755,202.87402
"1846",73.81705,202.8877
"1847",76.90059,202.90137
"1848",79.586174,202.91504
"1849",81.497826,202.92871
"1850",82.49882,202.94238
"1851",82.650185,202.95605
"1852",82.11795,202.96973
"1853",81.0901,202.9834
"1854",79.73022,202.99707
"1855",78.184784,203.01074
"1856",76.575874,203.02441
"1857",75.02312,203.03809
"1858",73.60952,203.05176
"1859",72.39124,203.06543
"1860",71.38781,203.0791
"1861",70.589455,203.09277
"1862",69.962006,203.10645
"1863",69.46151,203.12012
"1864",69.04402,203.13379
"1865",68.69489,203.14746
"1866",68.54841,203.16113
"1867",69.085526,203.1748
"1868",71.08751,203.18848
"1869",75.089035,203.20215
"1870",80.96071,203.21582
"1871",87.938354,203.22949
"1872",94.91112,203.24316
"1873",100.70954,203.25684
"1874",104.518196,203.27051
"1875",106.212555,203.28418
"1876",106.20279,203.29785
"1877",104.938126,203.31152
"1878",102.694435,203.3252
"1879",99.649956,203.33887
"1880",95.95361,203.35254
"1881",91.75433,203.36621
"1882",87.201035,203.37988
"1883",82.48173,203.39355
"1884",77.86008,203.40723
"1885",73.69985,203.4209
"1886",70.41367,203.43457
"1887",68.39216,203.44824
"1888",67.894104,203.46191
"1889",68.926834,203.47559
"1890",71.19493,203.48926
"1891",74.16861,203.50293
"1892",77.22774,203.5166
"1893",79.818115,203.53027
"1894",81.59548,203.54395
"1895",82.442665,203.55762
"1896",82.44755,203.57129
"1897",81.78836,203.58496
"1898",80.66285,203.59863
"1899",79.24437,203.6123
"1900",77.68673,203.62598
"1901",76.102234,203.63965
"1902",74.59098,203.65332
"1903",73.22377,203.66699
"1904",72.03967,203.68066
"1905",71.04845,203.69434
"1906",70.24521,203.70801
"1907",69.60311,203.72168
"1908",69.083084,203.73535
"1909",68.646065,203.74902
"1910",68.316475,203.7627
"1911",68.33112,203.77637
"1912",69.332115,203.79004
"1913",72.08606,203.80371
"1914",76.93233,203.81738
"1915",83.47295,203.83105
"1916",90.76799,203.84473
"1917",97.62356,203.8584
"1918",102.91905,203.87207
"1919",106.04898,203.88574
"1920",107.13298,203.89941
"1921",106.65934,203.91309
"1922",105.02602,203.92676
"1923",102.469826,203.94043
"1924",99.18608,203.9541
"1925",95.34814,203.96777
"1926",91.1342,203.98145
"1927",86.70542,203.99512
"1928",82.269325,204.00879
"1929",78.10422,204.02246
"1930",74.55924,204.03613
"1931",72.010376,204.0498
"1932",70.76036,204.06348
"1933",70.92882,204.07715
"1934",72.34974,204.09082
"1935",74.61295,204.10449
"1936",77.1667,204.11816
"1937",79.48119,204.13184
"1938",81.180435,204.14551
"1939",82.1033,204.15918
"1940",82.27909,204.17285
"1941",81.832306,204.18652
"1942",80.92897,204.2002
"1943",79.7058,204.21387
"1944",78.27268,204.22754
"1945",76.734566,204.24121
"1946",75.191574,204.25488
"1947",73.73647,204.26855
"1948",72.444954,204.28223
"1949",71.363396,204.2959
"1950",70.49668,204.30957
"1951",69.820404,204.32324
"1952",69.28329,204.33691
"1953",68.82674,204.35059
"1954",68.43122,204.36426
"1955",68.21637,204.37793
"1956",68.64118,204.3916
"1957",70.44541,204.40527
"1958",74.15152,204.41895
"1959",79.66918,204.43262
"1960",86.3148,204.44629
"1961",93.05318,204.45996
"1962",98.76128,204.47363
"1963",102.6334,204.4873
"1964",104.50355,204.50098
"1965",104.691536,204.51465
"1966",103.605095,204.52832
"1967",101.51278,204.54199
"1968",98.631874,204.55566
"1969",95.16014,204.56934
"1970",91.28069,204.58301
"1971",87.149765,204.59668
"1972",82.9456,204.61035
"1973",78.91478,204.62402
"1974",75.39178,204.6377
"1975",72.75258,204.65137
"1976",71.33166,204.66504
"1977",71.27306,204.67871
"1978",72.45228,204.69238
"1979",74.47379,204.70605
"1980",76.81758,204.71973
"1981",78.96605,204.7334
"1982",80.552986,204.74707
"1983",81.41238,204.76074
"1984",81.56374,204.77441
"1985",81.1194,204.78809
"1986",80.22827,204.80176
"1987",79.029526,204.81543
"1988",77.6379,204.8291
"1989",76.1535,204.84277
"1990",74.669106,204.85645
"1991",73.26284,204.87012
"1992",71.9884,204.88379
"1993",70.887314,204.89746
"1994",69.979095,204.91113
"1995",69.24666,204.9248
"1996",68.65339,204.93848
"1997",68.16022,204.95215
"1998",67.74517,204.96582
"1999",67.46685,204.97949
"2000",67.64019,204.99316
"2001",68.89754,205.00684
"2002",71.82239,205.02051
"2003",76.53193,205.03418
"2004",82.55497,205.04785
"2005",89.02968,205.06152
"2006",94.90135,205.0752
"2007",99.2813,205.08887
"2008",101.788666,205.10254
"2009",102.57725,205.11621
"2010",102.00351,205.12988
"2011",100.34333,205.14355
"2012",97.80911,205.15723
"2013",94.591286,205.1709
"2014",90.880295,205.18457
"2015",86.854355,205.19824
"2016",82.71122,205.21191
"2017",78.695045,205.22559
"2018",75.125656,205.23926
"2019",72.361946,205.25293
"2020",70.73594,205.2666
"2021",70.421,205.28027
"2022",71.34875,205.29395
"2023",73.196915,205.30762
"2024",75.47234,205.32129
"2025",77.6672,205.33496
"2026",79.38842,205.34863
"2027",80.42359,205.3623
"2028",80.73853,205.37598
"2029",80.42359,205.38965
"2030",79.60815,205.40332
"2031",78.433815,205.41699
"2032",77.02998,205.43066
"2033",75.52117,205.44434
"2034",74.00992,205.45801
"2035",72.58167,205.47168
"2036",71.29992,205.48535
"2037",70.203705,205.49902
"2038",69.30526,205.5127
"2039",68.59968,205.52637
"2040",68.050354,205.54004
"2041",67.61089,205.55371
"2042",67.227585,205.56738
"2043",66.87358,205.58105
"2044",66.62699,205.59473
"2045",66.846725,205.6084
"2046",68.20416,205.62207
"2047",71.326775,205.63574
"2048",76.32441,205.64941
"2049",82.68925,205.66309
"2050",89.481346,205.67676
"2051",95.59716,205.69043
"2052",100.10162,205.7041
"2053",102.61631,205.71777
"2054",103.326775,205.73145
"2055",102.63828,205.74512
"2056",100.85603,205.75879
"2057",98.20218,205.77246
"2058",94.86961,205.78613
"2059",91.019455,205.7998
"2060",86.803085,205.81348
"2061",82.408485,205.82715
"2062",78.11398,205.84082
"2063",74.29313,205.85449
"2064",71.39269,205.86816
"2065",69.81064,205.88184
"2066",69.75693,205.89551
"2067",71.116806,205.90918
"2068",73.480125,205.92285
"2069",76.25605,205.93652
"2070",78.8513,205.9502
"2071",80.82155,205.96387
"2072",81.969025,205.97754
"2073",82.29862,205.99121
"2074",81.94461,206.00488
"2075",81.077896,206.01855
"2076",79.85718,206.03223
"2077",78.40696,206.0459
"2078",76.8542,206.05957
"2079",75.30389,206.07324
"2080",73.85367,206.08691
"2081",72.57679,206.10059
"2082",71.519646,206.11426
"2083",70.68955,206.12793
"2084",70.05722,206.1416
"2085",69.56405,206.15527
"2086",69.15144,206.16895
"2087",68.795,206.18262
"2088",68.58991,206.19629
"2089",68.912186,206.20996
"2090",70.40147,206.22363
"2091",73.57046,206.2373
"2092",78.41917,206.25098
"2093",84.41047,206.26465
"2094",90.64591,206.27832
"2095",96.095215,206.29199
"2096",99.9527,206.30566
"2097",101.942474,206.31934
"2098",102.26963,206.33301
"2099",101.3077,206.34668
"2100",99.36431,206.36035
"2101",96.688484,206.37402
"2102",93.47799,206.3877
"2103",89.8793,206.40137
"2104",86.014496,206.41504
"2105",82.03006,206.42871
"2106",78.1799,206.44238
"2107",74.85466,206.45605
"2108",72.50843,206.46973
"2109",71.49523,206.4834
"2110",71.92493,206.49707
"2111",73.57534,206.51074
"2112",75.95331,206.52441
"2113",78.45335,206.53809
"2114",80.570076,206.55176
"2115",82.00076,206.56543
"2116",82.67216,206.5791
"2117",82.67216,206.59277
"2118",82.14969,206.60645
"2119",81.25124,206.62012
"2120",80.10132,206.63379
"2121",78.81468,206.64746
"2122",77.49386,206.66113
"2123",76.21942,206.6748
"2124",75.03044,206.68848
"2125",73.95865,206.70215
"2126",73.01381,206.71582
"2127",72.20325,206.72949
"2128",71.50744,206.74316
"2129",70.91661,206.75684
"2130",70.48203,206.77051
"2131",70.4625,206.78418
"2132",71.378044,206.79785
"2133",73.741356,206.81152
"2134",77.68673,206.8252
"2135",82.87724,206.83887
"2136",88.604866,206.85254
"2137",93.958954,206.86621
"2138",98.11917,206.87988
"2139",100.67048,206.89355
"2140",101.64217,206.90723
"2141",101.263756,206.9209
"2142",99.76227,206.93457
"2143",97.357445,206.94824
"2144",94.27146,206.96191
"2145",90.702065,206.97559
"2146",86.820175,206.98926
"2147",82.811325,207.00293
"2148",78.924545,207.0166
"2149",75.51629,207.03027
"2150",72.99672,207.04395
"2151",71.710075,207.05762
"2152",71.766235,207.07129
"2153",72.97475,207.08496
"2154",74.90349,207.09863
"2155",77.01289,207.1123
"2156",78.839096,207.12598
"2157",80.09888,207.13965
"2158",80.726326,207.15332
"2159",80.78493,207.16699
"2160",80.38453,207.18066
"2161",79.62768,207.19434
"2162",78.607155,207.20801
"2163",77.40841,207.22168
"2164",76.11688,207.23535
"2165",74.813156,207.24902
"2166",73.582664,207.2627
"2167",72.50111,207.27637
"2168",71.60998,207.29004
"2169",70.9044,207.30371
"2170",70.345314,207.31738
"2171",69.86923,207.33105
"2172",69.46395,207.34473
"2173",69.25155,207.3584
"2174",69.65194,207.37207
"2175",71.23155,207.38574
"2176",74.36393,207.39941
"2177",78.96605,207.41309
"2178",84.53498,207.42676
"2179",90.250404,207.44043
"2180",95.21629,207.4541
"2181",98.778366,207.46777
"2182",100.71931,207.48145
"2183",101.18318,207.49512
"2184",100.401924,207.50879
"2185",98.61234,207.52246
"2186",96.05371,207.53613
"2187",92.9604,207.5498
"2188",89.52529,207.56348
"2189",85.926605,207.57715
"2190",82.36942,207.59082
"2191",79.13451,207.60449
"2192",76.54658,207.61816
"2193",74.88884,207.63184
"2194",74.30045,207.64551
"2195",74.703285,207.65918
"2196",75.81659,207.67285
"2197",77.2375,207.68652
"2198",78.57053,207.7002
"2199",79.55932,207.71387
"2200",80.08667,207.72754
"2201",80.15503,207.74121
"2202",79.82544,207.75488
"2203",79.17601,207.76855
"2204",78.29221,207.78223
"2205",77.25704,207.7959
"2206",76.155945,207.80957
"2207",75.06462,207.82324
"2208",74.04166,207.83691
"2209",73.131,207.85059
"2210",72.3473,207.86426
"2211",71.6881,207.87793
"2212",71.12169,207.8916
"2213",70.6041,207.90527
"2214",70.10605,207.91895
"2215",69.607994,207.93262
"2216",69.1783,207.94629
"2217",69.08797,207.95996
"2218",69.82529,207.97363
"2219",71.8761,207.9873
"2220",75.40887,208.00098
"2221",80.184326,208.01465
"2222",85.60677,208.02832
"2223",90.84856,208.04199
"2224",95.12352,208.05566
"2225",97.96292,208.06934
"2226",99.2813,208.08301
"2227",99.23003,208.09668
"2228",98.03372,208.11035
"2229",95.938965,208.12402
"2230",93.204544,208.1377
"2231",90.06485,208.15137
"2232",86.72007,208.16504
"2233",83.370415,208.17871
"2234",80.25269,208.19238
"2235",77.6379,208.20605
"2236",75.77997,208.21973
"2237",74.83269,208.2334
"2238",74.77898,208.24707
"2239",75.42596,208.26074
"2240",76.45869,208.27441
"2241",77.53536,208.28809
"2242",78.399635,208.30176
"2243",78.91478,208.31543
"2244",79.03929,208.3291
"2245",78.79027,208.34277
"2246",78.22629,208.35645
"2247",77.41085,208.37012
"2248",76.42451,208.38379
"2249",75.34051,208.39746
"2250",74.23697,208.41113
"2251",73.19447,208.4248
"2252",72.2765,208.43848
"2253",71.52453,208.45215
"2254",70.94835,208.46582
"2255",70.53086,208.47949
"2256",70.220795,208.49316
"2257",69.959564,208.50684
"2258",69.691,208.52051
"2259",69.37118,208.53418
"2260",68.96834,208.54785
"2261",68.48005,208.56152
"2262",67.95026,208.5752
"2263",67.544975,208.58887
"2264",67.65728,208.60254
"2265",68.875565,208.61621
"2266",71.64904,208.62988
"2267",76.0119,208.64355
"2268",81.54177,208.65723
"2269",87.464714,208.6709
"2270",92.860306,208.68457
"2271",96.97414,208.69824
"2272",99.44976,208.71191
"2273",100.350655,208.72559
"2274",99.90143,208.73926
"2275",98.34867,208.75293
"2276",95.95361,208.7666
"2277",92.97261,208.78027
"2278",89.62539,208.79395
"2279",86.10971,208.80762
"2280",82.63554,208.82129
"2281",79.46166,208.83496
"2282",76.895706,208.84863
"2283",75.208664,208.8623
"2284",74.54215,208.87598
"2285",74.83513,208.88965
"2286",75.83856,208.90332
"2287",77.18623,208.91699
"2288",78.5095,208.93066
"2289",79.54223,208.94434
"2290",80.147705,208.95801
"2291",80.29664,208.97168
"2292",80.025635,208.98535
"2293",79.412834,208.99902
"2294",78.553444,209.0127
"2295",77.55001,209.02637
"2296",76.49287,209.04004
"2297",75.46014,209.05371
"2298",74.50797,209.06738
"2299",73.673,209.08105
"2300",72.96254,209.09473
"2301",72.36439,209.1084
"2302",71.84436,209.12207
"2303",71.36584,209.13574
"2304",70.87755,209.14941
"2305",70.35508,209.16309
"2306",69.79599,209.17676
"2307",69.239334,209.19043
"2308",68.85359,209.2041
"2309",69.014725,209.21777
"2310",70.22568,209.23145
"2311",72.850235,209.24512
"2312",76.87862,209.25879
"2313",81.898224,209.27246
"2314",87.19859,209.28613
"2315",91.96185,209.2998
"2316",95.5288,209.31348
"2317",97.618675,209.32715
"2318",98.28275,209.34082
"2319",97.706566,209.35449
"2320",96.112305,209.36816
"2321",93.729454,209.38184
"2322",90.775314,209.39551
"2323",87.447624,209.40918
"2324",83.93683,209.42285
"2325",80.479744,209.43652
"2326",77.37911,209.4502
"2327",73.54604,209.47754
"2328",73.216446,209.49121
"2329",73.87808,209.50488
"2330",75.21843,209.51855
"2331",76.82735,209.53223
"2332",78.311745,209.5459
"2333",79.40551,209.55957
"2334",80.00122,209.57324
"2335",80.09888,209.58691
"2336",79.764404,209.60059
"2337",79.08812,209.61426
"2338",78.17746,209.62793
"2339",77.13985,209.6416
"2340",76.068054,209.65527
"2341",75.0573,209.66895
"2342",74.16617,209.68262
"2343",73.4313,209.69629
"2344",72.85512,209.70996
"2345",72.41566,209.72363
"2346",72.06897,209.7373
"2347",71.75403,209.75098
"2348",71.412224,209.76465
"2349",71.00694,209.77832
"2350",70.53086,209.79199
"2351",70.047455,209.80566
"2352",69.7789,209.81934
"2353",70.19394,209.83301
"2354",71.81506,209.84668
"2355",74.93034,209.86035
"2356",79.412834,209.87402
"2357",84.749825,209.8877
"2358",90.1503,209.90137
"2359",94.75975,209.91504
"2360",97.98245,209.92871
"2361",99.632866,209.94238
"2362",99.828186,209.95605
"2363",98.80766,209.96973
"2364",96.83009,209.9834
"2365",94.15915,209.99707
"2366",91.036545,210.01074
"2367",87.65026,210.02441
"2368",84.17609,210.03809
"2369",80.8362,210.05176
"2370",77.91867,210.06543
"2371",75.72625,210.0791
"2372",74.49088,210.09277
"2373",74.26627,210.10645
"2374",74.90349,210.12012
"2375",76.09003,210.13379
"2376",77.435265,210.14746
"2377",78.607155,210.16113
"2378",79.40795,210.1748
"2379",79.77417,210.18848
"2380",79.71557,210.20215
"2381",79.30297,210.21582
"2382",78.6096,210.22949
"2383",77.71847,210.24316
"2384",76.70771,210.25684
"2385",75.66033,210.27051
"2386",74.65446,210.28418
"2387",73.74624,210.29785
"2388",72.97963,210.31152
"2389",72.36683,210.3252
"2390",71.905396,210.33887
"2391",71.570915,210.35254
"2392",71.33166,210.36621
"2393",71.14122,210.37988
"2394",70.963,210.39355
"2395",70.75304,210.40723
"2396",70.486916,210.4209
"2397",70.14511,210.43457
"2398",69.732506,210.44824
"2399",69.27352,210.46191
"2400",68.860916,210.47559
"2401",68.795,210.48926
"2402",69.6202,210.50293
"2403",71.89807,210.5166
"2404",75.84589,210.53027
"2405",81.19997,210.54395
"2406",87.29626,210.55762
"2407",93.204544,210.57129
"2408",98.0264,210.58496
"2409",101.207596,210.59863
"2410",102.67002,210.6123
"2411",102.59922,210.62598
"2412",101.263756,210.63965
"2413",98.968796,210.65332
"2414",96.03174,210.66699
"2415",92.733345,210.68066
"2416",89.2958,210.69434
"2417",85.90463,210.70801
"2418",82.7454,210.72168
"2419",80.03296,210.73535
"2420",77.98947,210.74902
"2421",76.77852,210.7627
"2422",76.42451,210.77637
"2423",76.807816,210.79004
"2424",77.66476,210.80371
"2425",78.68528,210.81738
"2426",79.59838,210.83105
"2427",80.235596,210.84473
"2428",80.50172,210.8584
"2429",80.38697,210.87207
"2430",79.92554,210.88574
"2431",79.17845,210.89941
"2432",78.21408,210.91309
"2433",77.11543,210.92676
"2434",75.96063,210.94043
"2435",74.84001,210.9541
"2436",73.812164,210.96777
"2437",72.92836,210.98145
"2438",72.21057,210.99512
"2439",71.65148,211.00879
"2440",71.22179,211.02246
"2441",70.88243,211.03613
"2442",70.57725,211.0498
"2443",70.26475,211.06348
"2444",69.910736,211.07715
"2445",69.47372,211.09082
"2446",68.946365,211.10449
"2447",68.34333,211.11816
"2448",67.73052,211.13184
"2449",67.29595,211.14551
"2450",67.474174,211.15918
"2451",68.86824,211.17285
"2452",71.91272,211.18652
"2453",76.58076,211.2002
"2454",82.388954,211.21387
"2455",88.50721,211.22754
"2456",93.978485,211.24121
"2457",98.03372,211.25488
"2458",100.367744,211.26855
"2459",101.07332,211.28223
"2460",100.404366,211.2959
"2461",98.62943,211.30957
"2462",96.026855,211.32324
"2463",92.86275,211.33691
"2464",89.37881,211.35059
"2465",85.77524,211.36426
"2466",82.24979,211.37793
"2467",79.04173,211.3916
"2468",76.436714,211.40527
"2469",74.69596,211.41895
"2470",73.96109,211.43262
"2471",74.195465,211.44629
"2472",75.18181,211.45996
"2473",76.55634,211.47363
"2474",77.943085,211.4873
"2475",79.05394,211.50098
"2476",79.73754,211.51465
"2477",79.96216,211.52832
"2478",79.766846,211.54199
"2479",79.219955,211.55566
"2480",78.40696,211.56934
"2481",77.40841,211.58301
"2482",76.30976,211.59668
"2483",75.19646,211.61035
"2484",74.15396,211.62402
"2485",73.2433,211.6377
"2486",72.50111,211.65137
"2487",71.92493,211.66504
"2488",71.47326,211.67871
"2489",71.09483,211.69238
"2490",70.728615,211.70605
"2491",70.34043,211.71973
"2492",69.91562,211.7334
"2493",69.44686,211.74707
"2494",68.93904,211.76074
"2495",68.419014,211.77441
"2496",68.001526,211.78809
"2497",68.07477,211.80176
"2498",69.26864,211.81543
"2499",72.09094,211.8291
"2500",76.60273,211.84277
"2501",82.337685,211.85645
"2502",88.46082,211.87012
"2503",93.95651,211.88379
"2504",97.99222,211.89746
"2505",100.23346,211.91113
"2506",100.80965,211.9248
"2507",100.016174,211.93848
"2508",98.13382,211.95215
"2509",95.42382,211.96582
"2510",92.122986,211.97949
"2511",88.42176,211.99316
"2512",84.505684,212.00684
"2513",80.59449,212.02051
"2514",76.995804,212.03418
"2515",74.08072,212.04785
"2516",72.22522,212.06152
"2517",71.65148,212.0752
"2518",72.33997,212.08887
"2519",73.985504,212.10254
"2520",76.10956,212.11621
"2521",78.21164,212.12988
"2522",79.91333,212.14355
"2523",81.01198,212.15723
"2524",81.480736,212.1709
"2525",81.38308,212.18457
"2526",80.833755,212.19824
"2527",79.94995,212.21191
"2528",78.84154,212.22559
"2529",77.62325,212.23926
"2530",76.402534,212.25293
"2531",75.26238,212.2666
"2532",74.268715,212.28027
"2533",73.47036,212.29395
"2534",72.86488,212.30762
"2535",72.430305,212.32129
"2536",72.10559,212.33496
"2537",71.837036,212.34863
"2538",71.56115,212.3623
"2539",71.22423,212.37598
"2540",70.79454,212.38965
"2541",70.26475,212.40332
"2542",69.65438,212.41699
"2543",69.05379,212.43066
"2544",68.76326,212.44434
"2545",69.38094,212.45801
"2546",71.56603,212.47168
"2547",75.6115,212.48535
"2548",81.23659,212.49902
"2549",87.691765,212.5127
"2550",93.95651,212.52637
"2551",99.017624,212.54004
"2552",102.27207,212.55371
"2553",103.66613,212.56738
"2554",103.48058,212.58105
"2555",102.0206,212.59473
"2556",99.56451,212.6084
"2557",96.3711,212.62207
"2558",92.67719,212.63574
"2559",88.69764,212.64941
"2560",84.62531,212.66309
"2561",80.70435,212.67676
"2562",77.25948,212.69043
"2563",74.6569,212.7041
"2564",73.19447,212.71777
"2565",72.99184,212.73145
"2566",73.90494,212.74512
"2567",75.562675,212.75879
"2568",77.48409,212.77246
"2569",79.22484,212.78613
"2570",80.49195,212.7998
"2571",81.17067,212.81348
"2572",81.270775,212.82715
"2573",80.86305,212.84082
"2574",80.05005,212.85449
"2575",78.94896,212.86816
"2576",77.68185,212.88184
"2577",76.37812,212.89551
"2578",75.13786,212.90918
"2579",74.04166,212.92285
"2580",73.126114,212.93652
"2581",72.38392,212.9502
"2582",71.783325,212.96387
"2583",71.30236,212.97754
"2584",70.91905,212.99121
"2585",70.61387,213.00488
"2586",70.37461,213.01855
"2587",70.18417,213.03223
"2588",70.00839,213.0459
"2589",69.79355,213.05957
"2590",69.49569,213.07324
"2591",69.09285,213.08691
"2592",68.57282,213.10059
"2593",67.97711,213.11426
"2594",67.439995,213.12793
"2595",67.37408,213.1416
"2596",68.53376,213.15527
"2597",71.63439,213.16895
"2598",76.859085,213.18262
"2599",83.70733,213.19629
"2600",91.192795,213.20996
"2601",98.092316,213.22363
"2602",103.33654,213.2373
"2603",106.4152,213.25098
"2604",107.47234,213.26465
"2605",106.915695,213.27832
"2606",105.09926,213.29199
"2607",102.313576,213.30566
"2608",98.84184,213.31934
"2609",94.94774,213.33301
"2610",90.85344,213.34668
"2611",86.7567,213.36035
"2612",82.85771,213.37402
"2613",79.41772,213.3877
"2614",76.74433,213.40137
"2615",75.0988,213.41504
"2616",74.617836,213.42871
"2617",75.211105,213.44238
"2618",76.578316,213.45605
"2619",78.28001,213.46973
"2620",79.88159,213.4834
"2621",81.077896,213.49707
"2622",81.73464,213.51074
"2623",81.85916,213.52441
"2624",81.532005,213.53809
"2625",80.85329,213.55176
"2626",79.903564,213.56543
"2627",78.751205,213.5791
"2628",77.454796,213.59277
"2629",76.087585,213.60645
"2630",74.72282,213.62012
"2631",73.43862,213.63379
"2632",72.30091,213.64746
"2633",71.360954,213.66113
"2634",70.63096,213.6748
"2635",70.0914,213.68848
"2636",69.698326,213.70215
"2637",69.39315,213.71582
"2638",69.119705,213.72949
"2639",68.81697,213.74316
"2640",68.45075,213.75684
"2641",68.00397,213.77051
"2642",67.48882,213.78418
"2643",66.92729,213.79785
"2644",66.41703,213.81152
"2645",66.24124,213.8252
"2646",67.02251,213.83887
"2647",69.52987,213.85254
"2648",74.158844,213.86621
"2649",80.62867,213.87988
"2650",88.079956,213.89355
"2651",95.33837,213.90723
"2652",101.224686,213.9209
"2653",104.99916,213.93457
"2654",106.59342,213.94824
"2655",106.39567,213.96191
"2656",104.82582,213.97559
"2657",102.1915,213.98926
"2658",98.77104,214.00293
"2659",94.80858,214.0166
"2660",90.528725,214.03027
"2661",86.12924,214.04395
"2662",81.81766,214.05762
"2663",77.84543,214.07129
"2664",74.54215,214.08496
"2665",72.24475,214.09863
"2666",71.19493,214.1123
"2667",71.43908,214.12598
"2668",72.764786,214.13965
"2669",74.759445,214.15332
"2670",76.92012,214.16699
"2671",78.80736,214.18066
"2672",80.14282,214.19434
"2673",80.8069,214.20801
"2674",80.82643,214.22168
"2675",80.28687,214.23535
"2676",79.310295,214.24902
"2677",78.01877,214.2627
"2678",76.53193,214.27637
"2679",74.966965,214.29004
"2680",73.426414,214.30371
"2681",72.00305,214.31738
"2682",70.77257,214.33105
"2683",69.77646,214.34473
"2684",69.01961,214.3584
"2685",68.45808,214.37207
"2686",68.02838,214.38574
"2687",67.66216,214.39941
"2688",67.30572,214.41309
"2689",66.91753,214.42676
"2690",66.47074,214.44043
"2691",65.97513,214.4541
"2692",65.45754,214.46777
"2693",65.04982,214.48145
"2694",65.164566,214.49512
"2695",66.57572,214.50879
"2696",70.04013,214.52246
"2697",75.76044,214.53613
"2698",83.17265,214.5498
"2699",91.15617,214.56348
"2700",98.38529,214.57715
"2701",103.71496,214.59082
"2702",106.6276,214.60449
"2703",107.33318,214.61816
"2704",106.35905,214.63184
"2705",104.147095,214.64551
"2706",100.997635,214.65918
"2707",97.13039,214.67285
"2708",92.75044,214.68652
"2709",88.0531,214.7002
"2710",83.25323,214.71387
"2711",78.61448,214.72754
"2712",74.486,214.74121
"2713",71.28039,214.75488
"2714",69.37606,214.76855
"2715",69.01228,214.78223
"2716",70.16464,214.7959
"2717",72.51087,214.80957
"2718",75.491875,214.82324
"2719",78.47288,214.83691
"2720",80.92653,214.85059
"2721",82.52567,214.86426
"2722",83.18486,214.87793
"2723",82.99931,214.8916
"2724",82.161896,214.90527
"2725",80.88014,214.91895
"2726",79.33715,214.93262
"2727",77.68917,214.94629
"2728",76.070496,214.95996
"2729",74.58366,214.97363
"2730",73.29702,214.9873
"2731",72.234985,215.00098
"2732",71.39269,215.01465
"2733",70.74326,215.02832
"2734",70.233,215.04199
"2735",69.81064,215.05566
"2736",69.420006,215.06934
"2737",69.017166,215.08301
"2738",68.58015,215.09668
"2739",68.138245,215.11035
"2740",67.85016,215.12402
"2741",68.1944,215.1377
"2742",69.93759,215.15137
"2743",73.70962,215.16504
"2744",79.53002,215.17871
"2745",86.727394,215.19238
"2746",94.1738,215.20605
"2747",100.607,215.21973
"2748",105.05531,215.2334
"2749",107.211105,215.24707
"2750",107.37713,215.26074
"2751",106.05142,215.27441
"2752",103.60998,215.28809
"2753",100.30183,215.30176
"2754",96.31251,215.31543
"2755",91.81537,215.3291
"2756",87.00084,215.34277
"2757",82.11063,215.35645
"2758",77.47921,215.37012
"2759",73.52163,215.38379
"2760",70.67979,215.39746
"2761",69.31747,215.41113
"2762",69.576256,215.4248
"2763",71.28039,215.43848
"2764",73.96597,215.45215
"2765",77.01045,215.46582
"2766",79.80347,215.47949
"2767",81.90311,215.49316
"2768",83.104294,215.50684
"2769",83.43145,215.52051
"2770",83.018845,215.53418
"2771",82.05203,215.54785
"2772",80.706795,215.56152
"2773",79.132065,215.5752
"2774",77.45968,215.58887
"2775",75.81415,215.60254
"2776",74.302895,215.61621
"2777",72.989395,215.62988
"2778",71.90051,215.64355
"2779",71.028915,215.65723
"2780",70.345314,215.6709
"2781",69.79355,215.68457
"2782",69.312584,215.69824
"2783",68.84627,215.71191
"2784",68.34577,215.72559
"2785",67.808655,215.73926
"2786",67.3814,215.75293
"2787",67.54986,215.7666
"2788",69.15144,215.78027
"2789",72.91615,215.79395
"2790",78.9099,215.80762
"2791",86.44175,215.82129
"2792",94.330055,215.83496
"2793",101.222244,215.84863
"2794",106.04654,215.8623
"2795",108.44892,215.87598
"2796",108.754105,215.88965
"2797",107.51385,215.90332
"2798",105.13344,215.91699
"2799",101.88632,215.93066
"2800",97.99466,215.94434
"2801",93.64645,215.95801
"2802",89.022354,215.97168
"2803",84.334785,215.98535
"2804",79.85962,215.99902
"2805",75.9704,216.0127
"2806",73.074844,216.02637
"2807",71.50988,216.04004
"2808",71.42931,216.05371
"2809",72.69398,216.06738
"2810",74.88884,216.08105
"2811",77.44747,216.09473
"2812",79.81079,216.1084
"2813",81.57351,216.12207
"2814",82.54276,216.13574
"2815",82.7161,216.14941
"2816",82.22537,216.16309
"2817",81.24147,216.17676
"2818",79.93042,216.19043
"2819",78.42649,216.2041
"2820",76.84444,216.21777
"2821",75.27459,216.23145
"2822",73.79996,216.24512
"2823",72.47913,216.25879
"2824",71.360954,216.27246
"2825",70.46006,216.28613
"2826",69.749596,216.2998
"2827",69.16853,216.31348
"2828",68.648506,216.32715
"2829",68.11871,216.34082
"2830",67.54742,216.35449
"2831",66.95415,216.36816
"2832",66.51469,216.38184
"2833",66.73197,216.39551
"2834",68.404366,216.40918
"2835",72.164185,216.42285
"2836",78.011444,216.43652
"2837",85.25521,216.4502
"2838",92.74555,216.46387
"2839",99.21538,216.47754
"2840",103.6881,216.49121
"2841",105.87076,216.50488
"2842",106.07828,216.51855
"2843",104.81117,216.53223
"2844",102.44541,216.5459
"2845",99.25445,216.55957
"2846",95.46044,216.57324
"2847",91.25872,216.58691
"2848",86.820175,216.60059
"2849",82.357216,216.61426
"2850",78.153046,216.62793
"2851",74.59098,216.6416
"2852",72.09338,216.65527
"2853",71.00206,216.66895
"2854",71.42199,216.68262
"2855",73.1432,216.69629
"2856",75.67498,216.70996
"2857",78.399635,216.72363
"2858",80.765396,216.7373
"2859",82.41581,216.75098
"2860",83.23857,216.76465
"2861",83.302055,216.77832
"2862",82.76494,216.79199
"2863",81.79324,216.80566
"2864",80.53101,216.81934
"2865",79.11009,216.83301
"2866",77.645226,216.84668
"2867",76.241394,216.86035
"2868",74.966965,216.87402
"2869",73.86099,216.8877
"2870",72.92348,216.90137
"2871",72.1178,216.91504
"2872",71.395134,216.92871
"2873",70.69688,216.94238
"2874",69.98154,216.95605
"2875",69.23445,216.96973
"2876",68.50446,216.9834
"2877",68.06256,216.99707
"2878",68.4947,217.01074
"2879",70.51621,217.02441
"2880",74.48844,217.03809
"2881",80.15015,217.05176
"2882",86.70786,217.06543
"2883",93.07027,217.0791
"2884",98.168,217.09277
"2885",101.35653,217.10645
"2886",102.59922,217.12012
"2887",102.26475,217.13379
"2888",100.733955,217.14746
"2889",98.287636,217.16113
"2890",95.15282,217.1748
"2891",91.52239,217.18848
"2892",87.56481,217.20215
"2893",83.46807,217.21582
"2894",79.49096,217.22949
"2895",75.97284,217.24316
"2896",73.304344,217.25684
"2897",71.82727,217.27051
"2898",71.6881,217.28418
"2899",72.77211,217.29785
"2900",74.69596,217.31152
"2901",76.946976,217.3252
"2902",79.027084,217.33887
"2903",80.587166,217.35254
"2904",81.461205,217.36621
"2905",81.66384,217.37988
"2906",81.287865,217.39355
"2907",80.47242,217.40723
"2908",79.34936,217.4209
"2909",78.05295,217.43457
"2910",76.700386,217.44824
"2911",75.39422,217.46191
"2912",74.212555,217.47559
"2913",73.2018,217.48926
"2914",72.37415,217.50293
"2915",71.71496,217.5166
"2916",71.18028,217.53027
"2917",70.70908,217.54395
"2918",70.233,217.55762
"2919",69.70565,217.57129
"2920",69.10994,217.58496
"2921",68.54841,217.59863
"2922",68.3653,217.6123
"2923",69.224686,217.62598
"2924",71.75647,217.63965
"2925",76.155945,217.65332
"2926",82.01053,217.66699
"2927",88.47547,217.68066
"2928",94.486305,217.69434
"2929",99.08598,217.70801
"2930",101.81552,217.72168
"2931",102.77501,217.73535
"2932",102.313576,217.74902
"2933",100.755936,217.7627
"2934",98.36088,217.77637
"2935",95.36523,217.79004
"2936",91.966736,217.80371
"2937",88.341194,217.81738
"2938",84.6717,217.83105
"2939",81.20241,217.84473
"2940",78.23361,217.8584
"2941",76.087585,217.87207
"2942",74.98894,217.88574
"2943",74.97185,217.89941
"2944",75.85321,217.91309
"2945",77.264366,217.92676
"2946",78.77562,217.94043
"2947",80.02319,217.9541
"2948",80.799576,217.96777
"2949",81.0486,217.98145
"2950",80.82155,217.99512
"2951",80.21362,218.00879
"2952",79.3225,218.02246
"2953",78.23605,218.03613
"2954",77.03487,218.0498
"2955",75.79462,218.06348
"2956",74.581215,218.07715
"2957",73.45815,218.09082
"2958",72.48402,218.10449
"2959",71.67834,218.11816
"2960",71.03624,218.13184
"2961",70.51621,218.14551
"2962",70.05966,218.15918
"2963",69.59579,218.17285
"2964",69.07576,218.18652
"2965",68.50202,218.2002
"2966",67.981995,218.21387
"2967",67.86481,218.22754
"2968",68.75105,218.24121
"2969",71.20714,218.25488
"2970",75.37713,218.26855
"2971",80.88014,218.28223
"2972",86.94957,218.2959
"2973",92.613716,218.30957
"2974",97.005875,218.32324
"2975",99.70367,218.33691
"2976",100.74616,218.35059
"2977",100.41169,218.36426
"2978",98.97612,218.37793
"2979",96.70069,218.3916
"2980",93.839325,218.40527
"2981",90.63126,218.41895
"2982",87.276726,218.43262
"2983",83.96857,218.44629
"2984",80.92653,218.45996
"2985",78.399635,218.47363
"2986",76.6247,218.4873
"2987",75.74822,218.50098
"2988",75.75311,218.51465
"2989",76.45869,218.52832
"2990",77.56222,218.54199
"2991",78.7219,218.55566
"2992",79.676506,218.56934
"2993",80.274666,218.58301
"2994",80.462654,218.59668
"2995",80.2478,218.61035
"2996",79.67895,218.62402
"2997",78.82933,218.6377
"2998",77.789276,218.65137
"2999",76.65156,218.66504
"3000",75.49676,218.67871
"3001",74.39323,218.69238
"3002",73.392235,218.70605
"3003",72.532845,218.71973
"3004",71.83215,218.7334
"3005",71.27795,218.74707
"3006",70.84581,218.76074
"3007",70.484474,218.77441
"3008",70.13779,218.78809
"3009",69.75937,218.80176
"3010",69.32235,218.81543
"3011",68.81453,218.8291
"3012",68.25056,218.84277
"3013",67.684135,218.85645
"3014",67.2813,218.87012
"3015",67.44976,218.88379
"3016",68.795,218.89746
"3017",71.776,218.91113
"3018",76.38056,218.9248
"3019",82.11063,218.93848
"3020",88.131226,218.95215
"3021",93.46822,218.96582
"3022",97.36233,218.97949
"3023",99.525444,218.99316
"3024",100.10162,219.00684
"3025",99.3814,219.02051
"3026",97.65041,219.03418
"3027",95.1577,219.04785
"3028",92.14252,219.06152
"3029",88.817276,219.0752
"3030",85.35775,219.08887
"3031",81.95438,219.10254
"3032",78.83177,219.11621
"3033",76.2707,219.12988
"3034",74.53239,219.14355
"3035",73.777985,219.15723
"3036",73.99527,219.1709
"3037",74.97917,219.18457
"3038",76.3708,219.19824
"3039",77.78439,219.21191
"3040",78.91722,219.22559
"3041",79.59838,219.23926
"3042",79.79126,219.25293
"3043",79.53979,219.2666
"3044",78.92943,219.28027
"3045",78.05051,219.29395
"3046",76.9836,219.30762
"3047",75.80438,219.32129
"3048",74.58366,219.33496
"3049",73.411766,219.34863
"3050",72.35462,219.3623
"3051",71.46349,219.37598
"3052",70.76036,219.38965
"3053",70.233,219.40332
"3054",69.84238,219.41699
"3055",69.5201,219.43066
"3056",69.21492,219.44434
"3057",68.87068,219.45801
"3058",68.46052,219.47168
"3059",67.97467,219.48535
"3060",67.44732,219.49902
"3061",66.949265,219.5127
"3062",66.71244,219.52637
"3063",67.227585,219.54004
"3064",69.12459,219.55371
"3065",72.76967,219.56738
"3066",78.011444,219.58105
"3067",84.19806,219.59473
"3068",90.38468,219.6084
"3069",95.587395,219.62207
"3070",99.125046,219.63574
"3071",100.83894,219.64941
"3072",100.9781,219.66309
"3073",99.87213,219.67676
"3074",97.78226,219.69043
"3075",94.942856,219.7041
"3076",91.56634,219.71777
"3077",87.84558,219.73145
"3078",83.97345,219.74512
"3079",80.19653,219.75879
"3080",76.84932,219.77246
"3081",74.30045,219.78613
"3082",72.86488,219.7998
"3083",72.67933,219.81348
"3084",73.63882,219.82715
"3085",75.39422,219.84082
"3086",77.469444,219.85449
"3087",79.41039,219.86816
"3088",80.89967,219.88184
"3089",81.795685,219.89551
"3090",82.08865,219.90918
"3091",81.85184,219.92285
"3092",81.1902,219.93652
"3093",80.21362,219.9502
"3094",79.03441,219.96387
"3095",77.76486,219.97754
"3096",76.50263,219.99121
"3097",75.33074,220.00488
"3098",74.29069,220.01855
"3099",73.38491,220.03223
"3100",72.601204,220.0459
"3101",71.90051,220.05957
"3102",71.2462,220.07324
"3103",70.60166,220.08691
"3104",69.97177,220.10059
"3105",69.41024,220.11426
"3106",69.10994,220.12793
"3107",69.50057,220.1416
"3108",71.116806,220.15527
"3109",74.28336,220.16895
"3110",78.88304,220.18262
"3111",84.3592,220.19629
"3112",89.88663,220.20996
"3113",94.588844,220.22363
"3114",97.848175,220.2373
"3115",99.49859,220.25098
"3116",99.72076,220.26465
"3117",98.79057,220.27832
"3118",96.9424,220.29199
"3119",94.374,220.30566
"3120",91.244064,220.31934
"3121",87.70397,220.33301
"3122",83.931946,220.34668
"3123",80.18921,220.36035
"3124",76.839554,220.37402
"3125",74.28336,220.3877
"3126",72.85756,220.40137
"3127",72.70374,220.41504
"3128",73.69253,220.42871
"3129",75.45281,220.44238
"3130",77.486534,220.45605
"3131",79.34203,220.46973
"3132",80.706795,220.4834
"3133",81.45144,220.49707
"3134",81.59548,220.51074
"3135",81.231705,220.52441
"3136",80.46021,220.53809
"3137",79.3933,220.55176
"3138",78.14328,220.56543
"3139",76.83223,220.5791
"3140",75.577324,220.59277
"3141",74.478676,220.60645
"3142",73.585106,220.62012
"3143",72.89906,220.63379
"3144",72.379036,220.64746
"3145",71.94934,220.66113
"3146",71.536736,220.6748
"3147",71.08263,220.68848
"3148",70.56992,220.70215
"3149",70.01816,220.71582
"3150",69.5787,220.72949
"3151",69.64217,220.74316
"3152",70.838486,220.75684
"3153",73.66811,220.77051
"3154",78.187225,220.78418
"3155",83.93439,220.79785
"3156",90.07706,220.81152
"3157",95.61669,220.8252
"3158",99.73052,220.83887
"3159",102.066986,220.85254
"3160",102.74082,220.86621
"3161",102.066986,220.87988
"3162",100.33845,220.89355
"3163",97.81644,220.90723
"3164",94.74998,220.9209
"3165",91.351494,220.93457
"3166",87.801636,220.94824
"3167",84.283516,220.96191
"3168",81.041275,220.97559
"3169",78.365456,220.98926
"3170",76.52216,221.00293
"3171",75.67254,221.0166
"3172",75.79706,221.03027
"3173",76.68574,221.04395
"3174",77.98459,221.05762
"3175",79.31518,221.07129
"3176",80.37476,221.08496
"3177",80.990005,221.09863
"3178",81.109634,221.1123
"3179",80.76784,221.12598
"3180",80.03784,221.13965
"3181",79.029526,221.15332
"3182",77.855194,221.16699
"3183",76.6247,221.18066
"3184",75.421074,221.19434
"3185",74.319984,221.20801
"3186",73.37026,221.22168
"3187",72.58167,221.23535
"3188",71.95178,221.24902
"3189",71.448845,221.2627
"3190",71.026474,221.27637
"3191",70.63828,221.29004
"3192",70.240326,221.30371
"3193",69.788666,221.31738
"3194",69.2662,221.33105
"3195",68.68757,221.34473
"3196",68.15045,221.3584
"3197",67.97223,221.37207
"3198",68.75105,221.38574
"3199",71.09239,221.39941
"3200",75.20622,221.41309
"3201",80.77028,221.42676
"3202",87.027695,221.44043
"3203",92.982376,221.4541
"3204",97.69436,221.46777
"3205",100.65095,221.48145
"3206",101.85947,221.49512
"3207",101.60311,221.50879
"3208",100.191956,221.52246
"3209",97.918976,221.53613
"3210",95.0576,221.5498
"3211",91.83978,221.56348
"3212",88.45838,221.57715
"3213",85.08186,221.59082
"3214",81.91531,221.60449
"3215",79.200424,221.61816
"3216",77.171585,221.63184
"3217",75.98993,221.64551
"3218",75.67986,221.65918
"3219",76.09735,221.67285
"3220",76.97627,221.68652
"3221",78.00168,221.7002
"3222",78.905014,221.71387
"3223",79.5227,221.72754
"3224",79.77417,221.74121
"3225",79.65209,221.75488
"3226",79.19798,221.76855
"3227",78.470436,221.78223
"3228",77.54513,221.7959
"3229",76.49775,221.80957
"3230",75.39422,221.82324
"3231",74.29313,221.83691
"3232",73.253075,221.85059
"3233",72.32044,221.86426
"3234",71.534294,221.87793
"3235",70.90929,221.8916
"3236",70.42588,221.90527
"3237",70.05966,221.91895
"3238",69.76181,221.93262
"3239",69.49325,221.94629
"3240",69.21736,221.95996
"3241",68.91951,221.97363
"3242",68.58015,221.9873
"3243",68.18707,222.00098
"3244",67.74029,222.01465
"3245",67.266655,222.02832
"3246",66.89311,222.04199
"3247",66.983444,222.05566
"3248",68.172424,222.06934
"3249",71.0338,222.08301
"3250",75.68963,222.09668
"3251",81.7029,222.11035
"3252",88.233765,222.12402
"3253",94.2446,222.1377
"3254",98.82231,222.15137
"3255",101.53475,222.16504
"3256",102.47471,222.17871
"3257",101.96445,222.19238
"3258",100.31403,222.20605
"3259",97.80911,222.21973
"3260",94.72312,222.2334
"3261",91.300224,222.24707
"3262",87.73571,222.26074
"3263",84.22003,222.27441
"3264",80.96071,222.28809
"3265",78.20676,222.30176
"3266",76.207214,222.31543
"3267",75.13298,222.3291
"3268",75.00847,222.34277
"3269",75.665215,222.35645
"3270",76.805374,222.37012
"3271",78.0676,222.38379
"3272",79.14671,222.39746
"3273",79.84985,222.41113
"3274",80.10376,222.4248
"3275",79.937744,222.43848
"3276",79.40307,222.45215
"3277",78.5803,222.46582
"3278",77.54757,222.47949
"3279",76.39277,222.49316
"3280",75.18913,222.50684
"3281",74.00992,222.52051
"3282",72.91371,222.53418
"3283",71.95422,222.54785
"3284",71.15831,222.56152
"3285",70.52598,222.5752
"3286",70.03525,222.58887
"3287",69.6495,222.60254
"3288",69.32723,222.61621
"3289",69.02449,222.62988
"3290",68.7071,222.64355
"3291",68.34089,222.65723
"3292",67.90143,222.6709
"3293",67.37652,222.68457
"3294",66.795456,222.69824
"3295",66.23392,222.71191
"3296",65.96536,222.72559
"3297",66.57572,222.73926
"3298",68.773026,222.75293
"3299",72.92836,222.7666
"3300",78.81224,222.78027
"3301",85.64095,222.79395
"3302",92.34272,222.80762
"3303",97.8262,222.82129
"3304",101.402916,222.83496
"3305",102.992294,222.84863
"3306",102.923935,222.8623
"3307",101.5787,222.87598
"3308",99.25689,222.88965
"3309",96.20996,222.90332
"3310",92.662544,222.91699
"3311",88.800186,222.93066
"3312",84.805984,222.94434
"3313",80.90456,222.95801
"3314",77.3962,222.97168
"3315",74.64225,222.98535
"3316",72.97719,222.99902
"3317",72.57679,223.0127
"3318",73.37759,223.02637
"3319",75.05974,223.04004
"3320",77.14229,223.05371
"3321",79.13451,223.06738
"3322",80.672615,223.08105
"3323",81.566185,223.09473
"3324",81.80301,223.1084
"3325",81.47341,223.12207
"3326",80.70191,223.13574
"3327",79.61547,223.14941
"3328",78.328835,223.16309
"3329",76.946976,223.17676
"3330",75.56756,223.19043
"3331",74.27116,223.2041
"3332",73.11635,223.21777
"3333",72.13977,223.23145
"3334",71.346306,223.24512
"3335",70.71397,223.25879
"3336",70.19638,223.27246
"3337",69.730064,223.28613
"3338",69.263756,223.2998
"3339",68.74616,223.31348
"3340",68.16754,223.32715
"3341",67.596245,223.34082
"3342",67.27154,223.35449
"3343",67.72808,223.36816
"3344",69.644615,223.38184
"3345",73.42397,223.39551
"3346",78.89281,223.40918
"3347",85.3431,223.42285
"3348",91.75189,223.43652
"3349",97.06691,223.4502
"3350",100.58747,223.46387
"3351",102.17929,223.47754
"3352",102.14267,223.49121
"3353",100.84627,223.50488
"3354",98.57328,223.51855
"3355",95.54833,223.53223
"3356",91.95209,223.5459
"3357",87.940796,223.55957
"3358",83.700005,223.57324
"3359",79.47631,223.58691
"3360",75.62615,223.60059
"3361",72.5597,223.61426
"3362",70.674904,223.62793
"3363",70.21347,223.6416
"3364",71.13878,223.65527
"3365",73.128555,223.66895
"3366",75.665215,223.68262
"3367",78.187225,223.69629
"3368",80.24048,223.70996
"3369",81.57595,223.72363
"3370",82.13504,223.7373
"3371",82.00076,223.75098
"3372",81.3196,223.76465
"3373",80.235596,223.77832
"3374",78.890366,223.79199
"3375",77.420616,223.80566
"3376",75.95575,223.81934
"3377",74.60319,223.83301
"3378",73.4313,223.84668
"3379",72.464485,223.86035
"3380",71.69543,223.87402
"3381",71.08507,223.8877
"3382",70.56992,223.90137
"3383",70.09384,223.91504
"3384",69.60311,223.92871
"3385",69.068436,223.94238
"3386",68.509346,223.95605
"3387",68.11139,223.96973
"3388",68.38239,223.9834
"3389",70.06943,223.99707
"3390",73.72915,224.01074
"3391",79.30541,224.02441
"3392",86.11215,224.03809
"3393",93.07759,224.05176
"3394",99.04204,224.06543
"3395",103.14122,224.0791
"3396",105.14809,224.09277
"3397",105.358055,224.10645
"3398",104.200806,224.12012
"3399",102.00351,224.13379
"3400",99.0103,224.14746
"3401",95.43847,224.16113
"3402",91.473564,224.1748
"3403",87.29626,224.18848
"3404",83.11894,224.20215
"3405",79.22728,224.21582
"3406",75.98749,224.22949
"3407",73.76578,224.24316
"3408",72.813614,224.25684
"3409",73.15785,224.27051
"3410",74.56168,224.28418
"3411",76.578316,224.29785
"3412",78.695045,224.31152
"3413",80.47242,224.3252
"3414",81.64187,224.33887
"3415",82.12283,224.35254
"3416",81.96414,224.36621
"3417",81.287865,224.37988
"3418",80.233154,224.39355
"3419",78.92943,224.40723
"3420",77.4963,224.4209
"3421",76.04364,224.43457
"3422",74.65934,224.44824
"3423",73.41665,224.46191
"3424",72.35218,224.47559
"3425",71.483025,224.48926
"3426",70.78722,224.50293
"3427",70.22812,224.5166
"3428",69.749596,224.53027
"3429",69.297935,224.54395
"3430",68.824295,224.55762
"3431",68.299385,224.57129
"3432",67.754944,224.58496
"3433",67.42779,224.59863
"3434",67.913635,224.6123
"3435",70.00351,224.62598
"3436",74.16617,224.63965
"3437",80.216064,224.65332
"3438",87.34753,224.66699
"3439",94.41062,224.68066
"3440",100.223694,224.69434
"3441",104.007935,224.70801
"3442",105.66079,224.72168
"3443",105.56069,224.73535
"3444",104.13489,224.74902
"3445",101.712975,224.7627
"3446",98.5684,224.77637
"3447",94.942856,224.79004
"3448",91.04143,224.80371
"3449",87.03258,224.81738
"3450",83.104294,224.83105
"3451",79.51293,224.84473
"3452",76.57343,224.8584
"3453",74.60319,224.87207
"3454",73.80484,224.88574
"3455",74.16617,224.89941
"3456",75.440605,224.91309
"3457",77.205765,224.92676
"3458",79.00511,224.94043
"3459",80.462654,224.9541
"3460",81.373314,224.96777
"3461",81.68093,224.98145
"3462",81.449,224.99512
"3463",80.77272,225.00879
"3464",79.76929,225.02246
"3465",78.54368,225.03613
"3466",77.196,225.0498
"3467",75.81171,225.06348
"3468",74.47379,225.07715
"3469",73.2604,225.09082
"3470",72.21301,225.10449
"3471",71.34875,225.11816
"3472",70.64805,225.13184
"3473",70.07187,225.14551
"3474",69.559166,225.15918
"3475",69.05379,225.17285
"3476",68.51667,225.18652
"3477",67.9234,225.2002
"3478",67.2813,225.21387
"3479",66.71,225.22754
"3480",66.59281,225.24121
"3481",67.63775,225.25488
"3482",70.54063,225.26855
"3483",75.491875,225.28223
"3484",82.01541,225.2959
"3485",89.146866,225.30957
"3486",95.692375,225.32324
"3487",100.611885,225.33691
"3488",103.42199,225.35059
"3489",104.26917,225.36426
"3490",103.588005,225.37793
"3491",101.76425,225.3916
"3492",99.0811,225.40527
"3493",95.79248,225.41895
"3494",92.11322,225.43262
"3495",88.233765,225.44629
"3496",84.332344,225.45996
"3497",80.635994,225.47363
"3498",77.4255,225.4873
"3499",75.01579,225.50098
"3500",73.651024,225.51465
"3501",73.426414,225.52832
"3502",74.20523,225.54199
"3503",75.66033,225.55566
"3504",77.35958,225.56934
"3505",78.91234,225.58301
"3506",80.045166,225.59668
"3507",80.638435,225.61035
"3508",80.68238,225.62402
"3509",80.24292,225.6377
"3510",79.40063,225.65137
"3511",78.25071,225.66504
"3512",76.89815,225.67871
"3513",75.440605,225.69238
"3514",73.98306,225.70605
"3515",72.603645,225.71973
"3516",71.37072,225.7334
"3517",70.328224,225.74707
"3518",69.48592,225.76074
"3519",68.83162,225.77441
"3520",68.333565,225.78809
"3521",67.94293,225.80176
"3522",67.62066,225.81543
"3523",67.31304,225.8291
"3524",66.97856,225.84277
"3525",66.583046,225.85645
"3526",66.11429,225.87012
"3527",65.57717,225.88379
"3528",65.04738,225.89746
"3529",64.82033,225.91113
"3530",65.547874,225.9248
"3531",68.067444,225.93848
"3532",72.83803,225.95215
"3533",79.58129,225.96582
"3534",87.38659,225.97949
"3535",94.974594,225.99316
"3536",101.09773,226.00684
"3537",104.97475,226.02051
"3538",106.56901,226.03418
"3539",106.339516,226.04785
"3540",104.781876,226.06152
"3541",102.23056,226.0752
"3542",98.9395,226.08887
"3543",95.11131,226.10254
"3544",90.93645,226.11621
"3545",86.588234,226.12988
"3546",82.2913,226.14355
"3547",78.35569,226.15723
"3548",75.16228,226.1709
"3549",73.06996,226.18457
"3550",72.30579,226.19824
"3551",72.86244,226.21191
"3552",74.459145,226.22559
"3553",76.627144,226.23926
"3554",78.84154,226.25293
"3555",80.66773,226.2666
"3556",81.849396,226.28027
"3557",82.320595,226.29395
"3558",82.13016,226.30762
"3559",81.40505,226.32129
"3560",80.289314,226.33496
"3561",78.924545,226.34863
"3562",77.435265,226.3623
"3563",75.931335,226.37598
"3564",74.49821,226.38965
"3565",73.20912,226.40332
"3566",72.09827,226.41699
"3567",71.16319,226.43066
"3568",70.37949,226.44434
"3569",69.71053,226.45801
"3570",69.10994,226.47168
"3571",68.526436,226.48535
"3572",67.9234,226.49902
"3573",67.29595,226.5127
"3574",66.70023,226.52637
"3575",66.38285,226.54004
"3576",66.89555,226.55371
"3577",68.980545,226.56738
"3578",73.08461,226.58105
"3579",79.01732,226.59473
"3580",85.997406,226.6084
"3581",92.892044,226.62207
"3582",98.56107,226.63574
"3583",102.24765,226.64941
"3584",103.834595,226.66309
"3585",103.67834,226.67676
"3586",102.20859,226.69043
"3587",99.73785,226.7041
"3588",96.50294,226.71777
"3589",92.6894,226.73145
"3590",88.46815,226.74512
"3591",84.02472,226.75879
"3592",79.603264,226.77246
"3593",75.55047,226.78613
"3594",72.28138,226.7998
"3595",70.21103,226.81348
"3596",69.607994,226.82715
"3597",70.486916,226.84082
"3598",72.54505,226.85449
"3599",75.25506,226.86816
"3600",78.02121,226.88184
"3601",80.33082,226.89551
"3602",81.881134,226.90918
"3603",82.59159,226.92285
"3604",82.54032,226.93652
"3605",81.87625,226.9502
"3606",80.77516,226.96387
"3607",79.3933,226.97754
"3608",77.86984,226.99121
"3609",76.32929,227.00488
"3610",74.898605,227.01855
"3611",73.670555,227.03223
"3612",72.68177,227.0459
"3613",71.92737,227.05957
"3614",71.36584,227.07324
"3615",70.91661,227.08691
"3616",70.51377,227.10059
"3617",70.08896,227.11426
"3618",69.60555,227.12793
"3619",69.05867,227.1416
"3620",68.51423,227.15527
"3621",68.21393,227.16895
"3622",68.72907,227.18262
"3623",70.80675,227.19629
"3624",74.90837,227.20996
"3625",80.84352,227.22363
"3626",87.82849,227.2373
"3627",94.72556,227.25098
"3628",100.37995,227.26465
"3629",104.02991,227.27832
"3630",105.56069,227.29199
"3631",105.340965,227.30566
"3632",103.81018,227.31934
"3633",101.29305,227.33301
"3634",98.02396,227.34668
"3635",94.19577,227.36035
"3636",89.986725,227.37402
"3637",85.57992,227.3877
"3638",81.22682,227.40137
"3639",77.27657,227.41504
"3640",74.141754,227.42871
"3641",72.21301,227.44238
"3642",71.710075,227.45605
"3643",72.589,227.46973
"3644",74.510414,227.4834
"3645",76.95186,227.49707
"3646",79.3518,227.51074
"3647",81.270775,227.52441
"3648",82.4622,227.53809
"3649",82.88945,227.55176
"3650",82.64286,227.56543
"3651",81.85916,227.5791
"3652",80.689705,227.59277
"3653",79.28344,227.60645
"3654",77.7673,227.62012
"3655",76.25849,227.63379
"3656",74.864426,227.64746
"3657",73.65591,227.66113
"3658",72.6598,227.6748
"3659",71.86389,227.68848
"3660",71.22179,227.70215
"3661",70.68223,227.71582
"3662",70.17441,227.72949
"3663",69.65438,227.74316
"3664",69.09285,227.75684
"3665",68.52888,227.77051
"3666",68.13092,227.78418
"3667",68.39948,227.79785
"3668",70.07431,227.81152
"3669",73.704735,227.8252
"3670",79.24193,227.83887
"3671",86.029144,227.85254
"3672",93.00679,227.86621
"3673",99.00786,227.87988
"3674",103.165634,227.89355
"3675",105.22865,227.90723
"3676",105.477684,227.9209
"3677",104.3473,227.93457
"3678",102.18173,227.94824
"3679",99.25445,227.96191
"3680",95.802246,227.97559
"3681",92.02045,227.98926
"3682",88.09949,228.00293
"3683",84.2298,228.0166
"3684",80.68482,228.03027
"3685",77.789276,228.04395
"3686",75.85565,228.05762
"3687",75.05974,228.07129
"3688",75.38201,228.08496
"3689",76.561226,228.09863
"3690",78.18234,228.1123
"3691",79.798584,228.12598
"3692",81.075455,228.13965
"3693",81.82742,228.15332
"3694",82.01785,228.16699
"3695",81.7029,228.18066
"3696",80.9778,228.19434
"3697",79.957275,228.20801
"3698",78.74387,228.22168
"3699",77.42794,228.23535
"3700",76.10712,228.24902
"3701",74.86687,228.2627
"3702",73.76578,228.27637
"3703",72.84535,228.29004
"3704",72.10315,228.30371
"3705",71.505,228.31738
"3706",70.99718,228.33105
"3707",70.521095,228.34473
"3708",70.02304,228.3584
"3709",69.471275,228.37207
"3710",68.860916,228.38574
"3711",68.25056,228.39941
"3712",67.862366,228.41309
"3713",68.21149,228.42676
"3714",69.979095,228.44043
"3715",73.5729,228.4541
"3716",78.84642,228.46777
"3717",85.1429,228.48145
"3718",91.47845,228.49512
"3719",96.815445,228.50879
"3720",100.44587,228.52246
"3721",102.21835,228.53613
"3722",102.3917,228.5498
"3723",101.3077,228.56348
"3724",99.266655,228.57715
"3725",96.52491,228.59082
"3726",93.31197,228.60449
"3727",89.830475,228.61816
"3728",86.24643,228.63184
"3729",82.76494,228.64551
"3730",79.639885,228.65918
"3731",77.15938,228.67285
"3732",75.57244,228.68652
"3733",74.99138,228.7002
"3734",75.338066,228.71387
"3735",76.351265,228.72754
"3736",77.659874,228.74121
"3737",78.89769,228.75488
"3738",79.80347,228.76855
"3739",80.25269,228.78223
"3740",80.22339,228.7959
"3741",79.766846,228.80957
"3742",78.96605,228.82324
"3743",77.91867,228.83691
"3744",76.717476,228.85059
"3745",75.45281,228.86426
"3746",74.20767,228.87793
"3747",73.04555,228.8916
"3748",72.02014,228.90527
"3749",71.16075,228.91895
"3750",70.47471,228.93262
"3751",69.9498,228.94629
"3752",69.55184,228.95996
"3753",69.23689,228.97363
"3754",68.95613,228.9873
"3755",68.65827,229.00098
"3756",68.31159,229.01465
"3757",67.88922,229.02832
"3758",67.39605,229.04199
"3759",66.86626,229.05566
"3760",66.39506,229.06934
"3761",66.27787,229.08301
"3762",67.105515,229.09668
"3763",69.53719,229.11035
"3764",73.86099,229.12402
"3765",79.76929,229.1377
"3766",86.46616,229.15137
"3767",92.8896,229.16504
"3768",98.02396,229.17871
"3769",101.27108,229.19238
"3770",102.623634,229.20605
"3771",102.41856,229.21973
"3772",101.01228,229.2334
"3773",98.69291,229.24707
"3774",95.71191,229.26074
"3775",92.29633,229.27441
"3776",88.63416,229.28809
"3777",84.90852,229.30176
"3778",81.36111,229.31543
"3779",78.28489,229.3291
"3780",76.0119,229.34277
"3781",74.793625,229.35645
"3782",74.71305,229.37012
"3783",75.61639,229.38379
"3784",77.15938,229.39746
"3785",78.890366,229.41113
"3786",80.411385,229.4248
"3787",81.461205,229.43848
"3788",81.934845,229.45215
"3789",81.85428,229.46582
"3790",81.31472,229.47949
"3791",80.43336,229.49316
"3792",79.327385,229.50684
"3793",78.10422,229.52051
"3794",76.84932,229.53418
"3795",75.6408,229.54785
"3796",74.53483,229.56152
"3797",73.55337,229.5752
"3798",72.69642,229.58887
"3799",71.93469,229.60254
"3800",71.23155,229.61621
"3801",70.54795,229.62988
"3802",69.86435,229.64355
"3803",69.18562,229.65723
"3804",68.55329,229.6709
"3805",68.05768,229.68457
"3806",67.96735,229.69824
"3807",68.75838,229.71191
"3808",70.92638,229.72559
"3809",74.65934,229.73926
"3810",79.68383,229.75293
"3811",85.330894,229.7666
"3812",90.72892,229.78027
"3813",95.05272,229.79395
"3814",97.81888,229.80762
"3815",99.000534,229.82129
"3816",98.8394,229.83496
"3817",97.5967,229.84863
"3818",95.50439,229.8623
"3819",92.752884,229.87598
"3820",89.52041,229.88965
"3821",85.96323,229.90332
"3822",82.28153,229.91699
"3823",78.74876,229.93066
"3824",75.716484,229.94434
"3825",73.54604,229.95801
"3826",72.50843,229.97168
"3827",72.66712,229.98535
"3828",73.829254,229.99902
"3829",75.59197,230.0127
"3830",77.48165,230.02637
"3831",79.10277,230.04004
"3832",80.20874,230.05371
"3833",80.71412,230.06738
"3834",80.66773,230.08105
"3835",80.15991,230.09473
"3836",79.28832,230.1084
"3837",78.170135,230.12207
"3838",76.91524,230.13574
"3839",75.63348,230.14941
"3840",74.43717,230.16309
"3841",73.409325,230.17676
"3842",72.589,230.19043
"3843",71.97131,230.2041
"3844",71.51232,230.21777
"3845",71.14366,230.23145
"3846",70.79942,230.24512
"3847",70.41123,230.25879
"3848",69.95712,230.27246
"3849",69.44686,230.28613
"3850",68.96101,230.2998
"3851",68.76326,230.31348
"3852",69.39071,230.32715
"3853",71.4464,230.34082
"3854",75.22331,230.35449
"3855",80.482185,230.36816
"3856",86.54185,230.38184
"3857",92.455025,230.39551
"3858",97.27688,230.40918
"3859",100.419014,230.42285
"3860",101.81552,230.43652
"3861",101.73495,230.4502
"3862",100.48249,230.46387
"3863",98.34379,230.47754
"3864",95.56542,230.49121
"3865",92.36469,230.50488
"3866",88.91493,230.51855
"3867",85.40658,230.53223
"3868",82.05936,230.5459
"3869",79.149155,230.55957
"3870",76.97383,230.57324
"3871",75.75067,230.58691
"3872",75.543144,230.60059
"3873",76.19501,230.61426
"3874",77.39864,230.62793
"3875",78.77318,230.6416
"3876",79.98657,230.65527
"3877",80.814224,230.66895
"3878",81.16579,230.68262
"3879",81.05104,230.69629
"3880",80.53101,230.70996
"3881",79.69604,230.72363
"3882",78.64622,230.7373
"3883",77.47677,230.75098
"3884",76.27558,230.76465
"3885",75.10857,230.77832
"3886",74.04166,230.79199
"3887",73.11635,230.80566
"3888",72.35218,230.81934
"3889",71.73937,230.83301
"3890",71.2462,230.84668
"3891",70.82872,230.86035
"3892",70.435646,230.87402
"3893",70.02304,230.8877
"3894",69.54696,230.90137
"3895",69.00984,230.91504
"3896",68.46784,230.92871
"3897",68.11871,230.94238
"3898",68.44587,230.95605
"3899",70.07187,230.96973
"3900",73.40688,230.9834
"3901",78.34348,230.99707
"3902",84.30305,231.01074
"3903",90.38224,231.02441
"3904",95.60204,231.03809
"3905",99.25689,231.05176
"3906",101.14656,231.06543
"3907",101.468834,231.0791
"3908",100.541084,231.09277
"3909",98.65873,231.10645
"3910",96.09033,231.12012
"3911",93.07515,231.13379
"3912",89.8085,231.14746
"3913",86.4564,231.16113
"3914",83.19707,231.1748
"3915",80.26246,231.18848
"3916",77.91867,231.20215
"3917",76.383,231.21582
"3918",75.76532,231.22949
"3919",76.00458,231.24316
"3920",76.86641,231.25684
"3921",78.01877,231.27051
"3922",79.13451,231.28418
"3923",79.96704,231.29785
"3924",80.38697,231.31152
"3925",80.37232,231.3252
"3926",79.957275,231.33887
"3927",79.22484,231.35254
"3928",78.25803,231.36621
"3929",77.14473,231.37988
"3930",75.96307,231.39355
"3931",74.776535,231.40723
"3932",73.64858,231.4209
"3933",72.6305,231.43457
"3934",71.75891,231.44824
"3935",71.05577,231.46191
"3936",70.52354,231.47559
"3937",70.13779,231.48926
"3938",69.86191,231.50293
"3939",69.63973,231.5166
"3940",69.420006,231.53027
"3941",69.16121,231.54395
"3942",68.83894,231.55762
"3943",68.44099,231.57129
"3944",67.97955,231.58496
"3945",67.48882,231.59863
"3946",67.06401,231.6123
"3947",66.97856,231.62598
"3948",67.79645,231.63965
"3949",70.13779,231.65332
"3950",74.28336,231.66699
"3951",79.957275,231.68066
"3952",86.41001,231.69434
"3953",92.63813,231.70801
"3954",97.6553,231.72168
"3955",100.87068,231.73535
"3956",102.24765,231.74902
"3957",102.08896,231.7627
"3958",100.7364,231.77637
"3959",98.475624,231.79004
"3960",95.58251,231.80371
"3961",92.27192,231.81738
"3962",88.73182,231.83105
"3963",85.11604,231.84473
"3964",81.619896,231.8584
"3965",78.487526,231.87207
"3966",76.016785,231.88574
"3967",74.459145,231.89941
"3968",73.93912,231.91309
"3969",74.39323,231.92676
"3970",75.55291,231.94043
"3971",77.03731,231.9541
"3972",78.46555,231.96777
"3973",79.55688,231.98145
"3974",80.17212,231.99512
"3975",80.274666,232.00879
"3976",79.91577,232.02246
"3977",79.19066,232.03613
"3978",78.20676,232.0498
"3979",77.06172,232.06348
"3980",75.84589,232.07715
"3981",74.634926,232.09082
"3982",73.48989,232.10449
"3983",72.45472,232.11816
"3984",71.553825,232.13184
"3985",70.7921,232.14551
"3986",70.15732,232.15918
"3987",69.61776,232.17285
"3988",69.13191,232.18652
"3989",68.65827,232.2002
"3990",68.157776,232.21387
"3991",67.62066,232.22754
"3992",67.06889,232.24121
"3993",66.634315,232.25488
"3994",66.668495,232.26855
"3995",67.78668,232.28223
"3996",70.57481,232.2959
"3997",75.174484,232.30957
"3998",81.16823,232.32324
"3999",87.69421,232.33691
"4000",93.70504,232.35059
"4001",98.27543,232.36426
"4002",100.96101,232.37793
"4003",101.84726,232.3916
"4004",101.278404,232.40527
"4005",99.59136,232.41895
"4006",97.04494,232.43262
"4007",93.85886,232.44629
"4008",90.21622,232.45996
"4009",86.2855,232.47363
"4010",82.25956,232.4873
"4011",78.4094,232.50098
"4012",75.09392,232.51465
"4013",72.691536,232.52832
"4014",71.50988,232.54199
"4015",71.656364,232.55566
"4016",72.95766,232.56934
"4017",74.99626,232.58301
"4018",77.25704,232.59668
"4019",79.26879,232.61035
"4020",80.719,232.62402
"4021",81.48806,232.6377
"4022",81.61013,232.65137
"4023",81.197525,232.66504
"4024",80.38697,232.67871
"4025",79.30297,232.69238
"4026",78.065155,232.70605
"4027",76.7834,232.71973
"4028",75.55535,232.7334
"4029",74.45426,232.74707
"4030",73.52163,232.76074
"4031",72.762344,232.77441
"4032",72.147095,232.78809
"4033",71.62707,232.80176
"4034",71.14122,232.81543
"4035",70.63584,232.8291
"4036",70.07919,232.84277
"4037",69.46395,232.85645
"4038",68.82674,232.87012
"4039",68.31159,232.88379
"4040",68.30671,232.89746
"4041",69.454185,232.91113
"4042",72.33021,232.9248
"4043",77.03731,232.93848
"4044",83.09209,232.95215
"4045",89.59365,232.96582
"4046",95.47021,232.97949
"4047",99.82086,232.99316
"4048",102.24765,233.00684
"4049",102.887314,233.02051
"4050",102.10605,233.03418
"4051",100.22858,233.04785
"4052",97.50149,233.06152
"4053",94.134735,233.0752
"4054",90.301674,233.08887
"4055",86.170746,233.10254
"4056",81.94705,233.11621
"4057",77.91867,233.12988
"4058",74.46891,233.14355
"4059",72.007935,233.15723
"4060",70.855576,233.1709
"4061",71.10704,233.18457
"4062",72.5597,233.19824
"4063",74.757,233.21191
"4064",77.14229,233.22559
"4065",79.21507,233.23926
"4066",80.65308,233.25293
"4067",81.34402,233.2666
"4068",81.341576,233.28027
"4069",80.7776,233.29395
"4070",79.80347,233.30762
"4071",78.55833,233.32129
"4072",77.1667,233.33496
"4073",75.74334,233.34863
"4074",74.38346,233.3623
"4075",73.16029,233.37598
"4076",72.11536,233.38965
"4077",71.258415,233.40332
"4078",70.572365,233.41699
"4079",70.02548,233.43066
"4080",69.556725,233.44434
"4081",69.10994,233.45801
"4082",68.63142,233.47168
"4083",68.10895,233.48535
"4084",67.60113,233.49902
"4085",67.39117,233.5127
"4086",68.10162,233.52637
"4087",70.486916,233.54004
"4088",74.915695,233.55371
"4089",81.08766,233.56738
"4090",88.145874,233.58105
"4091",94.93797,233.59473
"4092",100.34333,233.6084
"4093",103.69787,233.62207
"4094",105.00404,233.63574
"4095",104.66468,233.64941
"4096",103.09483,233.66309
"4097",100.594795,233.67676
"4098",97.391624,233.69043
"4099",93.68307,233.7041
"4100",89.63027,233.71777
"4101",85.42611,233.73145
"4102",81.307396,233.74512
"4103",77.60128,233.75879
"4104",74.69108,233.77246
"4105",72.91615,233.78613
"4106",72.44984,233.7998
"4107",73.214005,233.81348
"4108",74.861984,233.82715
"4109",76.90791,233.84082
"4110",78.86839,233.85449
"4111",80.38453,233.86816
"4112",81.27322,233.88184
"4113",81.5198,233.89551
"4114",81.21217,233.90918
"4115",80.462654,233.92285
"4116",79.395744,233.93652
"4117",78.12863,233.9502
"4118",76.771194,233.96387
"4119",75.41863,233.97754
"4120",74.14908,233.99121
"4121",73.01869,234.00488
"4122",72.05432,234.01855
"4123",71.258415,234.03223
"4124",70.59922,234.0459
"4125",70.02792,234.05957
"4126",69.48348,234.07324
"4127",68.91463,234.08691
"4128",68.31403,234.10059
"4129",67.76471,234.11426
"4130",67.58892,234.12793
"4131",68.44099,234.1416
"4132",71.03136,234.15527
"4133",75.62371,234.16895
"4134",81.832306,234.18262
"4135",88.75624,234.19629
"4136",95.25292,234.20996
"4137",100.27009,234.22363
"4138",103.258415,234.2373
"4139",104.274055,234.25098
"4140",103.73449,234.26465
"4141",102.0206,234.27832
"4142",99.422905,234.29199
"4143",96.17334,234.30566
"4144",92.48188,234.31934
"4145",88.51209,234.33301
"4146",84.43488,234.34668
"4147",80.482185,234.36035
"4148",76.96651,234.37402
"4149",74.24185,234.3877
"4150",72.62318,234.40137
"4151",72.23987,234.41504
"4152",72.989395,234.42871
"4153",74.527504,234.44238
"4154",76.39033,234.45605
"4155",78.12375,234.46973
"4156",79.40795,234.4834
"4157",80.093994,234.49707
"4158",80.18677,234.51074
"4159",79.766846,234.52441
"4160",78.94408,234.53809
"4161",77.82834,234.55176
"4162",76.52216,234.56543
"4163",75.1281,234.5791
"4164",73.74868,234.59277
"4165",72.48402,234.60645
"4166",71.4049,234.62012
"4167",70.538185,234.63379
"4168",69.85458,234.64746
"4169",69.29061,234.66113
"4170",68.77547,234.6748
"4171",67.65484,234.70215
"4172",66.99321,234.71582
"4173",66.2974,234.72949
"4174",65.74319,234.74316
"4175",65.82864,234.75684
"4176",67.33013,234.77051
"4177",70.887314,234.78418
"4178",76.52949,234.79785
"4179",83.5877,234.81152
"4180",90.95354,234.8252
"4181",97.38186,234.83887
"4182",101.90341,234.85254
"4183",104.19348,234.86621
"4184",104.55726,234.87988
"4185",103.47326,234.89355
"4186",101.32967,234.90723
"4187",98.39262,234.9209
"4188",94.88182,234.93457
"4189",90.985275,234.94824
"4190",86.871445,234.96191
"4191",82.738075,234.97559
"4192",78.853745,234.98926
"4193",75.57,235.00293
"4194",73.231094,235.0166
"4195",72.08118,235.03027
"4196",72.181274,235.04395
"4197",73.33608,235.05762
"4198",75.15251,235.07129
"4199",77.15694,235.08496
"4200",78.92699,235.09863
"4201",80.184326,235.1123
"4202",80.816666,235.12598
"4203",80.84108,235.13965
"4204",80.36256,235.15332
"4205",79.4934,235.16699
"4206",78.345924,235.18066
"4207",77.03487,235.19434
"4208",75.65545,235.20801
"4209",74.30045,235.22168
"4210",73.05043,235.23535
"4211",71.956665,235.24902
"4212",71.03624,235.2627
"4213",70.28428,235.27637
"4214",69.65682,235.29004
"4215",69.100174,235.30371
"4216",68.560616,235.31738
"4217",68.00641,235.33105
"4218",67.43023,235.34473
"4219",66.90776,235.3584
"4220",66.74418,235.37207
"4221",67.562065,235.38574
"4222",70.07187,235.39941
"4223",74.60319,235.41309
"4224",80.82887,235.42676
"4225",87.87732,235.44043
"4226",94.5864,235.4541
"4227",99.86481,235.46777
"4228",103.07774,235.48145
"4229",104.24231,235.49512
"4230",103.75891,235.50879
"4231",102.05722,235.52246
"4232",99.43267,235.53613
"4233",96.114746,235.5498
"4234",92.29145,235.56348
"4235",88.13367,235.57715
"4236",83.83185,235.59082
"4237",79.64965,235.60449
"4238",75.92157,235.61816
"4239",73.03578,235.63184
"4240",71.326775,235.64551
"4241",70.958115,235.65918
"4242",71.84436,235.67285
"4243",73.653465,235.68652
"4244",75.897156,235.7002
"4245",78.0676,235.71387
"4246",79.77417,235.72754
"4247",80.80446,235.74121
"4248",81.126724,235.75488
"4249",80.82887,235.76855
"4250",80.042725,235.78223
"4251",78.922104,235.7959
"4252",77.59884,235.80957
"4253",76.18524,235.82324
"4254",74.7863,235.83691
"4255",73.48257,235.85059
"4256",72.325325,235.86426
"4257",71.33898,235.87793
"4258",70.50889,235.8916
"4259",69.81308,235.90527
"4260",69.19783,235.91895
"4261",68.62409,235.93262
"4262",68.050354,235.94629
"4263",67.47906,235.95996
"4264",66.99321,235.97363
"4265",66.897995,235.9873
"4266",67.79889,236.00098
"4267",70.3917,236.01465
"4268",74.986496,236.02832
"4269",81.23903,236.04199
"4270",88.255745,236.05566
"4271",94.87694,236.06934
"4272",100.02594,236.08301
"4273",103.09239,236.09668
"4274",104.10559,236.11035
"4275",103.48791,236.12402
"4276",101.67391,236.1377
"4277",98.95415,236.15137
"4278",95.54833,236.16504
"4279",91.62737,236.17871
"4280",87.35973,236.19238
"4281",82.95781,236.20605
"4282",78.709694,236.21973
"4283",75.001144,236.2334
"4284",72.254524,236.24707
"4285",70.82628,236.26074
"4286",70.8629,236.27441
"4287",72.22766,236.28809
"4288",74.510414,236.30176
"4289",77.14961,236.31543
"4290",79.588615,236.3291
"4291",81.43191,236.34277
"4292",82.48661,236.35645
"4293",82.74784,236.37012
"4294",82.34501,236.38379
"4295",81.45388,236.39746
"4296",80.24048,236.41113
"4297",78.856186,236.4248
"4298",77.42794,236.43848
"4299",76.053406,236.45215
"4300",74.79607,236.46582
"4301",73.70229,236.47949
"4302",72.781876,236.49316
"4303",72.0177,236.50684
"4304",71.3756,236.52051
"4305",70.81163,236.53418
"4306",70.28916,236.54785
"4307",69.81552,236.56152
"4308",69.51278,236.5752
"4309",69.72518,236.58887
"4310",71.043564,236.60254
"4311",73.99283,236.61621
"4312",78.67063,236.62988
"4313",84.593575,236.64355
"4314",90.87785,236.65723
"4315",96.49073,236.6709
"4316",100.56794,236.68457
"4317",102.7335,236.69824
"4318",103.133896,236.71191
"4319",102.149994,236.72559
"4320",100.1236,236.73926
"4321",97.303734,236.75293
"4322",93.873505,236.7666
"4323",89.99405,236.78027
"4324",85.83383,236.79395
"4325",81.617455,236.80762
"4326",77.679405,236.82129
"4327",74.43473,236.83496
"4328",72.288704,236.84863
"4329",71.519646,236.8623
"4330",72.13733,236.87598
"4331",73.87076,236.88965
"4332",76.22186,236.90332
"4333",78.63401,236.91699
"4334",80.63355,236.93066
"4335",81.95438,236.94434
"4336",82.52079,236.95801
"4337",82.408485,236.97168
"4338",81.761505,236.98535
"4339",80.73365,236.99902
"4340",79.4641,237.0127
"4341",78.07248,237.02637
"4342",76.66621,237.04004
"4343",75.33318,237.05371
"4344",74.14664,237.06738
"4345",73.13588,237.08105
"4346",72.29847,237.09473
"4347",71.60265,237.1084
"4348",70.99718,237.12207
"4349",70.42832,237.13574
"4350",69.891205,237.14941
"4351",69.505455,237.16309
"4352",69.661705,237.17676
"4353",70.99718,237.19043
"4354",74.04166,237.2041
"4355",78.84154,237.21777
"4356",84.87923,237.23145
"4357",91.23918,237.24512
"4358",96.87404,237.25879
"4359",100.943924,237.27246
"4360",103.12657,237.28613
"4361",103.59777,237.2998
"4362",102.73106,237.31348
"4363",100.83894,237.32715
"4364",98.168,237.34082
"4365",94.93553,237.35449
"4366",91.32708,237.36816
"4367",87.5111,237.38184
"4368",83.700005,237.39551
"4369",80.17944,237.40918
"4370",77.29366,237.42285
"4371",75.37713,237.43652
"4372",74.62028,237.4502
"4373",74.99626,237.46387
"4374",76.23651,237.47754
"4375",77.908905,237.49121
"4376",79.5642,237.50488
"4377",80.850845,237.51855
"4378",81.5906,237.53223
"4379",81.75174,237.5459
"4380",81.40017,237.55957
"4381",80.64088,237.57324
"4382",79.603264,237.58691
"4383",78.399635,237.60059
"4384",77.13252,237.61426
"4385",75.897156,237.62793
"4386",74.757,237.6416
"4387",73.738914,237.65527
"4388",72.85512,237.66895
"4389",72.095825,237.68262
"4390",71.42687,237.69629
"4391",70.80919,237.70996
"4392",70.20859,237.72363
"4393",69.61776,237.7373
"4394",69.12459,237.75098
"4395",69.034256,237.76465
"4396",69.90097,237.77832
"4397",72.25208,237.79199
"4398",76.25117,237.80566
"4399",81.55886,237.81934
"4400",87.4403,237.83301
"4401",92.95308,237.84668
"4402",97.24513,237.86035
"4403",99.87213,237.87402
"4404",100.860916,237.8877
"4405",100.48249,237.90137
"4406",99.03471,237.91504
"4407",96.78615,237.92871
"4408",93.98337,237.94238
"4409",90.83147,237.95605
"4410",87.50622,237.96973
"4411",84.18341,237.9834
"4412",81.0901,237.99707
"4413",78.49241,238.01074
"4414",76.63935,238.02441
"4415",75.68719,238.03809
"4416",75.62615,238.05176
"4417",76.26093,238.06543
"4418",77.279015,238.0791
"4419",78.35325,238.09277
"4420",79.217514,238.10645
"4421",79.725334,238.12012
"4422",79.83765,238.13379
"4423",79.571526,238.14746
"4424",78.99046,238.16113
"4425",78.170135,238.1748
"4426",77.196,238.18848
"4427",76.14618,238.20215
"4428",75.0988,238.21582
"4429",74.1149,238.22949
"4430",73.231094,238.24316
"4431",72.46204,238.25684
"4432",71.79065,238.27051
"4433",71.19249,238.28418
"4434",70.63096,238.29785
"4435",70.066986,238.31152
"4436",69.4786,238.3252
"4437",68.875565,238.33887
"4438",68.30915,238.35254
"4439",67.984436,238.36621
"4440",68.34333,238.37988
"4441",69.95224,238.39355
"4442",73.13344,238.40723
"4443",77.77219,238.4209
"4444",83.319145,238.43457
"4445",88.936905,238.44824
"4446",93.731895,238.46191
"4447",97.07179,238.47559
"4448",98.793015,238.48926
"4449",99.06401,238.50293
"4450",98.16312,238.5166
"4451",96.361336,238.53027
"4452",93.924774,238.54395
"4453",91.07561,238.55762
"4454",88.00427,238.57129
"4455",84.88655,238.58496
"4456",81.90799,238.59863
"4457",79.29565,238.6123
"4458",77.281456,238.62598
"4459",76.036316,238.63965
"4460",75.61883,238.65332
"4461",75.92157,238.66699
"4462",76.70283,238.68066
"4463",77.6672,238.69434
"4464",78.53391,238.70801
"4465",79.12718,238.72168
"4466",79.361565,238.73535
"4467",79.234604,238.74902
"4468",78.77562,238.7627
