"","ppg","time"
"1",80.72144,602.3862
"2",80.57496,602.39966
"3",80.45533,602.41284
"4",80.36256,602.4263
"5",80.289314,602.43945
"6",80.22339,602.4529
"7",80.147705,602.46606
"8",80.05493,602.4795
"9",79.9353,602.4927
"10",79.78638,602.5061
"11",79.61303,602.5193
"12",79.4226,602.5327
"13",79.219955,602.5459
"14",79.01488,602.5593
"15",78.81712,602.5725
"16",78.63401,602.58594
"17",78.47532,602.5991
"18",78.35081,602.61255
"19",78.25803,602.62573
"20",78.19699,602.63916
"21",78.16281,602.65234
"22",78.14572,602.6658
"23",78.135956,602.67896
"24",78.12863,602.6924
"25",78.12619,602.70557
"26",78.12131,602.719
"27",78.11154,602.7322
"28",78.099335,602.7456
"29",78.07736,602.7588
"30",78.04562,602.7722
"31",77.99924,602.7854
"32",77.93332,602.7988
"33",77.85031,602.812
"34",77.7551,602.82544
"35",77.69405,602.8386
"36",77.752655,602.85205
"37",78.05051,602.86523
"38",78.66819,602.87866
"39",79.605705,602.89185
"40",80.762955,602.9053
"41",81.9617,602.91846
"42",83.001755,602.9319
"43",83.72442,602.94507
"44",84.071106,602.9585
"45",84.07843,602.9717
"46",83.83429,602.9851
"47",83.43633,602.9983
"48",82.9749,603.0117
"49",82.51835,603.0249
"50",82.11307,603.0383
"51",81.78348,603.0515
"52",81.529564,603.06494
"53",81.33425,603.0781
"54",81.17799,603.09155
"55",81.04372,603.10474
"56",80.919205,603.11816
"57",80.80446,603.13135
"58",80.706795,603.1448
"59",80.64088,603.15796
"60",80.604256,603.1714
"61",80.58961,603.1846
"62",80.584724,603.198
"63",80.567635,603.2112
"64",80.52613,603.2246
"65",80.44068,603.2378
"66",80.31373,603.2512
"67",80.15015,603.2644
"68",79.95972,603.27783
"69",79.74975,603.291
"70",79.537346,603.30444
"71",79.3225,603.3176
"72",79.11986,603.33105
"73",78.93919,603.34424
"74",78.79027,603.35767
"75",78.677956,603.37085
"76",78.60471,603.3843
"77",78.56321,603.39746
"78",78.54368,603.4109
"79",78.53391,603.4241
"80",78.53147,603.4375
"81",78.52903,603.4507
"82",78.51438,603.4641
"83",78.48264,603.4773
"84",78.43626,603.4907
"85",78.37522,603.5039
"86",78.30198,603.51733
"87",78.21896,603.5305
"88",78.14084,603.54395
"89",78.118866,603.5571
"90",78.24582,603.57056
"91",78.626686,603.58374
"92",79.31518,603.59717
"93",80.27711,603.61035
"94",81.38552,603.6238
"95",82.459755,603.63696
"96",83.31182,603.6504
"97",83.83185,603.6636
"98",84.000305,603.677
"99",83.87579,603.6902
"100",83.546196,603.7036
"101",83.10185,603.7168
"102",82.61845,603.7302
"103",82.159454,603.7434
"104",81.77127,603.75684
"105",81.463646,603.77
"106",81.234146,603.78345
"107",81.06325,603.79663
"108",80.919205,603.81006
"109",80.78737,603.82324
"110",80.66285,603.8367
"111",80.55787,603.84985
"112",80.482185,603.8633
"113",80.45289,603.87646
"114",80.45777,603.8899
"115",80.48463,603.9031
"116",80.50172,603.9165
"117",80.49439,603.9297
"118",80.44068,603.9431
"119",80.33326,603.9563
"120",80.177,603.9697
"121",79.974365,603.9829
"122",79.742424,603.99634
"123",79.48852,604.0095
"124",79.23216,604.02295
"125",78.98558,604.03613
"126",78.77074,604.04956
"127",78.59739,604.06274
"128",78.47288,604.0762
"129",78.397194,604.08936
"130",78.35813,604.1028
"131",78.348366,604.11597
"132",78.35569,604.1294
"133",78.3679,604.1426
"134",78.37522,604.156
"135",78.37034,604.1692
"136",78.345924,604.1826
"137",78.30198,604.1958
"138",78.24338,604.2092
"139",78.17746,604.2224
"140",78.14572,604.23584
"141",78.22873,604.249
"142",78.538795,604.26245
"143",79.149155,604.27563
"144",80.05493,604.28906
"145",81.163345,604.30225
"146",82.30595,604.3157
"147",83.29473,604.32886
"148",83.9881,604.3423
"149",84.332344,604.35547
"150",84.36164,604.3689
"151",84.15167,604.3821
"152",83.7879,604.3955
"153",83.35088,604.4087
"154",82.916306,604.4221
"155",82.533,604.4353
"156",82.22537,604.4487
"157",81.99344,604.4619
"158",81.8201,604.47534
"159",81.671165,604.4885
"160",81.52712,604.50195
"161",81.36843,604.51514
"162",81.20485,604.52856
"163",81.04616,604.54175
"164",80.91676,604.5552
"165",80.82643,604.56836
"166",80.77516,604.5818
"167",80.7483,604.595
"168",80.723885,604.6084
"169",80.67994,604.6216
"170",80.58961,604.635
"171",80.45289,604.6482
"172",80.2649,604.6616
"173",80.03784,604.6748
"174",79.781494,604.68823
"175",79.517815,604.7014
"176",79.256584,604.71484
"177",79.012436,604.728
"178",78.79515,604.74146
"179",78.6218,604.75464
"180",78.485085,604.76807
"181",78.38987,604.78125
"182",78.32151,604.7947
"183",78.28001,604.80786
"184",78.25315,604.8213
"185",78.23605,604.8345
"186",78.21652,604.8479
"187",78.18967,604.8611
"188",78.14816,604.8745
"189",78.082245,604.8877
"190",78.00168,604.9011
"191",77.92111,604.9143
"192",77.87961,604.92773
"193",77.962616,604.9409
"194",78.277565,604.95435
"195",78.89525,604.9675
"196",79.80835,604.98096
"197",80.90944,604.99414
"198",82.039825,605.00757
"199",83.00908,605.02075
"200",83.67559,605.0342
"201",83.99054,605.04736
"202",83.99786,605.0608
"203",83.77081,605.074
"204",83.404594,605.0874
"205",82.97978,605.1006
"206",82.562294,605.114
"207",82.2034,605.1272
"208",81.917755,605.1406
"209",81.71755,605.1538
"210",81.57839,605.16724
"211",81.46609,605.1804
"212",81.34402,605.19385
"213",81.197525,605.20703
"214",81.02174,605.22046
"215",80.8362,605.23364
"216",80.66773,605.2471
"217",80.52857,605.26025
"218",80.43336,605.2737
"219",80.377205,605.28687
"220",80.3357,605.3003
"221",80.289314,605.3135
"222",80.218506,605.3269
"223",80.111084,605.3401
"224",79.957275,605.3535
"225",79.75708,605.3667
"226",79.52514,605.3801
"227",79.276115,605.3933
"228",79.0222,605.40674
"229",78.7805,605.4199
"230",78.572975,605.43335
"231",78.40452,605.44653
"232",78.27512,605.45996
"233",78.18967,605.47314
"234",78.13107,605.4866
"235",78.09201,605.49976
"236",78.06271,605.5132
"237",78.04562,605.52637
"238",78.028534,605.5398
"239",78.00656,605.553
"240",77.97482,605.5664
"241",77.92355,605.5796
"242",77.85031,605.593
"243",77.769745,605.6062
"244",77.70626,605.6196
"245",77.730675,605.6328
"246",77.943085,605.64624
"247",78.4387,605.6594
"248",79.24681,605.67285
"249",80.306404,605.68604
"250",81.47585,605.69946
"251",82.562294,605.71265
"252",83.389946,605.7261
"253",83.86847,605.73926
"254",84.000305,605.7527
"255",83.85626,605.76587
"256",83.53155,605.7793
"257",83.1165,605.7925
"258",82.69169,605.8059
"259",82.31327,605.8191
"260",82.01785,605.8325
"261",81.815216,605.8457
"262",81.68093,605.85913
"263",81.58816,605.8723
"264",81.4905,605.88574
"265",81.358665,605.8989
"266",81.18776,605.91235
"267",80.987564,605.92554
"268",80.78493,605.93896
"269",80.6067,605.95215
"270",80.46754,605.9656
"271",80.36988,605.97876
"272",80.30152,605.9922
"273",80.24536,606.0054
"274",80.181885,606.0188
"275",80.09155,606.032
"276",79.95972,606.0454
"277",79.78882,606.0586
"278",79.57641,606.072
"279",79.33959,606.0852
"280",79.08812,606.09863
"281",78.84398,606.1118
"282",78.61936,606.12524
"283",78.42161,606.1384
"284",78.26292,606.15186
"285",78.1384,606.16504
"286",78.05051,606.17847
"287",77.98947,606.19165
"288",77.945526,606.2051
"289",77.91623,606.21826
"290",77.88449,606.2317
"291",77.85275,606.2449
"292",77.81857,606.2583
"293",77.77707,606.2715
"294",77.72823,606.2849
"295",77.67208,606.2981
"296",77.60372,606.3115
"297",77.52804,606.3247
"298",77.46456,606.33813
"299",77.48165,606.3513
"300",77.67696,606.36475
"301",78.15549,606.3779
"302",78.95628,606.39136
"303",80.03296,606.40454
"304",81.23903,606.41797
"305",82.391396,606.43115
"306",83.30694,606.4446
"307",83.87091,606.45776
"308",84.08331,606.4712
"309",84.000305,606.4844
"310",83.70733,606.4978
"311",83.30938,606.511
"312",82.88945,606.5244
"313",82.50858,606.5376
"314",82.20828,606.551
"315",81.99832,606.5642
"316",81.87381,606.57764
"317",81.78836,606.5908
"318",81.7029,606.60425
"319",81.58572,606.61743
"320",81.42214,606.63086
"321",81.214615,606.64404
"322",80.987564,606.6575
"323",80.77272,606.67065
"324",80.587166,606.6841
"325",80.44068,606.69727
"326",80.325935,606.7107
"327",80.23071,606.7239
"328",80.1355,606.7373
"329",80.028076,606.7505
"330",79.89868,606.7639
"331",79.73266,606.7771
"332",79.534904,606.7905
"333",79.30541,606.8037
"334",79.061264,606.81714
"335",78.81712,606.8303
"336",78.590065,606.84375
"337",78.39475,606.85693
"338",78.238495,606.87036
"339",78.116425,606.88354
"340",78.02609,606.897
"341",77.960175,606.91016
"342",77.91135,606.9236
"343",77.872284,606.93677
"344",77.838104,606.9502
"345",77.803925,606.9634
"346",77.76486,606.9768
"347",77.72091,606.99
"348",77.67208,607.0034
"349",77.62325,607.0166
"350",77.57198,607.03
"351",77.51583,607.0432
"352",77.454796,607.05664
"353",77.38644,607.0698
"354",77.30831,607.08325
"355",77.22774,607.09644
"356",77.17647,607.10986
"357",77.21797,607.12305
"358",77.467,607.1365
"359",78.02121,607.14966
"360",78.91234,607.1631
"361",80.076904,607.1763
"362",81.36355,607.1897
"363",82.56962,607.2029
"364",83.50713,607.2163
"365",84.08087,607.2295
"366",84.29328,607.2429
"367",84.210266,607.2561
"368",83.92706,607.26953
"369",83.54131,607.2827
"370",83.13359,607.29614
"371",82.774704,607.3093
"372",82.49882,607.32275
"373",82.31083,607.33594
"374",82.196075,607.34937
"375",82.12039,607.36255
"376",82.04227,607.376
"377",81.92508,607.38916
"378",81.75418,607.4026
"379",81.53689,607.4158
"380",81.290306,607.4292
"381",81.04372,607.4424
"382",80.81911,607.4558
"383",80.63355,607.469
"384",80.4773,607.4824
"385",80.34058,607.4956
"386",80.21362,607.50903
"387",80.08667,607.5222
"388",79.94751,607.53564
"389",79.79126,607.5488
"390",79.61791,607.56226
"391",79.42016,607.57544
"392",79.200424,607.58887
"393",78.97093,607.60205
"394",78.746315,607.6155
"395",78.538795,607.62866
"396",78.363014,607.6421
"397",78.22629,607.6553
"398",78.12619,607.6687
"399",78.05539,607.6819
"400",78.00412,607.6953
"401",77.960175,607.7085
"402",77.91379,607.7219
"403",77.857635,607.7351
"404",77.789276,607.74854
"405",77.71847,607.7617
"406",77.642784,607.77515
"407",77.57198,607.7883
"408",77.51095,607.80176
"409",77.45968,607.81494
"410",77.41085,607.82837
"411",77.35958,607.84155
"412",77.29366,607.855
"413",77.222855,607.86816
"414",77.14473,607.8816
"415",77.06416,607.8948
"416",77.00801,607.9082
"417",77.032425,607.9214
"418",77.2375,607.9348
"419",77.73556,607.948
"420",78.58274,607.9614
"421",79.73998,607.9746
"422",81.06813,607.98804
"423",82.35966,608.0012
"424",83.40948,608.01465
"425",84.08331,608.02783
"426",84.36652,608.04126
"427",84.32258,608.05444
"428",84.054016,608.0679
"429",83.66338,608.08105
"430",83.24101,608.0945
"431",82.85283,608.10767
"432",82.530556,608.1211
"433",82.29618,608.1343
"434",82.13992,608.1477
"435",82.04471,608.1609
"436",81.9617,608.1743
"437",81.85672,608.1875
"438",81.705345,608.2009
"439",81.50271,608.2141
"440",81.26101,608.22754
"441",81.01198,608.2407
"442",80.780045,608.25415
"443",80.584724,608.26733
"444",80.430916,608.28076
"445",80.31373,608.29395
"446",80.216064,608.3074
"447",80.12329,608.32056
"448",80.01587,608.334
"449",79.88159,608.34717
"450",79.71557,608.3606
"451",79.51537,608.3738
"452",79.290764,608.3872
"453",79.05882,608.4004
"454",78.83177,608.4138
"455",78.626686,608.427
"456",78.44602,608.4404
"457",78.2971,608.4536
"458",78.17502,608.46704
"459",78.07492,608.4802
"460",77.994354,608.49365
"461",77.92844,608.50684
"462",77.872284,608.52026
"463",77.8259,608.53345
"464",77.78195,608.5469
"465",77.73556,608.56006
"466",77.68917,608.5735
"467",77.63546,608.5867
"468",77.574425,608.6001
"469",77.51827,608.6133
"470",77.467,608.6267
"471",77.41329,608.6399
"472",77.36202,608.6533
"473",77.30343,608.6665
"474",77.2375,608.67993
"475",77.16426,608.6931
"476",77.100784,608.70654
"477",77.09346,608.7197
"478",77.23018,608.73315
"479",77.63058,608.74634
"480",78.37278,608.75977
"481",79.43481,608.77295
"482",80.719,608.7864
"483",82.020294,608.79956
"484",83.13115,608.813
"485",83.89044,608.8262
"486",84.2591,608.8396
"487",84.283516,608.8528
"488",84.06134,608.8662
"489",83.69756,608.8794
"490",83.28008,608.8928
"491",82.87724,608.906
"492",82.533,608.91943
"493",82.27665,608.9326
"494",82.1033,608.94604
"495",81.99344,608.9592
"496",81.90799,608.97266
"497",81.81033,608.98584
"498",81.671165,608.99927
"499",81.48318,609.01245
"500",81.26833,609.0259
"501",81.04616,609.03906
"502",80.84108,609.0525
"503",80.66041,609.0657
"504",80.51148,609.0791
"505",80.38697,609.0923
"506",80.26978,609.1057
"507",80.15259,609.1189
"508",80.02319,609.1323
"509",79.871826,609.1455
"510",79.691154,609.15894
"511",79.48608,609.1721
"512",79.256584,609.18555
"513",79.0222,609.1987
"514",78.78783,609.21216
"515",78.57053,609.22534
"516",78.37522,609.2388
"517",78.21408,609.25195
"518",78.09201,609.2654
"519",78.00656,609.27856
"520",77.95041,609.292
"521",77.908905,609.3052
"522",77.87717,609.3186
"523",77.84299,609.3318
"524",77.803925,609.3452
"525",77.76242,609.3584
"526",77.72091,609.3718
"527",77.67696,609.385
"528",77.63058,609.39844
"529",77.58175,609.4116
"530",77.5256,609.42505
"531",77.471886,609.43823
"532",77.418175,609.45166
"533",77.36446,609.46484
"534",77.298546,609.4783
"535",77.23018,609.49146
"536",77.152054,609.5049
"537",77.07393,609.51807
"538",77.01289,609.5315
"539",77.0251,609.5447
"540",77.205765,609.5581
"541",77.68429,609.5713
"542",78.52903,609.5847
"543",79.70336,609.5979
"544",81.07301,609.6113
"545",82.44022,609.6245
"546",83.57061,609.63794
"547",84.32014,609.6511
"548",84.66682,609.66455
"549",84.66682,609.67773
"550",84.41535,609.69116
"551",84.017395,609.70435
"552",83.5584,609.7178
"553",83.106735,609.73096
"554",82.70878,609.7444
"555",82.39384,609.75757
"556",82.16922,609.771
"557",82.01541,609.7842
"558",81.90311,609.7976
"559",81.79813,609.8108
"560",81.671165,609.8242
"561",81.512474,609.8374
"562",81.32937,609.8508
"563",81.13405,609.864
"564",80.94606,609.87744
"565",80.782486,609.8906
"566",80.6482,609.90405
"567",80.53101,609.91724
"568",80.42359,609.93066
"569",80.31129,609.94385
"570",80.17944,609.9573
"571",80.01831,609.97046
"572",79.835205,609.9839
"573",79.62524,609.9971
"574",79.395744,610.0105
"575",79.15892,610.0237
"576",78.92699,610.0371
"577",78.709694,610.0503
"578",78.519264,610.0637
"579",78.363014,610.0769
"580",78.24094,610.09033
"581",78.14572,610.1035
"582",78.07248,610.11694
"583",78.01877,610.1301
"584",77.96994,610.14355
"585",77.92355,610.15674
"586",77.87961,610.17017
"587",77.83566,610.18335
"588",77.786835,610.1968
"589",77.738,610.20996
"590",77.68429,610.2234
"591",77.625694,610.2366
"592",77.56954,610.25
"593",77.51583,610.2632
"594",77.46212,610.2766
"595",77.40353,610.2898
"596",77.33761,610.3032
"597",77.261925,610.3164
"598",77.17891,610.32983
"599",77.100784,610.343
"600",77.04219,610.35645
"601",77.05928,610.3696
"602",77.26681,610.38306
"603",77.79416,610.39624
"604",78.70725,610.40967
"605",79.95972,610.42285
"606",81.40017,610.4363
"607",82.80888,610.44946
"608",83.949036,610.4629
"609",84.6717,610.4761
"610",84.964676,610.4895
"611",84.9012,610.5027
"612",84.58625,610.5161
"613",84.1297,610.5293
"614",83.62676,610.5427
"615",83.14824,610.5559
"616",82.735634,610.56934
"617",82.408485,610.5825
"618",82.16678,610.59595
"619",81.991,610.60913
"620",81.849396,610.62256
"621",81.71267,610.63574
"622",81.5613,610.6492
"623",81.39529,610.66235
"624",81.22438,610.6758
"625",81.06569,610.68896
"626",80.92897,610.7024
"627",80.814224,610.7156
"628",80.71412,610.729
"629",80.61402,610.7422
"630",80.5066,610.7556
"631",80.377205,610.7688
"632",80.22339,610.7822
"633",80.04028,610.7954
"634",79.83276,610.80884
"635",79.605705,610.822
"636",79.364006,610.83545
"637",79.11253,610.84863
"638",78.86595,610.86206
"639",78.63889,610.87524
"640",78.4387,610.8887
"641",78.277565,610.90186
"642",78.15549,610.9153
"643",78.07004,610.92847
"644",78.011444,610.9419
"645",77.9675,610.9551
"646",77.93332,610.9685
"647",77.90646,610.9817
"648",77.87717,610.9951
"649",77.84787,611.0083
"650",77.806366,611.0217
"651",77.75998,611.0349
"652",77.7087,611.04834
"653",77.65011,611.0615
"654",77.58663,611.07495
"655",77.523155,611.08813
"656",77.45968,611.10156
"657",77.39376,611.11475
"658",77.3254,611.1282
"659",77.24483,611.14136
"660",77.154495,611.1548
"661",77.066605,611.16797
"662",77.00313,611.1814
"663",77.05928,611.1946
"664",77.37423,611.208
"665",78.07736,611.2212
"666",79.183334,611.2346
"667",80.59937,611.2478
"668",82.12283,611.2612
"669",83.509575,611.2744
"670",84.53742,611.28784
"671",85.1136,611.301
"672",85.26986,611.31445
"673",85.09651,611.32764
"674",84.701,611.34106
"675",84.18829,611.35425
"676",83.63653,611.3677
"677",83.11894,611.38086
"678",82.67704,611.3943
"679",82.3328,611.4075
"680",82.08377,611.4209
"681",81.90311,611.4341
"682",81.75418,611.4475
"683",81.61013,611.4607
"684",81.45876,611.4741
"685",81.307396,611.4873
"686",81.163345,611.50073
"687",81.041275,611.5139
"688",80.94362,611.52734
"689",80.86061,611.5405
"690",80.782486,611.55396
"691",80.689705,611.56714
"692",80.57252,611.58057
"693",80.42603,611.59375
"694",80.24292,611.6072
"695",80.03052,611.62036
"696",79.7937,611.6338
"697",79.534904,611.647
"698",79.26635,611.6604
"699",79.00267,611.6736
"700",78.751205,611.687
"701",78.52903,611.7002
"702",78.34104,611.7136
"703",78.19699,611.7268
"704",78.08957,611.74023
"705",78.011444,611.7534
"706",77.95529,611.76685
"707",77.91867,611.78
"708",77.89426,611.79346
"709",77.874725,611.80664
"710",77.855194,611.82007
"711",77.83566,611.83325
"712",77.81125,611.8467
"713",77.77951,611.85986
"714",77.74044,611.8733
"715",77.69161,611.8865
"716",77.63058,611.8999
"717",77.56222,611.9131
"718",77.48409,611.9265
"719",77.401085,611.9397
"720",77.313194,611.9531
"721",77.225296,611.9663
"722",77.13985,611.97974
"723",77.10811,611.9929
"724",77.23262,612.00635
"725",77.662315,612.01953
"726",78.504616,612.03296
"727",79.73998,612.04614
"728",81.231705,612.0596
"729",82.74784,612.07275
"730",84.03693,612.0862
"731",84.910965,612.09937
"732",85.32357,612.1128
"733",85.34066,612.126
"734",85.067215,612.1394
"735",84.60578,612.1526
"736",84.04913,612.166
"737",83.47295,612.1792
"738",82.94072,612.1926
"739",82.48661,612.2058
"740",82.127716,612.21924
"741",81.85672,612.2324
"742",81.64919,612.24585
"743",81.47341,612.25903
"744",81.30984,612.27246
"745",81.15358,612.28564
"746",81.01686,612.2991
"747",80.90456,612.31226
"748",80.81911,612.3257
"749",80.75563,612.33887
"750",80.69703,612.3523
"751",80.62623,612.3655
"752",80.52857,612.3789
"753",80.394295,612.3921
"754",80.22095,612.4055
"755",80.01099,612.4187
"756",79.77173,612.4321
"757",79.50805,612.4453
"758",79.22972,612.45874
"759",78.9514,612.4719
"760",78.68284,612.48535
"761",78.42893,612.49854
"762",78.21408,612.51196
"763",78.03586,612.52515
"764",77.90158,612.5386
"765",77.79904,612.55176
"766",77.733116,612.5652
"767",77.68917,612.57837
"768",77.659874,612.5918
"769",77.64034,612.605
"770",77.625694,612.6184
"771",77.61593,612.6316
"772",77.60128,612.645
"773",77.58419,612.6582
"774",77.56466,612.67163
"775",77.5378,612.6848
"776",77.50118,612.69824
"777",77.44503,612.7114
"778",77.366905,612.72485
"779",77.26925,612.73804
"780",77.15694,612.75146
"781",77.04707,612.76465
"782",76.995804,612.7781
"783",77.117874,612.79126
"784",77.56466,612.8047
"785",78.43626,612.8179
"786",79.69604,612.8313
"787",81.19508,612.8445
"788",82.701454,612.8579
"789",83.9588,612.8711
"790",84.78645,612.8845
"791",85.14778,612.8977
"792",85.11604,612.91113
"793",84.79866,612.9243
"794",84.31037,612.93774
"795",83.74151,612.9509
"796",83.17021,612.96436
"797",82.6453,612.97754
"798",82.19852,612.99097
"799",81.84207,613.00415
"800",81.56863,613.0176
"801",81.3489,613.03076
"802",81.16823,613.0442
"803",81.0193,613.0574
"804",80.89967,613.0708
"805",80.816666,613.084
"806",80.77272,613.0974
"807",80.765396,613.1106
"808",80.77516,613.124
"809",80.77516,613.1372
"810",80.74586,613.15063
"811",80.672615,613.1638
"812",80.5481,613.17725
"813",80.37232,613.1904
"814",80.147705,613.20386
"815",79.886475,613.21704
"816",79.59594,613.23047
"817",79.29565,613.24365
"818",79.00023,613.2571
"819",78.72678,613.27026
"820",78.48997,613.2837
"821",78.294655,613.2969
"822",78.14572,613.3103
"823",78.03342,613.3235
"824",77.95285,613.3369
"825",77.89914,613.3501
"826",77.86984,613.3635
"827",77.857635,613.3767
"828",77.86252,613.39014
"829",77.8674,613.4033
"830",77.86984,613.41675
"831",77.86008,613.42993
"832",77.840546,613.44336
"833",77.803925,613.45654
"834",77.75021,613.47
"835",77.67696,613.48315
"836",77.58907,613.4966
"837",77.48409,613.50977
"838",77.37911,613.5232
"839",77.33517,613.5364
"840",77.469444,613.5498
"841",77.925995,613.563
"842",78.79027,613.5764
"843",80.01831,613.5896
"844",81.46609,613.603
"845",82.899216,613.6162
"846",84.07843,613.62964
"847",84.83772,613.6428
"848",85.15022,613.65625
"849",85.09163,613.66943
"850",84.76692,613.68286
"851",84.27863,613.69604
"852",83.719536,613.7095
"853",83.16777,613.72266
"854",82.669716,613.7361
"855",82.25712,613.74927
"856",81.934845,613.7627
"857",81.688255,613.7759
"858",81.495384,613.7893
"859",81.32693,613.8025
"860",81.180435,613.8159
"861",81.05592,613.8291
"862",80.96803,613.8425
"863",80.91432,613.8557
"864",80.89235,613.86914
"865",80.87526,613.8823
"866",80.85329,613.89575
"867",80.80446,613.90894
"868",80.71412,613.92236
"869",80.57496,613.93555
"870",80.38941,613.949
"871",80.164795,613.96216
"872",79.906006,613.9756
"873",79.62768,613.9888
"874",79.34692,614.0022
"875",79.07347,614.0154
"876",78.82201,614.0288
"877",78.60227,614.042
"878",78.42161,614.0554
"879",78.277565,614.0686
"880",78.17502,614.08203
"881",78.10422,614.0952
"882",78.05783,614.10864
"883",78.030975,614.1218
"884",78.013885,614.13525
"885",78.00168,614.14844
"886",77.98215,614.16187
"887",77.962616,614.17505
"888",77.945526,614.1885
"889",77.92844,614.20166
"890",77.90646,614.2151
"891",77.872284,614.2283
"892",77.81857,614.2417
"893",77.74044,614.2549
"894",77.645226,614.2683
"895",77.55001,614.2815
"896",77.506065,614.2949
"897",77.63058,614.3081
"898",78.06271,614.32153
"899",78.87816,614.3347
"900",80.059814,614.34814
"901",81.463646,614.3613
"902",82.8748,614.37476
"903",84.0589,614.38794
"904",84.85237,614.40137
"905",85.22102,614.41455
"906",85.22835,614.428
"907",84.96956,614.44116
"908",84.542305,614.4546
"909",84.04181,614.4678
"910",83.53643,614.4812
"911",83.07744,614.4944
"912",82.69413,614.5078
"913",82.406044,614.521
"914",82.20584,614.5344
"915",82.06668,614.5476
"916",81.951935,614.56104
"917",81.84451,614.5742
"918",81.7322,614.58765
"919",81.61013,614.6008
"920",81.48562,614.61426
"921",81.373314,614.62744
"922",81.2781,614.64087
"923",81.1902,614.65405
"924",81.09743,614.6675
"925",80.987564,614.68066
"926",80.848404,614.6941
"927",80.67017,614.7073
"928",80.45045,614.7207
"929",80.18677,614.7339
"930",79.89624,614.7473
"931",79.5935,614.7605
"932",79.29565,614.7739
"933",79.01732,614.7871
"934",78.77318,614.80054
"935",78.56077,614.8137
"936",78.38499,614.82715
"937",78.238495,614.84033
"938",78.13107,614.85376
"939",78.05051,614.86694
"940",77.994354,614.8804
"941",77.95529,614.89355
"942",77.93088,614.907
"943",77.91135,614.92017
"944",77.89426,614.9336
"945",77.874725,614.9468
"946",77.85031,614.9602
"947",77.81613,614.9734
"948",77.75998,614.9868
"949",77.68185,615
"950",77.58419,615.0134
"951",77.471886,615.0266
"952",77.35958,615.04004
"953",77.30831,615.0532
"954",77.420616,615.06665
"955",77.82834,615.07983
"956",78.60471,615.09326
"957",79.725334,615.10645
"958",81.06325,615.1199
"959",82.408485,615.13306
"960",83.543755,615.1465
"961",84.317696,615.15967
"962",84.68879,615.1731
"963",84.71076,615.1863
"964",84.473946,615.1997
"965",84.085754,615.2129
"966",83.63409,615.2263
"967",83.1873,615.2395
"968",82.794235,615.2529
"969",82.48661,615.2661
"970",82.25712,615.27954
"971",82.091095,615.2927
"972",81.95926,615.30615
"973",81.832306,615.31934
"974",81.688255,615.33276
"975",81.5198,615.34595
"976",81.34402,615.3594
"977",81.17067,615.37256
"978",81.0193,615.386
"979",80.89235,615.3992
"980",80.78737,615.4126
"981",80.68482,615.4258
"982",80.57252,615.4392
"983",80.44068,615.4524
"984",80.27955,615.4658
"985",80.08667,615.479
"986",79.86694,615.49243
"987",79.62524,615.5056
"988",79.36889,615.51904
"989",79.11009,615.5322
"990",78.86351,615.54565
"991",78.643776,615.55884
"992",78.45579,615.57227
"993",78.314186,615.58545
"994",78.21408,615.5989
"995",78.14816,615.61206
"996",78.116425,615.6255
"997",78.11154,615.6387
"998",78.116425,615.6521
"999",78.12375,615.6653
"1000",78.12375,615.6787
"1001",78.1091,615.6919
"1002",78.07492,615.7053
"1003",78.01633,615.7185
"1004",77.943085,615.73193
"1005",77.84787,615.7451
"1006",77.738,615.75854
"1007",77.611046,615.7717
"1008",77.47677,615.78516
"1009",77.37179,615.79834
"1010",77.38888,615.81177
"1011",77.642784,615.82495
"1012",78.238495,615.8384
"1013",79.185776,615.85156
"1014",80.40162,615.865
"1015",81.71023,615.8782
"1016",82.90898,615.8916
"1017",83.807434,615.9048
"1018",84.32746,615.9182
"1019",84.48371,615.9314
"1020",84.35432,615.9448
"1021",84.03204,615.958
"1022",83.60967,615.97144
"1023",83.17021,615.9846
"1024",82.76982,615.99805
"1025",82.43778,616.0112
"1026",82.18387,616.02466
"1027",81.99832,616.03784
"1028",81.85184,616.0513
"1029",81.71999,616.06445
"1030",81.57107,616.0779
"1031",81.40749,616.09106
"1032",81.23659,616.1045
"1033",81.075455,616.1177
"1034",80.936295,616.1311
"1035",80.82887,616.1443
"1036",80.73853,616.1577
"1037",80.65308,616.1709
"1038",80.56031,616.1843
"1039",80.44068,616.1975
"1040",80.291756,616.21094
"1041",80.10864,616.2241
"1042",79.89624,616.23755
"1043",79.65453,616.25073
"1044",79.398186,616.26416
"1045",79.13939,616.27734
"1046",78.88548,616.2908
"1047",78.64866,616.30396
"1048",78.44602,616.3174
"1049",78.277565,616.33057
"1050",78.14084,616.344
"1051",78.03586,616.3572
"1052",77.96506,616.3706
"1053",77.91135,616.3838
"1054",77.8674,616.3972
"1055",77.83566,616.4104
"1056",77.79904,616.4238
"1057",77.76242,616.437
"1058",77.713585,616.45044
"1059",77.662315,616.4636
"1060",77.608604,616.47705
"1061",77.54757,616.49023
"1062",77.471886,616.50366
"1063",77.38644,616.51685
"1064",77.28634,616.5303
"1065",77.19844,616.54346
"1066",77.19356,616.5569
"1067",77.383995,616.57007
"1068",77.88205,616.5835
"1069",78.73655,616.5967
"1070",79.8938,616.6101
"1071",81.20241,616.6233
"1072",82.45487,616.6367
"1073",83.458305,616.6499
"1074",84.09552,616.6633
"1075",84.35432,616.6765
"1076",84.31281,616.68994
"1077",84.051575,616.7031
"1078",83.67559,616.71655
"1079",83.26055,616.72974
"1080",82.8748,616.74316
"1081",82.547646,616.75635
"1082",82.30839,616.7698
"1083",82.14725,616.78296
"1084",82.039825,616.7964
"1085",81.951935,616.8096
"1086",81.85672,616.823
"1087",81.73464,616.8362
"1088",81.5906,616.8496
"1089",81.43679,616.8628
"1090",81.29275,616.8762
"1091",81.17311,616.8894
"1092",81.07057,616.90283
"1093",80.97536,616.916
"1094",80.87526,616.92944
"1095",80.75075,616.9426
"1096",80.601814,616.95605
"1097",80.41627,616.96924
"1098",80.198975,616.98267
"1099",79.954834,616.99585
"1100",79.69604,617.0093
"1101",79.42748,617.02246
"1102",79.1638,617.0359
"1103",78.91966,617.0491
"1104",78.69993,617.0625
"1105",78.51438,617.0757
"1106",78.3679,617.0891
"1107",78.25559,617.1023
"1108",78.170135,617.1157
"1109",78.1091,617.1289
"1110",78.06027,617.14233
"1111",78.01877,617.1555
"1112",77.97482,617.16895
"1113",77.92844,617.1821
"1114",77.88205,617.19556
"1115",77.8259,617.20874
"1116",77.75998,617.22217
"1117",77.68185,617.23535
"1118",77.5964,617.2488
"1119",77.49874,617.26196
"1120",77.39132,617.2754
"1121",77.298546,617.2886
"1122",77.279015,617.302
"1123",77.43282,617.3152
"1124",77.8674,617.3286
"1125",78.65354,617.3418
"1126",79.744865,617.3552
"1127",81.01442,617.3684
"1128",82.266884,617.38184
"1129",83.302055,617.395
"1130",83.983215,617.40845
"1131",84.283516,617.42163
"1132",84.263985,617.43506
"1133",84.02228,617.44824
"1134",83.65362,617.4617
"1135",83.245895,617.47485
"1136",82.86992,617.4883
"1137",82.562294,617.50146
"1138",82.33524,617.5149
"1139",82.176544,617.5281
"1140",82.056915,617.5415
"1141",81.94217,617.5547
"1142",81.80545,617.5681
"1143",81.64187,617.5813
"1144",81.461205,617.5947
"1145",81.287865,617.6079
"1146",81.13893,617.62134
"1147",81.01442,617.6345
"1148",80.91432,617.64795
"1149",80.82155,617.66113
"1150",80.72144,617.67456
"1151",80.601814,617.68774
"1152",80.45289,617.7012
"1153",80.26734,617.71436
"1154",80.05493,617.7278
"1155",79.81079,617.74097
"1156",79.551994,617.7544
"1157",79.28344,617.7676
"1158",79.03197,617.781
"1159",78.80003,617.7942
"1160",78.59983,617.8076
"1161",78.4387,617.8208
"1162",78.3093,617.8342
"1163",78.20676,617.8474
"1164",78.12375,617.86084
"1165",78.06271,617.874
"1166",78.013885,617.88745
"1167",77.97482,617.90063
"1168",77.9382,617.91406
"1169",77.89914,617.92725
"1170",77.85031,617.9407
"1171",77.79172,617.95386
"1172",77.71603,617.9673
"1173",77.628136,617.98047
"1174",77.52804,617.9939
"1175",77.41085,618.0071
"1176",77.29366,618.0205
"1177",77.20088,618.0337
"1178",77.188675,618.0471
"1179",77.36446,618.0603
"1180",77.83566,618.0737
"1181",78.641335,618.0869
"1182",79.73754,618.10034
"1183",80.98024,618.1135
"1184",82.17166,618.12695
"1185",83.12871,618.14014
"1186",83.7293,618.15356
"1187",83.96857,618.16675
"1188",83.9173,618.1802
"1189",83.66827,618.19336
"1190",83.31426,618.2068
"1191",82.93828,618.22
"1192",82.598915,618.2334
"1193",82.32548,618.2466
"1194",82.127716,618.26
"1195",81.986115,618.2732
"1196",81.87381,618.2866
"1197",81.75662,618.2998
"1198",81.617455,618.31323
"1199",81.449,618.3264
"1200",81.27566,618.33984
"1201",81.109634,618.353
"1202",80.970474,618.36646
"1203",80.85817,618.37964
"1204",80.765396,618.39307
"1205",80.672615,618.40625
"1206",80.56519,618.4197
"1207",80.4358,618.43286
"1208",80.27711,618.4463
"1209",80.08423,618.4595
"1210",79.86206,618.4729
"1211",79.62035,618.4861
"1212",79.364006,618.4995
"1213",79.10765,618.5127
"1214",78.86107,618.5261
"1215",78.63889,618.5393
"1216",78.44358,618.55273
"1217",78.28245,618.5659
"1218",78.15793,618.57935
"1219",78.0676,618.5925
"1220",78.00656,618.60596
"1221",77.9675,618.61914
"1222",77.9382,618.63257
"1223",77.91135,618.64575
"1224",77.88205,618.6592
"1225",77.840546,618.67236
"1226",77.78439,618.6858
"1227",77.7087,618.699
"1228",77.61837,618.7124
"1229",77.51339,618.7256
"1230",77.39864,618.739
"1231",77.296104,618.7522
"1232",77.26925,618.7656
"1233",77.40841,618.7788
"1234",77.823456,618.79224
"1235",78.551,618.8054
"1236",79.54955,618.81885
"1237",80.69703,618.83203
"1238",81.81033,618.84546
"1239",82.70634,618.85864
"1240",83.27764,618.8721
"1241",83.509575,618.88525
"1242",83.45342,618.8987
"1243",83.194626,618.91187
"1244",82.82597,618.9253
"1245",82.425575,618.9385
"1246",82.05203,618.9519
"1247",81.74929,618.9651
"1248",81.52224,618.9785
"1249",81.36111,618.9917
"1250",81.234146,619.0051
"1251",81.1194,619.0183
"1252",80.990005,619.03174
"1253",80.85329,619.0449
"1254",80.71656,619.05835
"1255",80.59937,619.07153
"1256",80.51881,619.08496
"1257",80.465096,619.09814
"1258",80.430916,619.1116
"1259",80.39918,619.12476
"1260",80.35035,619.1382
"1261",80.26734,619.15137
"1262",80.14282,619.1648
"1263",79.96948,619.178
"1264",79.75952,619.1914
"1265",79.5227,619.2046
"1266",79.273674,619.218
"1267",79.029526,619.2312
"1268",78.802475,619.2446
"1269",78.60227,619.2578
"1270",78.4387,619.27124
"1271",78.311745,619.2844
"1272",78.221405,619.29785
"1273",78.16037,619.31104
"1274",78.118866,619.32446
"1275",78.09201,619.33765
"1276",78.07248,619.3511
"1277",78.05051,619.36426
"1278",78.013885,619.3777
"1279",77.95773,619.39087
"1280",77.874725,619.4043
"1281",77.77463,619.4175
"1282",77.67208,619.4309
"1283",77.61349,619.4441
"1284",77.68429,619.4575
"1285",77.977264,619.4707
"1286",78.54368,619.48413
"1287",79.37621,619.4973
"1288",80.37476,619.51074
"1289",81.38064,619.5239
"1290",82.22537,619.53735
"1291",82.78447,619.55054
"1292",83.02373,619.56396
"1293",82.98222,619.57715
"1294",82.738075,619.5906
"1295",82.37919,619.60376
"1296",81.98123,619.6172
"1297",81.61013,619.6304
"1298",81.304955,619.6438
"1299",81.08034,619.657
"1300",80.92653,619.6704
"1301",80.81178,619.6836
"1302",80.70435,619.697
"1303",80.58961,619.7102
"1304",80.465096,619.72363
"1305",80.34547,619.7368
"1306",80.24536,619.75024
"1307",80.184326,619.7634
"1308",80.15747,619.77686
"1309",80.15259,619.79004
"1310",80.15015,619.80347
"1311",80.13306,619.81665
"1312",80.08179,619.8301
"1313",79.98413,619.84326
"1314",79.835205,619.8567
"1315",79.64233,619.8699
"1316",79.415276,619.8833
"1317",79.17601,619.8965
"1318",78.93675,619.9099
"1319",78.71702,619.9231
"1320",78.52903,619.9365
"1321",78.37766,619.9497
"1322",78.2678,619.96313
"1323",78.19455,619.9763
"1324",78.150604,619.98975
"1325",78.12863,620.0029
"1326",78.118866,620.01636
"1327",78.10666,620.02954
"1328",78.082245,620.04297
"1329",78.04562,620.05615
"1330",77.98703,620.0696
"1331",77.90646,620.08276
"1332",77.82834,620.0962
"1333",77.78439,620.1094
"1334",77.840546,620.1228
"1335",78.09201,620.136
"1336",78.607155,620.1494
"1337",79.38354,620.1626
"1338",80.343025,620.176
"1339",81.341576,620.1892
"1340",82.20584,620.20264
"1341",82.80644,620.2158
"1342",83.09453,620.22925
"1343",83.10185,620.24243
"1344",82.899216,620.25586
"1345",82.5745,620.26904
"1346",82.2034,620.2825
"1347",81.849396,620.29565
"1348",81.55398,620.3091
"1349",81.33425,620.32227
"1350",81.18288,620.3357
"1351",81.077896,620.3489
"1352",80.98512,620.3623
"1353",80.8777,620.3755
"1354",80.740974,620.3889
"1355",80.59449,620.4021
"1356",80.45289,620.4155
"1357",80.3357,620.4287
"1358",80.25269,620.44214
"1359",80.201416,620.4553
"1360",80.16968,620.46875
"1361",80.14282,620.48193
"1362",80.096436,620.49536
"1363",80.02075,620.50854
"1364",79.90845,620.522
"1365",79.7522,620.53516
"1366",79.55932,620.5486
"1367",79.344475,620.56177
"1368",79.11986,620.5752
"1369",78.89769,620.5884
"1370",78.695045,620.6018
"1371",78.52415,620.615
"1372",78.39475,620.6284
"1373",78.30442,620.6416
"1374",78.24582,620.655
"1375",78.21896,620.6682
"1376",78.21164,620.68164
"1377",78.204315,620.6948
"1378",78.18967,620.70825
"1379",78.16281,620.72144
"1380",78.11154,620.73486
"1381",78.04074,620.74805
"1382",77.95773,620.7615
"1383",77.88449,620.77466
"1384",77.872284,620.7881
"1385",77.98947,620.8013
"1386",78.328835,620.8147
"1387",78.941635,620.8279
"1388",79.80347,620.8413
"1389",80.80446,620.8545
"1390",81.78592,620.8679
"1391",82.581825,620.8811
"1392",83.08476,620.89453
"1393",83.27276,620.9077
"1394",83.20683,620.92114
"1395",82.97246,620.9343
"1396",82.65751,620.94775
"1397",82.3328,620.96094
"1398",82.04715,620.97437
"1399",81.82742,620.98755
"1400",81.68337,621.001
"1401",81.59548,621.01416
"1402",81.53445,621.0276
"1403",81.461205,621.0408
"1404",81.35134,621.0542
"1405",81.19508,621.0674
"1406",81.00221,621.0808
"1407",80.79469,621.094
"1408",80.6067,621.1074
"1409",80.45777,621.1206
"1410",80.35767,621.13403
"1411",80.291756,621.1472
"1412",80.24292,621.16064
"1413",80.19165,621.1738
"1414",80.113525,621.18726
"1415",79.99634,621.20044
"1416",79.835205,621.21387
"1417",79.63744,621.22705
"1418",79.41772,621.2405
"1419",79.19066,621.25366
"1420",78.96605,621.2671
"1421",78.76341,621.2803
"1422",78.590065,621.2937
"1423",78.45335,621.3069
"1424",78.348366,621.3203
"1425",78.28001,621.3335
"1426",78.23605,621.3469
"1427",78.204315,621.3601
"1428",78.17746,621.37354
"1429",78.14572,621.3867
"1430",78.1091,621.40015
"1431",78.05783,621.4133
"1432",77.994354,621.42676
"1433",77.91867,621.43994
"1434",77.838104,621.45337
"1435",77.7673,621.46655
"1436",77.769745,621.48
"1437",77.92844,621.49316
"1438",78.331276,621.5066
"1439",79.00023,621.5198
"1440",79.89624,621.5332
"1441",80.89235,621.5464
"1442",81.832306,621.5598
"1443",82.55741,621.573
"1444",82.99443,621.5864
"1445",83.13359,621.5996
"1446",83.04082,621.61304
"1447",82.791794,621.6262
"1448",82.4744,621.63965
"1449",82.15457,621.65283
"1450",81.883575,621.66626
"1451",81.6907,621.67944
"1452",81.57839,621.6929
"1453",81.514915,621.70605
"1454",81.47097,621.7195
"1455",81.40749,621.73267
"1456",81.29519,621.7461
"1457",81.126724,621.7593
"1458",80.91432,621.7727
"1459",80.689705,621.7859
"1460",80.48463,621.7993
"1461",80.31129,621.8125
"1462",80.17944,621.8259
"1463",80.08423,621.8391
"1464",80.0061,621.85254
"1465",79.92554,621.8657
"1466",79.83032,621.87915
"1467",79.71313,621.89233
"1468",79.569084,621.90576
"1469",79.3933,621.91895
"1470",79.19554,621.9324
"1471",78.98558,621.94556
"1472",78.77562,621.959
"1473",78.57786,621.97217
"1474",78.40208,621.9856
"1475",78.260475,621.9988
"1476",78.14572,622.0122
"1477",78.06027,622.0254
"1478",77.994354,622.0388
"1479",77.94797,622.052
"1480",77.90646,622.0654
"1481",77.86496,622.0786
"1482",77.81369,622.09204
"1483",77.75754,622.1052
"1484",77.69894,622.11865
"1485",77.64034,622.13184
"1486",77.58175,622.14526
"1487",77.5256,622.15845
"1488",77.46212,622.1719
"1489",77.3962,622.18506
"1490",77.3254,622.1985
"1491",77.279015,622.2117
"1492",77.315636,622.2251
"1493",77.53292,622.2383
"1494",78.013885,622.2517
"1495",78.79515,622.2649
"1496",79.81323,622.2783
"1497",80.94118,622.2915
"1498",81.99588,622.30493
"1499",82.80888,622.3181
"1500",83.28741,622.33154
"1501",83.438774,622.3447
"1502",83.33135,622.35815
"1503",83.06279,622.37134
"1504",82.72831,622.38477
"1505",82.40116,622.39795
"1506",82.1326,622.4114
"1507",81.94949,622.42456
"1508",81.846954,622.438
"1509",81.80301,622.4512
"1510",81.778595,622.4646
"1511",81.7322,622.4778
"1512",81.62966,622.4912
"1513",81.45876,622.5044
"1514",81.234146,622.5178
"1515",80.98512,622.531
"1516",80.740974,622.54443
"1517",80.52857,622.5576
"1518",80.35523,622.57104
"1519",80.22339,622.5842
"1520",80.11597,622.59766
"1521",80.02075,622.61084
"1522",79.92554,622.62427
"1523",79.81323,622.63745
"1524",79.674065,622.6509
"1525",79.51293,622.66406
"1526",79.33471,622.6775
"1527",79.14183,622.6907
"1528",78.94896,622.7041
"1529",78.765854,622.7173
"1530",78.59251,622.7307
"1531",78.44358,622.7439
"1532",78.32395,622.7573
"1533",78.238495,622.7705
"1534",78.1799,622.78394
"1535",78.14572,622.7971
"1536",78.116425,622.81055
"1537",78.08713,622.8237
"1538",78.05051,622.83716
"1539",78.00412,622.85034
"1540",77.94797,622.8638
"1541",77.89426,622.87695
"1542",77.840546,622.8904
"1543",77.789276,622.90356
"1544",77.738,622.917
"1545",77.68429,622.9302
"1546",77.625694,622.9436
"1547",77.574425,622.9568
"1548",77.53048,622.9702
"1549",77.540245,622.9834
"1550",77.68185,622.9968
"1551",78.04318,623.01
"1552",78.68284,623.02344
"1553",79.586174,623.0366
"1554",80.65064,623.05005
"1555",81.71023,623.06323
"1556",82.59159,623.07666
"1557",83.16777,623.08984
"1558",83.41192,623.1033
"1559",83.370415,623.11646
"1560",83.13847,623.1299
"1561",82.80888,623.14307
"1562",82.46464,623.1565
"1563",82.15701,623.1697
"1564",81.92264,623.1831
"1565",81.761505,623.1963
"1566",81.66628,623.2097
"1567",81.602806,623.2229
"1568",81.53445,623.2363
"1569",81.42947,623.2495
"1570",81.27566,623.26294
"1571",81.06813,623.2761
"1572",80.83864,623.28955
"1573",80.60914,623.30273
"1574",80.40894,623.31616
"1575",80.2478,623.32935
"1576",80.128174,623.3428
"1577",80.03296,623.35596
"1578",79.94995,623.3694
"1579",79.85718,623.38257
"1580",79.7522,623.396
"1581",79.622795,623.4092
"1582",79.47143,623.4226
"1583",79.29809,623.4358
"1584",79.10765,623.4492
"1585",78.91478,623.4624
"1586",78.73167,623.4758
"1587",78.56565,623.489
"1588",78.43137,623.50244
"1589",78.32639,623.5156
"1590",78.24582,623.52905
"1591",78.18967,623.54224
"1592",78.14816,623.55566
"1593",78.116425,623.56885
"1594",78.08713,623.5823
"1595",78.05295,623.59546
"1596",78.013885,623.6089
"1597",77.9675,623.6221
"1598",77.92111,623.6355
"1599",77.874725,623.6487
"1600",77.83322,623.6621
"1601",77.79904,623.6753
"1602",77.7673,623.6887
"1603",77.730675,623.7019
"1604",77.68429,623.71533
"1605",77.625694,623.7285
"1606",77.56466,623.74194
"1607",77.51583,623.7551
"1608",77.5256,623.76855
"1609",77.67452,623.78174
"1610",78.06271,623.79517
"1611",78.746315,623.80835
"1612",79.70336,623.8218
"1613",80.82887,623.83496
"1614",81.94949,623.8484
"1615",82.882126,623.8616
"1616",83.49493,623.875
"1617",83.76105,623.8882
"1618",83.7293,623.9016
"1619",83.49737,623.9148
"1620",83.15312,623.9282
"1621",82.78447,623.9414
"1622",82.44511,623.95483
"1623",82.178986,623.968
"1624",81.99344,623.98145
"1625",81.881134,623.9946
"1626",81.812775,624.00806
"1627",81.74685,624.02124
"1628",81.64675,624.03467
"1629",81.497826,624.04785
"1630",81.30007,624.0613
"1631",81.08522,624.07446
"1632",80.87282,624.0879
"1633",80.68482,624.1011
"1634",80.52857,624.1145
"1635",80.40162,624.1277
"1636",80.2942,624.1411
"1637",80.19409,624.1543
"1638",80.093994,624.1677
"1639",79.97681,624.1809
"1640",79.83765,624.19434
"1641",79.68139,624.2075
"1642",79.51049,624.22095
"1643",79.3225,624.23413
"1644",79.132065,624.24756
"1645",78.9514,624.26074
"1646",78.785385,624.2742
"1647",78.64622,624.28735
"1648",78.536354,624.3008
"1649",78.45823,624.31396
"1650",78.40208,624.3274
"1651",78.35813,624.3406
"1652",78.32151,624.354
"1653",78.28977,624.3672
"1654",78.25315,624.3806
"1655",78.2092,624.3938
"1656",78.16037,624.4072
"1657",78.10666,624.4204
"1658",78.05295,624.43384
"1659",78.00168,624.447
"1660",77.95285,624.46045
"1661",77.908905,624.47363
"1662",77.86496,624.48706
"1663",77.821014,624.50024
"1664",77.77463,624.5137
"1665",77.730675,624.52686
"1666",77.68673,624.5403
"1667",77.645226,624.55347
"1668",77.62325,624.5669
"1669",77.662315,624.5801
"1670",77.86008,624.5935
"1671",78.314186,624.6067
"1672",79.07591,624.6201
"1673",80.10376,624.6333
"1674",81.27322,624.6467
"1675",82.39872,624.6599
"1676",83.29229,624.67334
"1677",83.844055,624.6865
"1678",84.04181,624.69995
"1679",83.949036,624.71313
"1680",83.66338,624.72656
"1681",83.2752,624.73975
"1682",82.86748,624.7532
"1683",82.49882,624.76636
"1684",82.2034,624.7798
"1685",81.99344,624.79297
"1686",81.8616,624.8064
"1687",81.77371,624.8196
"1688",81.688255,624.833
"1689",81.57595,624.8462
"1690",81.42458,624.8596
"1691",81.24147,624.8728
"1692",81.04372,624.8862
"1693",80.86305,624.8994
"1694",80.71168,624.91284
"1695",80.59205,624.926
"1696",80.49195,624.93945
"1697",80.40894,624.95264
"1698",80.31861,624.96606
"1699",80.21362,624.97925
"1700",80.08423,624.9927
"1701",79.92798,625.00586
"1702",79.742424,625.0193
"1703",79.54223,625.0325
"1704",79.33227,625.0459
"1705",79.12718,625.0591
"1706",78.93431,625.0725
"1707",78.765854,625.0857
"1708",78.62913,625.0991
"1709",78.52415,625.1123
"1710",78.450905,625.12573
"1711",78.40452,625.1389
"1712",78.37034,625.15234
"1713",78.345924,625.1655
"1714",78.31907,625.17896
"1715",78.28977,625.19214
"1716",78.25071,625.20557
"1717",78.2092,625.21875
"1718",78.167694,625.2322
"1719",78.12619,625.24536
"1720",78.0798,625.2588
"1721",78.028534,625.272
"1722",77.97482,625.2854
"1723",77.91623,625.2986
"1724",77.857635,625.312
"1725",77.7966,625.3252
"1726",77.74044,625.3386
"1727",77.68185,625.3518
"1728",77.62081,625.36523
"1729",77.56466,625.3784
"1730",77.54513,625.39185
"1731",77.64034,625.405
"1732",77.962616,625.41846
"1733",78.59983,625.43164
"1734",79.54955,625.44507
"1735",80.719,625.45825
"1736",81.93729,625.4717
"1737",83.001755,625.48486
"1738",83.75128,625.4983
"1739",84.12482,625.5115
"1740",84.156555,625.5249
"1741",83.931946,625.5381
"1742",83.543755,625.5515
"1743",83.089645,625.5647
"1744",82.64286,625.5781
"1745",82.25712,625.5913
"1746",81.95682,625.60474
"1747",81.74685,625.6179
"1748",81.60769,625.63135
"1749",81.50759,625.64453
"1750",81.409935,625.65796
"1751",81.29519,625.67114
"1752",81.16579,625.6846
"1753",81.02174,625.69775
"1754",80.88014,625.7112
"1755",80.75807,625.72437
"1756",80.66041,625.7378
"1757",80.5774,625.751
"1758",80.499275,625.7644
"1759",80.411385,625.7776
"1760",80.29664,625.791
"1761",80.15503,625.8042
"1762",79.98169,625.8176
"1763",79.78638,625.8308
"1764",79.57641,625.84424
"1765",79.35912,625.8574
"1766",79.14427,625.87085
"1767",78.93919,625.88403
"1768",78.75365,625.89746
"1769",78.59739,625.91064
"1770",78.47532,625.9241
"1771",78.382545,625.93726
"1772",78.32395,625.9507
"1773",78.28733,625.96387
"1774",78.26536,625.9773
"1775",78.24582,625.9905
"1776",78.23117,626.0039
"1777",78.21164,626.0171
"1778",78.184784,626.0305
"1779",78.15793,626.0437
"1780",78.12131,626.0571
"1781",78.0798,626.0703
"1782",78.0383,626.08374
"1783",77.99191,626.0969
"1784",77.945526,626.11035
"1785",77.89426,626.12354
"1786",77.83566,626.13696
"1787",77.7673,626.15015
"1788",77.69161,626.1636
"1789",77.611046,626.17676
"1790",77.53292,626.1902
"1791",77.49874,626.20337
"1792",77.58663,626.2168
"1793",77.91623,626.23
"1794",78.58274,626.2434
"1795",79.5935,626.2566
"1796",80.8362,626.27
"1797",82.125275,626.2832
"1798",83.245895,626.29663
"1799",84.01984,626.3098
"1800",84.39094,626.32324
"1801",84.403145,626.3364
"1802",84.14435,626.34985
"1803",83.717094,626.36304
"1804",83.21416,626.37646
"1805",82.7161,626.38965
"1806",82.269325,626.4031
"1807",81.91043,626.41626
"1808",81.64431,626.4297
"1809",81.461205,626.4429
"1810",81.322044,626.4563
"1811",81.19508,626.4695
"1812",81.06813,626.4829
"1813",80.94606,626.4961
"1814",80.833755,626.5095
"1815",80.743416,626.5227
"1816",80.67994,626.53613
"1817",80.638435,626.5493
"1818",80.59937,626.56274
"1819",80.54566,626.5759
"1820",80.462654,626.58936
"1821",80.34547,626.60254
"1822",80.19165,626.61597
"1823",80.00122,626.62915
"1824",79.78638,626.6426
"1825",79.55688,626.65576
"1826",79.31762,626.6692
"1827",79.08324,626.6824
"1828",78.85863,626.6958
"1829",78.65354,626.709
"1830",78.4802,626.7224
"1831",78.345924,626.7356
"1832",78.25315,626.749
"1833",78.19943,626.7622
"1834",78.17258,626.77563
"1835",78.16037,626.7888
"1836",78.153046,626.80225
"1837",78.14084,626.8154
"1838",78.12619,626.82886
"1839",78.10422,626.84204
"1840",78.07492,626.85547
"1841",78.04562,626.86865
"1842",78.013885,626.8821
"1843",77.979706,626.89526
"1844",77.943085,626.9087
"1845",77.8967,626.9219
"1846",77.83566,626.9353
"1847",77.75754,626.9485
"1848",77.67208,626.9619
"1849",77.57931,626.9751
"1850",77.49386,626.9885
"1851",77.452354,627.0017
"1852",77.54757,627.01514
"1853",77.908905,627.0283
"1854",78.63401,627.04175
"1855",79.71557,627.05493
"1856",81.03639,627.06836
"1857",82.38651,627.08154
"1858",83.54131,627.095
"1859",84.315254,627.10815
"1860",84.65705,627.1216
"1861",84.630196,627.13477
"1862",84.32746,627.1482
"1863",83.85382,627.1614
"1864",83.302055,627.1748
"1865",82.74052,627.188
"1866",82.230255,627.2014
"1867",81.80301,627.2146
"1868",81.46853,627.228
"1869",81.214615,627.2412
"1870",81.01686,627.25464
"1871",80.850845,627.2678
"1872",80.70191,627.28125
"1873",80.567635,627.29443
"1874",80.46021,627.30786
"1875",80.38453,627.32104
"1876",80.34058,627.3345
"1877",80.32105,627.34766
"1878",80.306404,627.3611
"1879",80.274666,627.37427
"1880",80.21118,627.3877
"1881",80.111084,627.4009
"1882",79.95972,627.4143
"1883",79.766846,627.4275
"1884",79.534904,627.4409
"1885",79.27123,627.4541
"1886",78.99046,627.4675
"1887",78.709694,627.4807
"1888",78.44846,627.49414
"1889",78.21408,627.5073
"1890",78.02609,627.52075
"1891",77.87961,627.53394
"1892",77.78195,627.54736
"1893",77.71847,627.56055
"1894",77.68673,627.574
"1895",77.68185,627.58716
"1896",77.696495,627.6006
"1897",77.72335,627.6138
"1898",77.75021,627.6272
"1899",77.77219,627.6404
"1900",77.78439,627.6538
"1901",77.789276,627.667
"1902",77.77951,627.6804
"1903",77.7551,627.6936
"1904",77.71603,627.70703
"1905",77.65743,627.7202
"1906",77.57931,627.73364
"1907",77.486534,627.7468
"1908",77.383995,627.76025
"1909",77.28878,627.77344
"1910",77.264366,627.78687
"1911",77.435265,627.80005
"1912",77.94797,627.8135
"1913",78.87816,627.82666
"1914",80.17212,627.8401
"1915",81.6614,627.8533
"1916",83.09209,627.8667
"1917",84.21759,627.8799
"1918",84.88899,627.8933
"1919",85.101395,627.9065
"1920",84.945145,627.9199
"1921",84.54475,627.9331
"1922",84.000305,627.94653
"1923",83.404594,627.9597
"1924",82.81865,627.97314
"1925",82.28397,627.9863
"1926",81.829865,627.99976
"1927",81.461205,628.01294
"1928",81.17311,628.02637
"1929",80.94606,628.03955
"1930",80.7776,628.053
"1931",80.66285,628.06616
"1932",80.60914,628.0796
"1933",80.621346,628.0928
"1934",80.689705,628.1062
"1935",80.78493,628.1194
"1936",80.87526,628.1328
"1937",80.92409,628.146
"1938",80.90456,628.1594
"1939",80.814224,628.1726
"1940",80.655525,628.18604
"1941",80.43824,628.1992
"1942",80.177,628.21265
"1943",79.89136,628.2258
"1944",79.59106,628.23926
"1945",79.290764,628.25244
"1946",79.00023,628.26587
"1947",78.73411,628.27905
"1948",78.502174,628.2925
"1949",78.314186,628.30566
"1950",78.17258,628.3191
"1951",78.07492,628.3323
"1952",78.01877,628.3457
"1953",77.99191,628.3589
"1954",77.98703,628.3723
"1955",77.99191,628.3855
"1956",78.009,628.3989
"1957",78.028534,628.4121
"1958",78.04318,628.42554
"1959",78.048065,628.4387
"1960",78.0383,628.45215
"1961",78.011444,628.46533
"1962",77.96506,628.47876
"1963",77.90158,628.49194
"1964",77.8259,628.5054
"1965",77.7673,628.51855
"1966",77.803925,628.532
"1967",78.07492,628.54517
"1968",78.70481,628.5586
"1969",79.7351,628.5718
"1970",81.075455,628.5852
"1971",82.54276,628.5984
"1972",83.878235,628.6118
"1973",84.86702,628.625
"1974",85.40658,628.6384
"1975",85.521324,628.6516
"1976",85.30404,628.66504
"1977",84.8719,628.6782
"1978",84.32746,628.69165
"1979",83.75372,628.70483
"1980",83.209274,628.71826
"1981",82.73319,628.73145
"1982",82.34257,628.7449
"1983",82.037384,628.75806
"1984",81.795685,628.7715
"1985",81.59548,628.78467
"1986",81.42214,628.7981
"1987",81.27322,628.8113
"1988",81.146255,628.8247
"1989",81.058365,628.8379
"1990",81.00221,628.8513
"1991",80.970474,628.8645
"1992",80.94606,628.8779
"1993",80.90944,628.8911
"1994",80.84108,628.90454
"1995",80.73121,628.9177
"1996",80.57252,628.93115
"1997",80.365,628.94434
"1998",80.11841,628.95776
"1999",79.84985,628.97095
"2000",79.5642,628.9844
"2001",79.27856,628.99756
"2002",79.00267,629.011
"2003",78.75365,629.0242
"2004",78.538795,629.0376
"2005",78.3679,629.0508
"2006",78.24582,629.0642
"2007",78.16281,629.0774
"2008",78.10666,629.0908
"2009",78.065155,629.104
"2010",78.0383,629.11743
"2011",78.01633,629.1306
"2012",78.00168,629.14404
"2013",77.99191,629.1572
"2014",77.977264,629.17065
"2015",77.95285,629.18384
"2016",77.91867,629.19727
"2017",77.86984,629.21045
"2018",77.803925,629.2239
"2019",77.72335,629.23706
"2020",77.64767,629.2505
"2021",77.61837,629.2637
"2022",77.74532,629.2771
"2023",78.170135,629.2903
"2024",78.97337,629.3037
"2025",80.130615,629.3169
"2026",81.50027,629.3303
"2027",82.879684,629.3435
"2028",84.03204,629.35693
"2029",84.79866,629.3701
"2030",85.152664,629.38354
"2031",85.15022,629.3967
"2032",84.88655,629.41016
"2033",84.46174,629.42334
"2034",83.96857,629.43677
"2035",83.475395,629.44995
"2036",83.04082,629.4634
"2037",82.68925,629.47656
"2038",82.42802,629.49
"2039",82.24002,629.5032
"2040",82.091095,629.5166
"2041",81.95438,629.5298
"2042",81.81033,629.5432
"2043",81.65896,629.5564
"2044",81.50515,629.5698
"2045",81.358665,629.583
"2046",81.231705,629.59644
"2047",81.1194,629.6096
"2048",81.01686,629.62305
"2049",80.91188,629.6362
"2050",80.79469,629.64966
"2051",80.655525,629.66284
"2052",80.48707,629.6763
"2053",80.28199,629.68945
"2054",80.05005,629.7029
"2055",79.7937,629.71606
"2056",79.52758,629.7295
"2057",79.26147,629.7427
"2058",79.009995,629.7561
"2059",78.785385,629.7693
"2060",78.59251,629.7827
"2061",78.43137,629.7959
"2062",78.30442,629.8093
"2063",78.204315,629.8225
"2064",78.13107,629.83594
"2065",78.07492,629.8491
"2066",78.03342,629.86255
"2067",78.00168,629.87573
"2068",77.977264,629.88916
"2069",77.95041,629.90234
"2070",77.91623,629.9158
"2071",77.872284,629.92896
"2072",77.81857,629.9424
"2073",77.747765,629.95557
"2074",77.65743,629.969
"2075",77.5671,629.9822
"2076",77.51827,629.9956
"2077",77.593956,630.0088
"2078",77.92111,630.0222
"2079",78.58762,630.0354
"2080",79.586174,630.0488
"2081",80.8069,630.062
"2082",82.07156,630.07544
"2083",83.16777,630.0886
"2084",83.93927,630.10205
"2085",84.32502,630.11523
"2086",84.37385,630.12866
"2087",84.16876,630.14185
"2088",83.80499,630.1553
"2089",83.372856,630.16846
"2090",82.948044,630.1819
"2091",82.57206,630.19507
"2092",82.27177,630.2085
"2093",82.04959,630.2217
"2094",81.8909,630.2351
"2095",81.761505,630.2483
"2096",81.634544,630.2617
"2097",81.495384,630.2749
"2098",81.34402,630.2883
"2099",81.18532,630.3015
"2100",81.03883,630.31494
"2101",80.91188,630.3281
"2102",80.8069,630.34155
"2103",80.709236,630.35474
"2104",80.61402,630.36816
"2105",80.50416,630.38135
"2106",80.37232,630.3948
"2107",80.21118,630.40796
"2108",80.02319,630.4214
"2109",79.81323,630.4346
"2110",79.586174,630.448
"2111",79.35668,630.4612
"2112",79.12718,630.4746
"2113",78.91234,630.4878
"2114",78.71946,630.5012
"2115",78.555885,630.5144
"2116",78.42893,630.52783
"2117",78.33372,630.541
"2118",78.26536,630.55444
"2119",78.221405,630.5676
"2120",78.184784,630.58105
"2121",78.15549,630.59424
"2122",78.12375,630.60767
"2123",78.08957,630.62085
"2124",78.048065,630.6343
"2125",77.994354,630.64746
"2126",77.92355,630.6609
"2127",77.840546,630.6741
"2128",77.74288,630.6875
"2129",77.64034,630.7007
"2130",77.57931,630.7141
"2131",77.63546,630.7273
"2132",77.91623,630.7407
"2133",78.504616,630.7539
"2134",79.40063,630.76733
"2135",80.51148,630.7805
"2136",81.68093,630.79395
"2137",82.70878,630.8071
"2138",83.44854,630.82056
"2139",83.83185,630.83374
"2140",83.89288,630.84717
"2141",83.70489,630.86035
"2142",83.36065,630.8738
"2143",82.95537,630.88696
"2144",82.55497,630.9004
"2145",82.213165,630.9136
"2146",81.94461,630.927
"2147",81.74929,630.9402
"2148",81.60525,630.9536
"2149",81.478294,630.9668
"2150",81.3489,630.9802
"2151",81.20729,630.9934
"2152",81.06081,631.00684
"2153",80.91676,631.02
"2154",80.797134,631.03345
"2155",80.70435,631.04663
"2156",80.635994,631.06006
"2157",80.5774,631.07324
"2158",80.516365,631.0867
"2159",80.430916,631.09985
"2160",80.31861,631.1133
"2161",80.16724,631.12646
"2162",79.98657,631.1399
"2163",79.77905,631.1531
"2164",79.5642,631.1665
"2165",79.35424,631.1797
"2166",79.15892,631.1931
"2167",78.98314,631.2063
"2168",78.82933,631.2197
"2169",78.69749,631.2329
"2170",78.58762,631.24634
"2171",78.49729,631.2595
"2172",78.42893,631.27295
"2173",78.380104,631.28613
"2174",78.348366,631.29956
"2175",78.32639,631.31274
"2176",78.30442,631.3262
"2177",78.28001,631.33936
"2178",78.24338,631.3528
"2179",78.19211,631.36597
"2180",78.12619,631.3794
"2181",78.04562,631.3926
"2182",77.95285,631.406
"2183",77.86008,631.4192
"2184",77.80148,631.4326
"2185",77.84787,631.4458
"2186",78.09689,631.4592
"2187",78.62913,631.4724
"2188",79.45678,631.48584
"2189",80.49439,631.499
"2190",81.59548,631.51245
"2191",82.581825,631.52563
"2192",83.29473,631.53906
"2193",83.67315,631.55225
"2194",83.736626,631.5657
"2195",83.560844,631.57886
"2196",83.23369,631.5923
"2197",82.845505,631.60547
"2198",82.46464,631.6189
"2199",82.13992,631.6321
"2200",81.8909,631.6455
"2201",81.71267,631.6587
"2202",81.58816,631.6721
"2203",81.48318,631.6853
"2204",81.37087,631.6987
"2205",81.23903,631.7119
"2206",81.092545,631.72534
"2207",80.9485,631.7385
"2208",80.82399,631.75195
"2209",80.72144,631.76514
"2210",80.638435,631.77856
"2211",80.56031,631.79175
"2212",80.47486,631.8052
"2213",80.365,631.81836
"2214",80.233154,631.8318
"2215",80.076904,631.845
"2216",79.89624,631.8584
"2217",79.69604,631.8716
"2218",79.48608,631.885
"2219",79.27123,631.8982
"2220",79.05882,631.9116
"2221",78.86595,631.9248
"2222",78.69993,631.93823
"2223",78.56809,631.9514
"2224",78.470436,631.96484
"2225",78.40696,631.978
"2226",78.36057,631.99146
"2227",78.32395,632.00464
"2228",78.294655,632.01807
"2229",78.26536,632.03125
"2230",78.23117,632.0447
"2231",78.19211,632.05786
"2232",78.14816,632.0713
"2233",78.08957,632.0845
"2234",78.02365,632.0979
"2235",77.945526,632.1111
"2236",77.857635,632.1245
"2237",77.77219,632.1377
"2238",77.7087,632.1511
"2239",77.733116,632.1643
"2240",77.93576,632.17773
"2241",78.399635,632.1909
"2242",79.14671,632.20435
"2243",80.10864,632.2175
"2244",81.15358,632.23096
"2245",82.10086,632.24414
"2246",82.80156,632.25757
"2247",83.18486,632.27075
"2248",83.26055,632.2842
"2249",83.104294,632.29736
"2250",82.80888,632.3108
"2251",82.459755,632.324
"2252",82.12039,632.3374
"2253",81.832306,632.3506
"2254",81.61257,632.364
"2255",81.461205,632.3772
"2256",81.35134,632.3906
"2257",81.26101,632.4038
"2258",81.160904,632.41724
"2259",81.04616,632.4304
"2260",80.90944,632.44385
"2261",80.76784,632.45703
"2262",80.638435,632.47046
"2263",80.53101,632.48364
"2264",80.44312,632.4971
"2265",80.36744,632.51025
"2266",80.29664,632.5237
"2267",80.216064,632.53687
"2268",80.10864,632.5503
"2269",79.96948,632.5635
"2270",79.80347,632.5769
"2271",79.60815,632.5901
"2272",79.395744,632.6035
"2273",79.18089,632.6167
"2274",78.975815,632.6301
"2275",78.785385,632.6433
"2276",78.61692,632.65674
"2277",78.4802,632.6699
"2278",78.37278,632.68335
"2279",78.29954,632.69653
"2280",78.25071,632.70996
"2281",78.21652,632.72314
"2282",78.19211,632.7366
"2283",78.167694,632.74976
"2284",78.135956,632.7632
"2285",78.09201,632.77637
"2286",78.03586,632.7898
"2287",77.9675,632.803
"2288",77.88693,632.8164
"2289",77.79416,632.8296
"2290",77.70138,632.843
"2291",77.645226,632.8562
"2292",77.69405,632.8696
"2293",77.94064,632.8828
"2294",78.44846,632.89624
"2295",79.21507,632.9094
"2296",80.15503,632.92285
"2297",81.12184,632.93604
"2298",81.951935,632.94946
"2299",82.52079,632.96265
"2300",82.78447,632.9761
"2301",82.77959,632.98926
"2302",82.5745,633.0027
"2303",82.252235,633.01587
"2304",81.8909,633.0293
"2305",81.55886,633.0425
"2306",81.29519,633.0559
"2307",81.109634,633.0691
"2308",80.990005,633.0825
"2309",80.907,633.0957
"2310",80.82643,633.10913
"2311",80.72877,633.1223
"2312",80.61402,633.13574
"2313",80.49439,633.1489
"2314",80.39185,633.16235
"2315",80.31617,633.17554
"2316",80.26978,633.18896
"2317",80.24292,633.20215
"2318",80.22339,633.2156
"2319",80.19409,633.22876
"2320",80.1355,633.2422
"2321",80.0354,633.2554
"2322",79.89624,633.2688
"2323",79.725334,633.282
"2324",79.534904,633.2954
"2325",79.33471,633.3086
"2326",79.14183,633.322
"2327",78.96605,633.3352
"2328",78.81224,633.34863
"2329",78.68772,633.3618
"2330",78.59739,633.37524
"2331",78.538795,633.3884
"2332",78.504616,633.40186
"2333",78.48997,633.41504
"2334",78.48264,633.42847
"2335",78.47532,633.44165
"2336",78.450905,633.4551
"2337",78.4094,633.46826
"2338",78.34348,633.4817
"2339",78.26536,633.4949
"2340",78.18234,633.5083
"2341",78.135956,633.5215
"2342",78.19455,633.5349
"2343",78.44602,633.5481
"2344",78.941635,633.5615
"2345",79.674065,633.5747
"2346",80.56275,633.58813
"2347",81.46853,633.6013
"2348",82.24002,633.61475
"2349",82.757614,633.6279
"2350",82.98955,633.64136
"2351",82.967575,633.65454
"2352",82.76494,633.66797
"2353",82.46464,633.68115
"2354",82.13504,633.6946
"2355",81.82742,633.70776
"2356",81.57595,633.7212
"2357",81.3904,633.7344
"2358",81.25613,633.7478
"2359",81.15602,633.761
"2360",81.06569,633.7744
"2361",80.96559,633.7876
"2362",80.85329,633.801
"2363",80.73609,633.8142
"2364",80.63111,633.82764
"2365",80.550545,633.8408
"2366",80.5066,633.85425
"2367",80.48463,633.86743
"2368",80.46998,633.88086
"2369",80.445564,633.89404
"2370",80.394295,633.9075
"2371",80.30396,633.92065
"2372",80.17456,633.9341
"2373",80.01099,633.94727
"2374",79.82056,633.9607
"2375",79.61303,633.9739
"2376",79.40795,633.9873
"2377",79.219955,634.0005
"2378",79.061264,634.0139
"2379",78.93919,634.0271
"2380",78.856186,634.0405
"2381",78.80736,634.0537
"2382",78.7805,634.06714
"2383",78.768295,634.0803
"2384",78.751205,634.09375
"2385",78.7219,634.10693
"2386",78.675514,634.12036
"2387",78.607155,634.13354
"2388",78.521706,634.147
"2389",78.44602,634.16016
"2390",78.44358,634.1736
"2391",78.59251,634.18677
"2392",78.96361,634.2002
"2393",79.58129,634.2134
"2394",80.38941,634.2268
"2395",81.2781,634.24
"2396",82.09842,634.2534
"2397",82.7161,634.2666
"2398",83.05791,634.28
"2399",83.13847,634.2932
"2400",83.01396,634.30664
"2401",82.760056,634.3198
"2402",82.45731,634.33325
"2403",82.16434,634.34644
"2404",81.9202,634.35986
"2405",81.73708,634.37305
"2406",81.617455,634.3865
"2407",81.53445,634.39966
"2408",81.45876,634.4131
"2409",81.36843,634.4263
"2410",81.24635,634.4397
"2411",81.09987,634.4529
"2412",80.9485,634.4663
"2413",80.814224,634.4795
"2414",80.71412,634.4929
"2415",80.64576,634.5061
"2416",80.60914,634.51953
"2417",80.58228,634.5327
"2418",80.5481,634.54614
"2419",80.48463,634.5593
"2420",80.38697,634.57275
"2421",80.25269,634.58594
"2422",80.08667,634.59937
"2423",79.89624,634.61255
"2424",79.70092,634.626
"2425",79.50805,634.63916
"2426",79.327385,634.6526
"2427",79.17357,634.6658
"2428",79.05638,634.6792
"2429",78.97337,634.6924
"2430",78.91966,634.7058
"2431",78.88548,634.719
"2432",78.8513,634.7324
"2433",78.8098,634.7456
"2434",78.751205,634.75903
"2435",78.67063,634.7722
"2436",78.57542,634.78564
"2437",78.48264,634.7988
"2438",78.42893,634.81226
"2439",78.47776,634.82544
"2440",78.709694,634.83887
"2441",79.18089,634.85205
"2442",79.87915,634.8655
"2443",80.73365,634.87866
"2444",81.61013,634.8921
"2445",82.36698,634.9053
"2446",82.89433,634.9187
"2447",83.15068,634.9319
"2448",83.16533,634.9453
"2449",83.01396,634.9585
"2450",82.76738,634.9719
"2451",82.50614,634.9851
"2452",82.27665,634.99854
"2453",82.108185,635.0117
"2454",82.00076,635.02515
"2455",81.93729,635.0383
"2456",81.881134,635.05176
"2457",81.80301,635.06494
"2458",81.67849,635.07837
"2459",81.50515,635.09155
"2460",81.29275,635.105
"2461",81.077896,635.11816
"2462",80.885025,635.1316
"2463",80.73365,635.1448
"2464",80.62379,635.1582
"2465",80.54322,635.1714
"2466",80.4773,635.1848
"2467",80.40894,635.198
"2468",80.32105,635.2114
"2469",80.201416,635.2246
"2470",80.05249,635.23804
"2471",79.87915,635.2512
"2472",79.67895,635.26465
"2473",79.46899,635.27783
"2474",79.26391,635.29126
"2475",79.07591,635.30444
"2476",78.91966,635.3179
"2477",78.79759,635.33105
"2478",78.70725,635.3445
"2479",78.643776,635.35767
"2480",78.59739,635.3711
"2481",78.56077,635.3843
"2482",78.52659,635.3977
"2483",78.47776,635.4109
"2484",78.40208,635.4243
"2485",78.30198,635.4375
"2486",78.18234,635.4509
"2487",78.08469,635.4641
"2488",78.07492,635.47754
"2489",78.24826,635.4907
"2490",78.65598,635.50415
"2491",79.30297,635.51733
"2492",80.12573,635.53076
"2493",81.00221,635.54395
"2494",81.78348,635.5574
"2495",82.357216,635.57056
"2496",82.67216,635.584
"2497",82.75273,635.59717
"2498",82.65751,635.6106
"2499",82.46952,635.6238
"2500",82.25712,635.6372
"2501",82.06668,635.6504
"2502",81.92264,635.6638
"2503",81.83963,635.677
"2504",81.79813,635.6904
"2505",81.77371,635.7036
"2506",81.73464,635.71704
"2507",81.651634,635.7302
"2508",81.51003,635.74365
"2509",81.322044,635.75684
"2510",81.109634,635.77026
"2511",80.89967,635.78345
"2512",80.72144,635.7969
"2513",80.58961,635.81006
"2514",80.49439,635.8235
"2515",80.42359,635.8367
"2516",80.35767,635.8501
"2517",80.272224,635.8633
"2518",80.15991,635.8767
"2519",80.01099,635.8899
"2520",79.82544,635.9033
"2521",79.61547,635.9165
"2522",79.38842,635.92993
"2523",79.15892,635.9431
"2524",78.94652,635.95654
"2525",78.76341,635.9697
"2526",78.61936,635.98315
"2527",78.51682,635.99634
"2528",78.44114,636.00977
"2529",78.38743,636.02295
"2530",78.348366,636.0364
"2531",78.3093,636.04956
"2532",78.260475,636.063
"2533",78.20187,636.0762
"2534",78.12375,636.0896
"2535",78.028534,636.1028
"2536",77.92111,636.1162
"2537",77.821014,636.1294
"2538",77.7551,636.1428
"2539",77.77463,636.156
"2540",77.960175,636.16943
"2541",78.365456,636.1826
"2542",79.00511,636.19604
"2543",79.823,636.2092
"2544",80.709236,636.22266
"2545",81.52224,636.23584
"2546",82.13748,636.24927
"2547",82.49882,636.26245
"2548",82.61845,636.2759
"2549",82.55497,636.28906
"2550",82.391396,636.3025
"2551",82.193634,636.3157
"2552",82.020294,636.3291
"2553",81.90311,636.3423
"2554",81.846954,636.3557
"2555",81.832306,636.3689
"2556",81.83719,636.3823
"2557",81.81766,636.3955
"2558",81.74441,636.40894
"2559",81.602806,636.4221
"2560",81.39529,636.43555
"2561",81.1487,636.4487
"2562",80.89235,636.46216
"2563",80.65797,636.47534
"2564",80.462654,636.4888
"2565",80.31129,636.50195
"2566",80.19165,636.5154
"2567",80.08911,636.52856
"2568",79.98901,636.542
"2569",79.871826,636.5552
"2570",79.727776,636.5686
"2571",79.554436,636.5818
"2572",79.35912,636.5952
"2573",79.149155,636.6084
"2574",78.93431,636.6218
"2575",78.729225,636.635
"2576",78.54368,636.64844
"2577",78.38743,636.6616
"2578",78.25315,636.67505
"2579",78.14816,636.68823
"2580",78.05783,636.70166
"2581",77.98215,636.71484
"2582",77.91379,636.7283
"2583",77.85275,636.74146
"2584",77.789276,636.7549
"2585",77.72823,636.76807
"2586",77.66476,636.7815
"2587",77.5964,636.7947
"2588",77.51827,636.8081
"2589",77.437706,636.8213
"2590",77.3547,636.8347
"2591",77.27169,636.8479
"2592",77.20088,636.8613
"2593",77.17647,636.8745
"2594",77.27657,636.88794
"2595",77.56954,636.9011
"2596",78.11398,636.91455
"2597",78.890366,636.92773
"2598",79.815674,636.94116
"2599",80.74586,636.95435
"2600",81.53689,636.9678
"2601",82.074005,636.98096
"2602",82.33524,636.9944
"2603",82.35966,637.00757
"2604",82.22781,637.021
"2605",82.022736,637.0342
"2606",81.815216,637.0476
"2607",81.65652,637.0608
"2608",81.5613,637.0742
"2609",81.52468,637.0874
"2610",81.52224,637.1008
"2611",81.52224,637.114
"2612",81.480736,637.12744
"2613",81.3782,637.1406
"2614",81.20729,637.15405
"2615",80.98512,637.16724
"2616",80.740974,637.18066
"2617",80.51148,637.19385
"2618",80.31373,637.2073
"2619",80.15747,637.22046
"2620",80.0354,637.2339
"2621",79.937744,637.2471
"2622",79.84253,637.2605
"2623",79.73998,637.2737
"2624",79.62035,637.2871
"2625",79.48119,637.3003
"2626",79.32006,637.3137
"2627",79.13939,637.3269
"2628",78.9514,637.34033
"2629",78.768295,637.3535
"2630",78.59251,637.36694
"2631",78.4387,637.3801
"2632",78.3093,637.39355
"2633",78.20187,637.40674
"2634",78.11154,637.42017
"2635",78.03586,637.43335
"2636",77.9675,637.4468
"2637",77.90402,637.45996
"2638",77.84543,637.4734
"2639",77.79416,637.4866
"2640",77.74044,637.5
"2641",77.68673,637.5132
"2642",77.63058,637.5266
"2643",77.57198,637.5398
"2644",77.51339,637.5532
"2645",77.45724,637.5664
"2646",77.401085,637.57983
"2647",77.349815,637.593
"2648",77.29366,637.60645
"2649",77.2375,637.6196
"2650",77.208206,637.63306
"2651",77.242386,637.64624
"2652",77.4255,637.65967
"2653",77.83078,637.67285
"2654",78.487526,637.6863
"2655",79.35424,637.69946
"2656",80.31861,637.7129
"2657",81.22682,637.7261
"2658",81.934845,637.7395
"2659",82.3621,637.7527
"2660",82.511024,637.7661
"2661",82.44022,637.7793
"2662",82.23514,637.7927
"2663",81.97879,637.8059
"2664",81.739525,637.81934
"2665",81.55398,637.8325
"2666",81.43679,637.84595
"2667",81.38552,637.85913
"2668",81.373314,637.87256
"2669",81.3489,637.88574
"2670",81.287865,637.8992
"2671",81.16579,637.91235
"2672",80.987564,637.9258
"2673",80.7776,637.93896
"2674",80.56519,637.9524
"2675",80.37476,637.9656
"2676",80.22583,637.979
"2677",80.111084,637.9922
"2678",80.01831,638.0056
"2679",79.940186,638.0188
"2680",79.86206,638.0322
"2681",79.77417,638.0454
"2682",79.66674,638.05884
"2683",79.53246,638.072
"2684",79.37377,638.08545
"2685",79.1931,638.09863
"2686",79.00023,638.11206
"2687",78.8098,638.12524
"2688",78.63401,638.1387
"2689",78.4802,638.15186
"2690",78.35569,638.1653
"2691",78.25803,638.17847
"2692",78.18234,638.1919
"2693",78.12619,638.2051
"2694",78.082245,638.2185
"2695",78.0383,638.2317
"2696",77.994354,638.2451
"2697",77.945526,638.2583
"2698",77.88937,638.2717
"2699",77.83078,638.2849
"2700",77.769745,638.29834
"2701",77.71114,638.3115
"2702",77.65499,638.32495
"2703",77.60372,638.33813
"2704",77.55001,638.35156
"2705",77.4963,638.36475
"2706",77.44259,638.3782
"2707",77.38888,638.39136
"2708",77.34493,638.4048
"2709",77.349815,638.41797
"2710",77.467,638.4314
"2711",77.77951,638.4446
"2712",78.345924,638.458
"2713",79.14671,638.4712
"2714",80.09155,638.4846
"2715",81.03395,638.4978
"2716",81.815216,638.5112
"2717",82.320595,638.5244
"2718",82.528114,638.53784
"2719",82.48173,638.551
"2720",82.269325,638.56445
"2721",81.971466,638.57764
"2722",81.67361,638.59106
"2723",81.42458,638.60425
"2724",81.25124,638.6177
"2725",81.15358,638.63086
"2726",81.10719,638.6443
"2727",81.075455,638.6575
"2728",81.0193,638.6709
"2729",80.919205,638.6841
"2730",80.77516,638.6975
"2731",80.604256,638.7107
"2732",80.430916,638.7241
"2733",80.28687,638.7373
"2734",80.17456,638.75073
"2735",80.09155,638.7639
"2736",80.028076,638.77734
"2737",79.96704,638.7905
"2738",79.89624,638.80396
"2739",79.80347,638.81714
"2740",79.693596,638.83057
"2741",79.55932,638.84375
"2742",79.40551,638.8572
"2743",79.24437,638.87036
"2744",79.080795,638.8838
"2745",78.91966,638.897
"2746",78.77806,638.9104
"2747",78.660866,638.9236
"2748",78.56565,638.937
"2749",78.49241,638.9502
"2750",78.44358,638.9636
"2751",78.40696,638.9768
"2752",78.382545,638.99023
"2753",78.36057,639.0034
"2754",78.34104,639.01685
"2755",78.314186,639.03
"2756",78.28001,639.04346
"2757",78.24582,639.05664
"2758",78.21408,639.07007
"2759",78.17746,639.08325
"2760",78.14084,639.0967
"2761",78.10666,639.10986
"2762",78.0676,639.1233
"2763",78.02365,639.1365
"2764",77.97238,639.1499
"2765",77.91623,639.1631
"2766",77.857635,639.1765
"2767",77.803925,639.1897
"2768",77.77219,639.2031
"2769",77.81125,639.2163
"2770",78.00168,639.22974
"2771",78.42405,639.2429
"2772",79.10765,639.25635
"2773",79.99878,639.26953
"2774",80.98268,639.28296
"2775",81.88846,639.29614
"2776",82.562294,639.3096
"2777",82.92363,639.32275
"2778",82.98955,639.3362
"2779",82.828415,639.34937
"2780",82.52567,639.3628
"2781",82.1741,639.376
"2782",81.832306,639.3894
"2783",81.54665,639.4026
"2784",81.33181,639.416
"2785",81.19264,639.4292
"2786",81.10719,639.4426
"2787",81.041275,639.4558
"2788",80.96559,639.46924
"2789",80.87282,639.4824
"2790",80.75807,639.49585
"2791",80.635994,639.50903
"2792",80.533455,639.52246
"2793",80.45289,639.53564
"2794",80.394295,639.5491
"2795",80.34791,639.56226
"2796",80.29908,639.5757
"2797",80.233154,639.58887
"2798",80.15015,639.6023
"2799",80.03784,639.6155
"2800",79.90112,639.6289
"2801",79.744865,639.6421
"2802",79.57641,639.6555
"2803",79.40063,639.6687
"2804",79.23216,639.6821
"2805",79.078354,639.6953
"2806",78.94652,639.70874
"2807",78.839096,639.7219
"2808",78.75853,639.73535
"2809",78.70237,639.74854
"2810",78.66819,639.76196
"2811",78.641335,639.77515
"2812",78.61936,639.7886
"2813",78.59983,639.80176
"2814",78.572975,639.8152
"2815",78.536354,639.82837
"2816",78.49729,639.8418
"2817",78.450905,639.855
"2818",78.40208,639.8684
"2819",78.35325,639.8816
"2820",78.30686,639.895
"2821",78.26292,639.9082
"2822",78.21652,639.92163
"2823",78.16281,639.9348
"2824",78.099335,639.94824
"2825",78.0383,639.9614
"2826",77.979706,639.97485
"2827",77.93576,639.98804
"2828",77.94797,640.00146
"2829",78.09445,640.01465
"2830",78.46067,640.0281
"2831",79.08812,640.04126
"2832",79.94507,640.0547
"2833",80.92653,640.0679
"2834",81.86893,640.0813
"2835",82.6038,640.0945
"2836",83.02617,640.1079
"2837",83.13115,640.1211
"2838",82.98222,640.1345
"2839",82.667274,640.1477
"2840",82.27421,640.16113
"2841",81.87625,640.1743
"2842",81.5198,640.18774
"2843",81.22926,640.2009
"2844",81.01442,640.21436
"2845",80.86305,640.22754
"2846",80.75319,640.24097
"2847",80.66285,640.25415
"2848",80.57252,640.2676
"2849",80.482185,640.28076
"2850",80.40162,640.2942
"2851",80.34058,640.3074
"2852",80.29908,640.3208
"2853",80.27955,640.334
"2854",80.26734,640.3474
"2855",80.24048,640.3606
"2856",80.18921,640.374
"2857",80.10864,640.3872
"2858",79.9939,640.40063
"2859",79.85474,640.4138
"2860",79.68871,640.42725
"2861",79.51049,640.4404
"2862",79.33227,640.45386
"2863",79.15648,640.46704
"2864",78.99779,640.48047
"2865",78.86351,640.49365
"2866",78.76097,640.5071
"2867",78.692604,640.52026
"2868",78.65598,640.5337
"2869",78.641335,640.5469
"2870",78.643776,640.5603
"2871",78.64622,640.5735
"2872",78.641335,640.5869
"2873",78.63645,640.6001
"2874",78.626686,640.6135
"2875",78.61692,640.6267
"2876",78.60227,640.64014
"2877",78.58762,640.6533
"2878",78.56321,640.66675
"2879",78.52903,640.67993
"2880",78.485085,640.69336
"2881",78.42893,640.70654
"2882",78.365456,640.72
"2883",78.2971,640.73315
"2884",78.23117,640.7466
"2885",78.16525,640.75977
"2886",78.133514,640.7732
"2887",78.19455,640.7864
"2888",78.44602,640.7998
"2889",78.96361,640.813
"2890",79.75464,640.8264
"2891",80.743416,640.8396
"2892",81.78104,640.853
"2893",82.67948,640.8662
"2894",83.29717,640.87964
"2895",83.577934,640.8928
"2896",83.5584,640.90625
"2897",83.30938,640.91943
"2898",82.92119,640.93286
"2899",82.47196,640.94604
"2900",82.02762,640.9595
"2901",81.62722,640.97266
"2902",81.30007,640.9861
"2903",81.05348,640.99927
"2904",80.8777,641.0127
"2905",80.74586,641.0259
"2906",80.64088,641.0393
"2907",80.55543,641.0525
"2908",80.48707,641.0659
"2909",80.43824,641.0791
"2910",80.413826,641.0925
"2911",80.40162,641.1057
"2912",80.38697,641.11914
"2913",80.360115,641.1323
"2914",80.306404,641.14575
"2915",80.22095,641.15894
"2916",80.1062,641.17236
"2917",79.9646,641.18555
"2918",79.79614,641.199
"2919",79.61059,641.21216
"2920",79.412834,641.2256
"2921",79.21019,641.2388
"2922",79.01488,641.2522
"2923",78.84398,641.2654
"2924",78.70237,641.2788
"2925",78.59251,641.292
"2926",78.519264,641.3054
"2927",78.4802,641.3186
"2928",78.46067,641.33203
"2929",78.450905,641.3452
"2930",78.450905,641.35864
"2931",78.45579,641.3718
"2932",78.45823,641.38525
"2933",78.45823,641.39844
"2934",78.450905,641.41187
"2935",78.44114,641.42505
"2936",78.42405,641.4385
"2937",78.399635,641.45166
"2938",78.3679,641.4651
"2939",78.32639,641.4783
"2940",78.27024,641.4917
"2941",78.20187,641.5049
"2942",78.12619,641.5183
"2943",78.05051,641.5315
"2944",77.99924,641.5449
"2945",78.03586,641.5581
"2946",78.26292,641.57153
"2947",78.77318,641.5847
"2948",79.59594,641.59814
"2949",80.66041,641.6113
"2950",81.82498,641.62476
"2951",82.88457,641.63794
"2952",83.66338,641.65137
"2953",84.07599,641.66455
"2954",84.139465,641.678
"2955",83.92462,641.69116
"2956",83.526665,641.7046
"2957",83.04326,641.7178
"2958",82.547646,641.7312
"2959",82.09354,641.7444
"2960",81.71755,641.7578
"2961",81.43679,641.771
"2962",81.234146,641.7844
"2963",81.08522,641.7976
"2964",80.96803,641.81104
"2965",80.867935,641.8242
"2966",80.7776,641.83765
"2967",80.70435,641.8508
"2968",80.655525,641.86426
"2969",80.62379,641.87744
"2970",80.59693,641.89087
"2971",80.55787,641.90405
"2972",80.499275,641.9175
"2973",80.40894,641.93066
"2974",80.28443,641.9441
"2975",80.12085,641.9573
"2976",79.91821,641.9707
"2977",79.67895,641.9839
"2978",79.415276,641.9973
"2979",79.14427,642.0105
"2980",78.88548,642.0239
"2981",78.65598,642.0371
"2982",78.45823,642.05054
"2983",78.30442,642.0637
"2984",78.18967,642.07715
"2985",78.11398,642.09033
"2986",78.07492,642.10376
"2987",78.05783,642.11694
"2988",78.05539,642.1304
"2989",78.06027,642.14355
"2990",78.07004,642.157
"2991",78.082245,642.17017
"2992",78.09201,642.1836
"2993",78.10422,642.1968
"2994",78.11154,642.2102
"2995",78.116425,642.2234
"2996",78.116425,642.2368
"2997",78.10666,642.25
"2998",78.0798,642.2634
"2999",78.03342,642.2766
"3000",77.9675,642.29004
"3001",77.88937,642.3032
"3002",77.806366,642.31665
"3003",77.74532,642.32983
"3004",77.78195,642.34326
"3005",78.028534,642.35645
"3006",78.59495,642.3699
"3007",79.50805,642.38306
"3008",80.68726,642.3965
"3009",81.9617,642.40967
"3010",83.10918,642.4231
"3011",83.93927,642.4363
"3012",84.36652,642.4497
"3013",84.420235,642.4629
"3014",84.18585,642.4763
"3015",83.76837,642.4895
"3016",83.25811,642.5029
"3017",82.72831,642.5161
"3018",82.2327,642.52954
"3019",81.80789,642.5427
"3020",81.46853,642.55615
"3021",81.20485,642.56934
"3022",81.004654,642.58276
"3023",80.850845,642.59595
"3024",80.73853,642.6094
"3025",80.67017,642.62256
"3026",80.6482,642.636
"3027",80.672615,642.6492
"3028",80.72877,642.6626
"3029",80.799576,642.6758
"3030",80.85573,642.6892
"3031",80.87038,642.7024
"3032",80.82643,642.7158
"3033",80.72144,642.729
"3034",80.55787,642.74243
"3035",80.35035,642.7556
"3036",80.111084,642.76904
"3037",79.85962,642.7822
"3038",79.60082,642.79565
"3039",79.34936,642.80884
"3040",79.114975,642.82227
"3041",78.9099,642.83545
"3042",78.74387,642.8489
"3043",78.6218,642.86206
"3044",78.54368,642.8755
"3045",78.502174,642.8887
"3046",78.487526,642.9021
"3047",78.49241,642.9153
"3048",78.504616,642.9287
"3049",78.521706,642.9419
"3050",78.536354,642.9553
"3051",78.54612,642.9685
"3052",78.54856,642.98193
"3053",78.536354,642.9951
"3054",78.5095,643.00854
"3055",78.46311,643.0217
"3056",78.397194,643.03516
"3057",78.31907,643.04834
"3058",78.25315,643.06177
"3059",78.25559,643.07495
"3060",78.44358,643.0884
"3061",78.924545,643.10156
"3062",79.73266,643.115
"3063",80.816666,643.1282
"3064",82.01541,643.1416
"3065",83.12871,643.1548
"3066",83.96124,643.1682
"3067",84.420235,643.1814
"3068",84.51057,643.1948
"3069",84.317696,643.208
"3070",83.931946,643.22144
"3071",83.44854,643.2346
"3072",82.93828,643.24805
"3073",82.459755,643.2612
"3074",82.04959,643.27466
"3075",81.722435,643.28784
"3076",81.478294,643.3013
"3077",81.30007,643.31445
"3078",81.163345,643.3279
"3079",81.05348,643.34106
"3080",80.95827,643.3545
"3081",80.88258,643.3677
"3082",80.82643,643.3811
"3083",80.78981,643.3943
"3084",80.76784,643.4077
"3085",80.74586,643.4209
"3086",80.71168,643.4343
"3087",80.6482,643.4475
"3088",80.54566,643.46094
"3089",80.40162,643.4741
"3090",80.218506,643.48755
"3091",80.00366,643.50073
"3092",79.76929,643.51416
"3093",79.52758,643.52734
"3094",79.28832,643.5408
"3095",79.06615,643.55396
"3096",78.870834,643.5674
"3097",78.71458,643.58057
"3098",78.59251,643.594
"3099",78.51438,643.6072
"3100",78.47288,643.6206
"3101",78.45823,643.6338
"3102",78.45335,643.6472
"3103",78.45579,643.6604
"3104",78.450905,643.6738
"3105",78.44114,643.687
"3106",78.42893,643.70044
"3107",78.41184,643.7136
"3108",78.38743,643.72705
"3109",78.35813,643.74023
"3110",78.311745,643.75366
"3111",78.24582,643.76685
"3112",78.17502,643.7803
"3113",78.12863,643.79346
"3114",78.187225,643.8069
"3115",78.46311,643.82007
"3116",79.04173,643.8335
"3117",79.93286,643.8467
"3118",81.0486,643.8601
"3119",82.22781,643.8733
"3120",83.267876,643.8867
"3121",84.01251,643.8999
"3122",84.39338,643.9133
"3123",84.44221,643.9265
"3124",84.23956,643.93994
"3125",83.878235,643.9531
"3126",83.44366,643.96655
"3127",83.00908,643.97974
"3128",82.62821,643.99316
"3129",82.33036,644.00635
"3130",82.11551,644.0198
"3131",81.969025,644.03296
"3132",81.85916,644.0464
"3133",81.75174,644.0596
"3134",81.62234,644.073
"3135",81.478294,644.0862
"3136",81.324486,644.0996
"3137",81.17799,644.1128
"3138",81.0486,644.1262
"3139",80.94118,644.1394
"3140",80.84596,644.15283
"3141",80.75319,644.166
"3142",80.65308,644.17944
"3143",80.533455,644.1926
"3144",80.396736,644.20605
"3145",80.235596,644.21924
"3146",80.05249,644.23267
"3147",79.85474,644.24585
"3148",79.64721,644.2593
"3149",79.43725,644.27246
"3150",79.24193,644.2859
"3151",79.06859,644.2991
"3152",78.924545,644.3125
"3153",78.81712,644.3257
"3154",78.74143,644.3391
"3155",78.69016,644.3523
"3156",78.658424,644.3657
"3157",78.63645,644.3789
"3158",78.61448,644.39233
"3159",78.59251,644.4055
"3160",78.56809,644.41895
"3161",78.538795,644.4321
"3162",78.502174,644.44556
"3163",78.45335,644.45874
"3164",78.39231,644.47217
"3165",78.31907,644.48535
"3166",78.23361,644.4988
"3167",78.15793,644.51196
"3168",78.14572,644.5254
"3169",78.28977,644.5386
"3170",78.675514,644.552
"3171",79.34203,644.5652
"3172",80.25025,644.5786
"3173",81.287865,644.5918
"3174",82.2913,644.6052
"3175",83.09697,644.6184
"3176",83.612114,644.63184
"3177",83.81964,644.645
"3178",83.773254,644.65845
"3179",83.543755,644.67163
"3180",83.22148,644.68506
"3181",82.87724,644.69824
"3182",82.564735,644.7117
"3183",82.320595,644.72485
"3184",82.14725,644.7383
"3185",82.03006,644.75146
"3186",81.94217,644.7649
"3187",81.85428,644.7781
"3188",81.74197,644.7915
"3189",81.59792,644.8047
"3190",81.42947,644.8181
"3191",81.26101,644.8313
"3192",81.10719,644.8447
"3193",80.972916,644.8579
"3194",80.85817,644.87134
"3195",80.762955,644.8845
"3196",80.67506,644.89795
"3197",80.5774,644.91113
"3198",80.462654,644.92456
"3199",80.325935,644.93774
"3200",80.16724,644.9512
"3201",79.98657,644.96436
"3202",79.801025,644.9778
"3203",79.61547,644.99097
"3204",79.43969,645.0044
"3205",79.276115,645.0176
"3206",79.13451,645.031
"3207",79.01976,645.0442
"3208",78.92943,645.0576
"3209",78.870834,645.0708
"3210",78.82933,645.0842
"3211",78.79759,645.0974
"3212",78.77074,645.11084
"3213",78.73899,645.124
"3214",78.69993,645.13745
"3215",78.65598,645.15063
"3216",78.60227,645.16406
"3217",78.54124,645.17725
"3218",78.470436,645.1907
"3219",78.38743,645.20386
"3220",78.30198,645.2173
"3221",78.22873,645.23047
"3222",78.204315,645.2439
"3223",78.314186,645.2571
"3224",78.643776,645.2705
"3225",79.23216,645.2837
"3226",80.04761,645.2971
"3227",80.99489,645.3103
"3228",81.917755,645.3237
"3229",82.669716,645.3369
"3230",83.15312,645.35034
"3231",83.353325,645.3635
"3232",83.31426,645.37695
"3233",83.11406,645.39014
"3234",82.83818,645.40356
"3235",82.55009,645.41675
"3236",82.303505,645.4302
"3237",82.11063,645.44336
"3238",81.97391,645.4568
"3239",81.86893,645.47
"3240",81.76883,645.4834
"3241",81.64919,645.4966
"3242",81.497826,645.51
"3243",81.31472,645.5232
"3244",81.11696,645.5366
"3245",80.92409,645.5498
"3246",80.75807,645.56323
"3247",80.62623,645.5764
"3248",80.52369,645.58984
"3249",80.43824,645.603
"3250",80.35523,645.61646
"3251",80.257576,645.62964
"3252",80.14282,645.64307
"3253",80.0061,645.65625
"3254",79.84741,645.6697
"3255",79.67162,645.68286
"3256",79.48608,645.6963
"3257",79.29809,645.7095
"3258",79.11742,645.7229
"3259",78.958725,645.7361
"3260",78.82933,645.7495
"3261",78.73167,645.7627
"3262",78.66575,645.7761
"3263",78.6218,645.7893
"3264",78.59251,645.80273
"3265",78.57053,645.8159
"3266",78.553444,645.82935
"3267",78.53147,645.8425
"3268",78.504616,645.85596
"3269",78.46555,645.86914
"3270",78.41428,645.88257
"3271",78.348366,645.89575
"3272",78.27512,645.9092
"3273",78.19211,645.92236
"3274",78.1091,645.9358
"3275",78.04562,645.949
"3276",78.04318,645.9624
"3277",78.17746,645.9756
"3278",78.52903,645.989
"3279",79.12962,646.0022
"3280",79.937744,646.0156
"3281",80.850845,646.0288
"3282",81.722435,646.04224
"3283",82.406044,646.0554
"3284",82.81621,646.06885
"3285",82.950485,646.08203
"3286",82.86015,646.09546
"3287",82.62577,646.10864
"3288",82.32792,646.1221
"3289",82.03494,646.13525
"3290",81.795685,646.1487
"3291",81.62478,646.16187
"3292",81.514915,646.1753
"3293",81.444115,646.1885
"3294",81.375755,646.2019
"3295",81.287865,646.2151
"3296",81.163345,646.2285
"3297",81.00954,646.2417
"3298",80.84596,646.2551
"3299",80.69215,646.2683
"3300",80.56275,646.28174
"3301",80.462654,646.2949
"3302",80.38697,646.30835
"3303",80.31861,646.32153
"3304",80.24536,646.33496
"3305",80.15503,646.34814
"3306",80.04028,646.3616
"3307",79.89624,646.37476
"3308",79.73266,646.3882
"3309",79.554436,646.40137
"3310",79.36889,646.4148
"3311",79.185776,646.428
"3312",79.01732,646.4414
"3313",78.87572,646.4546
"3314",78.76341,646.468
"3315",78.68284,646.4812
"3316",78.626686,646.4946
"3317",78.58518,646.5078
"3318",78.54856,646.52124
"3319",78.51194,646.5344
"3320",78.47288,646.54785
"3321",78.433815,646.56104
"3322",78.39475,646.57446
"3323",78.35325,646.58765
"3324",78.30686,646.6011
"3325",78.25071,646.61426
"3326",78.18234,646.6277
"3327",78.10422,646.64087
"3328",78.02121,646.6543
"3329",77.943085,646.6675
"3330",77.88937,646.6809
"3331",77.908905,646.6941
"3332",78.07736,646.7075
"3333",78.46067,646.7207
"3334",79.07591,646.73413
"3335",79.869385,646.7473
"3336",80.73609,646.76074
"3337",81.52712,646.7739
"3338",82.11063,646.78735
"3339",82.43046,646.80054
"3340",82.50126,646.81396
"3341",82.38407,646.82715
"3342",82.15701,646.8406
"3343",81.900665,646.85376
"3344",81.6614,646.8672
"3345",81.478294,646.8804
"3346",81.358665,646.8938
"3347",81.287865,646.907
"3348",81.234146,646.9204
"3349",81.17311,646.9336
"3350",81.075455,646.947
"3351",80.93385,646.9602
"3352",80.762955,646.97363
"3353",80.587166,646.9868
"3354",80.430916,647.00024
"3355",80.30152,647.0134
"3356",80.2063,647.02686
"3357",80.13794,647.04004
"3358",80.076904,647.05347
"3359",80.01343,647.06665
"3360",79.937744,647.0801
"3361",79.84009,647.09326
"3362",79.72289,647.1067
"3363",79.58373,647.1199
"3364",79.42504,647.1333
"3365",79.259026,647.1465
"3366",79.08568,647.1599
"3367",78.924545,647.1731
"3368",78.78294,647.1865
"3369",78.66819,647.1997
"3370",78.58518,647.21313
"3371",78.52903,647.2263
"3372",78.48997,647.23975
"3373",78.46311,647.2529
"3374",78.43626,647.26636
"3375",78.4094,647.27954
"3376",78.380104,647.29297
"3377",78.348366,647.30615
"3378",78.314186,647.3196
"3379",78.28001,647.33276
"3380",78.24338,647.3462
"3381",78.204315,647.3594
"3382",78.15793,647.3728
"3383",78.10422,647.386
"3384",78.0383,647.3994
"3385",77.96506,647.4126
"3386",77.891815,647.426
"3387",77.83322,647.4392
"3388",77.82834,647.45264
"3389",77.943085,647.4658
"3390",78.24826,647.47925
"3391",78.7805,647.49243
"3392",79.50805,647.50586
"3393",80.34791,647.51904
"3394",81.15602,647.5325
"3395",81.80057,647.54565
"3396",82.196075,647.5591
"3397",82.33036,647.57227
"3398",82.25468,647.5857
"3399",82.04959,647.5989
"3400",81.79324,647.6123
"3401",81.549095,647.6255
"3402",81.356224,647.6389
"3403",81.231705,647.6521
"3404",81.16579,647.6655
"3405",81.13405,647.6787
"3406",81.10475,647.69214
"3407",81.04616,647.7053
"3408",80.936295,647.71875
"3409",80.782486,647.73193
"3410",80.60914,647.74536
"3411",80.44068,647.75854
"3412",80.306404,647.772
"3413",80.21118,647.78516
"3414",80.15015,647.7986
"3415",80.10376,647.81177
"3416",80.05737,647.8252
"3417",79.99634,647.8384
"3418",79.91577,647.8518
"3419",79.80835,647.865
"3420",79.68383,647.8784
"3421",79.54223,647.8916
"3422",79.38842,647.905
"3423",79.23216,647.9182
"3424",79.09056,647.93164
"3425",78.96361,647.9448
"3426",78.856186,647.95825
"3427",78.77562,647.97144
"3428",78.712135,647.98486
"3429",78.67063,647.99805
"3430",78.64622,648.0115
"3431",78.63157,648.02466
"3432",78.6218,648.0381
"3433",78.61204,648.0513
"3434",78.59983,648.0647
"3435",78.572975,648.0779
"3436",78.53147,648.0913
"3437",78.47532,648.1045
"3438",78.40696,648.1179
"3439",78.32639,648.1311
"3440",78.24582,648.14453
"3441",78.17746,648.1577
"3442",78.135956,648.17114
"3443",78.167694,648.1843
"3444",78.33616,648.19775
"3445",78.692604,648.21094
"3446",79.2517,648.22437
"3447",79.95972,648.23755
"3448",80.71412,648.251
"3449",81.38308,648.26416
"3450",81.85916,648.2776
"3451",82.08865,648.2908
"3452",82.09354,648.3042
"3453",81.93973,648.3174
"3454",81.69802,648.3308
"3455",81.43679,648.344
"3456",81.20729,648.3574
"3457",81.03639,648.3706
"3458",80.93141,648.38403
"3459",80.87038,648.3972
"3460",80.82643,648.41064
"3461",80.77272,648.4238
"3462",80.69215,648.43726
"3463",80.58228,648.45044
"3464",80.46021,648.46387
"3465",80.33814,648.47705
"3466",80.24292,648.4905
"3467",80.17944,648.50366
"3468",80.14282,648.5171
"3469",80.12573,648.5303
"3470",80.10864,648.5437
"3471",80.079346,648.5569
"3472",80.02075,648.5703
"3473",79.93042,648.5835
"3474",79.818115,648.5969
"3475",79.68871,648.6101
"3476",79.54955,648.62354
"3477",79.41039,648.6367
"3478",79.281,648.65015
"3479",79.16136,648.6633
"3480",79.06615,648.67676
"3481",78.995346,648.68994
"3482",78.95384,648.70337
"3483",78.93187,648.71655
"3484",78.92699,648.73
"3485",78.924545,648.74316
"3486",78.92699,648.7566
"3487",78.924545,648.7698
"3488",78.9099,648.7832
"3489",78.87816,648.7964
"3490",78.82933,648.8098
"3491",78.76341,648.823
"3492",78.68528,648.8364
"3493",78.6096,648.8496
"3494",78.56565,648.86304
"3495",78.607155,648.8762
"3496",78.79271,648.88965
"3497",79.168686,648.90283
"3498",79.73754,648.91626
"3499",80.4358,648.92944
"3500",81.15846,648.9429
"3501",81.78836,648.95605
"3502",82.22293,648.9695
"3503",82.423134,648.98267
"3504",82.41337,648.9961
"3505",82.25468,649.0093
"3506",82.01785,649.0227
"3507",81.77127,649.0359
"3508",81.55398,649.0493
"3509",81.40017,649.0625
"3510",81.31472,649.0759
"3511",81.2781,649.0891
"3512",81.253685,649.10254
"3513",81.214615,649.1157
"3514",81.13893,649.12915
"3515",81.0193,649.14233
"3516",80.87038,649.15576
"3517",80.72144,649.16895
"3518",80.59693,649.1824
"3519",80.51148,649.19556
"3520",80.46021,649.209
"3521",80.428474,649.22217
"3522",80.4065,649.2356
"3523",80.36744,649.2488
"3524",80.29908,649.2622
"3525",80.19653,649.2754
"3526",80.06958,649.2888
"3527",79.91333,649.302
"3528",79.744865,649.3154
"3529",79.57641,649.3286
"3530",79.4226,649.34204
"3531",79.28832,649.3552
"3532",79.18089,649.36865
"3533",79.10277,649.38184
"3534",79.0515,649.39526
"3535",79.01732,649.40845
"3536",79.00267,649.4219
"3537",78.99046,649.43506
"3538",78.9807,649.4485
"3539",78.96849,649.4617
"3540",78.9514,649.4751
"3541",78.922104,649.4883
"3542",78.88548,649.5017
"3543",78.84886,649.5149
"3544",78.82445,649.5283
"3545",78.839096,649.5415
"3546",78.94896,649.55493
"3547",79.219955,649.5681
"3548",79.68139,649.58154
"3549",80.31129,649.5947
"3550",81.03639,649.60815
"3551",81.74441,649.62134
"3552",82.31815,649.63477
"3553",82.6746,649.64795
"3554",82.804,649.6614
"3555",82.738075,649.67456
"3556",82.54032,649.688
"3557",82.27665,649.7012
"3558",82.01297,649.7146
"3559",81.78592,649.7278
"3560",81.62478,649.7412
"3561",81.532005,649.7544
"3562",81.48318,649.7678
"3563",81.44167,649.781
"3564",81.3782,649.79443
"3565",81.26589,649.8076
"3566",81.11452,649.82104
"3567",80.94118,649.8342
"3568",80.77516,649.84766
"3569",80.64576,649.86084
"3570",80.55543,649.87427
"3571",80.499275,649.88745
"3572",80.46021,649.9009
"3573",80.42115,649.91406
"3574",80.36744,649.9275
"3575",80.2942,649.9407
"3576",80.18677,649.9541
"3577",80.04761,649.9673
"3578",79.87915,649.9807
"3579",79.69604,649.9939
"3580",79.50317,650.0073
"3581",79.327385,650.0205
"3582",79.17357,650.03394
"3583",79.04906,650.0471
"3584",78.9514,650.06055
"3585",78.8806,650.0737
"3586",78.82933,650.08716
"3587",78.79515,650.10034
"3588",78.77318,650.1138
"3589",78.75853,650.12695
"3590",78.74143,650.1404
"3591",78.709694,650.15356
"3592",78.66331,650.167
"3593",78.59739,650.1802
"3594",78.521706,650.1936
"3595",78.44602,650.2068
"3596",78.397194,650.2202
"3597",78.42893,650.2334
"3598",78.6096,650.2468
"3599",78.99779,650.26
"3600",79.59838,650.27344
"3601",80.34547,650.2866
"3602",81.13161,650.30005
"3603",81.82498,650.31323
"3604",82.31571,650.32666
"3605",82.55985,650.33984
"3606",82.58427,650.3533
"3607",82.44755,650.36646
"3608",82.22537,650.3799
"3609",81.97879,650.39307
"3610",81.76639,650.4065
"3611",81.61257,650.4197
"3612",81.52712,650.4331
"3613",81.4905,650.4463
"3614",81.47341,650.4597
"3615",81.43679,650.4729
"3616",81.356224,650.4863
"3617",81.22194,650.4995
"3618",81.04616,650.51294
"3619",80.848404,650.5261
"3620",80.66285,650.53955
"3621",80.50416,650.55273
"3622",80.38697,650.56616
"3623",80.30396,650.57935
"3624",80.24292,650.5928
"3625",80.18921,650.60596
"3626",80.130615,650.6194
"3627",80.05249,650.63257
"3628",79.940186,650.646
"3629",79.798584,650.6592
"3630",79.63256,650.6726
"3631",79.4519,650.6858
"3632",79.26879,650.6992
"3633",79.10033,650.7124
"3634",78.958725,650.7258
"3635",78.84398,650.739
"3636",78.75853,650.75244
"3637",78.70237,650.7656
"3638",78.660866,650.77905
"3639",78.62913,650.79224
"3640",78.59251,650.80566
"3641",78.553444,650.81885
"3642",78.504616,650.8323
"3643",78.44358,650.84546
"3644",78.37766,650.8589
"3645",78.30442,650.8721
"3646",78.22873,650.8855
"3647",78.15793,650.8987
"3648",78.10666,650.9121
"3649",78.12131,650.9253
"3650",78.26536,650.9387
"3651",78.607155,650.9519
"3652",79.166245,650.96533
"3653",79.89624,650.9785
"3654",80.706795,650.99194
"3655",81.45632,651.0051
"3656",82.02518,651.01855
"3657",82.34989,651.03174
"3658",82.442665,651.04517
"3659",82.357216,651.05835
"3660",82.16922,651.0718
"3661",81.94705,651.08496
"3662",81.74685,651.0984
"3663",81.600365,651.1116
"3664",81.512474,651.125
"3665",81.47585,651.1382
"3666",81.45876,651.1516
"3667",81.427025,651.1648
"3668",81.356224,651.1782
"3669",81.22926,651.1914
"3670",81.04616,651.20483
"3671",80.82643,651.218
"3672",80.6067,651.23145
"3673",80.4065,651.2446
"3674",80.24536,651.25806
"3675",80.12573,651.27124
"3676",80.03784,651.28467
"3677",79.971924,651.29785
"3678",79.906006,651.3113
"3679",79.82544,651.32446
"3680",79.72045,651.3379
"3681",79.586174,651.3511
"3682",79.4226,651.3645
"3683",79.24193,651.3777
"3684",79.05394,651.3911
"3685",78.873276,651.4043
"3686",78.71702,651.4177
"3687",78.58274,651.4309
"3688",78.48264,651.44434
"3689",78.41428,651.4575
"3690",78.365456,651.47095
"3691",78.32639,651.48413
"3692",78.28977,651.49756
"3693",78.25315,651.51074
"3694",78.2092,651.5242
"3695",78.15793,651.53735
"3696",78.10666,651.5508
"3697",78.06027,651.56396
"3698",78.013885,651.5774
"3699",77.96994,651.5906
"3700",77.93088,651.604
"3701",77.8967,651.6172
"3702",77.86252,651.6306
"3703",77.823456,651.6438
"3704",77.78439,651.6572
"3705",77.75021,651.6704
"3706",77.72579,651.68384
"3707",77.769745,651.697
"3708",77.95285,651.71045
"3709",78.35325,651.72363
"3710",78.995346,651.73706
"3711",79.84497,651.75024
"3712",80.78981,651.7637
"3713",81.68093,651.77686
"3714",82.374306,651.7903
"3715",82.791794,651.80347
"3716",82.933395,651.8169
"3717",82.86748,651.8301
"3718",82.67216,651.8435
"3719",82.44511,651.8567
"3720",82.2449,651.8701
"3721",82.108185,651.8833
"3722",82.039825,651.8967
"3723",82.02762,651.9099
"3724",82.039825,651.92334
"3725",82.04227,651.9365
"3726",82.00076,651.94995
"3727",81.8909,651.96313
"3728",81.71511,651.97656
"3729",81.48562,651.98975
"3730",81.234146,652.0032
"3731",80.990005,652.01636
"3732",80.7776,652.0298
"3733",80.61158,652.04297
"3734",80.48951,652.0564
"3735",80.38697,652.0696
"3736",80.29664,652.083
"3737",80.21362,652.0962
"3738",80.113525,652.1096
"3739",79.991455,652.1228
"3740",79.68627,652.1494
"3741",79.51293,652.16284
"3742",79.344475,652.176
"3743",79.18089,652.18945
"3744",79.04173,652.20264
"3745",78.924545,652.21606
"3746",78.82689,652.22925
"3747",78.746315,652.2427
"3748",78.6804,652.25586
"3749",78.626686,652.2693
"3750",78.57786,652.2825
"3751",78.53391,652.2959
"3752",78.485085,652.3091
"3753",78.43137,652.3225
"3754",78.37278,652.3357
"3755",78.30686,652.3491
"3756",78.24582,652.3623
"3757",78.187225,652.37573
"3758",78.1384,652.3889
"3759",78.09201,652.40234
"3760",78.05295,652.4155
"3761",78.011444,652.42896
"3762",77.9675,652.44214
"3763",77.92111,652.45557
"3764",77.87717,652.46875
"3765",77.83566,652.4822
"3766",77.81369,652.49536
"3767",77.857635,652.5088
"3768",78.04074,652.522
"3769",78.433815,652.5354
"3770",79.06615,652.5486
"3771",79.89624,652.562
"3772",80.816666,652.5752
"3773",81.67361,652.5886
"3774",82.33524,652.6018
"3775",82.720985,652.61523
"3776",82.83574,652.6284
"3777",82.738075,652.64185
"3778",82.51591,652.655
"3779",82.24979,652.66846
"3780",82.00809,652.68164
"3781",81.82498,652.69507
"3782",81.722435,652.70825
"3783",81.688255,652.7217
"3784",81.6907,652.73486
"3785",81.6907,652.7483
"3786",81.654076,652.7615
"3787",81.55398,652.7749
"3788",81.3904,652.7881
"3789",81.17311,652.8015
"3790",80.936295,652.8147
"3791",80.71412,652.8281
"3792",80.52369,652.8413
"3793",80.37476,652.85474
"3794",80.26734,652.8679
"3795",80.18677,652.88135
"3796",80.111084,652.89453
"3797",80.03052,652.90796
"3798",79.93042,652.92114
"3799",79.80347,652.9346
"3800",79.65942,652.94775
"3801",79.49584,652.9612
"3802",79.33227,652.97437
"3803",79.17113,652.9878
"3804",79.0222,653.001
"3805",78.89525,653.0144
"3806",78.802475,653.0276
"3807",78.729225,653.041
"3808",78.67063,653.0542
"3809",78.61936,653.0676
"3810",78.57053,653.0808
"3811",78.51682,653.09424
"3812",78.46067,653.1074
"3813",78.40696,653.12085
"3814",78.35569,653.13403
"3815",78.30686,653.14746
"3816",78.25803,653.16064
"3817",78.20676,653.1741
"3818",78.15793,653.18726
"3819",78.11398,653.2007
"3820",78.07004,653.21387
"3821",78.030975,653.2273
"3822",77.99191,653.2405
"3823",77.94797,653.2539
"3824",77.90646,653.2671
"3825",77.86496,653.2805
"3826",77.82834,653.2937
"3827",77.803925,653.3071
"3828",77.81857,653.3203
"3829",77.93088,653.33374
"3830",78.221405,653.3469
"3831",78.746315,653.36035
"3832",79.50805,653.37354
"3833",80.428474,653.38696
"3834",81.375755,653.40015
"3835",82.18387,653.4136
"3836",82.735634,653.42676
"3837",82.984665,653.4402
"3838",82.97246,653.45337
"3839",82.777145,653.4668
"3840",82.48417,653.48
"3841",82.178986,653.4934
"3842",81.91287,653.5066
"3843",81.71267,653.52
"3844",81.58816,653.5332
"3845",81.52712,653.54663
"3846",81.495384,653.5598
"3847",81.461205,653.57324
"3848",81.392845,653.5864
"3849",81.27322,653.59985
"3850",81.109634,653.61304
"3851",80.92409,653.62646
"3852",80.740974,653.63965
"3853",80.587166,653.6531
"3854",80.46754,653.66626
"3855",80.377205,653.6797
"3856",80.306404,653.6929
"3857",80.233154,653.7063
"3858",80.15015,653.7195
"3859",80.045166,653.7329
"3860",79.920654,653.7461
"3861",79.781494,653.7595
"3862",79.63012,653.7727
"3863",79.47143,653.78613
"3864",79.31274,653.7993
"3865",79.1638,653.81274
"3866",79.029526,653.8259
"3867",78.922104,653.83936
"3868",78.84398,653.85254
"3869",78.79271,653.86597
"3870",78.76341,653.87915
"3871",78.75365,653.8926
"3872",78.74143,653.90576
"3873",78.71946,653.9192
"3874",78.68772,653.9324
"3875",78.641335,653.9458
"3876",78.590065,653.959
"3877",78.53391,653.9724
"3878",78.47776,653.9856
"3879",78.416725,653.999
"3880",78.35813,654.0122
"3881",78.30198,654.02563
"3882",78.25071,654.0388
"3883",78.19943,654.05225
"3884",78.153046,654.0654
"3885",78.099335,654.07886
"3886",78.04318,654.09204
"3887",77.99191,654.10547
"3888",77.945526,654.11865
"3889",77.92355,654.1321
"3890",77.95285,654.14526
"3891",78.1091,654.1587
"3892",78.47776,654.1719
"3893",79.09544,654.1853
"3894",79.940186,654.1985
"3895",80.90456,654.2119
"3896",81.83719,654.2251
"3897",82.5745,654.2385
"3898",83.02373,654.2517
"3899",83.17021,654.26514
"3900",83.06523,654.2783
"3901",82.80156,654.29175
"3902",82.45731,654.30493
"3903",82.1033,654.31836
"3904",81.795685,654.33154
"3905",81.5613,654.345
"3906",81.40505,654.35815
"3907",81.30984,654.3716
"3908",81.24391,654.38477
"3909",81.17555,654.3982
"3910",81.08766,654.4114
"3911",80.972916,654.4248
"3912",80.84596,654.438
"3913",80.719,654.4514
"3914",80.61158,654.4646
"3915",80.52125,654.478
"3916",80.448006,654.4912
"3917",80.38453,654.50464
"3918",80.31617,654.5178
"3919",80.22827,654.53125
"3920",80.11597,654.54443
"3921",79.98169,654.55786
"3922",79.823,654.57104
"3923",79.64965,654.5845
"3924",79.47387,654.59766
"3925",79.29809,654.6111
"3926",79.132065,654.62427
"3927",78.98314,654.6377
"3928",78.86595,654.6509
"3929",78.785385,654.6643
"3930",78.73899,654.6775
"3931",78.709694,654.6909
"3932",78.692604,654.7041
"3933",78.6804,654.7175
"3934",78.66331,654.7307
"3935",78.63889,654.74414
"3936",78.6096,654.7573
"3937",78.572975,654.77075
"3938",78.53391,654.78394
"3939",78.485085,654.79736
"3940",78.44114,654.81055
"3941",78.40208,654.824
"3942",78.36057,654.83716
"3943",78.31907,654.8506
"3944",78.277565,654.8638
"3945",78.23361,654.8772
"3946",78.184784,654.8904
"3947",78.14084,654.9038
"3948",78.09445,654.917
"3949",78.05539,654.9304
"3950",78.02365,654.9436
"3951",78.02365,654.95703
"3952",78.12375,654.9702
"3953",78.42161,654.98364
"3954",78.98558,654.9968
"3955",79.81323,655.01025
"3956",80.816666,655.02344
"3957",81.83963,655.03687
"3958",82.71122,655.05005
"3959",83.28985,655.0635
"3960",83.53643,655.07666
"3961",83.49004,655.0901
"3962",83.23125,655.1033
"3963",82.85283,655.1167
"3964",82.43534,655.1299
"3965",82.037384,655.1433
"3966",81.7029,655.1565
"3967",81.446556,655.1699
"3968",81.26833,655.1831
"3969",81.13893,655.19653
"3970",81.041275,655.2097
"3971",80.94606,655.22314
"3972",80.85329,655.2363
"3973",80.76051,655.24976
"3974",80.67994,655.26294
"3975",80.61646,655.27637
"3976",80.57496,655.28955
"3977",80.54322,655.303
"3978",80.5066,655.31616
"3979",80.45045,655.3296
"3980",80.365,655.3428
"3981",80.24536,655.3562
"3982",80.09155,655.3694
"3983",79.91577,655.3828
"3984",79.727776,655.396
"3985",79.534904,655.4094
"3986",79.34692,655.4226
"3987",79.17357,655.43604
"3988",79.01976,655.4492
"3989",78.89281,655.46265
"3990",78.80003,655.4758
"3991",78.74143,655.48926
"3992",78.70481,655.50244
"3993",78.6804,655.51587
"3994",78.658424,655.52905
"3995",78.63157,655.5425
"3996",78.60227,655.55566
"3997",78.57542,655.5691
"3998",78.551,655.5823
"3999",78.52415,655.5957
"4000",78.49485,655.6089
"4001",78.45823,655.6223
"4002",78.41917,655.6355
"4003",78.37522,655.6489
"4004",78.331276,655.6621
"4005",78.28001,655.67554
"4006",78.22629,655.6887
"4007",78.170135,655.70215
"4008",78.1091,655.71533
"4009",78.05295,655.72876
"4010",77.996796,655.74194
"4011",77.96994,655.7554
"4012",78.02609,655.76855
"4013",78.27024,655.782
"4014",78.79027,655.79517
"4015",79.605705,655.8086
"4016",80.635994,655.8218
"4017",81.7322,655.8352
"4018",82.70878,655.8484
"4019",83.404594,655.8618
"4020",83.75372,655.875
"4021",83.78302,655.8884
"4022",83.57305,655.9016
"4023",83.20195,655.91504
"4024",82.75517,655.9282
"4025",82.29862,655.94165
"4026",81.88602,655.95483
"4027",81.54665,655.96826
"4028",81.29519,655.98145
"4029",81.112076,655.9949
"4030",80.98268,656.00806
"4031",80.885025,656.0215
"4032",80.80202,656.03467
"4033",80.73365,656.0481
"4034",80.68238,656.0613
"4035",80.655525,656.0747
"4036",80.64332,656.0879
"4037",80.63355,656.1013
"4038",80.60914,656.1145
"4039",80.55787,656.1279
"4040",80.47242,656.1411
"4041",80.34791,656.15454
"4042",80.18677,656.1677
"4043",80.00366,656.18115
"4044",79.801025,656.19434
"4045",79.586174,656.20776
"4046",79.37377,656.22095
"4047",79.168686,656.2344
"4048",78.9807,656.24756
"4049",78.82201,656.261
"4050",78.69749,656.2742
"4051",78.61204,656.2876
"4052",78.56077,656.3008
"4053",78.53147,656.3142
"4054",78.51682,656.3274
"4055",78.50706,656.3408
"4056",78.49729,656.354
"4057",78.487526,656.36743
"4058",78.47776,656.3806
"4059",78.46311,656.39404
"4060",78.44602,656.4072
"4061",78.42405,656.42065
"4062",78.397194,656.43384
"4063",78.365456,656.44727
"4064",78.328835,656.46045
"4065",78.28245,656.4739
"4066",78.221405,656.48706
"4067",78.14816,656.5005
"4068",78.065155,656.5137
"4069",77.98703,656.5271
"4070",77.9382,656.5403
"4071",77.98703,656.5537
"4072",78.24582,656.5669
"4073",78.79759,656.5803
"4074",79.66186,656.5935
"4075",80.75319,656.60693
"4076",81.91287,656.6201
"4077",82.93584,656.63354
"4078",83.65606,656.6467
"4079",84.01007,656.66016
"4080",84.02228,656.67334
"4081",83.78058,656.68677
"4082",83.372856,656.69995
"4083",82.89189,656.7134
"4084",82.4036,656.72656
"4085",81.95682,656.74
"4086",81.58083,656.7532
"4087",81.287865,656.7666
"4088",81.06813,656.7798
"4089",80.902115,656.7932
"4090",80.77516,656.8064
"4091",80.68238,656.8198
"4092",80.62623,656.833
"4093",80.604256,656.84644
"4094",80.61158,656.8596
"4095",80.64088,656.87305
"4096",80.672615,656.8862
"4097",80.67506,656.89966
"4098",80.63355,656.91284
"4099",80.54322,656.9263
"4100",80.40406,656.93945
"4101",80.218506,656.9529
"4102",80.008545,656.96606
"4103",79.781494,656.9795
"4104",79.54223,656.9927
"4105",79.30297,657.0061
"4106",79.078354,657.0193
"4107",78.87572,657.0327
"4108",78.69993,657.0459
"4109",78.555885,657.0593
"4110",78.44114,657.0725
"4111",78.348366,657.08594
"4112",78.27512,657.0991
"4113",78.221405,657.11255
"4114",78.1799,657.12573
"4115",78.150604,657.13916
"4116",78.12375,657.15234
"4117",78.099335,657.1658
"4118",78.07004,657.17896
"4119",78.02609,657.1924
"4120",77.977264,657.20557
"4121",77.91867,657.219
"4122",77.855194,657.2322
"4123",77.78439,657.2456
"4124",77.70382,657.2588
"4125",77.61593,657.2722
"4126",77.523155,657.2854
"4127",77.42794,657.2988
"4128",77.349815,657.312
"4129",77.36202,657.32544
"4130",77.576866,657.3386
"4131",78.11154,657.35205
"4132",79.00511,657.36523
"4133",80.181885,657.37866
"4134",81.46609,657.39185
"4135",82.63798,657.4053
"4136",83.49737,657.41846
"4137",83.95148,657.4319
"4138",84.01984,657.44507
"4139",83.792786,657.4585
"4140",83.38018,657.4717
"4141",82.8748,657.4851
"4142",82.34257,657.4983
"4143",81.84207,657.5117
"4144",81.40749,657.5249
"4145",81.05348,657.5383
"4146",80.7776,657.5515
"4147",80.567635,657.56494
"4148",80.413826,657.5781
"4149",80.31617,657.59155
"4150",80.274666,657.60474
"4151",80.289314,657.61816
"4152",80.35279,657.63135
"4153",80.45045,657.6448
"4154",80.55787,657.65796
"4155",80.638435,657.6714
"4156",80.67506,657.6846
"4157",80.65064,657.698
"4158",80.56031,657.7112
"4159",80.40894,657.7246
"4160",80.20874,657.7378
"4161",79.971924,657.7512
"4162",79.72045,657.7644
"4163",79.45922,657.77783
"4164",79.20775,657.791
"4165",78.975815,657.80444
"4166",78.77318,657.8176
"4167",78.60471,657.83105
"4168",78.47776,657.84424
"4169",78.397194,657.85767
"4170",78.36057,657.87085
"4171",78.35325,657.8843
"4172",78.3679,657.89746
"4173",78.39231,657.9109
"4174",78.41428,657.9241
"4175",78.433815,657.9375
"4176",78.44846,657.9507
"4177",78.45579,657.9641
"4178",78.450905,657.9773
"4179",78.433815,657.9907
"4180",78.399635,658.0039
"4181",78.348366,658.01733
"4182",78.28001,658.0305
"4183",78.221405,658.04395
"4184",78.24826,658.0571
"4185",78.470436,658.07056
"4186",78.99046,658.08374
"4187",79.823,658.09717
"4188",80.88258,658.11035
"4189",82.005646,658.1238
"4190",82.98711,658.13696
"4191",83.6585,658.1504
"4192",83.9588,658.1636
"4193",83.92218,658.177
"4194",83.631645,658.1902
"4195",83.175095,658.2036
"4196",82.6453,658.2168
"4197",82.10086,658.2302
"4198",81.59792,658.2434
"4199",81.16579,658.25684
"4200",80.81178,658.27
"4201",80.53101,658.28345
"4202",80.32105,658.29663
"4203",80.17212,658.31006
"4204",80.096436,658.32324
"4205",80.09888,658.3367
"4206",80.17456,658.34985
"4207",80.30396,658.3633
"4208",80.45533,658.37646
"4209",80.584724,658.3899
"4210",80.66041,658.4031
"4211",80.66285,658.4165
"4212",80.587166,658.4297
"4213",80.448006,658.4431
"4214",80.25269,658.4563
"4215",80.01831,658.4697
"4216",79.764404,658.4829
"4217",79.500725,658.49634
"4218",79.23949,658.5095
"4219",78.995346,658.52295
"4220",78.7805,658.53613
"4221",78.607155,658.54956
"4222",78.48264,658.56274
"4223",78.40696,658.5762
"4224",78.380104,658.58936
"4225",78.38499,658.6028
"4226",78.399635,658.61597
"4227",78.41917,658.6294
"4228",78.43626,658.6426
"4229",78.450905,658.656
"4230",78.46555,658.6692
"4231",78.47532,658.6826
"4232",78.47776,658.6958
"4233",78.45823,658.7092
"4234",78.42161,658.7224
"4235",78.363014,658.73584
"4236",78.294655,658.749
"4237",78.24582,658.76245
"4238",78.29954,658.77563
"4239",78.57542,658.78906
"4240",79.17845,658.80225
"4241",80.111084,658.8157
"4242",81.28298,658.82886
"4243",82.513466,658.8423
"4244",83.58526,658.85547
"4245",84.32258,658.8689
"4246",84.66682,658.8821
"4247",84.661934,658.8955
"4248",84.39826,658.9087
"4249",83.97589,658.9221
"4250",83.48272,658.9353
"4251",82.98955,658.9487
"4252",82.54032,658.9619
"4253",82.16922,658.97534
"4254",81.881134,658.9885
"4255",81.668724,659.00195
"4256",81.514915,659.01514
"4257",81.39773,659.02856
"4258",81.304955,659.04175
"4259",81.22926,659.0552
"4260",81.17311,659.06836
"4261",81.13405,659.0818
"4262",81.10475,659.095
"4263",81.075455,659.1084
"4264",81.03395,659.1216
"4265",80.96071,659.135
"4266",80.848404,659.1482
"4267",80.69215,659.1616
"4268",80.499275,659.1748
"4269",80.28199,659.18823
"4270",80.042725,659.2014
"4271",79.7937,659.21484
"4272",79.537346,659.228
"4273",79.29565,659.24146
"4274",79.07103,659.25464
"4275",78.87816,659.26807
"4276",78.72434,659.28125
"4277",78.61936,659.2947
"4278",78.54612,659.30786
"4279",78.504616,659.3213
"4280",78.485085,659.3345
"4281",78.48264,659.3479
"4282",78.485085,659.3611
"4283",78.48997,659.3745
"4284",78.49729,659.3877
"4285",78.49729,659.4011
"4286",78.487526,659.4143
"4287",78.467995,659.42773
"4288",78.433815,659.4409
"4289",78.38743,659.45435
"4290",78.34104,659.4675
"4291",78.34104,659.48096
"4292",78.47532,659.49414
"4293",78.84398,659.50757
"4294",79.49828,659.52075
"4295",80.40894,659.5342
"4296",81.46853,659.54736
"4297",82.50858,659.5608
"4298",83.35821,659.574
"4299",83.90265,659.5874
"4300",84.119934,659.6006
"4301",84.05646,659.614
"4302",83.792786,659.6272
"4303",83.41436,659.6406
"4304",82.99443,659.6538
"4305",82.59647,659.66724
"4306",82.25956,659.6804
"4307",82.005646,659.69385
"4308",81.82498,659.70703
"4309",81.70046,659.72046
"4310",81.600365,659.73364
"4311",81.495384,659.7471
"4312",81.375755,659.76025
"4313",81.24635,659.7737
"4314",81.11452,659.78687
"4315",80.99489,659.8003
"4316",80.902115,659.8135
"4317",80.82643,659.8269
"4318",80.75807,659.8401
"4319",80.69459,659.8535
"4320",80.61646,659.8667
"4321",80.51392,659.8801
"4322",80.377205,659.8933
"4323",80.21118,659.90674
"4324",80.01343,659.9199
"4325",79.798584,659.93335
"4326",79.57397,659.94653
"4327",79.35912,659.95996
"4328",79.15892,659.97314
"4329",78.9807,659.9866
"4330",78.82933,659.99976
"4331",78.70725,660.0132
"4332",78.61448,660.02637
"4333",78.54368,660.0398
"4334",78.487526,660.053
"4335",78.4387,660.0664
"4336",78.40208,660.0796
"4337",78.37034,660.093
"4338",78.34348,660.1062
"4339",78.314186,660.1196
"4340",78.28489,660.1328
"4341",78.24582,660.14624
"4342",78.19943,660.1594
"4343",78.153046,660.17285
"4344",78.12863,660.18604
"4345",78.18234,660.19946
"4346",78.40696,660.21265
"4347",78.87816,660.2261
"4348",79.60815,660.23926
"4349",80.54078,660.2527
"4350",81.54421,660.26587
"4351",82.45243,660.2793
"4352",83.12627,660.2925
"4353",83.49737,660.3059
"4354",83.58526,660.3191
"4355",83.45098,660.3325
"4356",83.175095,660.3457
"4357",82.83574,660.35913
"4358",82.5037,660.3723
"4359",82.22049,660.38574
"4360",82.01297,660.3989
"4361",81.87869,660.41235
"4362",81.795685,660.42554
"4363",81.7322,660.43896
"4364",81.65652,660.45215
"4365",81.55154,660.4656
"4366",81.41482,660.47876
"4367",81.26833,660.4922
"4368",81.12428,660.5054
"4369",81.00221,660.5188
"4370",80.89723,660.532
"4371",80.80934,660.5454
"4372",80.71656,660.5586
"4373",80.61646,660.572
"4374",80.499275,660.5852
"4375",80.365,660.59863
"4376",80.2063,660.6118
"4377",80.028076,660.62524
"4378",79.84009,660.6384
"4379",79.64477,660.65186
"4380",79.45434,660.66504
"4381",79.27123,660.67847
"4382",79.10521,660.69165
"4383",78.96117,660.7051
"4384",78.84642,660.71826
"4385",78.75853,660.7317
"4386",78.69749,660.7449
"4387",78.66331,660.7583
"4388",78.641335,660.7715
"4389",78.62913,660.7849
"4390",78.61448,660.7981
"4391",78.59251,660.8115
"4392",78.555885,660.8247
"4393",78.50706,660.83813
"4394",78.450905,660.8513
"4395",78.39475,660.86475
"4396",78.35813,660.8779
"4397",78.38743,660.89136
"4398",78.56077,660.90454
"4399",78.9514,660.91797
"4400",79.57641,660.93115
"4401",80.40162,660.9446
"4402",81.31716,660.95776
"4403",82.17166,660.9712
"4404",82.82597,660.9844
"4405",83.20195,660.9978
"4406",83.299614,661.011
"4407",83.177536,661.0244
"4408",82.913864,661.0376
"4409",82.58671,661.051
"4410",82.25712,661.0642
"4411",81.969025,661.07764
"4412",81.74197,661.0908
"4413",81.57839,661.10425
"4414",81.45876,661.11743
"4415",81.358665,661.13086
"4416",81.25613,661.14404
"4417",81.13649,661.1575
"4418",80.99733,661.17065
"4419",80.85817,661.1841
"4420",80.73609,661.19727
"4421",80.64332,661.2107
"4422",80.570076,661.2239
"4423",80.5066,661.2373
"4424",80.44068,661.2505
"4425",80.35523,661.2639
"4426",80.24536,661.2771
"4427",80.10864,661.2905
"4428",79.940186,661.3037
"4429",79.7522,661.31714
"4430",79.54711,661.3303
"4431",79.33959,661.34375
"4432",79.13939,661.35693
"4433",78.958725,661.37036
"4434",78.802475,661.38354
"4435",78.67307,661.397
"4436",78.57053,661.41016
"4437",78.49241,661.4236
"4438",78.44114,661.43677
"4439",78.40696,661.4502
"4440",78.38743,661.4634
"4441",78.37766,661.4768
"4442",78.36057,661.49
"4443",78.33616,661.5034
"4444",78.29954,661.5166
"4445",78.24094,661.53
"4446",78.17502,661.5432
"4447",78.10666,661.55664
"4448",78.07248,661.5698
"4449",78.12619,661.58325
"4450",78.345924,661.59644
"4451",78.77562,661.60986
"4452",79.42016,661.62305
"4453",80.21118,661.6365
"4454",81.04372,661.64966
"4455",81.76883,661.6631
"4456",82.28397,661.6763
"4457",82.53788,661.6897
"4458",82.562294,661.7029
"4459",82.41337,661.7163
"4460",82.16922,661.7295
"4461",81.898224,661.7429
"4462",81.651634,661.7561
"4463",81.45632,661.76953
"4464",81.31228,661.7827
"4465",81.21217,661.79614
"4466",81.13161,661.8093
"4467",81.05104,661.82275
"4468",80.94606,661.83594
"4469",80.814224,661.84937
"4470",80.66285,661.86255
"4471",80.5066,661.876
"4472",80.36988,661.88916
"4473",80.25269,661.9026
"4474",80.15747,661.9158
"4475",80.076904,661.9292
"4476",79.99878,661.9424
"4477",79.91333,661.9558
"4478",79.80835,661.969
"4479",79.676506,661.9824
"4480",79.52514,661.9956
"4481",79.35668,662.00903
"4482",79.18089,662.0222
"4483",79.00267,662.03564
"4484",78.839096,662.0488
"4485",78.68772,662.06226
"4486",78.56077,662.07544
"4487",78.45579,662.08887
"4488",78.380104,662.10205
"4489",78.331276,662.1155
"4490",78.30442,662.12866
"4491",78.29221,662.1421
"4492",78.28245,662.1553
"4493",78.2678,662.1687
"4494",78.24094,662.1819
"4495",78.19455,662.1953
"4496",78.133514,662.2085
"4497",78.05783,662.2219
"4498",77.98215,662.2351
"4499",77.925995,662.24854
"4500",77.93332,662.2617
"4501",78.07248,662.27515
"4502",78.40208,662.2883
"4503",78.9514,662.30176
"4504",79.676506,662.31494
"4505",80.4773,662.32837
"4506",81.22682,662.34155
"4507",81.80301,662.355
"4508",82.13748,662.36816
"4509",82.230255,662.3816
"4510",82.14725,662.3948
"4511",81.94949,662.4082
"4512",81.71511,662.4214
"4513",81.495384,662.4348
"4514",81.324486,662.448
"4515",81.20729,662.4614
"4516",81.13649,662.4746
"4517",81.08034,662.48804
"4518",81.01442,662.5012
"4519",80.921646,662.51465
"4520",80.797134,662.52783
"4521",80.6482,662.54126
"4522",80.50416,662.55444
"4523",80.38209,662.5679
"4524",80.289314,662.58105
"4525",80.22339,662.5945
"4526",80.16968,662.60767
"4527",80.111084,662.6211
"4528",80.03784,662.6343
"4529",79.94263,662.6477
"4530",79.82788,662.6609
"4531",79.693596,662.6743
"4532",79.54955,662.6875
"4533",79.395744,662.7009
"4534",79.23949,662.7141
"4535",79.09544,662.72754
"4536",78.96605,662.7407
"4537",78.84886,662.75415
"4538",78.75853,662.76733
"4539",78.692604,662.78076
"4540",78.641335,662.79395
"4541",78.60471,662.8074
"4542",78.57542,662.82056
"4543",78.54612,662.834
"4544",78.5095,662.84717
"4545",78.467995,662.8606
"4546",78.42161,662.8738
"4547",78.37034,662.8872
"4548",78.314186,662.9004
"4549",78.24582,662.9138
"4550",78.167694,662.927
"4551",78.08957,662.9404
"4552",78.030975,662.9536
"4553",78.0383,662.96704
"4554",78.19211,662.9802
"4555",78.54856,662.99365
"4556",79.12474,663.00684
"4557",79.86694,663.02026
"4558",80.6775,663.03345
"4559",81.41482,663.0469
"4560",81.96414,663.06006
"4561",82.26444,663.0735
"4562",82.32548,663.0867
"4563",82.2034,663.1001
"4564",81.97635,663.1133
"4565",81.71999,663.1267
"4566",81.4905,663.1399
"4567",81.3196,663.1533
"4568",81.21217,663.1665
"4569",81.1487,663.17993
"4570",81.10231,663.1931
"4571",81.041275,663.20654
"4572",80.95094,663.2197
