"","ppg","time"
"1",78.62913,873.8484
"2",78.84154,873.8618
"3",79.24437,873.875
"4",79.82788,873.8884
"5",80.52125,873.9016
"6",81.22194,873.91504
"7",81.81766,873.9282
"8",82.22049,873.94165
"9",82.406044,873.95483
"10",82.408485,873.96826
"11",82.27665,873.98145
"12",82.0618,873.9949
"13",81.82498,874.00806
"14",81.59792,874.0215
"15",81.39529,874.03467
"16",81.234146,874.0481
"17",81.10719,874.0613
"18",80.99733,874.0747
"19",80.88991,874.0879
"20",80.77516,874.1013
"21",80.65308,874.1145
"22",80.53101,874.1279
"23",80.42115,874.1411
"24",80.33814,874.15454
"25",80.27955,874.1677
"26",80.24536,874.18115
"27",80.218506,874.19434
"28",80.18677,874.20776
"29",80.13794,874.22095
"30",80.06958,874.2344
"31",79.96948,874.24756
"32",79.84009,874.261
"33",79.68871,874.2742
"34",79.53002,874.2876
"35",79.36889,874.3008
"36",79.21507,874.3142
"37",79.078354,874.3274
"38",78.96117,874.3408
"39",78.86107,874.354
"40",78.79027,874.36743
"41",78.74143,874.3806
"42",78.70725,874.39404
"43",78.67307,874.4072
"44",78.63645,874.42065
"45",78.58762,874.43384
"46",78.53147,874.44727
"47",78.49729,874.46045
"48",78.54856,874.4739
"49",78.74387,874.48706
"50",79.13695,874.5005
"51",79.727776,874.5137
"52",80.45777,874.5271
"53",81.214615,874.5403
"54",81.87137,874.5537
"55",82.337685,874.5669
"56",82.57694,874.5803
"57",82.61356,874.5935
"58",82.496376,874.60693
"59",82.2913,874.6201
"60",82.056915,874.63354
"61",81.82742,874.6467
"62",81.62966,874.66016
"63",81.47585,874.67334
"64",81.358665,874.68677
"65",81.25857,874.69995
"66",81.160904,874.7134
"67",81.05104,874.72656
"68",80.92409,874.74
"69",80.78493,874.7532
"70",80.64332,874.7666
"71",80.50904,874.7798
"72",80.40162,874.7932
"73",80.31617,874.8064
"74",80.25025,874.8198
"75",80.18921,874.833
"76",80.128174,874.84644
"77",80.05005,874.8596
"78",79.94995,874.87305
"79",79.823,874.8862
"80",79.67895,874.89966
"81",79.520256,874.91284
"82",79.35424,874.9263
"83",79.19066,874.93945
"84",79.03929,874.9529
"85",78.9099,874.96606
"86",78.802475,874.9795
"87",78.71946,874.9927
"88",78.65598,875.0061
"89",78.6096,875.0193
"90",78.56321,875.0327
"91",78.519264,875.0459
"92",78.467995,875.0593
"93",78.41917,875.0725
"94",78.399635,875.08594
"95",78.45823,875.0991
"96",78.66331,875.11255
"97",79.063705,875.12573
"98",79.656975,875.13916
"99",80.38697,875.15234
"100",81.1487,875.1658
"101",81.81766,875.17896
"102",82.28886,875.1924
"103",82.53788,875.20557
"104",82.581825,875.219
"105",82.476845,875.2322
"106",82.28153,875.2456
"107",82.05936,875.2588
"108",81.84451,875.2722
"109",81.67361,875.2854
"110",81.53933,875.2988
"111",81.446556,875.312
"112",81.36599,875.32544
"113",81.28298,875.3386
"114",81.16823,875.35205
"115",81.02663,875.36523
"116",80.86305,875.37866
"117",80.69459,875.39185
"118",80.5359,875.4053
"119",80.40406,875.41846
"120",80.29908,875.4319
"121",80.21362,875.44507
"122",80.14038,875.4585
"123",80.07202,875.4717
"124",79.98901,875.4851
"125",79.886475,875.4983
"126",79.766846,875.5117
"127",79.63012,875.5249
"128",79.48119,875.5383
"129",79.32494,875.5515
"130",79.168686,875.56494
"131",79.01976,875.5781
"132",78.88548,875.59155
"133",78.765854,875.60474
"134",78.66819,875.61816
"135",78.590065,875.63135
"136",78.52903,875.6448
"137",78.47776,875.65796
"138",78.43137,875.6714
"139",78.38499,875.6846
"140",78.3386,875.698
"141",78.28977,875.7112
"142",78.26292,875.7246
"143",78.30442,875.7378
"144",78.487526,875.7512
"145",78.86107,875.7644
"146",79.43725,875.77783
"147",80.16235,875.791
"148",80.94118,875.80444
"149",81.64431,875.8176
"150",82.16678,875.83105
"151",82.46464,875.84424
"152",82.55985,875.85767
"153",82.49149,875.87085
"154",82.32548,875.8843
"155",82.12039,875.89746
"156",81.92264,875.9109
"157",81.74685,875.9241
"158",81.60769,875.9375
"159",81.495384,875.9507
"160",81.39529,875.9641
"161",81.290306,875.9773
"162",81.16823,875.9907
"163",81.02174,876.0039
"164",80.86061,876.01733
"165",80.69459,876.0305
"166",80.533455,876.04395
"167",80.394295,876.0571
"168",80.28199,876.07056
"169",80.18677,876.08374
"170",80.10376,876.09717
"171",80.02319,876.11035
"172",79.93042,876.1238
"173",79.82056,876.13696
"174",79.69604,876.1504
"175",79.55688,876.1636
"176",79.40551,876.177
"177",79.24193,876.1902
"178",79.07591,876.2036
"179",78.91966,876.2168
"180",78.77806,876.2302
"181",78.658424,876.2434
"182",78.56321,876.25684
"183",78.485085,876.27
"184",78.42405,876.28345
"185",78.37034,876.29663
"186",78.32395,876.31006
"187",78.28001,876.32324
"188",78.238495,876.3367
"189",78.19211,876.34985
"190",78.1384,876.3633
"191",78.08469,876.37646
"192",78.048065,876.3899
"193",78.0798,876.4031
"194",78.24826,876.4165
"195",78.6096,876.4297
"196",79.185776,876.4431
"197",79.92798,876.4563
"198",80.73853,876.4697
"199",81.49294,876.4829
"200",82.07645,876.49634
"201",82.4329,876.5095
"202",82.56962,876.52295
"203",82.530556,876.53613
"204",82.37919,876.54956
"205",82.1741,876.56274
"206",81.9617,876.5762
"207",81.77371,876.58936
"208",81.62478,876.6028
"209",81.50759,876.61597
"210",81.40749,876.6294
"211",81.30251,876.6426
"212",81.17799,876.656
"213",81.03151,876.6692
"214",80.86305,876.6826
"215",80.689705,876.6958
"216",80.52857,876.7092
"217",80.38941,876.7224
"218",80.27711,876.73584
"219",80.18677,876.749
"220",80.111084,876.76245
"221",80.03784,876.77563
"222",79.95239,876.78906
"223",79.852295,876.80225
"224",79.7351,876.8157
"225",79.60082,876.82886
"226",79.4519,876.8423
"227",79.293205,876.85547
"228",79.132065,876.8689
"229",78.97093,876.8821
"230",78.819565,876.8955
"231",78.68772,876.9087
"232",78.57542,876.9221
"233",78.485085,876.9353
"234",78.4094,876.9487
"235",78.345924,876.9619
"236",78.2971,876.97534
"237",78.25071,876.9885
"238",78.21164,877.00195
"239",78.17258,877.01514
"240",78.12863,877.02856
"241",78.0798,877.04175
"242",78.028534,877.0552
"243",77.98459,877.06836
"244",77.98947,877.0818
"245",78.11154,877.095
"246",78.41917,877.1084
"247",78.941635,877.1216
"248",79.64965,877.135
"249",80.462654,877.1482
"250",81.24391,877.1616
"251",81.87137,877.1748
"252",82.27421,877.18823
"253",82.44511,877.2014
"254",82.423134,877.21484
"255",82.27177,877.228
"256",82.056915,877.24146
"257",81.83475,877.25464
"258",81.634544,877.26807
"259",81.46609,877.28125
"260",81.32937,877.2947
"261",81.20973,877.30786
"262",81.08766,877.3213
"263",80.95094,877.3345
"264",80.79469,877.3479
"265",80.62867,877.3611
"266",80.46754,877.3745
"267",80.32838,877.3877
"268",80.218506,877.4011
"269",80.13306,877.4143
"270",80.0647,877.42773
"271",80.008545,877.4409
"272",79.940186,877.45435
"273",79.86206,877.4675
"274",79.764404,877.48096
"275",79.64721,877.49414
"276",79.51049,877.50757
"277",79.35668,877.52075
"278",79.19798,877.5342
"279",79.04173,877.54736
"280",78.89769,877.5608
"281",78.76097,877.574
"282",78.641335,877.5874
"283",78.53391,877.6006
"284",78.44602,877.614
"285",78.37278,877.6272
"286",78.3093,877.6406
"287",78.25803,877.6538
"288",78.21164,877.66724
"289",78.16525,877.6804
"290",78.116425,877.69385
"291",78.0676,877.70703
"292",78.02365,877.72046
"293",77.98703,877.73364
"294",77.98947,877.7471
"295",78.08713,877.76025
"296",78.35081,877.7737
"297",78.81468,877.78687
"298",79.466545,877.8003
"299",80.23804,877.8135
"300",81.01198,877.8269
"301",81.66628,877.8401
"302",82.108185,877.8535
"303",82.31571,877.8667
"304",82.320595,877.8801
"305",82.178986,877.8933
"306",81.951935,877.90674
"307",81.70046,877.9199
"308",81.46609,877.93335
"309",81.26101,877.94653
"310",81.094986,877.95996
"311",80.95827,877.97314
"312",80.831314,877.9866
"313",80.706795,877.99976
"314",80.570076,878.0132
"315",80.42359,878.02637
"316",80.28443,878.0398
"317",80.15503,878.053
"318",80.04761,878.0664
"319",79.971924,878.0796
"320",79.91821,878.093
"321",79.87671,878.1062
"322",79.83765,878.1196
"323",79.783936,878.1328
"324",79.710686,878.14624
"325",79.60815,878.1594
"326",79.48119,878.17285
"327",79.33715,878.18604
"328",79.18089,878.19946
"329",79.027084,878.21265
"330",78.8806,878.2261
"331",78.74876,878.23926
"332",78.63157,878.2527
"333",78.53391,878.26587
"334",78.45335,878.2793
"335",78.38499,878.2925
"336",78.328835,878.3059
"337",78.28733,878.3191
"338",78.24826,878.3325
"339",78.20676,878.3457
"340",78.16525,878.35913
"341",78.12131,878.3723
"342",78.07492,878.38574
"343",78.03586,878.3989
"344",78.04318,878.41235
"345",78.15549,878.42554
"346",78.4387,878.43896
"347",78.92699,878.45215
"348",79.60815,878.4656
"349",80.39918,878.47876
"350",81.17555,878.4922
"351",81.812775,878.5054
"352",82.230255,878.5188
"353",82.41093,878.532
"354",82.38651,878.5454
"355",82.22293,878.5586
"356",81.98367,878.572
"357",81.71755,878.5852
"358",81.461205,878.59863
"359",81.23659,878.6118
"360",81.04616,878.62524
"361",80.88747,878.6384
"362",80.743416,878.65186
"363",80.61158,878.66504
"364",80.4773,878.67847
"365",80.34547,878.69165
"366",80.22339,878.7051
"367",80.12573,878.71826
"368",80.04761,878.7317
"369",79.98657,878.7449
"370",79.94263,878.7583
"371",79.8938,878.7715
"372",79.835205,878.7849
"373",79.75708,878.7981
"374",79.65942,878.8115
"375",79.54223,878.8247
"376",79.412834,878.83813
"377",79.273674,878.8513
"378",79.1223,878.86475
"379",78.97093,878.8779
"380",78.82445,878.89136
"381",78.69016,878.90454
"382",78.572975,878.91797
"383",78.47532,878.93115
"384",78.39475,878.9446
"385",78.32395,878.95776
"386",78.26536,878.9712
"387",78.21164,878.9844
"388",78.16037,878.9978
"389",78.1091,879.011
"390",78.06027,879.0244
"391",78.01633,879.0376
"392",78.00168,879.051
"393",78.07004,879.0642
"394",78.294655,879.07764
"395",78.72434,879.0908
"396",79.34692,879.10425
"397",80.10132,879.11743
"398",80.87038,879.13086
"399",81.529564,879.14404
"400",81.98367,879.1575
"401",82.20096,879.17065
"402",82.210724,879.1841
"403",82.06912,879.19727
"404",81.83963,879.2107
"405",81.57351,879.2239
"406",81.307396,879.2373
"407",81.06569,879.2505
"408",80.86061,879.2639
"409",80.68726,879.2771
"410",80.5359,879.2905
"411",80.39918,879.3037
"412",80.2649,879.31714
"413",80.13794,879.3303
"414",80.025635,879.34375
"415",79.94263,879.35693
"416",79.886475,879.37036
"417",79.852295,879.38354
"418",79.83276,879.397
"419",79.815674,879.41016
"420",79.78638,879.4236
"421",79.742424,879.43677
"422",79.674065,879.4502
"423",79.57885,879.4634
"424",79.45678,879.4768
"425",79.31518,879.49
"426",79.16136,879.5034
"427",79.00755,879.5166
"428",78.86107,879.53
"429",78.73411,879.5432
"430",78.624245,879.55664
"431",78.536354,879.5698
"432",78.46555,879.58325
"433",78.40696,879.59644
"434",78.348366,879.60986
"435",78.294655,879.62305
"436",78.23361,879.6365
"437",78.17258,879.64966
"438",78.118866,879.6631
"439",78.1091,879.6763
"440",78.2092,879.6897
"441",78.48264,879.7029
"442",78.96849,879.7163
"443",79.64721,879.7295
"444",80.43336,879.7429
"445",81.19264,879.7561
"446",81.80301,879.76953
"447",82.18387,879.7827
"448",82.32304,879.79614
"449",82.266884,879.8093
"450",82.07645,879.82275
"451",81.815216,879.83594
"452",81.5198,879.84937
"453",81.234146,879.86255
"454",80.96559,879.876
"455",80.73121,879.88916
"456",80.52369,879.9026
"457",80.34547,879.9158
"458",80.18677,879.9292
"459",80.05493,879.9424
"460",79.94751,879.9558
"461",79.871826,879.969
"462",79.83032,879.9824
"463",79.823,879.9956
"464",79.83765,880.00903
"465",79.85962,880.0222
"466",79.87427,880.03564
"467",79.86206,880.0488
"468",79.823,880.06226
"469",79.74975,880.07544
"470",79.64721,880.08887
"471",79.517815,880.10205
"472",79.378654,880.1155
"473",79.23216,880.12866
"474",79.08568,880.1421
"475",78.9514,880.1553
"476",78.83177,880.1687
"477",78.72678,880.1819
"478",78.63889,880.1953
"479",78.56809,880.2085
"480",78.50706,880.2219
"481",78.45335,880.2351
"482",78.40452,880.24854
"483",78.36057,880.2617
"484",78.348366,880.27515
"485",78.42161,880.2883
"486",78.64866,880.30176
"487",79.09056,880.31494
"488",79.744865,880.32837
"489",80.53834,880.34155
"490",81.35378,880.355
"491",82.054474,880.36816
"492",82.530556,880.3816
"493",82.75273,880.3948
"494",82.7454,880.4082
"495",82.56718,880.4214
"496",82.28886,880.4348
"497",81.969025,880.448
"498",81.64675,880.4614
"499",81.3489,880.4746
"500",81.08522,880.48804
"501",80.85329,880.5012
"502",80.6482,880.51465
"503",80.46021,880.52783
"504",80.289314,880.54126
"505",80.1355,880.55444
"506",80.0061,880.5679
"507",79.903564,880.58105
"508",79.84009,880.5945
"509",79.80591,880.60767
"510",79.79126,880.6211
"511",79.78638,880.6343
"512",79.77173,880.6477
"513",79.73022,880.6609
"514",79.65453,880.6743
"515",79.54955,880.6875
"516",79.42504,880.7009
"517",79.290764,880.7141
"518",79.15404,880.72754
"519",79.01732,880.7407
"520",78.887924,880.75415
"521",78.76341,880.76733
"522",78.6511,880.78076
"523",78.54856,880.79395
"524",78.46311,880.8074
"525",78.38987,880.82056
"526",78.32395,880.834
"527",78.27024,880.84717
"528",78.24582,880.8606
"529",78.294655,880.8738
"530",78.48997,880.8872
"531",78.887924,880.9004
"532",79.49828,880.9138
"533",80.26246,880.927
"534",81.075455,880.9404
"535",81.80057,880.9536
"536",82.32792,880.96704
"537",82.61112,880.9802
"538",82.667274,880.99365
"539",82.55009,881.00684
"540",82.32548,881.02026
"541",82.04959,881.03345
"542",81.76395,881.0469
"543",81.49294,881.06006
"544",81.253685,881.0735
"545",81.0486,881.0867
"546",80.87526,881.1001
"547",80.723885,881.1133
"548",80.584724,881.1267
"549",80.462654,881.1399
"550",80.35035,881.1533
"551",80.25269,881.1665
"552",80.177,881.17993
"553",80.130615,881.1931
"554",80.10376,881.20654
"555",80.096436,881.2197
"556",80.09155,881.23315
"557",80.07446,881.24634
"558",80.03052,881.25977
"559",79.957275,881.27295
"560",79.84985,881.2864
"561",79.71557,881.29956
"562",79.55932,881.313
"563",79.3933,881.3262
"564",79.22484,881.3396
"565",79.063705,881.3528
"566",78.91966,881.3662
"567",78.79515,881.3794
"568",78.69749,881.3928
"569",78.61448,881.406
"570",78.54612,881.41943
"571",78.49241,881.4326
"572",78.470436,881.44604
"573",78.54124,881.4592
"574",78.77562,881.47266
"575",79.22728,881.48584
"576",79.88159,881.49927
"577",80.66285,881.51245
"578",81.45632,881.5259
"579",82.125275,881.53906
"580",82.57694,881.5525
"581",82.78203,881.5657
"582",82.78203,881.5791
"583",82.63554,881.5923
"584",82.39628,881.6057
"585",82.11795,881.6189
"586",81.84207,881.6323
"587",81.58816,881.6455
"588",81.36111,881.65894
"589",81.16579,881.6721
"590",80.990005,881.68555
"591",80.81911,881.6987
"592",80.65064,881.71216
"593",80.48463,881.72534
"594",80.323494,881.7388
"595",80.184326,881.75195
"596",80.076904,881.7654
"597",80.00366,881.77856
"598",79.95972,881.792
"599",79.93286,881.8052
"600",79.91577,881.8186
"601",79.89136,881.8318
"602",79.84985,881.8452
"603",79.77661,881.8584
"604",79.67162,881.8718
"605",79.53979,881.885
"606",79.38598,881.89844
"607",79.219955,881.9116
"608",79.063705,881.92505
"609",78.924545,881.93823
"610",78.8098,881.95166
"611",78.712135,881.96484
"612",78.62913,881.9783
"613",78.54856,881.99146
"614",78.47532,882.0049
"615",78.416725,882.01807
"616",78.42649,882.0315
"617",78.572975,882.0447
"618",78.922104,882.0581
"619",79.48852,882.0713
"620",80.22339,882.0847
"621",81.02663,882.0979
"622",81.75662,882.1113
"623",82.30595,882.1245
"624",82.616005,882.13794
"625",82.701454,882.1511
"626",82.60868,882.16455
"627",82.4036,882.17773
"628",82.142365,882.19116
"629",81.87137,882.20435
"630",81.617455,882.2178
"631",81.39529,882.23096
"632",81.20729,882.2444
"633",81.04616,882.25757
"634",80.88991,882.271
"635",80.73365,882.2842
"636",80.57252,882.2976
"637",80.411385,882.3108
"638",80.26246,882.3242
"639",80.13794,882.3374
"640",80.045166,882.3508
"641",79.98657,882.364
"642",79.95239,882.37744
"643",79.92798,882.3906
"644",79.89868,882.40405
"645",79.852295,882.41724
"646",79.781494,882.43066
"647",79.67895,882.44385
"648",79.54955,882.4573
"649",79.40307,882.47046
"650",79.24437,882.4839
"651",79.08568,882.4971
"652",78.93431,882.5105
"653",78.802475,882.5237
"654",78.69749,882.5371
"655",78.607155,882.5503
"656",78.53391,882.5637
"657",78.47532,882.5769
"658",78.43137,882.59033
"659",78.42405,882.6035
"660",78.51438,882.61694
"661",78.77562,882.6301
"662",79.24925,882.64355
"663",79.920654,882.65674
"664",80.71412,882.67017
"665",81.51003,882.68335
"666",82.18143,882.6968
"667",82.63554,882.70996
"668",82.85039,882.7234
"669",82.85527,882.7366
"670",82.71122,882.75
"671",82.4744,882.7632
"672",82.2034,882.7766
"673",81.934845,882.7898
"674",81.70046,882.8032
"675",81.50271,882.8164
"676",81.33669,882.82983
"677",81.18776,882.843
"678",81.03639,882.85645
"679",80.8777,882.8696
"680",80.706795,882.88306
"681",80.5359,882.89624
"682",80.377205,882.90967
"683",80.24292,882.92285
"684",80.1355,882.9363
"685",80.05493,882.94946
"686",79.99634,882.9629
"687",79.94263,882.9761
"688",79.87915,882.9895
"689",79.801025,883.0027
"690",79.69604,883.0161
"691",79.569084,883.0293
"692",79.4226,883.0427
"693",79.26147,883.0559
"694",79.10277,883.06934
"695",78.94896,883.0825
"696",78.8098,883.09595
"697",78.68284,883.10913
"698",78.572975,883.12256
"699",78.47532,883.13574
"700",78.38743,883.1492
"701",78.30686,883.16235
"702",78.23605,883.1758
"703",78.19455,883.18896
"704",78.24338,883.2024
"705",78.45579,883.2156
"706",78.8806,883.229
"707",79.517815,883.2422
"708",80.31129,883.2556
"709",81.143814,883.2688
"710",81.87869,883.2822
"711",82.40116,883.2954
"712",82.67948,883.30884
"713",82.72587,883.322
"714",82.6038,883.33545
"715",82.371864,883.34863
"716",82.09842,883.36206
"717",81.82498,883.37524
"718",81.58083,883.3887
"719",81.37087,883.40186
"720",81.19508,883.4153
"721",81.03639,883.42847
"722",80.8777,883.4419
"723",80.71412,883.4551
"724",80.54322,883.4685
"725",80.37476,883.4817
"726",80.216064,883.4951
"727",80.076904,883.5083
"728",79.96216,883.5217
"729",79.871826,883.5349
"730",79.798584,883.54834
"731",79.73754,883.5615
"732",79.67895,883.57495
"733",79.61303,883.58813
"734",79.520256,883.60156
"735",79.40063,883.61475
"736",79.256584,883.6282
"737",79.10521,883.64136
"738",78.94896,883.6548
"739",78.802475,883.66797
"740",78.66331,883.6814
"741",78.536354,883.6946
"742",78.42405,883.708
"743",78.32395,883.7212
"744",78.238495,883.7346
"745",78.15793,883.7478
"746",78.08713,883.7612
"747",78.01877,883.7744
"748",77.96994,883.78784
"749",77.977264,883.801
"750",78.11398,883.81445
"751",78.45335,883.82764
"752",79.01488,883.84106
"753",79.77173,883.85425
"754",80.621346,883.8677
"755",81.43191,883.88086
"756",82.07889,883.8943
"757",82.48661,883.9075
"758",82.650185,883.9209
"759",82.61356,883.9341
"760",82.44022,883.9475
"761",82.18875,883.9607
"762",81.90311,883.9741
"763",81.62478,883.9873
"764",81.3782,884.00073
"765",81.17067,884.0139
"766",80.99489,884.02734
"767",80.68238,884.05396
"768",80.52613,884.06714
"769",80.36256,884.08057
"770",80.20386,884.09375
"771",80.07202,884.1072
"772",79.971924,884.12036
"773",79.89868,884.1338
"774",79.84253,884.147
"775",79.78638,884.1604
"776",79.72045,884.1736
"777",79.639885,884.187
"778",79.534904,884.2002
"779",79.41039,884.2136
"780",79.273674,884.2268
"781",79.12474,884.24023
"782",78.97093,884.2534
"783",78.81712,884.26685
"784",78.677956,884.28
"785",78.54856,884.29346
"786",78.43626,884.30664
"787",78.33372,884.32007
"788",78.24582,884.33325
"789",78.170135,884.3467
"790",78.09689,884.35986
"791",78.030975,884.3733
"792",77.96994,884.3865
"793",77.91623,884.3999
"794",77.874725,884.4131
"795",77.87717,884.4265
"796",77.979706,884.4397
"797",78.260475,884.4531
"798",78.77074,884.4663
"799",79.500725,884.47974
"800",80.36988,884.4929
"801",81.24635,884.50635
"802",81.988556,884.51953
"803",82.493935,884.53296
"804",82.73075,884.54614
"805",82.738075,884.5596
"806",82.581825,884.57275
"807",82.32792,884.5862
"808",82.03006,884.59937
"809",81.72976,884.6128
"810",81.45144,884.626
"811",81.20241,884.6394
"812",80.98512,884.6526
"813",80.78493,884.666
"814",80.601814,884.6792
"815",80.430916,884.6926
"816",80.272224,884.7058
"817",80.1355,884.71924
"818",80.025635,884.7324
"819",79.94751,884.74585
"820",79.8938,884.75903
"821",79.85474,884.77246
"822",79.81079,884.78564
"823",79.76196,884.7991
"824",79.693596,884.81226
"825",79.60082,884.8257
"826",79.48608,884.83887
"827",79.3518,884.8523
"828",79.19798,884.8655
"829",79.029526,884.8789
"830",78.86351,884.8921
"831",78.69749,884.9055
"832",78.54856,884.9187
"833",78.41184,884.9321
"834",78.2971,884.9453
"835",78.19455,884.95874
"836",78.11398,884.9719
"837",78.04074,884.98535
"838",77.97482,884.99854
"839",77.91623,885.01196
"840",77.86008,885.02515
"841",77.81369,885.0386
"842",77.79172,885.05176
"843",77.840546,885.0652
"844",78.03586,885.07837
"845",78.44358,885.0918
"846",79.08812,885.105
"847",79.91089,885.1184
"848",80.8069,885.1316
"849",81.617455,885.145
"850",82.22293,885.1582
"851",82.55497,885.17163
"852",82.63554,885.1848
"853",82.52323,885.19824
"854",82.28153,885.2114
"855",81.97635,885.22485
"856",81.64919,885.23804
"857",81.32937,885.25146
"858",81.03151,885.26465
"859",80.765396,885.2781
"860",80.52369,885.29126
"861",80.306404,885.3047
"862",80.10864,885.3179
"863",79.940186,885.3313
"864",79.80591,885.3445
"865",79.72289,885.3579
"866",79.68383,885.3711
"867",79.68139,885.3845
"868",79.693596,885.3977
"869",79.70092,885.41113
"870",79.68139,885.4243
"871",79.62768,885.43774
"872",79.54223,885.4509
"873",79.432365,885.46436
"874",79.30297,885.47754
"875",79.16136,885.49097
"876",79.009995,885.50415
"877",78.84886,885.5176
"878",78.68284,885.53076
"879",78.52903,885.5442
"880",78.39231,885.5574
"881",78.28245,885.5708
"882",78.19211,885.584
"883",78.118866,885.5974
"884",78.05051,885.6106
"885",77.98459,885.624
"886",77.91867,885.6372
"887",77.857635,885.65063
"888",77.803925,885.6638
"889",77.769745,885.67725
"890",77.80148,885.6904
"891",77.977264,885.70386
"892",78.3679,885.71704
"893",78.99779,885.73047
"894",79.82544,885.74365
"895",80.73853,885.7571
"896",81.58816,885.77026
"897",82.2327,885.7837
"898",82.60868,885.7969
"899",82.718544,885.8103
"900",82.61356,885.8235
"901",82.36454,885.8369
"902",82.037384,885.8501
"903",81.67849,885.8635
"904",81.31472,885.8767
"905",80.96559,885.89014
"906",80.635994,885.9033
"907",80.34058,885.91675
"908",80.08667,885.92993
"909",79.88159,885.94336
"910",79.73022,885.95654
"911",79.63744,885.97
"912",79.59594,885.98315
"913",79.59838,885.9966
"914",79.62524,886.00977
"915",79.656975,886.0232
"916",79.68383,886.0364
"917",79.68627,886.0498
"918",79.65209,886.063
"919",79.58129,886.0764
"920",79.48119,886.0896
"921",79.34936,886.103
"922",79.19798,886.1162
"923",79.03685,886.12964
"924",78.873276,886.1428
"925",78.71702,886.15625
"926",78.56809,886.16943
"927",78.43626,886.18286
"928",78.32151,886.19604
"929",78.22873,886.2095
"930",78.150604,886.22266
"931",78.0798,886.2361
"932",78.01877,886.24927
"933",77.96506,886.2627
"934",77.91867,886.2759
"935",77.87961,886.2893
"936",77.86496,886.3025
"937",77.91623,886.3159
"938",78.116425,886.3291
"939",78.53391,886.3425
"940",79.200424,886.3557
"941",80.05737,886.36914
"942",80.99489,886.3823
"943",81.85428,886.39575
"944",82.496376,886.40894
"945",82.85527,886.42236
"946",82.9456,886.43555
"947",82.82353,886.449
"948",82.55009,886.46216
"949",82.196075,886.4756
"950",81.80057,886.4888
"951",81.40261,886.5022
"952",81.024185,886.5154
"953",80.68238,886.5288
"954",80.377205,886.542
"955",80.11597,886.5554
"956",79.90112,886.5686
"957",79.73998,886.58203
"958",79.63744,886.5952
"959",79.59594,886.60864
"960",79.60082,886.6218
"961",79.635,886.63525
"962",79.674065,886.64844
"963",79.69848,886.66187
"964",79.69604,886.67505
"965",79.656975,886.6885
"966",79.57885,886.70166
"967",79.46899,886.7151
"968",79.32494,886.7283
"969",79.16136,886.7417
"970",78.98802,886.7549
"971",78.81468,886.7683
"972",78.643776,886.7815
"973",78.48264,886.7949
"974",78.34104,886.8081
"975",78.21408,886.82153
"976",78.101776,886.8347
"977",78.00656,886.84814
"978",77.925995,886.8613
"979",77.85275,886.87476
"980",77.789276,886.88794
"981",77.73556,886.90137
"982",77.69405,886.91455
"983",77.679405,886.928
"984",77.74532,886.94116
"985",77.977264,886.9546
"986",78.44358,886.9678
"987",79.1638,886.9812
"988",80.076904,886.9944
"989",81.05592,887.0078
"990",81.9324,887.021
"991",82.56718,887.0344
"992",82.90654,887.0476
"993",82.9749,887.06104
"994",82.8333,887.0742
"995",82.55741,887.08765
"996",82.20584,887.1008
"997",81.8201,887.11426
"998",81.42214,887.12744
"999",81.03639,887.14087
"1000",80.672615,887.15405
"1001",80.343025,887.1675
"1002",80.059814,887.18066
"1003",79.82788,887.1941
"1004",79.65942,887.2073
"1005",79.5642,887.2207
"1006",79.537346,887.2339
"1007",79.57885,887.2473
"1008",79.66918,887.2605
"1009",79.77905,887.2739
"1010",79.87915,887.2871
"1011",79.940186,887.30054
"1012",79.94995,887.3137
"1013",79.906006,887.32715
"1014",79.81323,887.34033
"1015",79.68871,887.35376
"1016",79.54467,887.36694
"1017",79.39086,887.3804
"1018",79.23216,887.39355
"1019",79.07591,887.407
"1020",78.924545,887.42017
"1021",78.78294,887.4336
"1022",78.65354,887.4468
"1023",78.536354,887.4602
"1024",78.43137,887.4734
"1025",78.3386,887.4868
"1026",78.25559,887.5
"1027",78.18234,887.5134
"1028",78.135956,887.5266
"1029",78.16037,887.54004
"1030",78.33616,887.5532
"1031",78.74387,887.56665
"1032",79.415276,887.57983
"1033",80.291756,887.59326
"1034",81.253685,887.60645
"1035",82.13748,887.6199
"1036",82.79912,887.63306
"1037",83.16777,887.6465
"1038",83.25323,887.65967
"1039",83.11894,887.6731
"1040",82.8333,887.6863
"1041",82.47196,887.6997
"1042",82.07645,887.7129
"1043",81.67361,887.7263
"1044",81.28054,887.7395
"1045",80.91188,887.7529
"1046",80.57252,887.7661
"1047",80.274666,887.77954
"1048",80.028076,887.7927
"1049",79.84741,887.80615
"1050",79.7351,887.81934
"1051",79.691154,887.83276
"1052",79.710686,887.84595
"1053",79.77905,887.8594
"1054",79.87427,887.87256
"1055",79.96704,887.886
"1056",80.03296,887.8992
"1057",80.05005,887.9126
"1058",80.01587,887.9258
"1059",79.93042,887.9392
"1060",79.80835,887.9524
"1061",79.65942,887.9658
"1062",79.4934,887.979
"1063",79.32494,887.99243
"1064",79.15404,888.0056
"1065",78.992905,888.01904
"1066",78.84642,888.0322
"1067",78.712135,888.04565
"1068",78.58518,888.05884
"1069",78.47288,888.07227
"1070",78.37522,888.08545
"1071",78.29221,888.0989
"1072",78.23605,888.11206
"1073",78.26292,888.1255
"1074",78.44358,888.1387
"1075",78.86107,888.1521
"1076",79.53979,888.1653
"1077",80.430916,888.1787
"1078",81.41726,888.1919
"1079",82.34501,888.2053
"1080",83.06279,888.2185
"1081",83.49493,888.23193
"1082",83.64141,888.2451
"1083",83.55352,888.25854
"1084",83.3045,888.2717
"1085",82.96025,888.28516
"1086",82.5745,888.29834
"1087",82.18875,888.31177
"1088",81.82742,888.32495
"1089",81.49294,888.3384
"1090",81.19264,888.35156
"1091",80.92409,888.365
"1092",80.68726,888.3782
"1093",80.48951,888.3916
"1094",80.34547,888.4048
"1095",80.257576,888.4182
"1096",80.22339,888.4314
"1097",80.235596,888.4448
"1098",80.274666,888.458
"1099",80.31617,888.47144
"1100",80.33814,888.4846
"1101",80.325935,888.49805
"1102",80.274666,888.5112
"1103",80.184326,888.52466
"1104",80.05737,888.53784
"1105",79.90112,888.5513
"1106",79.727776,888.56445
"1107",79.54467,888.5779
"1108",79.35912,888.59106
"1109",79.19066,888.6045
"1110",79.03685,888.6177
"1111",78.90257,888.6311
"1112",78.78783,888.6443
"1113",78.68772,888.6577
"1114",78.59251,888.6709
"1115",78.50706,888.6843
"1116",78.46067,888.6975
"1117",78.51438,888.71094
"1118",78.751205,888.7241
"1119",79.23216,888.73755
"1120",79.957275,888.75073
"1121",80.850845,888.76416
"1122",81.778595,888.77734
"1123",82.598915,888.7908
"1124",83.19707,888.80396
"1125",83.526665,888.8174
"1126",83.60723,888.83057
"1127",83.49737,888.844
"1128",83.26055,888.8572
"1129",82.96025,888.8706
"1130",82.63798,888.8838
"1131",82.32792,888.8972
"1132",82.04471,888.9104
"1133",81.78592,888.9238
"1134",81.55398,888.937
"1135",81.339134,888.95044
"1136",81.13893,888.9636
"1137",80.955826,888.97705
"1138",80.797134,888.99023
"1139",80.67017,889.00366
"1140",80.57984,889.01685
"1141",80.52613,889.0303
"1142",80.49439,889.04346
"1143",80.47486,889.0569
"1144",80.44312,889.07007
"1145",80.394295,889.0835
"1146",80.31373,889.0967
"1147",80.201416,889.1101
"1148",80.062256,889.1233
"1149",79.903564,889.1367
"1150",79.73266,889.1499
"1151",79.551994,889.1633
"1152",79.37621,889.1765
"1153",79.21019,889.18994
"1154",79.061264,889.2031
"1155",78.92943,889.21655
"1156",78.81712,889.22974
"1157",78.71946,889.24316
"1158",78.63157,889.25635
"1159",78.56565,889.2698
"1160",78.551,889.28296
"1161",78.658424,889.2964
"1162",78.95384,889.3096
"1163",79.47387,889.323
"1164",80.19409,889.3362
"1165",81.03151,889.3496
"1166",81.85916,889.3628
"1167",82.545204,889.3762
"1168",83.01152,889.3894
"1169",83.24101,889.40283
"1170",83.27032,889.416
"1171",83.15068,889.42944
"1172",82.94316,889.4426
"1173",82.68925,889.45605
"1174",82.423134,889.46924
"1175",82.1741,889.48267
"1176",81.95438,889.49585
"1177",81.75662,889.5093
"1178",81.57107,889.52246
"1179",81.38796,889.5359
"1180",81.197525,889.5491
"1181",81.00954,889.5625
"1182",80.831314,889.5757
"1183",80.6775,889.5891
"1184",80.56275,889.6023
"1185",80.4773,889.6157
"1186",80.413826,889.6289
"1187",80.35767,889.64233
"1188",80.29664,889.6555
"1189",80.22339,889.66895
"1190",80.12329,889.6821
"1191",79.99634,889.69556
"1192",79.84741,889.70874
"1193",79.67895,889.72217
"1194",79.50317,889.73535
"1195",79.33227,889.7488
"1196",79.17113,889.76196
"1197",79.029526,889.7754
"1198",78.90013,889.7886
"1199",78.78294,889.802
"1200",78.6804,889.8152
"1201",78.58762,889.8286
"1202",78.504616,889.8418
"1203",78.4387,889.8552
"1204",78.40696,889.8684
"1205",78.45579,889.88184
"1206",78.65354,889.895
"1207",79.04906,889.90845
"1208",79.65209,889.92163
"1209",80.411385,889.93506
"1210",81.22682,889.94824
"1211",81.96658,889.9617
"1212",82.528114,889.97485
"1213",82.86748,889.9883
"1214",82.99687,890.00146
"1215",82.95293,890.0149
"1216",82.804,890.0281
"1217",82.59647,890.0415
"1218",82.36942,890.0547
"1219",82.15213,890.0681
"1220",81.95682,890.0813
"1221",81.778595,890.0947
"1222",81.61013,890.1079
"1223",81.44167,890.12134
"1224",81.26833,890.1345
"1225",81.08766,890.14795
"1226",80.907,890.16113
"1227",80.740974,890.17456
"1228",80.604256,890.18774
"1229",80.49439,890.2012
"1230",80.4065,890.21436
"1231",80.3357,890.2278
"1232",80.2649,890.24097
"1233",80.184326,890.2544
"1234",80.08423,890.2676
"1235",79.96216,890.281
"1236",79.82056,890.2942
"1237",79.65942,890.3076
"1238",79.48608,890.3208
"1239",79.310295,890.3342
"1240",79.13695,890.3474
"1241",78.97093,890.36084
"1242",78.819565,890.374
"1243",78.68528,890.38745
"1244",78.57053,890.40063
"1245",78.470436,890.41406
"1246",78.382545,890.42725
"1247",78.2971,890.4407
"1248",78.21896,890.45386
"1249",78.153046,890.4673
"1250",78.135956,890.48047
"1251",78.22385,890.4939
"1252",78.48997,890.5071
"1253",78.96849,890.5205
"1254",79.64233,890.5337
"1255",80.44068,890.5471
"1256",81.25124,890.5603
"1257",81.94217,890.5737
"1258",82.42802,890.5869
"1259",82.686806,890.60034
"1260",82.74296,890.6135
"1261",82.652626,890.62695
"1262",82.47929,890.64014
"1263",82.27909,890.65356
"1264",82.08377,890.66675
"1265",81.91043,890.6802
"1266",81.75418,890.69336
"1267",81.61257,890.7068
"1268",81.463646,890.72
"1269",81.29519,890.7334
"1270",81.112076,890.7466
"1271",80.921646,890.76
"1272",80.73853,890.7732
"1273",80.57984,890.7866
"1274",80.45777,890.7998
"1275",80.36988,890.81323
"1276",80.308846,890.8264
"1277",80.255135,890.83984
"1278",80.19653,890.853
"1279",80.11841,890.86646
"1280",80.01099,890.87964
"1281",79.87671,890.89307
"1282",79.72045,890.90625
"1283",79.551994,890.9197
"1284",79.378654,890.93286
"1285",79.20531,890.9463
"1286",79.03929,890.9595
"1287",78.88304,890.9729
"1288",78.74143,890.9861
"1289",78.61936,890.9995
"1290",78.51438,891.0127
"1291",78.42649,891.0261
"1292",78.348366,891.0393
"1293",78.27512,891.05273
"1294",78.20187,891.0659
"1295",78.12619,891.07935
"1296",78.06271,891.0925
"1297",78.05295,891.10596
"1298",78.170135,891.11914
"1299",78.47288,891.13257
"1300",78.98314,891.14575
"1301",79.674065,891.1592
"1302",80.46021,891.17236
"1303",81.22438,891.1858
"1304",81.85184,891.199
"1305",82.27909,891.2124
"1306",82.49882,891.2256
"1307",82.54276,891.239
"1308",82.4622,891.2522
"1309",82.31327,891.2656
"1310",82.13504,891.2788
"1311",81.96414,891.29224
"1312",81.80789,891.3054
"1313",81.66384,891.31885
"1314",81.514915,891.33203
"1315",81.358665,891.34546
"1316",81.18776,891.35864
"1317",81.00221,891.3721
"1318",80.82399,891.38525
"1319",80.66285,891.3987
"1320",80.533455,891.41187
"1321",80.430916,891.4253
"1322",80.35279,891.4385
"1323",80.28687,891.4519
"1324",80.216064,891.4651
"1325",80.13306,891.4785
"1326",80.03052,891.4917
"1327",79.89624,891.5051
"1328",79.742424,891.5183
"1329",79.569084,891.53174
"1330",79.38354,891.5449
"1331",79.19554,891.55835
"1332",79.01732,891.57153
"1333",78.84886,891.58496
"1334",78.70237,891.59814
"1335",78.5803,891.6116
"1336",78.485085,891.62476
"1337",78.4094,891.6382
"1338",78.348366,891.65137
"1339",78.294655,891.6648
"1340",78.238495,891.678
"1341",78.17746,891.6914
"1342",78.10422,891.7046
"1343",78.02609,891.718
"1344",77.95529,891.7312
"1345",77.925995,891.7446
"1346",78.00168,891.7578
"1347",78.25315,891.77124
"1348",78.712135,891.7844
"1349",79.36645,891.79785
"1350",80.1355,891.81104
"1351",80.907,891.82446
"1352",81.566185,891.83765
"1353",82.0325,891.8511
"1354",82.286415,891.86426
"1355",82.354774,891.8777
"1356",82.29618,891.89087
"1357",82.161896,891.9043
"1358",81.991,891.9175
"1359",81.82254,891.9309
"1360",81.668724,891.9441
"1361",81.53445,891.9575
"1362",81.40749,891.9707
"1363",81.2781,891.98413
"1364",81.13161,891.9973
"1365",80.96315,892.01074
"1366",80.78493,892.0239
"1367",80.60914,892.03735
"1368",80.45777,892.05054
"1369",80.34058,892.06396
"1370",80.255135,892.07715
"1371",80.18921,892.0906
"1372",80.128174,892.10376
"1373",80.059814,892.1172
"1374",79.96948,892.1304
"1375",79.852295,892.1438
"1376",79.710686,892.157
"1377",79.54955,892.1704
"1378",79.37133,892.1836
"1379",79.183334,892.197
"1380",78.995346,892.2102
"1381",78.819565,892.22363
"1382",78.65598,892.2368
"1383",78.51438,892.25024
"1384",78.399635,892.2634
"1385",78.3093,892.27686
"1386",78.23605,892.29004
"1387",78.1799,892.30347
"1388",78.12863,892.31665
"1389",78.07248,892.3301
"1390",78.009,892.34326
"1391",77.93088,892.3567
"1392",77.85275,892.3699
"1393",77.786835,892.3833
"1394",77.789276,892.3965
"1395",77.91867,892.4099
"1396",78.238495,892.4231
"1397",78.76341,892.4365
"1398",79.46899,892.4497
"1399",80.26002,892.46313
"1400",81.01442,892.4763
"1401",81.62478,892.48975
"1402",82.03494,892.5029
"1403",82.2327,892.51636
"1404",82.25956,892.52954
"1405",82.1741,892.54297
"1406",82.0325,892.55615
"1407",81.87137,892.5696
"1408",81.71511,892.58276
"1409",81.57839,892.5962
"1410",81.461205,892.6094
"1411",81.3489,892.6228
"1412",81.22682,892.636
"1413",81.08278,892.6494
"1414",80.919205,892.6626
"1415",80.73609,892.676
"1416",80.55543,892.6892
"1417",80.396736,892.70264
"1418",80.26978,892.7158
"1419",80.17456,892.72925
"1420",80.09888,892.74243
"1421",80.03052,892.75586
"1422",79.954834,892.76904
"1423",79.85718,892.7825
"1424",79.73754,892.79565
"1425",79.59594,892.8091
"1426",79.429924,892.82227
"1427",79.24925,892.8357
"1428",79.063705,892.8489
"1429",78.87816,892.8623
"1430",78.69993,892.8755
"1431",78.54368,892.8889
"1432",78.40696,892.9021
"1433",78.294655,892.9155
"1434",78.19699,892.9287
"1435",78.12131,892.94214
"1436",78.05539,892.9553
"1437",77.996796,892.96875
"1438",77.9382,892.98193
"1439",77.88205,892.99536
"1440",77.81857,893.00854
"1441",77.75021,893.022
"1442",77.68429,893.03516
"1443",77.65255,893.0486
"1444",77.70382,893.06177
"1445",77.90646,893.0752
"1446",78.31663,893.0884
"1447",78.92943,893.1018
"1448",79.68627,893.115
"1449",80.48463,893.1284
"1450",81.197525,893.1416
"1451",81.72488,893.155
"1452",82.03494,893.1682
"1453",82.144806,893.18164
"1454",82.10086,893.1948
"1455",81.969025,893.20825
"1456",81.80301,893.22144
"1457",81.64187,893.23486
"1458",81.50271,893.24805
"1459",81.392845,893.2615
"1460",81.29763,893.27466
"1461",81.19997,893.2881
"1462",81.08034,893.3013
"1463",80.93141,893.3147
"1464",80.75563,893.3279
"1465",80.570076,893.3413
"1466",80.38941,893.3545
"1467",80.24292,893.3679
"1468",80.13794,893.3811
"1469",80.07202,893.39453
"1470",80.0354,893.4077
"1471",80.00122,893.42114
"1472",79.95239,893.4343
"1473",79.87427,893.44775
"1474",79.75952,893.46094
"1475",79.61547,893.47437
"1476",79.447014,893.48755
"1477",79.26391,893.501
"1478",79.078354,893.51416
"1479",78.90257,893.5276
"1480",78.74143,893.5408
"1481",78.60227,893.5542
"1482",78.48264,893.5674
"1483",78.38499,893.5808
"1484",78.30442,893.594
"1485",78.23605,893.6074
"1486",78.1799,893.6206
"1487",78.12375,893.63403
"1488",78.05783,893.6472
"1489",77.977264,893.66064
"1490",77.88937,893.6738
"1491",77.81613,893.68726
"1492",77.806366,893.70044
"1493",77.92844,893.71387
"1494",78.24338,893.72705
"1495",78.75853,893.7405
"1496",79.432365,893.75366
"1497",80.17212,893.7671
"1498",80.85817,893.7803
"1499",81.38308,893.7937
"1500",81.69314,893.8069
"1501",81.80545,893.8203
"1502",81.76395,893.8335
"1503",81.62966,893.8469
"1504",81.463646,893.8601
"1505",81.307396,893.87354
"1506",81.180435,893.8867
"1507",81.077896,893.90015
"1508",80.990005,893.9133
"1509",80.89967,893.92676
"1510",80.79469,893.93994
"1511",80.66041,893.95337
"1512",80.51148,893.96655
"1513",80.35279,893.98
"1514",80.2063,893.99316
"1515",80.08423,894.0066
"1516",79.99878,894.0198
"1517",79.94507,894.0332
"1518",79.91577,894.0464
"1519",79.888916,894.0598
"1520",79.84741,894.073
"1521",79.781494,894.0864
"1522",79.68627,894.0996
"1523",79.56176,894.11304
"1524",79.412834,894.1262
"1525",79.24193,894.13965
"1526",79.06615,894.15283
"1527",78.890366,894.16626
"1528",78.72678,894.17944
"1529",78.58762,894.1929
"1530",78.4802,894.20605
"1531",78.40208,894.2195
"1532",78.34104,894.23267
"1533",78.29221,894.2461
"1534",78.24094,894.2593
"1535",78.187225,894.2727
"1536",78.12375,894.2859
"1537",78.06271,894.2993
"1538",78.0383,894.3125
"1539",78.11154,894.3259
"1540",78.34348,894.3391
"1541",78.768295,894.35254
"1542",79.37133,894.3657
"1543",80.07202,894.37915
"1544",80.75807,894.39233
"1545",81.324486,894.40576
"1546",81.69802,894.41895
"1547",81.87137,894.4324
"1548",81.883575,894.44556
"1549",81.78836,894.459
"1550",81.63943,894.47217
"1551",81.48318,894.4856
"1552",81.34402,894.4988
"1553",81.23659,894.5122
"1554",81.15114,894.5254
"1555",81.07301,894.5388
"1556",80.98268,894.552
"1557",80.86549,894.5654
"1558",80.709236,894.5786
"1559",80.53101,894.59204
"1560",80.34547,894.6052
"1561",80.17456,894.61865
"1562",80.03784,894.63184
"1563",79.94751,894.64526
"1564",79.888916,894.65845
"1565",79.85962,894.6719
"1566",79.83276,894.68506
"1567",79.79126,894.6985
"1568",79.72045,894.7117
"1569",79.622795,894.7251
"1570",79.49096,894.7383
"1571",79.33715,894.7517
"1572",79.17601,894.7649
"1573",79.00755,894.7783
"1574",78.84642,894.7915
"1575",78.70481,894.80493
"1576",78.58518,894.8181
"1577",78.49485,894.83154
"1578",78.42649,894.8447
"1579",78.37278,894.85815
"1580",78.32395,894.87134
"1581",78.27024,894.88477
"1582",78.21408,894.89795
"1583",78.170135,894.9114
"1584",78.17258,894.92456
"1585",78.277565,894.938
"1586",78.54612,894.9512
"1587",79.00267,894.9646
"1588",79.61303,894.9778
"1589",80.306404,894.9912
"1590",80.96803,895.0044
"1591",81.49294,895.0178
"1592",81.82742,895.031
"1593",81.97391,895.04443
"1594",81.969025,895.0576
"1595",81.87381,895.07104
"1596",81.739525,895.0842
"1597",81.600365,895.09766
"1598",81.47341,895.11084
"1599",81.373314,895.12427
"1600",81.29275,895.13745
"1601",81.214615,895.1509
"1602",81.12428,895.16406
"1603",81.007095,895.1775
"1604",80.85573,895.1907
"1605",80.68238,895.2041
"1606",80.49683,895.2173
"1607",80.323494,895.2307
"1608",80.17944,895.2439
"1609",80.07202,895.2573
"1610",80.00122,895.2705
"1611",79.95239,895.28394
"1612",79.91333,895.2971
"1613",79.8645,895.31055
"1614",79.79126,895.3237
"1615",79.68871,895.33716
"1616",79.55688,895.35034
"1617",79.40307,895.3638
"1618",79.234604,895.37695
"1619",79.06859,895.3904
"1620",78.91234,895.40356
"1621",78.77074,895.417
"1622",78.64622,895.4302
"1623",78.54368,895.4436
"1624",78.46555,895.4568
"1625",78.40208,895.4702
"1626",78.35081,895.4834
"1627",78.29954,895.4968
"1628",78.24094,895.51
"1629",78.17746,895.52344
"1630",78.12863,895.5366
"1631",78.133514,895.55005
"1632",78.25559,895.56323
"1633",78.54856,895.57666
"1634",79.0222,895.58984
"1635",79.64233,895.6033
"1636",80.32105,895.61646
"1637",80.9485,895.6299
"1638",81.42947,895.64307
"1639",81.71755,895.6565
"1640",81.82742,895.6697
"1641",81.80057,895.6831
"1642",81.69558,895.6963
"1643",81.56863,895.7097
"1644",81.449,895.7229
"1645",81.3489,895.7363
"1646",81.27566,895.7495
"1647",81.21706,895.76294
"1648",81.15846,895.7761
"1649",81.075455,895.78955
"1650",80.96071,895.80273
"1651",80.81178,895.81616
"1652",80.638435,895.82935
"1653",80.45289,895.8428
"1654",80.28199,895.85596
"1655",80.1355,895.8694
"1656",80.025635,895.88257
"1657",79.95239,895.896
"1658",79.903564,895.9092
"1659",79.8645,895.9226
"1660",79.82056,895.9358
"1661",79.75464,895.9492
"1662",79.66186,895.9624
"1663",79.537346,895.9758
"1664",79.38842,895.989
"1665",79.22484,896.00244
"1666",79.063705,896.0156
"1667",78.91234,896.02905
"1668",78.7805,896.04224
"1669",78.67063,896.05566
"1670",78.58518,896.06885
"1671",78.519264,896.0823
"1672",78.46067,896.09546
"1673",78.4094,896.1089
"1674",78.35813,896.1221
"1675",78.30198,896.1355
"1676",78.23605,896.1487
"1677",78.170135,896.1621
"1678",78.10666,896.1753
"1679",78.08713,896.1887
"1680",78.15549,896.2019
"1681",78.380104,896.21533
"1682",78.785385,896.2285
"1683",79.361565,896.24194
"1684",80.03784,896.2551
"1685",80.71168,896.26855
"1686",81.27322,896.28174
"1687",81.651634,896.29517
"1688",81.84207,896.30835
"1689",81.87869,896.3218
"1690",81.815216,896.33496
"1691",81.71023,896.3484
"1692",81.602806,896.3616
"1693",81.5198,896.375
"1694",81.45876,896.3882
"1695",81.41726,896.4016
"1696",81.375755,896.4148
"1697",81.31716,896.4282
"1698",81.22926,896.4414
"1699",81.10231,896.45483
"1700",80.94118,896.468
"1701",80.75807,896.48145
"1702",80.570076,896.4946
"1703",80.396736,896.50806
"1704",80.25269,896.52124
"1705",80.13794,896.53467
"1706",80.04761,896.54785
"1707",79.974365,896.5613
"1708",79.91089,896.57446
"1709",79.84009,896.5879
"1710",79.75708,896.6011
"1711",79.656975,896.6145
"1712",79.534904,896.6277
"1713",79.3933,896.6411
"1714",79.24193,896.6543
"1715",79.09056,896.6677
"1716",78.941635,896.6809
"1717",78.81224,896.69434
"1718",78.70481,896.7075
"1719",78.61936,896.72095
"1720",78.54612,896.73413
"1721",78.48997,896.74756
"1722",78.44114,896.76074
"1723",78.397194,896.7742
"1724",78.35081,896.78735
"1725",78.30198,896.8008
"1726",78.25071,896.81396
"1727",78.19455,896.8274
"1728",78.133514,896.8406
"1729",78.082245,896.854
"1730",78.065155,896.8672
"1731",78.12375,896.8806
"1732",78.32395,896.8938
"1733",78.70725,896.9072
"1734",79.26147,896.9204
"1735",79.93286,896.93384
"1736",80.62379,896.947
"1737",81.2195,896.96045
"1738",81.64187,896.97363
"1739",81.866486,896.98706
"1740",81.9202,897.00024
"1741",81.85916,897.0137
"1742",81.739525,897.02686
"1743",81.60525,897.0403
"1744",81.48562,897.05347
"1745",81.39529,897.0669
"1746",81.33181,897.0801
"1747",81.28298,897.0935
"1748",81.231705,897.1067
"1749",81.15846,897.1201
"1750",81.0486,897.1333
"1751",80.902115,897.1467
"1752",80.723885,897.1599
"1753",80.54078,897.17334
"1754",80.36744,897.1865
"1755",80.22339,897.19995
"1756",80.113525,897.21313
"1757",80.03784,897.22656
"1758",79.97925,897.23975
"1759",79.92798,897.2532
"1760",79.86694,897.26636
"1761",79.783936,897.2798
"1762",79.68383,897.29297
"1763",79.56176,897.3064
"1764",79.42504,897.3196
"1765",79.276115,897.333
"1766",79.12962,897.3462
"1767",78.98802,897.3596
"1768",78.86107,897.3728
"1769",78.75365,897.3862
"1770",78.66819,897.3994
"1771",78.59983,897.41284
"1772",78.54612,897.426
"1773",78.49729,897.43945
"1774",78.45579,897.45264
"1775",78.40696,897.46606
"1776",78.36057,897.47925
"1777",78.314186,897.4927
"1778",78.27024,897.50586
"1779",78.23117,897.5193
"1780",78.18967,897.5325
"1781",78.14816,897.5459
"1782",78.1091,897.5591
"1783",78.07736,897.5725
"1784",78.07736,897.5857
"1785",78.15793,897.5991
"1786",78.38499,897.6123
"1787",78.79515,897.62573
"1788",79.37621,897.6389
"1789",80.07202,897.65234
"1790",80.77272,897.6655
"1791",81.36355,897.67896
"1792",81.761505,897.69214
"1793",81.94461,897.70557
"1794",81.951935,897.71875
"1795",81.84207,897.7322
"1796",81.67605,897.74536
"1797",81.50027,897.7588
"1798",81.35378,897.772
"1799",81.24635,897.7854
"1800",81.17067,897.7986
"1801",81.11696,897.812
"1802",81.06081,897.8252
"1803",80.97536,897.8386
"1804",80.85573,897.8518
"1805",80.706795,897.86523
"1806",80.54078,897.8784
"1807",80.37965,897.89185
"1808",80.23804,897.905
"1809",80.12573,897.91846
"1810",80.03784,897.93164
"1811",79.97681,897.94507
"1812",79.92554,897.95825
"1813",79.87671,897.9717
"1814",79.81323,897.98486
"1815",79.73754,897.9983
"1816",79.635,898.0115
"1817",79.51293,898.0249
"1818",79.37621,898.0381
"1819",79.24193,898.0515
"1820",79.11253,898.0647
"1821",78.992905,898.0781
"1822",78.890366,898.0913
"1823",78.80492,898.10474
"1824",78.73411,898.1179
"1825",78.67307,898.13135
"1826",78.6218,898.14453
"1827",78.5803,898.15796
"1828",78.54856,898.17114
"1829",78.51438,898.1846
"1830",78.48264,898.19775
"1831",78.450905,898.2112
"1832",78.41184,898.22437
"1833",78.37522,898.2378
"1834",78.34348,898.251
"1835",78.311745,898.2644
"1836",78.28001,898.2776
"1837",78.24582,898.291
"1838",78.21408,898.3042
"1839",78.18234,898.3176
"1840",78.16037,898.3308
"1841",78.17746,898.34424
"1842",78.294655,898.3574
"1843",78.56565,898.37085
"1844",79.02464,898.38403
"1845",79.656975,898.39746
"1846",80.394295,898.41064
"1847",81.1194,898.4241
"1848",81.71267,898.43726
"1849",82.10086,898.4507
"1850",82.269325,898.46387
"1851",82.25712,898.4773
"1852",82.12039,898.4905
"1853",81.92264,898.5039
"1854",81.71755,898.5171
"1855",81.53445,898.5305
"1856",81.38796,898.5437
"1857",81.28298,898.5571
"1858",81.197525,898.5703
"1859",81.112076,898.58374
"1860",81.00954,898.5969
"1861",80.8777,898.61035
"1862",80.723885,898.62354
"1863",80.57252,898.63696
"1864",80.4358,898.65015
"1865",80.323494,898.6636
"1866",80.24048,898.67676
"1867",80.17456,898.6902
"1868",80.11597,898.70337
"1869",80.05493,898.7168
"1870",79.991455,898.73
"1871",79.91577,898.7434
"1872",79.82544,898.7566
"1873",79.72045,898.77
"1874",79.605705,898.7832
"1875",79.47875,898.79663
"1876",79.34936,898.8098
"1877",79.22972,898.82324
"1878",79.11986,898.8364
"1879",79.0222,898.84985
"1880",78.93919,898.86304
"1881",78.873276,898.87646
"1882",78.819565,898.88965
"1883",78.77562,898.9031
"1884",78.74143,898.91626
"1885",78.709694,898.9297
"1886",78.6804,898.9429
"1887",78.6511,898.9563
"1888",78.6218,898.9695
"1889",78.59495,898.9829
"1890",78.57053,898.9961
"1891",78.54368,899.0095
"1892",78.51438,899.0227
"1893",78.485085,899.03613
"1894",78.45579,899.0493
"1895",78.42161,899.06274
"1896",78.38987,899.0759
"1897",78.37278,899.08936
"1898",78.41428,899.10254
"1899",78.57053,899.11597
"1900",78.89769,899.12915
"1901",79.415276,899.1426
"1902",80.08179,899.15576
"1903",80.8069,899.1692
"1904",81.47097,899.1824
"1905",81.96414,899.1958
"1906",82.24246,899.209
"1907",82.31571,899.2224
"1908",82.2327,899.2356
"1909",82.04959,899.249
"1910",81.82498,899.2622
"1911",81.59792,899.27563
"1912",81.3904,899.2888
"1913",81.21706,899.30225
"1914",81.075455,899.3154
"1915",80.955826,899.32886
"1916",80.84352,899.34204
"1917",80.723885,899.35547
"1918",80.59693,899.36865
"1919",80.46754,899.3821
"1920",80.34791,899.39526
"1921",80.25025,899.4087
"1922",80.177,899.4219
"1923",80.128174,899.4353
"1924",80.08911,899.4485
"1925",80.05249,899.4619
"1926",80.0061,899.4751
"1927",79.94507,899.4885
"1928",79.8645,899.5017
"1929",79.76929,899.51514
"1930",79.65453,899.5283
"1931",79.5227,899.54175
"1932",79.38354,899.55493
"1933",79.24925,899.56836
"1934",79.12718,899.58154
"1935",79.02464,899.595
"1936",78.94652,899.60815
"1937",78.8806,899.6216
"1938",78.82445,899.63477
"1939",78.77806,899.6482
"1940",78.73899,899.6614
"1941",78.70725,899.6748
"1942",78.6804,899.688
"1943",78.65598,899.7014
"1944",78.63401,899.7146
"1945",78.61448,899.728
"1946",78.59739,899.7412
"1947",78.58518,899.75464
"1948",78.57053,899.7678
"1949",78.54856,899.78125
"1950",78.521706,899.79443
"1951",78.48997,899.80786
"1952",78.45335,899.82104
"1953",78.43137,899.8345
"1954",78.450905,899.84766
"1955",78.57053,899.8611
"1956",78.8513,899.87427
"1957",79.327385,899.8877
"1958",79.96948,899.9009
"1959",80.69459,899.9143
"1960",81.38796,899.9275
"1961",81.92996,899.9409
"1962",82.25468,899.9541
"1963",82.354774,899.9675
"1964",82.28153,899.9807
"1965",82.091095,899.99414
"1966",81.85184,900.0073
"1967",81.600365,900.02075
"1968",81.37087,900.03394
"1969",81.180435,900.04736
"1970",81.024185,900.06055
"1971",80.89479,900.074
"1972",80.78493,900.08716
"1973",80.68482,900.1006
"1974",80.587166,900.1138
"1975",80.499275,900.1272
"1976",80.42115,900.1404
"1977",80.360115,900.1538
"1978",80.32105,900.167
"1979",80.30396,900.1804
"1980",80.29664,900.1936
"1981",80.28687,900.20703
"1982",80.26246,900.2202
"1983",80.216064,900.23364
"1984",80.14282,900.2468
"1985",80.045166,900.26025
"1986",79.92798,900.27344
"1987",79.7937,900.28687
"1988",79.64965,900.30005
"1989",79.500725,900.3135
"1990",79.36645,900.32666
"1991",79.25414,900.3401
"1992",79.168686,900.3533
"1993",79.11009,900.3667
"1994",79.06859,900.3799
"1995",79.03685,900.3933
"1996",79.009995,900.4065
"1997",78.98314,900.4199
"1998",78.96117,900.4331
"1999",78.941635,900.44653
"2000",78.91234,900.4597
"2001",78.87816,900.47314
"2002",78.84154,900.4863
"2003",78.80736,900.49976
"2004",78.77806,900.51294
"2005",78.75853,900.52637
"2006",78.785385,900.53955
"2007",78.9099,900.553
"2008",79.18822,900.56616
"2009",79.64477,900.5796
"2010",80.255135,900.5928
"2011",80.93141,900.6062
"2012",81.5613,900.6194
"2013",82.03494,900.6328
"2014",82.29618,900.646
"2015",82.357216,900.6594
"2016",82.25468,900.6726
"2017",82.04959,900.68604
"2018",81.795685,900.6992
"2019",81.53689,900.71265
"2020",81.29763,900.7258
"2021",81.094986,900.73926
"2022",80.92897,900.75244
"2023",80.79225,900.76587
"2024",80.67017,900.77905
"2025",80.552986,900.7925
"2026",80.44068,900.80566
"2027",80.34058,900.8191
"2028",80.26246,900.8323
"2029",80.20874,900.8457
"2030",80.184326,900.8589
"2031",80.17456,900.8723
"2032",80.17212,900.8855
"2033",80.16235,900.8989
"2034",80.130615,900.9121
"2035",80.07202,900.92554
"2036",79.98413,900.9387
"2037",79.871826,900.95215
"2038",79.744865,900.96533
"2039",79.60815,900.97876
"2040",79.47143,900.99194
"2041",79.344475,901.0054
"2042",79.22972,901.01855
"2043",79.13451,901.032
"2044",79.05882,901.04517
"2045",79.00023,901.0586
"2046",78.95384,901.0718
"2047",78.91966,901.0852
"2048",78.890366,901.0984
"2049",78.873276,901.1118
"2050",78.85863,901.125
"2051",78.84642,901.1384
"2052",78.82445,901.1516
"2053",78.79759,901.16504
"2054",78.77074,901.1782
"2055",78.751205,901.19165
"2056",78.76341,901.20483
"2057",78.86107,901.21826
"2058",79.10765,901.23145
"2059",79.53002,901.2449
"2060",80.11841,901.25806
"2061",80.814224,901.2715
"2062",81.50515,901.28467
"2063",82.08377,901.2981
"2064",82.46708,901.3113
"2065",82.64042,901.3247
"2066",82.633095,901.3379
"2067",82.49882,901.3513
"2068",82.2913,901.3645
"2069",82.0618,901.3779
"2070",81.84207,901.3911
"2071",81.64919,901.40454
"2072",81.495384,901.4177
"2073",81.375755,901.43115
"2074",81.270775,901.44434
"2075",81.16579,901.45776
"2076",81.04616,901.47095
"2077",80.91432,901.4844
"2078",80.77516,901.49756
"2079",80.64576,901.511
"2080",80.54322,901.5242
"2081",80.46754,901.5376
"2082",80.41627,901.5508
"2083",80.37476,901.5642
"2084",80.34058,901.5774
"2085",80.291756,901.5908
"2086",80.22583,901.604
"2087",80.13306,901.61743
"2088",80.01831,901.6306
"2089",79.88403,901.64404
"2090",79.73754,901.6572
"2091",79.5935,901.67065
"2092",79.45434,901.68384
"2093",79.33227,901.69727
"2094",79.22728,901.71045
"2095",79.13939,901.7239
"2096",79.063705,901.73706
"2097",79.00023,901.7505
"2098",78.94652,901.7637
"2099",78.90257,901.7771
"2100",78.873276,901.7903
"2101",78.84886,901.8037
"2102",78.82689,901.8169
"2103",78.79759,901.8303
"2104",78.76097,901.8435
"2105",78.72678,901.85693
"2106",78.71702,901.8701
"2107",78.78783,901.88354
"2108",78.99779,901.8967
"2109",79.39086,901.91016
"2110",79.95972,901.92334
"2111",80.64088,901.93677
"2112",81.33669,901.94995
"2113",81.9324,901.9634
"2114",82.34745,901.97656
"2115",82.55497,901.99
"2116",82.58427,902.0032
"2117",82.48661,902.0166
"2118",82.320595,902.0298
"2119",82.127716,902.0432
"2120",81.951935,902.0564
"2121",81.80789,902.0698
"2122",81.70046,902.083
"2123",81.61501,902.09644
"2124",81.53689,902.1096
"2125",81.444115,902.12305
"2126",81.32937,902.1362
"2127",81.18288,902.14966
"2128",81.02174,902.16284
"2129",80.85817,902.1763
"2130",80.709236,902.18945
"2131",80.584724,902.2029
"2132",80.49195,902.21606
"2133",80.428474,902.2295
"2134",80.37476,902.2427
"2135",80.323494,902.2561
"2136",80.25269,902.2693
"2137",80.16235,902.2827
"2138",80.05005,902.2959
"2139",79.920654,902.3093
"2140",79.77905,902.3225
"2141",79.635,902.33594
"2142",79.49096,902.3491
"2143",79.3518,902.36255
"2144",79.22972,902.37573
"2145",79.132065,902.38916
"2146",79.05638,902.40234
"2147",79.00755,902.4158
"2148",78.9807,902.42896
"2149",78.97093,902.4424
"2150",78.96605,902.45557
"2151",78.96117,902.469
"2152",78.94652,902.4822
"2153",78.91966,902.4956
"2154",78.8806,902.5088
"2155",78.836655,902.5222
"2156",78.82445,902.5354
"2157",78.89769,902.5488
"2158",79.11742,902.562
"2159",79.517815,902.57544
"2160",80.08423,902.5886
"2161",80.7483,902.60205
"2162",81.40749,902.61523
"2163",81.95438,902.62866
"2164",82.320595,902.64185
"2165",82.493935,902.6553
"2166",82.50858,902.66846
"2167",82.41581,902.6819
"2168",82.26444,902.69507
"2169",82.09598,902.7085
"2170",81.94461,902.7217
"2171",81.8201,902.7351
"2172",81.722435,902.7483
"2173",81.63943,902.7617
"2174",81.55398,902.7749
"2175",81.444115,902.7883
"2176",81.304955,902.8015
"2177",81.13893,902.81494
"2178",80.96071,902.8281
"2179",80.78981,902.84155
"2180",80.63355,902.85474
"2181",80.50172,902.86816
"2182",80.394295,902.88135
"2183",80.31129,902.8948
"2184",80.24292,902.90796
"2185",80.17944,902.9214
"2186",80.111084,902.9346
"2187",80.028076,902.948
"2188",79.920654,902.9612
"2189",79.79126,902.9746
"2190",79.64477,902.9878
"2191",79.48608,903.0012
"2192",79.33227,903.0144
"2193",79.185776,903.02783
"2194",79.05882,903.041
"2195",78.9514,903.05444
"2196",78.86595,903.0676
"2197",78.79759,903.08105
"2198",78.73899,903.09424
"2199",78.68772,903.10767
"2200",78.643776,903.12085
"2201",78.60227,903.1343
"2202",78.555885,903.14746
"2203",78.50706,903.1609
"2204",78.45335,903.1741
"2205",78.399635,903.1875
"2206",78.363014,903.2007
"2207",78.38499,903.2141
"2208",78.52659,903.2273
"2209",78.839096,903.2407
"2210",79.33959,903.2539
"2211",79.98169,903.26733
"2212",80.68482,903.2805
"2213",81.33669,903.29395
"2214",81.83475,903.3071
"2215",82.13504,903.32056
"2216",82.247345,903.33374
"2217",82.213165,903.34717
"2218",82.09598,903.36035
"2219",81.94217,903.3738
"2220",81.7908,903.38696
"2221",81.65896,903.4004
"2222",81.55642,903.4136
"2223",81.47097,903.427
"2224",81.38796,903.4402
"2225",81.29275,903.4536
"2226",81.17311,903.4668
"2227",81.0193,903.4802
"2228",80.848404,903.4934
"2229",80.6775,903.50684
"2230",80.52125,903.52
"2231",80.39185,903.53345
"2232",80.291756,903.54663
"2233",80.216064,903.56006
"2234",80.147705,903.57324
"2235",80.08667,903.5867
"2236",80.02075,903.59985
"2237",79.94263,903.6133
"2238",79.84253,903.62646
"2239",79.725334,903.6399
"2240",79.59106,903.6531
"2241",79.44213,903.6665
"2242",79.293205,903.6797
"2243",79.15648,903.6931
"2244",79.03685,903.7063
"2245",78.92943,903.7197
"2246",78.84398,903.7329
"2247",78.77806,903.74634
"2248",78.72678,903.7595
"2249",78.68284,903.77295
"2250",78.6511,903.78613
"2251",78.6218,903.79956
"2252",78.59251,903.81274
"2253",78.553444,903.8262
"2254",78.504616,903.83936
"2255",78.44846,903.8528
"2256",78.39475,903.86597
"2257",78.35325,903.8794
"2258",78.35813,903.8926
"2259",78.467995,903.906
"2260",78.73655,903.9192
"2261",79.1931,903.9326
"2262",79.81079,903.9458
"2263",80.516365,903.9592
"2264",81.20729,903.9724
"2265",81.77127,903.98584
"2266",82.14725,903.999
"2267",82.31571,904.01245
"2268",82.31571,904.02563
"2269",82.2034,904.03906
"2270",82.037384,904.05225
"2271",81.86893,904.0657
"2272",81.722435,904.07886
"2273",81.61257,904.0923
"2274",81.52712,904.10547
"2275",81.446556,904.1189
"2276",81.3489,904.1321
"2277",81.22438,904.1455
"2278",81.06813,904.1587
"2279",80.89235,904.1721
"2280",80.71168,904.1853
"2281",80.54322,904.1987
"2282",80.289314,904.22534
"2283",80.201416,904.2385
"2284",80.128174,904.25195
"2285",80.05737,904.26514
"2286",79.97681,904.27856
"2287",79.88159,904.29175
"2288",79.76929,904.3052
"2289",79.64233,904.31836
"2290",79.50317,904.3318
"2291",79.35912,904.345
"2292",79.21019,904.3584
"2293",79.06859,904.3716
"2294",78.93675,904.385
"2295",78.82201,904.3982
"2296",78.7219,904.4116
"2297",78.63889,904.4248
"2298",78.57053,904.43823
"2299",78.51682,904.4514
"2300",78.467995,904.46484
"2301",78.42649,904.478
"2302",78.39475,904.49146
"2303",78.3679,904.50464
"2304",78.34104,904.51807
"2305",78.311745,904.53125
"2306",78.277565,904.5447
"2307",78.23605,904.55786
"2308",78.20187,904.5713
"2309",78.21896,904.5845
"2310",78.35081,904.5979
"2311",78.65598,904.6111
"2312",79.15892,904.6245
"2313",79.83032,904.6377
"2314",80.584724,904.6511
"2315",81.30984,904.6643
"2316",81.88846,904.67773
"2317",82.25956,904.6909
"2318",82.41581,904.70435
"2319",82.4036,904.7175
"2320",82.27909,904.73096
"2321",82.108185,904.74414
"2322",81.934845,904.75757
"2323",81.7908,904.77075
"2324",81.68093,904.7842
"2325",81.59792,904.79736
"2326",81.5198,904.8108
"2327",81.42947,904.824
"2328",81.31228,904.8374
"2329",81.163345,904.8506
"2330",80.99977,904.864
"2331",80.8362,904.8772
"2332",80.69703,904.8906
"2333",80.59449,904.9038
"2334",80.52125,904.91724
"2335",80.46754,904.9304
"2336",80.42115,904.94385
"2337",80.365,904.95703
"2338",80.28687,904.97046
"2339",80.18677,904.98364
"2340",80.062256,904.9971
"2341",79.920654,905.01025
"2342",79.76929,905.0237
"2343",79.61303,905.03687
"2344",79.45678,905.0503
"2345",79.310295,905.0635
"2346",79.17845,905.0769
"2347",79.06615,905.0901
"2348",78.96849,905.1035
"2349",78.89525,905.1167
"2350",78.83177,905.1301
"2351",78.77806,905.1433
"2352",78.72678,905.15674
"2353",78.6804,905.1699
"2354",78.626686,905.18335
"2355",78.56077,905.19653
"2356",78.48997,905.20996
"2357",78.41184,905.22314
"2358",78.345924,905.2366
"2359",78.33372,905.24976
"2360",78.44114,905.2632
"2361",78.71702,905.27637
"2362",79.18089,905.2898
"2363",79.801025,905.303
"2364",80.48707,905.3164
"2365",81.129166,905.3296
"2366",81.619896,905.343
"2367",81.90799,905.3562
"2368",81.99588,905.3696
"2369",81.93729,905.3828
"2370",81.78348,905.39624
"2371",81.58816,905.4094
"2372",81.392845,905.42285
"2373",81.21706,905.43604
"2374",81.06569,905.44946
"2375",80.94118,905.46265
"2376",80.82887,905.4761
"2377",80.71168,905.48926
"2378",80.58228,905.5027
"2379",80.44312,905.51587
"2380",80.30152,905.5293
"2381",80.17456,905.5425
"2382",80.079346,905.5559
"2383",80.01587,905.5691
"2384",79.97925,905.5825
"2385",79.95239,905.5957
"2386",79.923096,905.60913
"2387",79.886475,905.6223
"2388",79.83032,905.63574
"2389",79.74731,905.6489
"2390",79.64233,905.66235
"2391",79.5227,905.67554
"2392",79.38354,905.68896
"2393",79.237045,905.70215
"2394",79.093,905.7156
"2395",78.96117,905.72876
"2396",78.8513,905.7422
"2397",78.76097,905.7554
"2398",78.69749,905.7688
"2399",78.65598,905.782
"2400",78.624245,905.7954
"2401",78.59739,905.8086
"2402",78.56809,905.822
"2403",78.53147,905.8352
"2404",78.48997,905.84863
"2405",78.4387,905.8618
"2406",78.39231,905.87524
"2407",78.38499,905.8884
"2408",78.467995,905.90186
"2409",78.70481,905.91504
"2410",79.12718,905.92847
"2411",79.725334,905.94165
"2412",80.41871,905.9551
"2413",81.10231,905.96826
"2414",81.65652,905.9817
"2415",82.01297,905.9949
"2416",82.16434,906.0083
"2417",82.142365,906.0215
"2418",82.01053,906.0349
"2419",81.82742,906.0481
"2420",81.634544,906.0615
"2421",81.461205,906.0747
"2422",81.31228,906.08813
"2423",81.1902,906.1013
"2424",81.08522,906.11475
"2425",80.98024,906.1279
"2426",80.86549,906.14136
"2427",80.73121,906.15454
"2428",80.57984,906.16797
"2429",80.42359,906.18115
"2430",80.28443,906.1946
"2431",80.16724,906.20776
"2432",80.08423,906.2212
"2433",80.03052,906.2344
"2434",79.9939,906.2478
"2435",79.954834,906.261
"2436",79.90112,906.2744
"2437",79.82788,906.2876
"2438",79.727776,906.301
"2439",79.603264,906.3142
"2440",79.4641,906.32764
"2441",79.31762,906.3408
"2442",79.17357,906.35425
"2443",79.03929,906.36743
"2444",78.91966,906.38086
"2445",78.819565,906.39404
"2446",78.73899,906.4075
"2447",78.677956,906.42065
"2448",78.63157,906.4341
"2449",78.590065,906.44727
"2450",78.551,906.4607
"2451",78.50706,906.4739
"2452",78.450905,906.4873
"2453",78.38987,906.5005
"2454",78.33616,906.5139
"2455",78.31663,906.5271
"2456",78.38499,906.5405
"2457",78.60471,906.5537
"2458",79.00755,906.56714
"2459",79.58373,906.5803
"2460",80.26002,906.59375
"2461",80.936295,906.60693
"2462",81.495384,906.62036
"2463",81.864044,906.63354
"2464",82.0325,906.647
"2465",82.03006,906.66016
"2466",81.91043,906.6736
"2467",81.73464,906.68677
"2468",81.549095,906.7002
"2469",81.38064,906.7134
"2470",81.24635,906.7268
"2471",81.15358,906.74
"2472",81.075455,906.7534
"2473",80.99489,906.7666
"2474",80.89479,906.78
"2475",80.765396,906.7932
"2476",80.601814,906.80664
"2477",80.42603,906.8198
"2478",80.26002,906.83325
"2479",80.113525,906.84644
"2480",79.9939,906.85986
"2481",79.90845,906.87305
"2482",79.84985,906.8865
"2483",79.80591,906.89966
"2484",79.764404,906.9131
"2485",79.710686,906.9263
"2486",79.635,906.9397
"2487",79.537346,906.9529
"2488",79.412834,906.9663
"2489",79.26635,906.9795
"2490",79.11009,906.9929
"2491",78.96117,907.0061
"2492",78.836655,907.01953
"2493",78.73167,907.0327
"2494",78.65354,907.04614
"2495",78.59251,907.0593
"2496",78.54612,907.07275
"2497",78.50706,907.08594
"2498",78.470436,907.09937
"2499",78.43626,907.11255
"2500",78.397194,907.126
"2501",78.35081,907.13916
"2502",78.2971,907.1526
"2503",78.25315,907.1658
"2504",78.238495,907.1792
"2505",78.30442,907.1924
"2506",78.504616,907.2058
"2507",78.88304,907.219
"2508",79.43725,907.2324
"2509",80.10376,907.2456
"2510",80.78737,907.25903
"2511",81.375755,907.2722
"2512",81.78836,907.28564
"2513",81.99588,907.2988
"2514",82.02762,907.31226
"2515",81.93973,907.32544
"2516",81.7908,907.33887
"2517",81.62478,907.35205
"2518",81.47097,907.3655
"2519",81.35134,907.37866
"2520",81.26345,907.3921
"2521",81.19508,907.4053
"2522",81.126724,907.4187
"2523",81.04616,907.4319
"2524",80.93385,907.4453
"2525",80.78737,907.4585
"2526",80.61646,907.4719
"2527",80.4358,907.4851
"2528",80.2649,907.49854
"2529",80.12329,907.5117
"2530",80.01343,907.52515
"2531",79.93286,907.5383
"2532",79.871826,907.55176
"2533",79.82056,907.56494
"2534",79.76196,907.57837
"2535",79.68871,907.59155
"2536",79.59838,907.605
"2537",79.48608,907.61816
"2538",79.35668,907.6316
"2539",79.21263,907.6448
"2540",79.06859,907.6582
"2541",78.93187,907.6714
"2542",78.81224,907.6848
"2543",78.709694,907.698
"2544",78.626686,907.7114
"2545",78.55833,907.7246
"2546",78.49973,907.73804
"2547",78.450905,907.7512
"2548",78.4094,907.76465
"2549",78.37034,907.77783
"2550",78.328835,907.79126
"2551",78.28977,907.80444
"2552",78.24826,907.8179
"2553",78.204315,907.83105
"2554",78.16525,907.8445
"2555",78.150604,907.85767
"2556",78.19455,907.8711
"2557",78.36057,907.8843
"2558",78.69749,907.8977
"2559",79.21507,907.9109
"2560",79.86206,907.9243
"2561",80.550545,907.9375
"2562",81.16823,907.9509
"2563",81.62234,907.9641
"2564",81.87625,907.97754
"2565",81.94705,907.9907
"2566",81.88602,908.00415
"2567",81.75174,908.01733
"2568",81.5906,908.03076
"2569",81.43435,908.04395
"2570",81.31228,908.0574
"2571",81.22438,908.07056
"2572",81.15846,908.084
"2573",81.09987,908.09717
"2574",81.024185,908.1106
"2575",80.921646,908.1238
"2576",80.782486,908.1372
"2577",80.61158,908.1504
"2578",80.43336,908.1638
"2579",80.26002,908.177
"2580",80.111084,908.1904
"2581",79.9939,908.2036
"2582",79.91089,908.21704
"2583",79.852295,908.2302
"2584",79.80347,908.24365
"2585",79.7522,908.25684
"2586",79.68627,908.27026
"2587",79.603264,908.28345
"2588",79.50317,908.2969
"2589",79.38842,908.31006
"2590",79.256584,908.3235
"2591",79.12474,908.3367
"2592",78.992905,908.3501
"2593",78.873276,908.3633
"2594",78.768295,908.3767
"2595",78.68528,908.3899
"2596",78.61692,908.4033
"2597",78.55833,908.4165
"2598",78.504616,908.42993
"2599",78.46067,908.4431
"2600",78.42161,908.45654
"2601",78.38987,908.4697
"2602",78.3679,908.48315
"2603",78.345924,908.49634
"2604",78.32151,908.50977
"2605",78.294655,908.52295
"2606",78.260475,908.5364
"2607",78.22385,908.54956
"2608",78.19455,908.563
"2609",78.19455,908.5762
"2610",78.27268,908.5896
"2611",78.49241,908.6028
"2612",78.89281,908.6162
"2613",79.45922,908.6294
"2614",80.130615,908.6428
"2615",80.80202,908.656
"2616",81.36599,908.66943
"2617",81.739525,908.6826
"2618",81.91531,908.69604
"2619",81.92508,908.7092
"2620",81.82254,908.72266
"2621",81.671165,908.73584
"2622",81.51003,908.74927
"2623",81.36843,908.76245
"2624",81.25613,908.7759
"2625",81.17311,908.78906
"2626",81.10719,908.8025
"2627",81.04372,908.8157
"2628",80.96559,908.8291
"2629",80.850845,908.8423
"2630",80.709236,908.8557
"2631",80.54566,908.8689
"2632",80.37232,908.8823
"2633",80.20874,908.8955
"2634",80.06714,908.90894
"2635",79.95239,908.9221
"2636",79.8645,908.93555
"2637",79.79614,908.9487
"2638",79.73998,908.96216
"2639",79.68139,908.97534
"2640",79.61059,908.9888
"2641",79.520256,909.00195
"2642",79.415276,909.0154
"2643",79.293205,909.02856
"2644",79.168686,909.042
"2645",79.04906,909.0552
"2646",78.941635,909.0686
"2647",78.84154,909.0818
"2648",78.75609,909.0952
"2649",78.68528,909.1084
"2650",78.62913,909.1218
"2651",78.58518,909.135
"2652",78.553444,909.14844
"2653",78.52659,909.1616
"2654",78.49973,909.17505
"2655",78.467995,909.18823
"2656",78.44114,909.20166
"2657",78.416725,909.21484
"2658",78.397194,909.2283
"2659",78.380104,909.24146
"2660",78.36057,909.2549
"2661",78.331276,909.26807
"2662",78.30198,909.2815
"2663",78.28001,909.2947
"2664",78.3093,909.3081
"2665",78.44846,909.3213
"2666",78.751205,909.3347
"2667",79.22728,909.3479
"2668",79.84741,909.3613
"2669",80.52857,909.3745
"2670",81.15602,909.38794
"2671",81.6321,909.4011
"2672",81.90799,909.41455
"2673",81.99344,909.42773
"2674",81.92996,909.44116
"2675",81.78592,909.45435
"2676",81.60769,909.4678
"2677",81.43435,909.48096
"2678",81.287865,909.4944
"2679",81.17067,909.50757
"2680",81.075455,909.521
"2681",80.990005,909.5342
"2682",80.89967,909.5476
"2683",80.79225,909.5608
"2684",80.66529,909.5742
"2685",80.52369,909.5874
"2686",80.37965,909.6008
"2687",80.24292,909.614
"2688",80.128174,909.62744
"2689",80.03784,909.6406
"2690",79.974365,909.65405
"2691",79.920654,909.66724
"2692",79.871826,909.68066
"2693",79.818115,909.69385
"2694",79.7522,909.7073
"2695",79.676506,909.72046
"2696",79.59106,909.7339
"2697",79.49828,909.7471
"2698",79.395744,909.7605
"2699",79.293205,909.7737
"2700",79.18822,909.7871
"2701",79.09056,909.8003
"2702",79.00511,909.8137
"2703",78.93431,909.8269
"2704",78.87572,909.84033
"2705",78.83177,909.8535
"2706",78.79759,909.86694
"2707",78.77318,909.8801
"2708",78.75609,909.89355
"2709",78.73411,909.90674
"2710",78.709694,909.92017
"2711",78.6804,909.93335
"2712",78.6511,909.9468
"2713",78.61936,909.95996
"2714",78.590065,909.9734
"2715",78.56565,909.9866
"2716",78.54612,910
"2717",78.521706,910.0132
"2718",78.50706,910.0266
"2719",78.519264,910.0398
"2720",78.61204,910.0532
"2721",78.84154,910.0664
"2722",79.24925,910.07983
"2723",79.82056,910.093
"2724",80.49683,910.10645
"2725",81.16823,910.1196
"2726",81.72976,910.13306
"2727",82.09842,910.14624
"2728",82.25956,910.15967
"2729",82.24979,910.17285
"2730",82.125275,910.1863
"2731",81.93973,910.19946
"2732",81.74929,910.2129
"2733",81.57107,910.2261
"2734",81.42214,910.2395
"2735",81.30251,910.2527
"2736",81.19997,910.2661
"2737",81.10475,910.2793
"2738",80.99977,910.2927
"2739",80.87526,910.3059
"2740",80.73121,910.31934
"2741",80.57496,910.3325
"2742",80.42603,910.34595
"2743",80.30152,910.35913
"2744",80.21118,910.37256
"2745",80.15015,910.38574
"2746",80.10864,910.3992
"2747",80.06958,910.41235
"2748",80.02075,910.4258
"2749",79.94995,910.43896
"2750",79.86694,910.4524
"2751",79.76929,910.4656
"2752",79.6643,910.479
"2753",79.551994,910.4922
"2754",79.44213,910.5056
"2755",79.33227,910.5188
"2756",79.23216,910.5322
"2757",79.13939,910.5454
"2758",79.05882,910.55884
"2759",78.98802,910.572
"2760",78.92943,910.58545
"2761",78.8806,910.59863
"2762",78.84154,910.61206
"2763",78.81712,910.62524
"2764",78.80736,910.6387
"2765",78.80736,910.65186
"2766",78.8098,910.6653
"2767",78.80736,910.67847
"2768",78.79515,910.6919
"2769",78.77318,910.7051
"2770",78.73899,910.7185
"2771",78.70237,910.7317
"2772",78.66819,910.7451
"2773",78.675514,910.7583
"2774",78.768295,910.7717
"2775",79.00755,910.7849
"2776",79.4226,910.79834
"2777",79.9939,910.8115
"2778",80.65064,910.82495
"2779",81.29275,910.83813
"2780",81.812775,910.85156
"2781",82.144806,910.86475
"2782",82.28153,910.8782
"2783",82.25468,910.89136
"2784",82.12039,910.9048
"2785",81.92752,910.91797
"2786",81.72488,910.9314
"2787",81.53445,910.9446
"2788",81.36599,910.958
"2789",81.22438,910.9712
"2790",81.10719,910.9846
"2791",80.99489,910.9978
"2792",80.8777,911.0112
"2793",80.75319,911.0244
"2794",80.621346,911.03784
"2795",80.49195,911.051
"2796",80.37232,911.06445
"2797",80.26734,911.07764
"2798",80.18677,911.09106
"2799",80.12329,911.10425
"2800",80.07202,911.1177
"2801",80.02319,911.13086
"2802",79.96948,911.1443
"2803",79.906006,911.1575
"2804",79.82056,911.1709
"2805",79.72289,911.1841
"2806",79.61547,911.1975
"2807",79.50317,911.2107
"2808",79.39086,911.2241
"2809",79.28344,911.2373
"2810",79.18089,911.25073
"2811",79.09544,911.2639
"2812",79.02464,911.27734
"2813",78.97093,911.2905
"2814",78.92943,911.30396
"2815",78.89769,911.31714
"2816",78.86595,911.33057
"2817",78.83421,911.34375
"2818",78.8098,911.3572
"2819",78.79515,911.37036
"2820",78.78783,911.3838
"2821",78.7805,911.397
"2822",78.77562,911.4104
"2823",78.76341,911.4236
"2824",78.73899,911.437
"2825",78.709694,911.4502
"2826",78.69016,911.4636
"2827",78.70237,911.4768
"2828",78.802475,911.49023
"2829",79.05882,911.5034
"2830",79.500725,911.51685
"2831",80.10132,911.53
"2832",80.78981,911.54346
"2833",81.45388,911.55664
"2834",81.98367,911.57007
"2835",82.31327,911.58325
"2836",82.44022,911.5967
"2837",82.406044,911.60986
"2838",82.26444,911.6233
"2839",82.06424,911.6365
"2840",81.85184,911.6499
"2841",81.64919,911.6631
"2842",81.47585,911.6765
"2843",81.32937,911.6897
"2844",81.20485,911.7031
"2845",81.08766,911.7163
"2846",80.96315,911.72974
"2847",80.82155,911.7429
"2848",80.672615,911.75635
"2849",80.53101,911.76953
"2850",80.40894,911.78296
"2851",80.31373,911.79614
"2852",80.2478,911.8096
"2853",80.2063,911.82275
"2854",80.16968,911.8362
"2855",80.130615,911.84937
"2856",80.076904,911.8628
"2857",80.0061,911.876
"2858",79.91821,911.8894
"2859",79.81323,911.9026
"2860",79.69604,911.916
"2861",79.569084,911.9292
"2862",79.43725,911.9426
"2863",79.31274,911.9558
"2864",79.202866,911.96924
"2865",79.11009,911.9824
"2866",79.03929,911.99585
"2867",78.98314,912.00903
"2868",78.93675,912.02246
"2869",78.89769,912.03564
"2870",78.86839,912.0491
"2871",78.84398,912.06226
"2872",78.82689,912.0757
"2873",78.81468,912.08887
"2874",78.802475,912.1023
"2875",78.785385,912.1155
"2876",78.765854,912.1289
"2877",78.74876,912.1421
"2878",78.73167,912.1555
"2879",78.73411,912.1687
"2880",78.802475,912.1821
"2881",78.99779,912.1953
"2882",79.35668,912.20874
"2883",79.89136,912.2219
"2884",80.53834,912.23535
"2885",81.20485,912.24854
"2886",81.77615,912.26196
"2887",82.16678,912.27515
"2888",82.35233,912.2886
"2889",82.35966,912.30176
"2890",82.24002,912.3152
"2891",82.04715,912.32837
"2892",81.829865,912.3418
"2893",81.619896,912.355
"2894",81.43679,912.3684
"2895",81.28542,912.3816
"2896",81.15358,912.395
"2897",81.03639,912.4082
"2898",80.91676,912.42163
"2899",80.78737,912.4348
"2900",80.65064,912.44824
"2901",80.51881,912.4614
"2902",80.40162,912.47485
"2903",80.31129,912.48804
"2904",80.2478,912.50146
"2905",80.21118,912.51465
"2906",80.19165,912.5281
"2907",80.17456,912.54126
"2908",80.15259,912.5547
"2909",80.113525,912.5679
"2910",80.05005,912.5813
"2911",79.96704,912.5945
"2912",79.8645,912.6079
"2913",79.74975,912.6211
"2914",79.63012,912.6345
"2915",79.51537,912.6477
"2916",79.40551,912.66113
"2917",79.30297,912.6743
"2918",79.217514,912.68774
"2919",79.14671,912.7009
"2920",79.09544,912.71436
"2921",79.05638,912.72754
"2922",79.027084,912.74097
"2923",79.00023,912.75415
"2924",78.97337,912.7676
"2925",78.93919,912.78076
"2926",78.905014,912.7942
"2927",78.86839,912.8074
"2928",78.836655,912.8208
"2929",78.839096,912.834
"2930",78.922104,912.8474
"2931",79.14427,912.8606
"2932",79.53979,912.874
"2933",80.09888,912.8872
"2934",80.75075,912.90063
"2935",81.39773,912.9138
"2936",81.92508,912.92725
"2937",82.266884,912.9404
"2938",82.40116,912.95386
"2939",82.3621,912.96704
"2940",82.20096,912.98047
"2941",81.98123,912.99365
"2942",81.739525,913.0071
"2943",81.50759,913.02026
"2944",81.30251,913.0337
"2945",81.13161,913.0469
"2946",80.98512,913.0603
"2947",80.85329,913.0735
"2948",80.73121,913.0869
"2949",80.6067,913.1001
"2950",80.48707,913.1135
"2951",80.37965,913.1267
"2952",80.29664,913.14014
"2953",80.24292,913.1533
"2954",80.218506,913.16675
"2955",80.21362,913.17993
"2956",80.21118,913.19336
"2957",80.198975,913.20654
"2958",80.17212,913.22
"2959",80.11597,913.23315
"2960",80.0354,913.2466
"2961",79.923096,913.25977
"2962",79.79126,913.2732
"2963",79.64721,913.2864
"2964",79.50317,913.2998
"2965",79.37133,913.313
"2966",79.26147,913.3264
"2967",79.17601,913.3396
"2968",79.11742,913.353
"2969",79.07591,913.3662
"2970",79.04173,913.37964
"2971",79.00755,913.3928
"2972",78.97337,913.40625
"2973",78.93919,913.41943
"2974",78.907455,913.43286
"2975",78.890366,913.44604
"2976",78.922104,913.4595
"2977",79.05394,913.47266
"2978",79.33227,913.4861
"2979",79.77905,913.49927
"2980",80.365,913.5127
"2981",81.01198,913.5259
"2982",81.61257,913.5393
"2983",82.06668,913.5525
"2984",82.32548,913.5659
"2985",82.39384,913.5791
"2986",82.320595,913.5925
"2987",82.15457,913.6057
"2988",81.94705,913.61914
"2989",81.72976,913.6323
"2990",81.52712,913.64575
"2991",81.339134,913.65894
"2992",81.17555,913.67236
"2993",81.03639,913.68555
"2994",80.91676,913.699
"2995",80.80934,913.71216
"2996",80.71412,913.7256
"2997",80.63111,913.7388
"2998",80.552986,913.7522
"2999",80.49195,913.7654
"3000",80.445564,913.7788
"3001",80.413826,913.792
"3002",80.394295,913.8054
"3003",80.37965,913.8186
"3004",80.35523,913.83203
"3005",80.31861,913.8452
"3006",80.26246,913.85864
"3007",80.17944,913.8718
"3008",80.076904,913.88525
"3009",79.957275,913.89844
"3010",79.82544,913.91187
"3011",79.691154,913.92505
"3012",79.55932,913.9385
"3013",79.43481,913.95166
"3014",79.32494,913.9651
"3015",79.23949,913.9783
"3016",79.17601,913.9917
"3017",79.12718,914.0049
"3018",79.08812,914.0183
"3019",79.046616,914.0315
"3020",79.00023,914.0449
"3021",78.958725,914.0581
"3022",78.9514,914.07153
"3023",79.029526,914.0847
"3024",79.2517,914.09814
"3025",79.64721,914.1113
"3026",80.19409,914.12476
"3027",80.8362,914.13794
"3028",81.47341,914.15137
"3029",82.01053,914.16455
"3030",82.374306,914.178
"3031",82.54032,914.19116
"3032",82.54276,914.2046
"3033",82.425575,914.2178
"3034",82.24002,914.2312
"3035",82.0325,914.2444
"3036",81.83719,914.2578
"3037",81.668724,914.271
"3038",81.532005,914.2844
"3039",81.4197,914.2976
"3040",81.3196,914.31104
"3041",81.21217,914.3242
"3042",81.08278,914.33765
"3043",80.93385,914.3508
"3044",80.7776,914.36426
"3045",80.62867,914.37744
"3046",80.50904,914.39087
"3047",80.42603,914.40405
"3048",80.37476,914.4175
"3049",80.343025,914.43066
"3050",80.31373,914.4441
"3051",80.272224,914.4573
"3052",80.2063,914.4707
"3053",80.113525,914.4839
"3054",79.99634,914.4973
"3055",79.85962,914.5105
"3056",79.710686,914.5239
"3057",79.56176,914.5371
"3058",79.4226,914.55054
"3059",79.29565,914.5637
"3060",79.185776,914.57715
"3061",79.097885,914.59033
"3062",79.0222,914.60376
"3063",78.96605,914.61694
"3064",78.91722,914.6304
"3065",78.873276,914.64355
"3066",78.82689,914.657
"3067",78.79271,914.67017
"3068",78.79759,914.6836
"3069",78.890366,914.6968
"3070",79.13451,914.7102
"3071",79.56176,914.7234
"3072",80.14282,914.7368
"3073",80.80446,914.75
"3074",81.446556,914.7634
"3075",81.96658,914.7766
"3076",82.303505,914.79004
"3077",82.45731,914.8032
"3078",82.45243,914.81665
"3079",82.34501,914.82983
"3080",82.178986,914.84326
"3081",82.003204,914.85645
"3082",81.84451,914.8699
"3083",81.71755,914.88306
"3084",81.619896,914.8965
"3085",81.53689,914.90967
"3086",81.449,914.9231
"3087",81.339134,914.9363
"3088",81.19997,914.9497
"3089",81.03639,914.9629
"3090",80.86549,914.9763
"3091",80.70191,914.9895
"3092",80.56275,915.0029
"3093",80.46021,915.0161
"3094",80.38453,915.02954
"3095",80.33326,915.0427
"3096",80.289314,915.05615
"3097",80.23804,915.06934
"3098",80.164795,915.08276
"3099",80.06958,915.09595
"3100",79.94507,915.1094
"3101",79.801025,915.12256
"3102",79.639885,915.136
"3103",79.48119,915.1492
"3104",79.327385,915.1626
"3105",79.1931,915.1758
"3106",79.07591,915.1892
"3107",78.98558,915.2024
"3108",78.91722,915.2158
"3109",78.86107,915.229
"3110",78.80736,915.24243
"3111",78.74876,915.2556
"3112",78.68772,915.26904
"3113",78.63401,915.2822
"3114",78.61204,915.29565
"3115",78.677956,915.30884
"3116",78.88548,915.32227
"3117",79.26147,915.33545
"3118",79.801025,915.3489
"3119",80.445564,915.36206
"3120",81.10719,915.3755
"3121",81.68337,915.3887
"3122",82.1033,915.4021
"3123",82.337685,915.4153
"3124",82.406044,915.4287
"3125",82.35233,915.4419
"3126",82.23514,915.4553
"3127",82.09354,915.4685
"3128",81.9617,915.48193
"3129",81.85184,915.4951
"3130",81.76883,915.50854
"3131",81.69314,915.5217
"3132",81.60769,915.53516
"3133",81.50027,915.54834
"3134",81.358665,915.56177
"3135",81.19264,915.57495
"3136",81.01442,915.5884
"3137",80.83864,915.60156
"3138",80.6775,915.615
"3139",80.54566,915.6282
"3140",80.4358,915.6416
"3141",80.34547,915.6548
"3142",80.26978,915.6682
"3143",80.19653,915.6814
"3144",80.113525,915.6948
"3145",80.01099,915.708
"3146",79.888916,915.72144
"3147",79.744865,915.7346
"3148",79.586174,915.74805
"3149",79.4226,915.7612
"3150",79.26147,915.77466
"3151",79.11253,915.78784
"3152",78.98314,915.8013
"3153",78.87816,915.81445
"3154",78.79027,915.8279
"3155",78.71458,915.84106
"3156",78.6511,915.8545
"3157",78.59251,915.8677
"3158",78.52659,915.8811
"3159",78.45823,915.8943
"3160",78.38499,915.9077
"3161",78.31907,915.9209
"3162",78.2678,915.9343
"3163",78.2678,915.9475
"3164",78.37278,915.96094
"3165",78.63645,915.9741
"3166",79.07591,915.98755
"3167",79.676506,916.00073
"3168",80.36256,916.01416
"3169",81.03395,916.02734
"3170",81.58083,916.0408
"3171",81.94949,916.05396
"3172",82.1326,916.0674
"3173",82.16434,916.08057
"3174",82.08865,916.094
"3175",81.95682,916.1072
"3176",81.81033,916.1206
"3177",81.671165,916.1338
"3178",81.55154,916.1472
"3179",81.449,916.1604
"3180",81.358665,916.1738
"3181",81.26833,916.187
"3182",81.163345,916.20044
"3183",81.03151,916.2136
"3184",80.88014,916.22705
"3185",80.71412,916.24023
"3186",80.552986,916.25366
"3187",80.40406,916.26685
"3188",80.27955,916.2803
"3189",80.17944,916.29346
"3190",80.10132,916.3069
"3191",80.03296,916.32007
"3192",79.957275,916.3335
"3193",79.871826,916.3467
"3194",79.766846,916.3601
"3195",79.64233,916.3733
"3196",79.49584,916.3867
"3197",79.33471,916.3999
"3198",79.17113,916.4133
"3199",79.012436,916.4265
"3200",78.86839,916.43994
"3201",78.75365,916.4531
"3202",78.660866,916.46655
"3203",78.58518,916.47974
"3204",78.519264,916.49316
"3205",78.45823,916.50635
"3206",78.399635,916.5198
"3207",78.34104,916.53296
"3208",78.28489,916.5464
"3209",78.22629,916.5596
"3210",78.167694,916.573
"3211",78.10666,916.5862
"3212",78.05051,916.5996
"3213",78.00656,916.6128
"3214",78.00656,916.6262
"3215",78.101776,916.6394
"3216",78.345924,916.65283
"3217",78.77318,916.666
"3218",79.364006,916.67944
"3219",80.05005,916.6926
"3220",80.73365,916.70605
"3221",81.304955,916.71924
"3222",81.69314,916.73267
"3223",81.8909,916.74585
"3224",81.917755,916.7593
"3225",81.82498,916.77246
"3226",81.66384,916.7859
"3227",81.48562,916.7991
"3228",81.31472,916.8125
"3229",81.16579,916.8257
"3230",81.03639,916.8391
"3231",80.919205,916.8523
"3232",80.799576,916.8657
"3233",80.67017,916.8789
"3234",80.52857,916.89233
"3235",80.38697,916.9055
"3236",80.25269,916.91895
"3237",80.1355,916.9321
"3238",80.0354,916.94556
"3239",79.95239,916.95874
"3240",79.888916,916.97217
"3241",79.83032,916.98535
"3242",79.76929,916.9988
"3243",79.69848,917.01196
"3244",79.62035,917.0254
"3245",79.52514,917.0386
"3246",79.40795,917.052
"3247",79.27856,917.0652
"3248",79.13451,917.0786
"3249",78.98802,917.0918
"3250",78.8513,917.1052
"3251",78.73167,917.1184
"3252",78.62913,917.13184
"3253",78.54856,917.145
"3254",78.4802,917.15845
"3255",78.42405,917.17163
"3256",78.37522,917.18506
"3257",78.331276,917.19824
"3258",78.28489,917.2117
"3259",78.238495,917.22485
"3260",78.18967,917.2383
"3261",78.14084,917.25146
"3262",78.08469,917.2649
"3263",78.028534,917.2781
"3264",77.96994,917.2915
"3265",77.91623,917.3047
"3266",77.8674,917.3181
"3267",77.83078,917.3313
"3268",77.84299,917.3447
"3269",77.95529,917.3579
"3270",78.22873,917.37134
"3271",78.68772,917.3845
"3272",79.31518,917.39795
"3273",80.028076,917.41113
"3274",80.71412,917.42456
"3275",81.26589,917.43774
"3276",81.617455,917.4512
"3277",81.76395,917.46436
"3278",81.74685,917.4778
"3279",81.61013,917.49097
"3280",81.41482,917.5044
"3281",81.19997,917.5176
"3282",80.99245,917.531
"3283",80.816666,917.5442
"3284",80.67017,917.5576
"3285",80.5481,917.5708
"3286",80.430916,917.5842
"3287",80.31129,917.5974
"3288",80.18677,917.61084
"3289",80.06714,917.624
"3290",79.96216,917.63745
"3291",79.88159,917.65063
"3292",79.82788,917.66406
"3293",79.79126,917.67725
"3294",79.76196,917.6907
"3295",79.725334,917.70386
"3296",79.674065,917.7173
"3297",79.605705,917.73047
"3298",79.520256,917.7439
"3299",79.412834,917.7571
"3300",79.28832,917.7705
"3301",79.151596,917.7837
"3302",79.009995,917.7971
"3303",78.87572,917.8103
"3304",78.751205,917.8237
"3305",78.64622,917.8369
"3306",78.55833,917.85034
"3307",78.48997,917.8635
"3308",78.43137,917.87695
"3309",78.38743,917.89014
"3310",78.35325,917.90356
"3311",78.32639,917.91675
"3312",78.30198,917.9302
"3313",78.28245,917.94336
"3314",78.260475,917.9568
"3315",78.23605,917.97
"3316",78.20676,917.9834
"3317",78.170135,917.9966
"3318",78.12619,918.01
"3319",78.0798,918.0232
"3320",78.03586,918.0366
"3321",78.00656,918.0498
"3322",78.02609,918.06323
"3323",78.14328,918.0764
"3324",78.416725,918.08984
"3325",78.86595,918.103
"3326",79.466545,918.11646
"3327",80.14282,918.12964
"3328",80.7776,918.14307
"3329",81.26833,918.15625
"3330",81.5613,918.1697
"3331",81.654076,918.18286
"3332",81.5906,918.1963
"3333",81.42947,918.2095
"3334",81.21706,918.2229
"3335",80.99733,918.2361
"3336",80.78493,918.2495
"3337",80.59449,918.2627
"3338",80.42603,918.2761
"3339",80.27711,918.2893
"3340",80.1355,918.30273
"3341",80.008545,918.3159
"3342",79.8938,918.32935
"3343",79.80591,918.3425
"3344",79.74731,918.35596
"3345",79.72289,918.36914
"3346",79.71801,918.38257
"3347",79.72289,918.39575
"3348",79.72045,918.4092
"3349",79.7058,918.42236
"3350",79.66918,918.4358
"3351",79.60815,918.449
"3352",79.52514,918.4624
"3353",79.4226,918.4756
"3354",79.30053,918.489
"3355",79.17113,918.5022
"3356",79.04173,918.5156
"3357",78.91966,918.5288
"3358",78.81224,918.54224
"3359",78.7219,918.5554
"3360",78.64866,918.56885
"3361",78.590065,918.58203
"3362",78.54368,918.59546
"3363",78.5095,918.60864
"3364",78.4802,918.6221
"3365",78.45335,918.63525
"3366",78.42893,918.6487
"3367",78.40208,918.66187
"3368",78.37278,918.6753
"3369",78.345924,918.6885
"3370",78.32151,918.7019
"3371",78.29954,918.7151
"3372",78.28245,918.7285
"3373",78.28245,918.7417
"3374",78.34104,918.7551
"3375",78.51438,918.7683
"3376",78.84886,918.78174
"3377",79.34692,918.7949
"3378",79.96216,918.80835
"3379",80.6067,918.82153
"3380",81.17555,918.83496
"3381",81.583275,918.84814
"3382",81.795685,918.8616
"3383",81.829865,918.87476
"3384",81.72976,918.8882
"3385",81.54665,918.90137
"3386",81.32937,918.9148
"3387",81.11696,918.928
"3388",80.93141,918.9414
"3389",80.77272,918.9546
"3390",80.638435,918.968
"3391",80.516365,918.9812
"3392",80.396736,918.9946
"3393",80.27955,919.0078
"3394",80.164795,919.02124
"3395",80.06714,919.0344
"3396",79.991455,919.04785
"3397",79.940186,919.06104
"3398",79.90112,919.07446
"3399",79.88403,919.08765
"3400",79.86694,919.1011
"3401",79.84009,919.11426
"3402",79.79614,919.1277
"3403",79.73266,919.14087
"3404",79.64965,919.1543
"3405",79.54711,919.1675
"3406",79.43725,919.1809
"3407",79.32006,919.1941
"3408",79.202866,919.2075
"3409",79.09056,919.2207
"3410",78.99046,919.23413
"3411",78.90257,919.2473
"3412",78.82933,919.26074
"3413",78.77562,919.2739
"3414",78.73167,919.28735
"3415",78.69993,919.30054
"3416",78.67063,919.31396
"3417",78.65354,919.32715
"3418",78.64622,919.3406
"3419",78.643776,919.35376
"3420",78.63889,919.3672
"3421",78.63157,919.3804
"3422",78.61448,919.3938
"3423",78.59251,919.407
"3424",78.57053,919.4204
"3425",78.57053,919.4336
"3426",78.63401,919.447
"3427",78.80492,919.4602
"3428",79.132065,919.47363
"3429",79.62035,919.4868
"3430",80.233154,919.50024
"3431",80.885025,919.5134
"3432",81.47341,919.52686
"3433",81.90799,919.54004
"3434",82.159454,919.55347
"3435",82.2327,919.56665
"3436",82.17166,919.5801
"3437",82.03006,919.59326
"3438",81.846954,919.6067
"3439",81.65896,919.6199
"3440",81.48562,919.6333
"3441",81.33425,919.6465
"3442",81.20729,919.6599
"3443",81.09743,919.6731
"3444",80.987564,919.6865
"3445",80.87282,919.6997
"3446",80.7483,919.71313
"3447",80.62623,919.7263
"3448",80.50172,919.73975
"3449",80.38453,919.7529
"3450",80.28199,919.76636
"3451",80.198975,919.77954
"3452",80.12085,919.79297
"3453",80.05005,919.80615
"3454",79.974365,919.8196
"3455",79.8938,919.83276
"3456",79.801025,919.8462
"3457",79.693596,919.8594
"3458",79.58129,919.8728
"3459",79.46899,919.886
"3460",79.35424,919.8994
"3461",79.24925,919.9126
"3462",79.15404,919.926
"3463",79.07347,919.9392
"3464",79.00755,919.95264
"3465",78.95628,919.9658
"3466",78.91722,919.97925
"3467",78.887924,919.99243
"3468",78.86107,920.00586
"3469",78.83421,920.01904
"3470",78.80492,920.0325
"3471",78.77562,920.04565
"3472",78.74876,920.0591
"3473",78.72434,920.07227
"3474",78.70237,920.0857
"3475",78.68284,920.0989
"3476",78.65598,920.1123
"3477",78.626686,920.1255
"3478",78.6096,920.1389
"3479",78.6511,920.1521
"3480",78.80736,920.1655
"3481",79.12474,920.1787
"3482",79.60815,920.19214
"3483",80.20874,920.2053
"3484",80.83864,920.21875
"3485",81.3904,920.23193
"3486",81.78592,920.24536
"3487",81.988556,920.25854
"3488",82.022736,920.272
"3489",81.93729,920.28516
"3490",81.7908,920.2986
"3491",81.619896,920.31177
"3492",81.45632,920.3252
"3493",81.31716,920.3384
"3494",81.20729,920.3518
"3495",81.11452,920.365
"3496",81.02663,920.3784
"3497",80.936295,920.3916
"3498",80.82887,920.405
"3499",80.70435,920.4182
"3500",80.570076,920.43164
"3501",80.43824,920.4448
"3502",80.31373,920.45825
"3503",80.21118,920.47144
"3504",80.13306,920.48486
"3505",80.079346,920.49805
"3506",80.0354,920.5115
"3507",79.991455,920.52466
"3508",79.94263,920.5381
"3509",79.87915,920.5513
"3510",79.79614,920.5647
"3511",79.693596,920.5779
"3512",79.58373,920.5913
"3513",79.46899,920.6045
"3514",79.35668,920.6179
"3515",79.2517,920.6311
"3516",79.166245,920.64453
"3517",79.09544,920.6577
"3518",79.03685,920.67114
"3519",78.99046,920.6843
"3520",78.95384,920.69775
"3521",78.92943,920.71094
"3522",78.91234,920.72437
"3523",78.89525,920.73755
"3524",78.890366,920.751
"3525",78.8806,920.76416
"3526",78.86839,920.7776
"3527",78.856186,920.7908
"3528",78.839096,920.8042
"3529",78.81468,920.8174
"3530",78.785385,920.8308
"3531",78.75365,920.844
"3532",78.72678,920.8574
"3533",78.729225,920.8706
"3534",78.80492,920.88403
"3535",79.009995,920.8972
"3536",79.37621,920.91064
"3537",79.90112,920.9238
"3538",80.53101,920.93726
"3539",81.17555,920.95044
"3540",81.7322,920.96387
"3541",82.125275,920.97705
"3542",82.32548,920.9905
"3543",82.35966,921.00366
"3544",82.269325,921.0171
"3545",82.11551,921.0303
"3546",81.93729,921.0437
"3547",81.761505,921.0569
"3548",81.60525,921.0703
"3549",81.46853,921.0835
"3550",81.35134,921.0969
"3551",81.24147,921.1101
"3552",81.13405,921.12354
"3553",81.02174,921.1367
"3554",80.89479,921.15015
"3555",80.762955,921.1633
"3556",80.635994,921.17676
"3557",80.51881,921.18994
"3558",80.42603,921.20337
"3559",80.35035,921.21655
"3560",80.291756,921.23
"3561",80.23804,921.24316
"3562",80.181885,921.2566
"3563",80.11597,921.2698
"3564",80.04028,921.2832
"3565",79.957275,921.2964
"3566",79.86206,921.3098
"3567",79.76196,921.323
"3568",79.656975,921.3364
"3569",79.551994,921.3496
"3570",79.447014,921.36304
"3571",79.344475,921.3762
"3572",79.24925,921.38965
"3573",79.166245,921.40283
"3574",79.09544,921.41626
"3575",79.03929,921.42944
"3576",79.00023,921.4429
"3577",78.96605,921.45605
"3578",78.92699,921.4695
"3579",78.887924,921.48267
"3580",78.84642,921.4961
"3581",78.80736,921.5093
"3582",78.77562,921.5227
"3583",78.751205,921.5359
"3584",78.73411,921.5493
"3585",78.71702,921.5625
"3586",78.69016,921.5759
"3587",78.658424,921.5891
"3588",78.624245,921.60254
"3589",78.59983,921.6157
"3590",78.61448,921.62915
"3591",78.71458,921.64233
"3592",78.96117,921.65576
"3593",79.37621,921.66895
"3594",79.94507,921.6824
"3595",80.601814,921.69556
"3596",81.248795,921.709
"3597",81.78348,921.72217
"3598",82.13992,921.7356
"3599",82.303505,921.7488
"3600",82.30106,921.7622
"3601",82.18875,921.7754
"3602",82.00809,921.7888
"3603",81.79813,921.802
"3604",81.59548,921.8154
"3605",81.41482,921.8286
"3606",81.25613,921.84204
"3607",81.126724,921.8552
"3608",81.0193,921.86865
"3609",80.921646,921.88184
"3610",80.82155,921.89526
"3611",80.719,921.90845
"3612",80.60914,921.9219
"3613",80.49439,921.93506
"3614",80.38453,921.9485
"3615",80.2942,921.9617
"3616",80.218506,921.9751
"3617",80.15503,921.9883
"3618",80.10376,922.0017
"3619",80.05493,922.0149
"3620",79.9939,922.0283
"3621",79.91821,922.0415
"3622",79.83032,922.05493
"3623",79.727776,922.0681
"3624",79.61791,922.08154
"3625",79.500725,922.0947
"3626",79.381096,922.10815
"3627",79.26879,922.12134
"3628",79.166245,922.13477
"3629",79.080795,922.14795
"3630",79.012436,922.1614
"3631",78.95628,922.17456
"3632",78.91478,922.188
"3633",78.88304,922.2012
"3634",78.856186,922.2146
"3635",78.83421,922.2278
"3636",78.81224,922.2412
"3637",78.79271,922.2544
"3638",78.768295,922.2678
"3639",78.74876,922.281
"3640",78.73655,922.29443
"3641",78.729225,922.3076
"3642",78.72434,922.32104
"3643",78.71946,922.3342
"3644",78.70237,922.34766
"3645",78.675514,922.36084
"3646",78.64866,922.37427
"3647",78.6511,922.38745
"3648",78.73167,922.4009
"3649",78.94652,922.41406
"3650",79.34203,922.4275
"3651",79.903564,922.4407
"3652",80.57984,922.4541
"3653",81.26345,922.4673
"3654",81.846954,922.4807
"3655",82.24002,922.4939
"3656",82.42802,922.5073
"3657",82.43778,922.5205
"3658",82.31815,922.53394
"3659",82.13504,922.5471
"3660",81.92264,922.56055
"3661",81.71267,922.5737
"3662",81.51736,922.58716
"3663",81.3489,922.60034
"3664",81.20973,922.6138
"3665",81.0901,922.62695
"3666",80.9778,922.6404
"3667",80.85573,922.65356
"3668",80.72144,922.667
"3669",80.58228,922.6802
"3670",80.45777,922.6936
"3671",80.35279,922.7068
"3672",80.274666,922.7202
"3673",80.22583,922.7334
"3674",80.19165,922.7468
"3675",80.15747,922.76
"3676",80.11841,922.77344
"3677",80.0647,922.7866
"3678",79.98901,922.80005
"3679",79.89624,922.81323
"3680",79.79126,922.82666
"3681",79.68139,922.83984
"3682",79.571526,922.8533
"3683",79.466545,922.86646
"3684",79.361565,922.8799
"3685",79.26879,922.89307
"3686",79.18822,922.9065
"3687",79.11986,922.9197
"3688",79.06859,922.9331
"3689",79.029526,922.9463
"3690",79.00023,922.9597
"3691",78.975815,922.9729
"3692",78.95628,922.9863
"3693",78.93919,922.9995
"3694",78.92943,923.01294
"3695",78.922104,923.0261
"3696",78.91478,923.03955
"3697",78.9099,923.05273
"3698",78.905014,923.06616
"3699",78.89525,923.07935
"3700",78.87572,923.0928
"3701",78.84886,923.10596
"3702",78.8098,923.1194
"3703",78.77806,923.13257
"3704",78.77074,923.146
"3705",78.84154,923.1592
"3706",79.046616,923.1726
"3707",79.42748,923.1858
"3708",79.97681,923.1992
"3709",80.64088,923.2124
"3710",81.31716,923.2258
"3711",81.90555,923.239
"3712",82.31571,923.25244
"3713",82.52323,923.2656
"3714",82.547646,923.27905
"3715",82.44511,923.29224
"3716",82.25956,923.30566
"3717",82.039825,923.31885
"3718",81.82254,923.3323
"3719",81.62478,923.34546
"3720",81.45388,923.3589
"3721",81.30984,923.3721
"3722",81.18288,923.3855
"3723",81.06569,923.3987
"3724",80.94362,923.4121
"3725",80.816666,923.4253
"3726",80.68482,923.4387
"3727",80.56519,923.4519
"3728",80.45533,923.46533
"3729",80.36744,923.4785
"3730",80.289314,923.49194
"3731",80.22583,923.5051
"3732",80.16724,923.51855
"3733",80.111084,923.53174
"3734",80.04761,923.54517
"3735",79.96948,923.55835
"3736",79.87915,923.5718
"3737",79.76929,923.58496
"3738",79.64965,923.5984
"3739",79.53002,923.6116
"3740",79.412834,923.625
"3741",79.30053,923.6382
"3742",79.200424,923.6516
"3743",79.11253,923.6648
"3744",79.04173,923.6782
"3745",78.98558,923.6914
"3746",78.94408,923.70483
"3747",78.91234,923.718
"3748",78.887924,923.73145
"3749",78.86595,923.7446
"3750",78.84398,923.75806
"3751",78.82445,923.77124
"3752",78.8098,923.78467
"3753",78.79515,923.79785
"3754",78.78294,923.8113
"3755",78.765854,923.82446
"3756",78.751205,923.8379
"3757",78.73167,923.8511
"3758",78.70725,923.8645
"3759",78.68772,923.8777
"3760",78.68284,923.8911
"3761",78.73655,923.9043
"3762",78.90013,923.9177
"3763",79.22728,923.9309
"3764",79.72289,923.94434
"3765",80.35279,923.9575
"3766",81.024185,923.97095
"3767",81.634544,923.98413
"3768",82.09354,923.99756
"3769",82.357216,924.01074
"3770",82.43046,924.0242
"3771",82.3621,924.03735
"3772",82.20096,924.0508
"3773",81.991,924.06396
"3774",81.76883,924.0774
"3775",81.5613,924.0906
"3776",81.375755,924.104
"3777",81.214615,924.1172
"3778",81.077896,924.1306
"3779",80.953384,924.1438
"3780",80.833755,924.1572
"3781",80.709236,924.1704
"3782",80.58961,924.18384
"3783",80.47486,924.197
"3784",80.37232,924.21045
"3785",80.28199,924.22363
"3786",80.21118,924.23706
"3787",80.147705,924.25024
"3788",80.08911,924.2637
"3789",80.025635,924.27686
"3790",79.95972,924.2903
"3791",79.886475,924.30347
"3792",79.80591,924.3169
"3793",79.710686,924.3301
"3794",79.60815,924.3435
"3795",79.4934,924.3567
"3796",79.37133,924.3701
"3797",79.2517,924.3833
"3798",79.14427,924.3967
"3799",79.0515,924.4099
"3800",78.97826,924.42334
"3801",78.922104,924.4365
"3802",78.8806,924.44995
"3803",78.84886,924.46313
"3804",78.82689,924.47656
"3805",78.8098,924.48975
"3806",78.79515,924.5032
"3807",78.785385,924.51636
"3808",78.77318,924.5298
"3809",78.76097,924.54297
"3810",78.74387,924.5564
"3811",78.7219,924.5696
"3812",78.69749,924.583
"3813",78.677956,924.5962
"3814",78.67307,924.6096
"3815",78.712135,924.6228
"3816",78.84154,924.6362
"3817",79.11986,924.6494
"3818",79.5642,924.66284
"3819",80.15259,924.676
"3820",80.81178,924.68945
"3821",81.446556,924.70264
"3822",81.94949,924.71606
"3823",82.266884,924.72925
"3824",82.39384,924.7427
"3825",82.36698,924.75586
"3826",82.24002,924.7693
"3827",82.05203,924.7825
"3828",81.84451,924.7959
"3829",81.63943,924.8091
"3830",81.45144,924.8225
"3831",81.28298,924.8357
"3832",81.13893,924.8491
"3833",81.00954,924.8623
"3834",80.89235,924.87573
"3835",80.7776,924.8889
"3836",80.66529,924.90234
"3837",80.56031,924.9155
"3838",80.462654,924.92896
"3839",80.37232,924.94214
"3840",80.291756,924.95557
"3841",80.22583,924.96875
"3842",80.164795,924.9822
"3843",80.111084,924.99536
"3844",80.05737,925.0088
"3845",79.99634,925.022
"3846",79.920654,925.0354
"3847",79.82544,925.0486
"3848",79.71557,925.062
"3849",79.59838,925.0752
"3850",79.48608,925.0886
"3851",79.37377,925.1018
"3852",79.273674,925.11523
"3853",79.19066,925.1284
"3854",79.12474,925.14185
"3855",79.06859,925.155
"3856",79.0222,925.16846
"3857",78.98314,925.18164
"3858",78.94652,925.19507
"3859",78.91478,925.20825
"3860",78.887924,925.2217
"3861",78.86595,925.23486
"3862",78.84886,925.2483
"3863",78.82689,925.2615
"3864",78.802475,925.2749
"3865",78.77562,925.2881
"3866",78.74387,925.3015
"3867",78.71458,925.3147
"3868",78.71702,925.3281
"3869",78.79027,925.3413
"3870",78.995346,925.35474
"3871",79.37133,925.3679
"3872",79.91333,925.38135
"3873",80.56275,925.39453
"3874",81.22194,925.40796
"3875",81.78348,925.42114
"3876",82.16434,925.4346
"3877",82.34257,925.44775
"3878",82.34257,925.4612
"3879",82.21805,925.47437
"3880",82.02518,925.4878
"3881",81.80789,925.501
"3882",81.59548,925.5144
"3883",81.409935,925.5276
"3884",81.25613,925.541
"3885",81.12184,925.5542
"3886",81.00221,925.5676
"3887",80.88747,925.5808
"3888",80.77028,925.59424
"3889",80.6482,925.6074
"3890",80.5359,925.62085
"3891",80.4358,925.63403
"3892",80.35279,925.64746
"3893",80.289314,925.66064
"3894",80.24536,925.6741
"3895",80.21362,925.68726
"3896",80.181885,925.7007
"3897",80.14282,925.71387
"3898",80.08911,925.7273
"3899",80.01587,925.7405
"3900",79.920654,925.7539
"3901",79.81079,925.7671
"3902",79.693596,925.7805
"3903",79.57397,925.7937
"3904",79.4519,925.8071
"3905",79.344475,925.8203
"3906",79.25414,925.83374
"3907",79.183334,925.8469
"3908",79.13939,925.86035
"3909",79.11986,925.87354
"3910",79.114975,925.88696
"3911",79.11742,925.90015
"3912",79.11742,925.9136
"3913",79.10033,925.92676
"3914",79.06859,925.9402
"3915",79.01488,925.95337
"3916",78.958725,925.9668
"3917",78.9099,925.98
"3918",78.90013,925.9934
"3919",78.97337,926.0066
"3920",79.185776,926.02
"3921",79.56176,926.0332
"3922",80.08179,926.04663
"3923",80.68726,926.0598
"3924",81.29275,926.07324
"3925",81.795685,926.0864
"3926",82.13504,926.09985
"3927",82.29374,926.11304
"3928",82.28886,926.12646
"3929",82.17166,926.13965
"3930",81.98367,926.1531
"3931",81.76639,926.16626
"3932",81.54665,926.1797
"3933",81.35134,926.1929
"3934",81.18288,926.2063
"3935",81.04372,926.2195
"3936",80.92409,926.2329
"3937",80.814224,926.2461
"3938",80.70435,926.2595
"3939",80.59693,926.2727
"3940",80.50172,926.28613
"3941",80.42115,926.2993
"3942",80.36744,926.31274
"3943",80.33814,926.3259
"3944",80.32838,926.33936
"3945",80.31861,926.35254
"3946",80.30152,926.36597
"3947",80.26734,926.37915
"3948",80.21118,926.3926
"3949",80.1355,926.40576
"3950",80.03784,926.4192
"3951",79.92798,926.4324
"3952",79.81323,926.4458
"3953",79.69848,926.459
"3954",79.586174,926.4724
"3955",79.48852,926.4856
"3956",79.412834,926.499
"3957",79.35912,926.5122
"3958",79.32494,926.52563
"3959",79.30541,926.5388
"3960",79.29565,926.55225
"3961",79.28344,926.5654
"3962",79.273674,926.57886
"3963",79.26147,926.59204
"3964",79.26147,926.60547
"3965",79.28832,926.61865
"3966",79.39086,926.6321
"3967",79.61791,926.64526
"3968",79.99634,926.6587
"3969",80.50904,926.6719
"3970",81.09743,926.6853
"3971",81.67361,926.6985
"3972",82.142365,926.7119
"3973",82.44755,926.7251
"3974",82.58427,926.7385
"3975",82.5745,926.7517
"3976",82.4622,926.76514
"3977",82.29618,926.7783
"3978",82.10574,926.79175
"3979",81.917755,926.80493
"3980",81.74685,926.81836
"3981",81.59304,926.83154
"3982",81.45632,926.845
"3983",81.3196,926.85815
"3984",81.180435,926.8716
"3985",81.03151,926.88477
"3986",80.87526,926.8982
"3987",80.719,926.9114
"3988",80.5774,926.9248
"3989",80.462654,926.938
"3990",80.38697,926.9514
"3991",80.35035,926.9646
"3992",80.34058,926.978
"3993",80.33814,926.9912
"3994",80.32105,927.00464
"3995",80.27711,927.0178
"3996",80.198975,927.03125
"3997",80.08911,927.04443
"3998",79.9646,927.05786
"3999",79.82788,927.07104
"4000",79.693596,927.0845
"4001",79.5642,927.09766
"4002",79.4519,927.1111
"4003",79.35424,927.12427
"4004",79.27856,927.1377
"4005",79.22728,927.1509
"4006",79.1931,927.1643
"4007",79.168686,927.1775
"4008",79.13939,927.1909
"4009",79.10521,927.2041
"4010",79.07347,927.2175
"4011",79.063705,927.2307
"4012",79.12718,927.24414
"4013",79.32006,927.2573
"4014",79.676506,927.27075
"4015",80.181885,927.28394
"4016",80.7776,927.29736
"4017",81.373314,927.31055
"4018",81.87625,927.324
"4019",82.22049,927.33716
"4020",82.388954,927.3506
"4021",82.41337,927.3638
"4022",82.33524,927.3772
"4023",82.20096,927.3904
"4024",82.04471,927.4038
"4025",81.89334,927.417
"4026",81.75662,927.4304
"4027",81.64431,927.4436
"4028",81.54665,927.45703
"4029",81.45144,927.4702
"4030",81.34402,927.48364
"4031",81.21217,927.4968
"4032",81.06569,927.51025
"4033",80.91188,927.52344
"4034",80.76784,927.53687
"4035",80.65308,927.55005
"4036",80.56519,927.5635
"4037",80.50904,927.57666
"4038",80.47242,927.5901
"4039",80.44312,927.6033
"4040",80.411385,927.6167
"4041",80.36256,927.6299
"4042",80.28443,927.6433
"4043",80.177,927.6565
"4044",80.045166,927.6699
"4045",79.89624,927.6831
"4046",79.744865,927.69653
"4047",79.60082,927.7097
"4048",79.47631,927.72314
"4049",79.378654,927.7363
"4050",79.30541,927.74976
"4051",79.2517,927.76294
"4052",79.202866,927.77637
"4053",79.151596,927.78955
"4054",79.09056,927.803
"4055",79.0222,927.81616
"4056",78.958725,927.8296
"4057",78.93187,927.8428
"4058",78.98314,927.8562
"4059",79.168686,927.8694
"4060",79.517815,927.8828
"4061",80.01831,927.896
"4062",80.618904,927.9094
"4063",81.22926,927.9226
"4064",81.75662,927.93604
"4065",82.13504,927.9492
"4066",82.337685,927.96265
"4067",82.391396,927.9758
"4068",82.33036,927.98926
"4069",82.2034,928.00244
"4070",82.054474,928.01587
"4071",81.91287,928.02905
"4072",81.79324,928.0425
"4073",81.69802,928.05566
"4074",81.61501,928.0691
"4075",81.532005,928.0823
"4076",81.427025,928.0957
"4077",81.290306,928.1089
"4078",81.126724,928.1223
"4079",80.953384,928.1355
"4080",80.782486,928.1489
"4081",80.63355,928.1621
"4082",80.52125,928.17554
"4083",80.44068,928.1887
"4084",80.38453,928.20215
"4085",80.343025,928.21533
"4086",80.29908,928.22876
"4087",80.235596,928.24194
"4088",80.15015,928.2554
"4089",80.04028,928.26855
"4090",79.906006,928.282
"4091",79.7522,928.29517
"4092",79.59106,928.3086
"4093",79.432365,928.3218
"4094",79.28832,928.3352
"4095",79.1638,928.3484
"4096",79.061264,928.3618
"4097",78.9807,928.375
"4098",78.9099,928.3884
"4099",78.839096,928.4016
"4100",78.76341,928.41504
"4101",78.677956,928.4282
"4102",78.59251,928.44165
"4103",78.52415,928.45483
"4104",78.51682,928.46826
"4105",78.626686,928.48145
"4106",78.90257,928.4949
"4107",79.3518,928.50806
"4108",79.9353,928.5215
"4109",80.567635,928.53467
"4110",81.146255,928.5481
"4111",81.5906,928.5613
"4112",81.85916,928.5747
"4113",81.971466,928.5879
"4114",81.969025,928.6013
"4115",81.89578,928.6145
"4116",81.795685,928.6279
"4117",81.69314,928.6411
"4118",81.600365,928.65454
"4119",81.52224,928.6677
"4120",81.45144,928.68115
"4121",81.38064,928.69434
"4122",81.287865,928.70776
"4123",81.163345,928.72095
"4124",81.00954,928.7344
"4125",80.8362,928.74756
"4126",80.655525,928.761
"4127",80.48951,928.7742
"4128",80.35767,928.7876
"4129",80.26246,928.8008
"4130",80.18921,928.8142
"4131",80.130615,928.8274
"4132",80.07446,928.8408
"4133",80.01343,928.854
"4134",79.9353,928.86743
"4135",79.835205,928.8806
"4136",79.710686,928.89404
"4137",79.569084,928.9072
"4138",79.41039,928.92065
"4139",79.24925,928.93384
"4140",79.093,928.94727
"4141",78.958725,928.96045
"4142",78.84154,928.9739
"4143",78.74876,928.98706
"4144",78.675514,929.0005
"4145",78.61692,929.0137
"4146",78.56077,929.0271
"4147",78.49729,929.0403
"4148",78.42893,929.0537
"4149",78.363014,929.0669
"4150",78.32151,929.0803
"4151",78.34348,929.0935
"4152",78.48264,929.10693
"4153",78.78294,929.1201
"4154",79.24437,929.13354
"4155",79.82788,929.1467
"4156",80.45289,929.16016
"4157",81.0193,929.17334
"4158",81.446556,929.18677
"4159",81.69802,929.19995
"4160",81.78836,929.2134
"4161",81.761505,929.22656
"4162",81.668724,929.24
"4163",81.55642,929.2532
"4164",81.449,929.2666
"4165",81.36355,929.2798
"4166",81.29519,929.2932
"4167",81.23903,929.3064
"4168",81.16823,929.3198
"4169",81.07301,929.333
"4170",80.938736,929.34644
"4171",80.77028,929.3596
"4172",80.5774,929.37305
"4173",80.38209,929.3862
"4174",80.20386,929.39966
"4175",80.05737,929.41284
"4176",79.94995,929.4263
"4177",79.869385,929.43945
"4178",79.81323,929.4529
"4179",79.764404,929.46606
"4180",79.708244,929.4795
"4181",79.63256,929.4927
"4182",79.53246,929.5061
"4183",79.41039,929.5193
"4184",79.26635,929.5327
"4185",79.114975,929.5459
"4186",78.96361,929.5593
"4187",78.82689,929.5725
"4188",78.709694,929.58594
"4189",78.61448,929.5991
"4190",78.538795,929.61255
"4191",78.4802,929.62573
"4192",78.43626,929.63916
"4193",78.39475,929.65234
"4194",78.345924,929.6658
"4195",78.28733,929.67896
"4196",78.22629,929.6924
"4197",78.16281,929.70557
"4198",78.11154,929.719
"4199",78.10666,929.7322
"4200",78.187225,929.7456
"4201",78.399635,929.7588
"4202",78.77562,929.7722
"4203",79.290764,929.7854
"4204",79.888916,929.7988
"4205",80.479744,929.812
"4206",80.97536,929.82544
"4207",81.30984,929.8386
"4208",81.478294,929.85205
"4209",81.51736,929.86523
"4210",81.47585,929.87866
"4211",81.3904,929.89185
"4212",81.29763,929.9053
"4213",81.22194,929.91846
"4214",81.163345,929.9319
"4215",81.12428,929.94507
"4216",81.0901,929.9585
"4217",81.03639,929.9717
"4218",80.94606,929.9851
"4219",80.8069,929.9983
"4220",80.62623,930.0117
"4221",80.41871,930.0249
"4222",80.21362,930.0383
"4223",80.028076,930.0515
"4224",79.87671,930.06494
"4225",79.75708,930.0781
"4226",79.66918,930.09155
"4227",79.60082,930.10474
"4228",79.534904,930.11816
"4229",79.466545,930.13135
"4230",79.38354,930.1448
"4231",79.28588,930.15796
"4232",79.168686,930.1714
"4233",79.03929,930.1846
"4234",78.90013,930.198
"4235",78.76341,930.2112
"4236",78.641335,930.2246
"4237",78.538795,930.2378
"4238",78.45335,930.2512
"4239",78.38987,930.2644
"4240",78.34348,930.27783
"4241",78.30198,930.291
"4242",78.26536,930.30444
"4243",78.22873,930.3176
"4244",78.19455,930.33105
"4245",78.15549,930.34424
"4246",78.10666,930.35767
"4247",78.06271,930.37085
"4248",78.01877,930.3843
"4249",77.98947,930.39746
"4250",77.99191,930.4109
"4251",78.07492,930.4241
"4252",78.28001,930.4375
"4253",78.63157,930.4507
"4254",79.11986,930.4641
"4255",79.70092,930.4773
"4256",80.28443,930.4907
"4257",80.78737,930.5039
"4258",81.146255,930.51733
"4259",81.341576,930.5305
"4260",81.40261,930.54395
"4261",81.36843,930.5571
"4262",81.28298,930.57056
"4263",81.18776,930.58374
"4264",81.10475,930.59717
"4265",81.03883,930.61035
"4266",80.99245,930.6238
"4267",80.955826,930.63696
"4268",80.902115,930.6504
"4269",80.82399,930.6636
"4270",80.706795,930.677
"4271",80.552986,930.6902
"4272",80.377205,930.7036
"4273",80.19653,930.7168
"4274",80.03052,930.7302
"4275",79.888916,930.7434
"4276",79.783936,930.75684
"4277",79.7058,930.77
"4278",79.64477,930.78345
"4279",79.59106,930.79663
"4280",79.52758,930.81006
"4281",79.447014,930.82324
"4282",79.34936,930.8367
"4283",79.23949,930.84985
"4284",79.11986,930.8633
"4285",79.00023,930.87646
"4286",78.87816,930.8899
"4287",78.765854,930.9031
"4288",78.660866,930.9165
"4289",78.572975,930.9297
"4290",78.49973,930.9431
"4291",78.44358,930.9563
"4292",78.40208,930.9697
"4293",78.365456,930.9829
"4294",78.33372,930.99634
"4295",78.30686,931.0095
"4296",78.28001,931.02295
"4297",78.25315,931.03613
"4298",78.22385,931.04956
"4299",78.184784,931.06274
"4300",78.14816,931.0762
"4301",78.11154,931.08936
"4302",78.08957,931.1028
"4303",78.09201,931.11597
"4304",78.15793,931.1294
"4305",78.331276,931.1426
"4306",78.641335,931.156
"4307",79.093,931.1692
"4308",79.64233,931.1826
"4309",80.216064,931.1958
"4310",80.71412,931.2092
"4311",81.06813,931.2224
"4312",81.25857,931.23584
"4313",81.307396,931.249
"4314",81.25613,931.26245
"4315",81.15602,931.27563
"4316",81.05104,931.28906
"4317",80.955826,931.30225
"4318",80.885025,931.3157
"4319",80.833755,931.32886
"4320",80.78981,931.3423
"4321",80.73853,931.35547
"4322",80.66041,931.3689
"4323",80.552986,931.3821
"4324",80.413826,931.3955
"4325",80.26002,931.4087
"4326",80.1062,931.4221
"4327",79.974365,931.4353
"4328",79.86694,931.4487
"4329",79.7937,931.4619
"4330",79.73998,931.47534
"4331",79.69848,931.4885
"4332",79.656975,931.50195
"4333",79.60815,931.51514
"4334",79.54711,931.52856
"4335",79.47143,931.54175
"4336",79.38354,931.5552
"4337",79.28344,931.56836
"4338",79.17601,931.5818
"4339",79.06859,931.595
"4340",78.97093,931.6084
"4341",78.88304,931.6216
"4342",78.81224,931.635
"4343",78.75365,931.6482
"4344",78.712135,931.6616
"4345",78.68284,931.6748
"4346",78.660866,931.68823
"4347",78.63889,931.7014
"4348",78.61448,931.71484
"4349",78.58274,931.728
"4350",78.551,931.74146
"4351",78.51682,931.75464
"4352",78.48264,931.76807
"4353",78.45335,931.78125
"4354",78.42161,931.7947
"4355",78.39475,931.80786
"4356",78.37034,931.8213
"4357",78.35569,931.8345
"4358",78.35325,931.8479
"4359",78.380104,931.8611
"4360",78.47776,931.8745
"4361",78.692604,931.8877
"4362",79.05638,931.9011
"4363",79.54711,931.9143
"4364",80.111084,931.92773
"4365",80.655525,931.9409
"4366",81.094986,931.95435
"4367",81.373314,931.9675
"4368",81.4905,931.98096
"4369",81.480736,931.99414
"4370",81.392845,932.00757
"4371",81.270775,932.02075
"4372",81.14137,932.0342
"4373",81.03151,932.04736
"4374",80.94118,932.0608
"4375",80.87282,932.074
"4376",80.81178,932.0874
"4377",80.740974,932.1006
"4378",80.65064,932.114
"4379",80.54078,932.1272
"4380",80.413826,932.1406
"4381",80.28687,932.1538
"4382",80.17212,932.16724
"4383",80.076904,932.1804
"4384",80.00366,932.19385
"4385",79.94751,932.20703
"4386",79.90112,932.22046
"4387",79.852295,932.23364
"4388",79.798584,932.2471
"4389",79.73266,932.26025
"4390",79.65942,932.2737
"4391",79.57397,932.28687
"4392",79.483635,932.3003
"4393",79.38598,932.3135
"4394",79.290764,932.3269
"4395",79.200424,932.3401
"4396",79.11986,932.3535
"4397",79.05394,932.3667
"4398",79.00023,932.3801
"4399",78.958725,932.3933
"4400",78.92943,932.40674
"4401",78.90257,932.4199
"4402",78.87816,932.43335
"4403",78.8513,932.44653
"4404",78.819565,932.45996
"4405",78.7805,932.47314
"4406",78.73899,932.4866
"4407",78.69993,932.49976
"4408",78.66819,932.5132
"4409",78.63889,932.52637
"4410",78.61448,932.5398
"4411",78.5803,932.553
"4412",78.536354,932.5664
"4413",78.487526,932.5796
"4414",78.44846,932.593
"4415",78.42649,932.6062
"4416",78.45823,932.6196
"4417",78.5803,932.6328
"4418",78.83177,932.64624
"4419",79.2224,932.6594
"4420",79.727776,932.67285
"4421",80.28443,932.68604
"4422",80.80202,932.69946
"4423",81.20729,932.71265
"4424",81.444115,932.7261
"4425",81.5198,932.73926
"4426",81.463646,932.7527
"4427",81.32937,932.76587
"4428",81.15358,932.7793
"4429",80.98024,932.7925
"4430",80.831314,932.8059
"4431",80.71656,932.8191
"4432",80.62379,932.8325
"4433",80.54078,932.8457
"4434",80.46021,932.85913
"4435",80.36988,932.8723
"4436",80.272224,932.88574
"4437",80.17212,932.8989
"4438",80.08179,932.91235
"4439",80.0061,932.92554
"4440",79.94995,932.93896
"4441",79.91089,932.95215
"4442",79.88403,932.9656
"4443",79.86206,932.97876
"4444",79.835205,932.9922
"4445",79.801025,933.0054
"4446",79.7522,933.0188
"4447",79.68627,933.032
"4448",79.60815,933.0454
"4449",79.520256,933.0586
"4450",79.42748,933.072
"4451",79.33959,933.0852
"4452",79.259026,933.09863
"4453",79.1931,933.1118
"4454",79.13695,933.12524
"4455",79.09056,933.1384
"4456",79.05638,933.15186
"4457",79.03441,933.16504
"4458",79.01976,933.17847
"4459",79.01488,933.19165
"4460",79.00755,933.2051
"4461",79.00023,933.21826
"4462",78.98558,933.2317
"4463",78.96605,933.2449
"4464",78.94408,933.2583
"4465",78.924545,933.2715
"4466",78.9099,933.2849
"4467",78.89525,933.2981
"4468",78.873276,933.3115
"4469",78.84642,933.3247
"4470",78.81224,933.33813
"4471",78.78783,933.3513
"4472",78.78294,933.36475
"4473",78.84886,933.3779
"4474",79.029526,933.39136
"4475",79.35668,933.40454
"4476",79.80835,933.41797
"4477",80.343025,933.43115
"4478",80.867935,933.4446
"4479",81.29763,933.45776
"4480",81.566185,933.4712
"4481",81.668724,933.4844
"4482",81.62722,933.4978
"4483",81.4905,933.511
"4484",81.30251,933.5244
"4485",81.10475,933.5376
"4486",80.919205,933.551
"4487",80.76051,933.5642
"4488",80.62867,933.57764
"4489",80.51881,933.5908
"4490",80.42115,933.60425
"4491",80.3357,933.61743
"4492",80.25269,933.63086
"4493",80.181885,933.64404
"4494",80.12329,933.6575
"4495",80.079346,933.67065
"4496",80.05493,933.6841
"4497",80.045166,933.69727
"4498",80.042725,933.7107
"4499",80.03296,933.7239
"4500",80.01343,933.7373
"4501",79.97681,933.7505
"4502",79.91821,933.7639
"4503",79.84253,933.7771
"4504",79.74975,933.7905
"4505",79.64965,933.8037
"4506",79.54711,933.81714
"4507",79.449455,933.8303
"4508",79.35912,933.84375
"4509",79.28588,933.85693
"4510",79.23216,933.87036
"4511",79.19554,933.88354
"4512",79.17113,933.897
"4513",79.16136,933.91016
"4514",79.151596,933.9236
"4515",79.14427,933.93677
"4516",79.13695,933.9502
"4517",79.132065,933.9634
"4518",79.12474,933.9768
"4519",79.11742,933.99
"4520",79.10033,934.0034
"4521",79.080795,934.0166
"4522",79.05638,934.03
"4523",79.029526,934.0432
"4524",79.01488,934.05664
"4525",79.03197,934.0698
"4526",79.12718,934.08325
"4527",79.33959,934.09644
"4528",79.691154,934.10986
"4529",80.164795,934.12305
"4530",80.69459,934.1365
"4531",81.19264,934.14966
"4532",81.57839,934.1631
"4533",81.80545,934.1763
"4534",81.864044,934.1897
"4535",81.7908,934.2029
"4536",81.62478,934.2163
"4537",81.41238,934.2295
"4538",81.1902,934.2429
"4539",80.987564,934.2561
"4540",80.814224,934.26953
"4541",80.6775,934.2827
"4542",80.56031,934.29614
"4543",80.45777,934.3093
"4544",80.36744,934.32275
"4545",80.28687,934.33594
"4546",80.22339,934.34937
"4547",80.181885,934.36255
"4548",80.16235,934.376
"4549",80.16235,934.38916
"4550",80.177,934.4026
"4551",80.19409,934.4158
"4552",80.198975,934.4292
"4553",80.18677,934.4424
"4554",80.147705,934.4558
"4555",80.076904,934.469
"4556",79.98413,934.4824
"4557",79.87671,934.4956
"4558",79.764404,934.50903
"4559",79.65453,934.5222
"4560",79.55688,934.53564
"4561",79.47387,934.5488
"4562",79.40795,934.56226
"4563",79.364006,934.57544
"4564",79.33959,934.58887
"4565",79.33227,934.60205
"4566",79.33715,934.6155
"4567",79.34203,934.62866
"4568",79.34692,934.6421
"4569",79.344475,934.6553
"4570",79.33471,934.6687
"4571",79.31274,934.6819
"4572",79.293205,934.6953
"4573",79.276115,934.7085
"4574",79.26391,934.7219
"4575",79.28344,934.7351
