"","ppg","time"
"1",76.99092,157.57184
"2",76.87129,157.58514
"3",76.754105,157.59851
"4",76.63691,157.61182
"5",76.51728,157.62518
"6",76.39765,157.63849
"7",76.28779,157.65186
"8",76.17792,157.66516
"9",76.07782,157.67853
"10",75.98016,157.69183
"11",75.88495,157.7052
"12",75.77997,157.7185
"13",75.684746,157.73187
"14",75.63592,157.74518
"15",75.7409,157.75854
"16",76.18036,157.77185
"17",77.09346,157.78522
"18",78.49241,157.79852
"19",80.24292,157.81189
"20",82.09598,157.8252
"21",83.758606,157.83856
"22",84.99153,157.85187
"23",85.70199,157.86523
"24",85.95102,157.87854
"25",85.86557,157.8919
"26",85.56771,157.90521
"27",85.17464,157.91858
"28",84.77669,157.93188
"29",84.42756,157.94525
"30",84.16388,157.95856
"31",83.980774,157.97192
"32",83.861145,157.98523
"33",83.76837,157.9986
"34",83.65362,158.0119
"35",83.475395,158.02527
"36",83.228806,158.03857
"37",82.92119,158.05194
"38",82.581825,158.06525
"39",82.24246,158.07861
"40",81.934845,158.09192
"41",81.66628,158.10529
"42",81.43923,158.11859
"43",81.24147,158.13196
"44",81.05592,158.14526
"45",80.867935,158.15863
"46",80.67017,158.17194
"47",80.45045,158.1853
"48",80.2063,158.19861
"49",79.9353,158.21198
"50",79.64233,158.22528
"51",79.33471,158.23865
"52",79.0222,158.25195
"53",78.71946,158.26532
"54",78.44602,158.27863
"55",78.21408,158.29199
"56",78.02609,158.3053
"57",77.88205,158.31866
"58",77.77219,158.33197
"59",77.68917,158.34534
"60",77.61349,158.35864
"61",77.54269,158.37201
"62",77.467,158.38531
"63",77.38888,158.39868
"64",77.296104,158.41199
"65",77.19112,158.42535
"66",77.07393,158.43866
"67",76.944534,158.45203
"68",76.807816,158.46533
"69",76.66865,158.4787
"70",76.53437,158.492
"71",76.40742,158.50537
"72",76.28779,158.51868
"73",76.17059,158.53204
"74",76.05829,158.54535
"75",75.94354,158.55872
"76",75.81903,158.57202
"77",75.699394,158.58539
"78",75.648125,158.5987
"79",75.80194,158.61206
"80",76.34882,158.62537
"81",77.41573,158.63873
"82",78.98802,158.65204
"83",80.88991,158.6654
"84",82.83086,158.67871
"85",84.50324,158.69208
"86",85.68734,158.70538
"87",86.32212,158.71875
"88",86.48325,158.73206
"89",86.30991,158.74542
"90",85.93881,158.75873
"91",85.47494,158.7721
"92",85.00862,158.7854
"93",84.6009,158.79877
"94",84.283516,158.81207
"95",84.051575,158.82544
"96",83.88556,158.83875
"97",83.74395,158.85211
"98",83.580376,158.86542
"99",83.36797,158.87878
"100",83.09697,158.89209
"101",82.77959,158.90546
"102",82.442665,158.91876
"103",82.12283,158.93213
"104",81.83719,158.94543
"105",81.5906,158.9588
"106",81.375755,158.9721
"107",81.180435,158.98547
"108",80.99489,158.99878
"109",80.797134,159.01215
"110",80.5774,159.02545
"111",80.33082,159.03882
"112",80.05493,159.05212
"113",79.74731,159.06549
"114",79.42016,159.0788
"115",79.08568,159.09216
"116",78.751205,159.10547
"117",78.4387,159.11884
"118",78.16037,159.13214
"119",77.92844,159.14551
"120",77.74288,159.15881
"121",77.60616,159.17218
"122",77.503624,159.18549
"123",77.420616,159.19885
"124",77.34493,159.21216
"125",77.26681,159.22552
"126",77.18379,159.23883
"127",77.09102,159.2522
"128",76.98848,159.2655
"129",76.87862,159.27887
"130",76.76143,159.29218
"131",76.63203,159.30554
"132",76.49531,159.31885
"133",76.35615,159.33221
"134",76.21942,159.34552
"135",76.08026,159.35889
"136",75.94354,159.3722
"137",75.80194,159.38556
"138",75.65301,159.39886
"139",75.50408,159.41223
"140",75.406425,159.42554
"141",75.48211,159.4389
"142",75.93378,159.45221
"143",76.92256,159.46558
"144",78.470436,159.47888
"145",80.43336,159.49225
"146",82.52567,159.50555
"147",84.41047,159.51892
"148",85.80698,159.53223
"149",86.607765,159.5456
"150",86.871445,159.5589
"151",86.7396,159.57227
"152",86.36118,159.58557
"153",85.86069,159.59894
"154",85.33822,159.61224
"155",84.857254,159.62561
"156",84.46174,159.63892
"157",84.16144,159.65228
"158",83.94415,159.66559
"159",83.76593,159.67896
"160",83.5877,159.69226
"161",83.370415,159.70563
"162",83.09941,159.71893
"163",82.78691,159.7323
"164",82.4622,159.7456
"165",82.14725,159.75897
"166",81.866486,159.77228
"167",81.62478,159.78564
"168",81.41482,159.79895
"169",81.22194,159.81232
"170",81.03151,159.82562
"171",80.8362,159.83899
"172",80.61402,159.8523
"173",80.35767,159.86566
"174",80.0647,159.87897
"175",79.7351,159.89233
"176",79.378654,159.90564
"177",79.01488,159.919
"178",78.658424,159.93231
"179",78.328835,159.94568
"180",78.04074,159.95898
"181",77.79904,159.97235
"182",77.608604,159.98566
"183",77.467,159.99902
"184",77.366905,160.01233
"185",77.29366,160.0257
"186",77.23018,160.039
"187",77.16914,160.05237
"188",77.09834,160.06567
"189",77.01778,160.07904
"190",76.92012,160.09235
"191",76.8127,160.10571
"192",76.6955,160.11902
"193",76.575874,160.13239
"194",76.44648,160.14569
"195",76.30732,160.15906
"196",76.15106,160.17236
"197",75.97528,160.18573
"198",75.78241,160.19904
"199",75.62371,160.2124
"200",75.61639,160.22571
"201",75.948425,160.23907
"202",76.79561,160.25238
"203",78.204315,160.26575
"204",80.05005,160.27905
"205",82.06424,160.29242
"206",83.92218,160.30573
"207",85.330894,160.31909
"208",86.151215,160.3324
"209",86.4271,160.34576
"210",86.2855,160.35907
"211",85.88266,160.37244
"212",85.347984,160.38574
"213",84.77913,160.39911
"214",84.25422,160.41241
"215",83.824524,160.42578
"216",83.49737,160.43909
"217",83.25323,160.45245
"218",83.06279,160.46576
"219",82.882126,160.47913
"220",82.6746,160.49243
"221",82.43534,160.5058
"222",82.178986,160.5191
"223",81.92508,160.53247
"224",81.69558,160.54578
"225",81.497826,160.55914
"226",81.322044,160.57245
"227",81.16579,160.58582
"228",81.007095,160.59912
"229",80.83864,160.61249
"230",80.6482,160.6258
"231",80.42603,160.63916
"232",80.15747,160.65247
"233",79.84253,160.66583
"234",79.483635,160.67914
"235",79.097885,160.6925
"236",78.70237,160.70581
"237",78.32639,160.71918
"238",77.996796,160.73248
"239",77.72823,160.74585
"240",77.52071,160.75916
"241",77.37423,160.77252
"242",77.27657,160.78583
"243",77.21553,160.7992
"244",77.17647,160.8125
"245",77.14473,160.82587
"246",77.11543,160.83917
"247",77.07393,160.85254
"248",77.02266,160.86584
"249",76.95186,160.87921
"250",76.85664,160.89252
"251",76.72968,160.90588
"252",76.57343,160.91919
"253",76.39521,160.93256
"254",76.226746,160.94586
"255",76.16815,160.95923
"256",76.39277,160.97253
"257",77.069046,160.9859
"258",78.25559,160.9992
"259",79.871826,161.01257
"260",81.69802,161.02588
"261",83.43389,161.03925
"262",84.808426,161.05255
"263",85.66781,161.06592
"264",86.012054,161.07922
"265",85.94858,161.09259
"266",85.609215,161.1059
"267",85.11604,161.11926
"268",84.57404,161.13257
"269",84.06134,161.14594
"270",83.6292,161.15924
"271",83.29473,161.1726
"272",83.038376,161.18591
"273",82.83086,161.19928
"274",82.63554,161.21259
"275",82.425575,161.22595
"276",82.19852,161.23926
"277",81.96658,161.25262
"278",81.74441,161.26593
"279",81.549095,161.2793
"280",81.38308,161.2926
"281",81.23903,161.30597
"282",81.09987,161.31927
"283",80.95827,161.33264
"284",80.80202,161.34595
"285",80.618904,161.35931
"286",80.396736,161.37262
"287",80.130615,161.38599
"288",79.82056,161.39929
"289",79.47387,161.41266
"290",79.10277,161.42596
"291",78.73411,161.43933
"292",78.380104,161.45264
"293",78.06271,161.466
"294",77.79904,161.47931
"295",77.5964,161.49268
"296",77.452354,161.50598
"297",77.35958,161.51935
"298",77.30831,161.53265
"299",77.2839,161.54602
"300",77.26681,161.55933
"301",77.24727,161.5727
"302",77.21553,161.586
"303",77.1667,161.59937
"304",77.09102,161.61267
"305",76.99092,161.62604
"306",76.85664,161.63934
"307",76.70283,161.65271
"308",76.57343,161.66602
"309",76.58076,161.67938
"310",76.89082,161.69269
"311",77.645226,161.70605
"312",78.87572,161.71936
"313",80.47242,161.73273
"314",82.2034,161.74603
"315",83.78302,161.7594
"316",84.97444,161.7727
"317",85.66781,161.78607
"318",85.89975,161.79938
"319",85.78256,161.81274
"320",85.44076,161.82605
"321",84.98421,161.83942
"322",84.51301,161.85272
"323",84.09308,161.86609
"324",83.758606,161.8794
"325",83.52422,161.89276
"326",83.370415,161.90607
"327",83.250786,161.91943
"328",83.11406,161.93274
"329",82.92851,161.9461
"330",82.684364,161.95941
"331",82.39628,161.97278
"332",82.09354,161.98608
"333",81.812775,161.99945
"334",81.57107,162.01276
"335",81.37087,162.02612
"336",81.20241,162.03943
"337",81.05104,162.0528
"338",80.89723,162.0661
"339",80.72877,162.07947
"340",80.53101,162.09277
"341",80.289314,162.10614
"342",80.0061,162.11945
"343",79.68627,162.13281
"344",79.34692,162.14612
"345",79.00023,162.15948
"346",78.675514,162.17279
"347",78.39231,162.18616
"348",78.16525,162.19946
"349",77.98947,162.21283
"350",77.872284,162.22614
"351",77.7966,162.2395
"352",77.747765,162.2528
"353",77.713585,162.26617
"354",77.68185,162.27948
"355",77.642784,162.29285
"356",77.58663,162.30615
"357",77.51095,162.31952
"358",77.40841,162.33282
"359",77.281456,162.34619
"360",77.13008,162.3595
"361",76.96651,162.37286
"362",76.83467,162.38617
"363",76.839554,162.39954
"364",77.13252,162.41284
"365",77.83566,162.42621
"366",78.96849,162.43951
"367",80.42359,162.45288
"368",82.003204,162.46619
"369",83.44854,162.47955
"370",84.559395,162.49286
"371",85.23567,162.50623
"372",85.504234,162.51953
"373",85.45052,162.5329
"374",85.189285,162.5462
"375",84.82796,162.55957
"376",84.456856,162.57288
"377",84.14435,162.58624
"378",83.91974,162.59955
"379",83.78058,162.61292
"380",83.69268,162.62622
"381",83.61944,162.63959
"382",83.50713,162.6529
"383",83.32647,162.66626
"384",83.06767,162.67957
"385",82.75517,162.69293
"386",82.41825,162.70624
"387",82.091095,162.7196
"388",81.795685,162.73291
"389",81.54421,162.74628
"390",81.33669,162.75958
"391",81.160904,162.77295
"392",80.99733,162.78625
"393",80.831314,162.79962
"394",80.638435,162.81293
"395",80.40894,162.8263
"396",80.13794,162.8396
"397",79.83032,162.85297
"398",79.500725,162.86627
"399",79.17357,162.87964
"400",78.86839,162.89294
"401",78.59739,162.90631
"402",78.37278,162.91962
"403",78.19699,162.93298
"404",78.065155,162.94629
"405",77.96506,162.95966
"406",77.88449,162.97296
"407",77.81125,162.98633
"408",77.73556,162.99963
"409",77.64767,163.013
"410",77.54757,163.0263
"411",77.437706,163.03967
"412",77.31808,163.05298
"413",77.19844,163.06635
"414",77.07149,163.07965
"415",76.93965,163.09302
"416",76.80293,163.10632
"417",76.66132,163.11969
"418",76.52705,163.133
"419",76.46601,163.14636
"420",76.59785,163.15967
"421",77.051956,163.17303
"422",77.91623,163.18634
"423",79.166245,163.1997
"424",80.66041,163.21301
"425",82.19119,163.22638
"426",83.51934,163.23969
"427",84.48371,163.25305
"428",85.03548,163.26636
"429",85.22835,163.27972
"430",85.15022,163.29303
"431",84.91585,163.3064
"432",84.627754,163.3197
"433",84.36408,163.33307
"434",84.1712,163.34637
"435",84.06134,163.35974
"436",84.01251,163.37305
"437",83.980774,163.38641
"438",83.92218,163.39972
"439",83.790344,163.41309
"440",83.563286,163.42639
"441",83.24834,163.43976
"442",82.8748,163.45306
"443",82.48661,163.46643
"444",82.11551,163.47974
"445",81.79324,163.4931
"446",81.52224,163.50641
"447",81.29519,163.51978
"448",81.09743,163.53308
"449",80.907,163.54645
"450",80.709236,163.55975
"451",80.49439,163.57312
"452",80.255135,163.58643
"453",79.98169,163.5998
"454",79.68627,163.6131
"455",79.37133,163.62646
"456",79.05394,163.63977
"457",78.74876,163.65314
"458",78.47776,163.66644
"459",78.24826,163.67981
"460",78.0676,163.69312
"461",77.91867,163.70648
"462",77.79904,163.71979
"463",77.69405,163.73315
"464",77.59884,163.74646
"465",77.49142,163.75983
"466",77.37911,163.77313
"467",77.25216,163.7865
"468",77.117874,163.7998
"469",76.97627,163.81317
"470",76.839554,163.82648
"471",76.70771,163.83984
"472",76.58564,163.85315
"473",76.473335,163.86652
"474",76.37324,163.87982
"475",76.28535,163.89319
"476",76.20477,163.9065
"477",76.13153,163.91986
"478",76.05585,163.93317
"479",75.98016,163.94653
"480",75.8996,163.95984
"481",75.83368,163.9732
"482",75.841,163.98651
"483",76.04364,163.99988
"484",76.578316,164.01318
"485",77.52071,164.02655
"486",78.84154,164.03986
"487",80.40406,164.05322
"488",81.98367,164.06653
"489",83.34112,164.0799
"490",84.317696,164.0932
"491",84.876785,164.10657
"492",85.067215,164.11987
"493",84.996414,164.13324
"494",84.77669,164.14655
"495",84.51057,164.15991
"496",84.27863,164.17322
"497",84.122375,164.18658
"498",84.04913,164.19989
"499",84.03937,164.21326
"500",84.04913,164.22656
"501",84.02716,164.23993
"502",83.92706,164.25323
"503",83.73174,164.2666
"504",83.441216,164.2799
"505",83.08232,164.29327
"506",82.69169,164.30658
"507",82.30839,164.31995
"508",81.96658,164.33325
"509",81.67361,164.34662
"510",81.43191,164.35992
"511",81.22438,164.37329
"512",81.02907,164.3866
"513",80.831314,164.39996
"514",80.61402,164.41327
"515",80.37232,164.42664
"516",80.1062,164.43994
"517",79.81079,164.45331
"518",79.500725,164.46661
"519",79.18089,164.47998
"520",78.86839,164.49329
"521",78.5803,164.50665
"522",78.32395,164.51996
"523",78.1091,164.53333
"524",77.92844,164.54663
"525",77.77951,164.56
"526",77.65743,164.5733
"527",77.54757,164.58667
"528",77.44015,164.59998
"529",77.33517,164.61334
"530",77.225296,164.62665
"531",77.10811,164.64001
"532",76.9836,164.65332
"533",76.8542,164.66669
"534",76.7248,164.68
"535",76.59785,164.69336
"536",76.473335,164.70667
"537",76.35371,164.72003
"538",76.24628,164.73334
"539",76.14862,164.7467
"540",76.05829,164.76001
"541",75.98016,164.77338
"542",75.91669,164.78668
"543",75.85565,164.80005
"544",75.789734,164.81335
"545",75.718925,164.82672
"546",75.650566,164.84003
"547",75.62127,164.8534
"548",75.72381,164.8667
"549",76.102234,164.88007
"550",76.87129,164.89337
"551",78.04562,164.90674
"552",79.52758,164.92004
"553",81.1194,164.93341
"554",82.57694,164.94672
"555",83.700005,164.96008
"556",84.39582,164.97339
"557",84.68635,164.98676
"558",84.67658,165.00006
"559",84.47883,165.01343
"560",84.207825,165.02673
"561",83.95392,165.0401
"562",83.775696,165.0534
"563",83.685356,165.06677
"564",83.67315,165.08008
"565",83.69512,165.09344
"566",83.700005,165.10675
"567",83.63653,165.12012
"568",83.47784,165.13342
"569",83.211716,165.14679
"570",82.865036,165.1601
"571",82.4744,165.17346
"572",82.07889,165.18677
"573",81.71755,165.20013
"574",81.409935,165.21344
"575",81.15602,165.2268
"576",80.94362,165.24011
"577",80.75807,165.25348
"578",80.57984,165.26678
"579",80.38941,165.28015
"580",80.17456,165.29346
"581",79.93042,165.30682
"582",79.656975,165.32013
"583",79.364006,165.3335
"584",79.063705,165.3468
"585",78.77318,165.36017
"586",78.504616,165.37347
"587",78.2678,165.38684
"588",78.06271,165.40015
"589",77.891815,165.41351
"590",77.747765,165.42682
"591",77.628136,165.44019
"592",77.51827,165.45349
"593",77.41329,165.46686
"594",77.30343,165.48016
"595",77.19112,165.49353
"596",77.07149,165.50684
"597",76.946976,165.5202
"598",76.822464,165.53351
"599",76.70283,165.54688
"600",76.58564,165.56018
"601",76.473335,165.57355
"602",76.36347,165.58685
"603",76.25849,165.60022
"604",76.16571,165.61353
"605",76.0827,165.62689
"606",76.01434,165.6402
"607",75.95575,165.65356
"608",75.90448,165.66687
"609",75.85809,165.68024
"610",75.80682,165.69354
"611",75.74578,165.70691
"612",75.68719,165.72021
"613",75.64568,165.73358
"614",75.69451,165.74689
"615",75.96063,165.76025
"616",76.57343,165.77356
"617",77.574425,165.78693
"618",78.91478,165.80023
"619",80.42115,165.8136
"620",81.87381,165.8269
"621",83.04814,165.84027
"622",83.81964,165.85358
"623",84.18341,165.86694
"624",84.22003,165.88025
"625",84.03693,165.89362
"626",83.74883,165.90692
"627",83.45342,165.92029
"628",83.21416,165.9336
"629",83.06279,165.94696
"630",82.99443,165.96027
"631",82.98711,165.97363
"632",82.99443,165.98694
"633",82.96269,166.0003
"634",82.86015,166.01361
"635",82.65995,166.02698
"636",82.37675,166.04028
"637",82.03494,166.05365
"638",81.68337,166.06696
"639",81.358665,166.08032
"640",81.08034,166.09363
"641",80.86061,166.107
"642",80.68726,166.1203
"643",80.54322,166.13367
"644",80.4065,166.14697
"645",80.257576,166.16034
"646",80.08179,166.17365
"647",79.87671,166.18701
"648",79.64233,166.20032
"649",79.38354,166.21368
"650",79.11986,166.22699
"651",78.86107,166.24036
"652",78.61204,166.25366
"653",78.38743,166.26703
"654",78.18967,166.28033
"655",78.02121,166.2937
"656",77.88205,166.307
"657",77.77219,166.32037
"658",77.68185,166.33368
"659",77.59884,166.34705
"660",77.51827,166.36035
"661",77.43038,166.37372
"662",77.32784,166.38702
"663",77.21553,166.40039
"664",77.0959,166.4137
"665",76.97139,166.42706
"666",76.84688,166.44037
"667",76.72724,166.45374
"668",76.61494,166.46704
"669",76.5124,166.48041
"670",76.41718,166.49371
"671",76.33173,166.50708
"672",76.25849,166.52039
"673",76.19989,166.53375
"674",76.1535,166.54706
"675",76.12421,166.56042
"676",76.102234,166.57373
"677",76.07782,166.5871
"678",76.0412,166.6004
"679",75.98993,166.61377
"680",75.931335,166.62708
"681",75.911804,166.64044
"682",76.02655,166.65375
"683",76.42695,166.66711
"684",77.22774,166.68042
"685",78.43626,166.69379
"686",79.9353,166.70709
"687",81.51736,166.72046
"688",82.933395,166.73376
"689",83.97833,166.74713
"690",84.576485,166.76044
"691",84.771805,166.7738
"692",84.6717,166.78711
"693",84.39582,166.80048
"694",84.054016,166.81378
"695",83.7293,166.82715
"696",83.475395,166.84045
"697",83.31182,166.85382
"698",83.228806,166.86713
"699",83.19951,166.8805
"700",83.177536,166.8938
"701",83.11406,166.90717
"702",82.97734,166.92047
"703",82.757614,166.93384
"704",82.47196,166.94714
"705",82.14969,166.96051
"706",81.832306,166.97382
"707",81.54665,166.98718
"708",81.31228,167.00049
"709",81.12184,167.01385
"710",80.96071,167.02716
"711",80.82155,167.04053
"712",80.68238,167.05383
"713",80.52369,167.0672
"714",80.33814,167.0805
"715",80.130615,167.09387
"716",79.89868,167.10718
"717",79.65209,167.12054
"718",79.40307,167.13385
"719",79.15892,167.14722
"720",78.92699,167.16052
"721",78.71946,167.17389
"722",78.538795,167.1872
"723",78.39231,167.20056
"724",78.27512,167.21387
"725",78.1799,167.22723
"726",78.09689,167.24054
"727",78.01877,167.2539
"728",77.945526,167.26721
"729",77.8674,167.28058
"730",77.77951,167.29388
"731",77.68917,167.30725
"732",77.58907,167.32056
"733",77.47921,167.33392
"734",77.36202,167.34723
"735",77.242386,167.3606
"736",77.12276,167.3739
"737",77.00801,167.38727
"738",76.90303,167.40057
"739",76.807816,167.41394
"740",76.72968,167.42725
"741",76.65888,167.44061
"742",76.59785,167.45392
"743",76.53925,167.46729
"744",76.48066,167.48059
"745",76.41474,167.49396
"746",76.33906,167.50726
"747",76.25849,167.52063
"748",76.21454,167.53394
"749",76.30488,167.5473
"750",76.680855,167.56061
"751",77.47921,167.57397
"752",78.71946,167.58728
"753",80.28687,167.60065
"754",81.969025,167.61395
"755",83.49004,167.62732
"756",84.627754,167.64062
"757",85.28451,167.65399
"758",85.50912,167.6673
"759",85.401695,167.68066
"760",85.09651,167.69397
"761",84.701,167.70734
"762",84.30549,167.72064
"763",83.97101,167.73401
"764",83.7293,167.74731
"765",83.580376,167.76068
"766",83.50225,167.77399
"767",83.4461,167.78735
"768",83.35821,167.80066
"769",83.20439,167.81403
"770",82.97246,167.82733
"771",82.67948,167.8407
"772",82.357216,167.854
"773",82.039825,167.86737
"774",81.75174,167.88068
"775",81.50759,167.89404
"776",81.30251,167.90735
"777",81.126724,167.92072
"778",80.970474,167.93402
"779",80.81178,167.94739
"780",80.64088,167.9607
"781",80.448006,167.97406
"782",80.22339,167.98737
"783",79.96948,168.00073
"784",79.691154,168.01404
"785",79.398186,168.0274
"786",79.11253,168.04071
"787",78.84886,168.05408
"788",78.61448,168.06738
"789",78.42649,168.08075
"790",78.277565,168.09406
"791",78.167694,168.10742
"792",78.08713,168.12073
"793",78.02121,168.1341
"794",77.95773,168.1474
"795",77.891815,168.16077
"796",77.81125,168.17407
"797",77.71847,168.18744
"798",77.611046,168.20074
"799",77.49386,168.21411
"800",77.37423,168.22742
"801",77.25216,168.24078
"802",77.1252,168.25409
"803",77.00313,168.26746
"804",76.88594,168.28076
"805",76.773636,168.29413
"806",76.66132,168.30743
"807",76.55634,168.3208
"808",76.453804,168.3341
"809",76.35371,168.34747
"810",76.24872,168.36078
"811",76.14618,168.37415
"812",76.04608,168.38745
"813",75.96307,168.40082
"814",75.98016,168.41412
"815",76.241394,168.42749
"816",76.912796,168.4408
"817",78.07736,168.45416
"818",79.66918,168.46747
"819",81.4905,168.48083
"820",83.25811,168.49414
"821",84.68879,168.5075
"822",85.6141,168.52081
"823",86.02182,168.53418
"824",86.012054,168.54749
"825",85.71908,168.56085
"826",85.27474,168.57416
"827",84.77913,168.58752
"828",84.317696,168.60083
"829",83.93683,168.6142
"830",83.66094,168.6275
"831",83.48028,168.64087
"832",83.36309,168.65417
"833",83.26055,168.66754
"834",83.12627,168.68085
"835",82.933395,168.69421
"836",82.67948,168.70752
"837",82.37919,168.72089
"838",82.07156,168.73419
"839",81.78104,168.74756
"840",81.52468,168.76086
"841",81.304955,168.77423
"842",81.12184,168.78754
"843",80.95827,168.8009
"844",80.799576,168.81421
"845",80.62379,168.82758
"846",80.41871,168.84088
"847",80.177,168.85425
"848",79.89868,168.86755
"849",79.59106,168.88092
"850",79.26879,168.89423
"851",78.94652,168.9076
"852",78.641335,168.9209
"853",78.37766,168.93427
"854",78.16525,168.94757
"855",78.009,168.96094
"856",77.90646,168.97424
"857",77.84543,168.98761
"858",77.81369,169.00092
"859",77.79172,169.01428
"860",77.7673,169.02759
"861",77.72823,169.04095
"862",77.6672,169.05426
"863",77.58663,169.06763
"864",77.486534,169.08093
"865",77.36935,169.0943
"866",77.24483,169.1076
"867",77.120316,169.12097
"868",76.99092,169.13428
"869",76.8542,169.14764
"870",76.70527,169.16095
"871",76.541695,169.17432
"872",76.35615,169.18762
"873",76.15839,169.20099
"874",75.99481,169.2143
"875",75.9704,169.22766
"876",76.26093,169.24097
"877",77.032425,169.25433
"878",78.328835,169.26764
"879",80.04028,169.281
"880",81.917755,169.29431
"881",83.65362,169.30768
"882",84.96956,169.32098
"883",85.73861,169.33435
"884",85.99252,169.34766
"885",85.85092,169.36102
"886",85.46029,169.37433
"887",84.945145,169.3877
"888",84.40803,169.401
"889",83.91974,169.41437
"890",83.526665,169.42767
"891",83.245895,169.44104
"892",83.055466,169.45435
"893",82.90898,169.46771
"894",82.757614,169.48102
"895",82.56962,169.49438
"896",82.32792,169.50769
"897",82.05203,169.52106
"898",81.77371,169.53436
"899",81.52224,169.54773
"900",81.31472,169.56104
"901",81.15114,169.5744
"902",81.01686,169.5877
"903",80.89967,169.60107
"904",80.780045,169.61438
"905",80.635994,169.62775
"906",80.45533,169.64105
"907",80.22827,169.65442
"908",79.95239,169.66772
"909",79.63012,169.68109
"910",79.281,169.6944
"911",78.91966,169.70776
"912",78.572975,169.72107
"913",78.25803,169.73444
"914",77.996796,169.74774
"915",77.79172,169.76111
"916",77.65255,169.77441
"917",77.5671,169.78778
"918",77.523155,169.80109
"919",77.506065,169.81445
"920",77.49386,169.82776
"921",77.471886,169.84113
"922",77.43038,169.85443
"923",77.37423,169.8678
"924",77.298546,169.8811
"925",77.21065,169.89447
"926",77.10567,169.90778
"927",76.98604,169.92114
"928",76.841995,169.93445
"929",76.67353,169.94781
"930",76.4831,169.96112
"931",76.299995,169.97449
"932",76.19989,169.9878
"933",76.33662,170.00116
"934",76.90059,170.01447
"935",77.99191,170.02783
"936",79.55688,170.04114
"937",81.3904,170.0545
"938",83.20195,170.06781
"939",84.69367,170.08118
"940",85.66781,170.09448
"941",86.10727,170.10785
"942",86.11215,170.12115
"943",85.81918,170.13452
"944",85.365074,170.14783
"945",84.857254,170.1612
"946",84.37873,170.1745
"947",83.980774,170.18787
"948",83.685356,170.20117
"949",83.4876,170.21454
"950",83.34844,170.22784
"951",83.22148,170.24121
"952",83.05791,170.25452
"953",82.83574,170.26788
"954",82.55741,170.28119
"955",82.24979,170.29456
"956",81.94217,170.30786
"957",81.66628,170.32123
"958",81.43191,170.33453
"959",81.23659,170.3479
"960",81.06813,170.3612
"961",80.91432,170.37457
"962",80.75563,170.38788
"963",80.57984,170.40125
"964",80.36988,170.41455
"965",80.12329,170.42792
"966",79.835205,170.44122
"967",79.520256,170.45459
"968",79.19066,170.4679
"969",78.86107,170.48126
"970",78.551,170.49457
"971",78.28245,170.50793
"972",78.065155,170.52124
"973",77.90402,170.5346
"974",77.80148,170.54791
"975",77.74044,170.56128
"976",77.70626,170.57458
"977",77.68185,170.58795
"978",77.645226,170.60126
"979",77.59884,170.61462
"980",77.53048,170.62793
"981",77.44991,170.6413
"982",77.35226,170.6546
"983",77.24971,170.66797
"984",77.13985,170.68127
"985",77.015335,170.69464
"986",76.87862,170.70795
"987",76.72724,170.72131
"988",76.56367,170.73462
"989",76.43183,170.74799
"990",76.4416,170.76129
"991",76.75899,170.77466
"992",77.53536,170.78796
"993",78.79759,170.80133
"994",80.430916,170.81464
"995",82.20096,170.828
"996",83.82208,170.84131
"997",85.04768,170.85468
"998",85.770355,170.86798
"999",86.01938,170.88135
"1000",85.909515,170.89465
"1001",85.56771,170.90802
"1002",85.12337,170.92133
"1003",84.67414,170.9347
"1004",84.298164,170.948
"1005",84.02472,170.96136
"1006",83.8587,170.97467
"1007",83.76105,170.98804
"1008",83.69024,171.00134
"1009",83.5877,171.01471
"1010",83.4168,171.02802
"1011",83.16289,171.04138
"1012",82.845505,171.05469
"1013",82.48905,171.06805
"1014",82.13992,171.08136
"1015",81.81766,171.09473
"1016",81.54665,171.10803
"1017",81.324486,171.1214
"1018",81.14137,171.1347
"1019",80.9778,171.14807
"1020",80.81178,171.16138
"1021",80.62867,171.17474
"1022",80.41627,171.18805
"1023",80.16968,171.20142
"1024",79.89624,171.21472
"1025",79.59838,171.22809
"1026",79.29565,171.2414
"1027",78.995346,171.25476
"1028",78.71458,171.26807
"1029",78.470436,171.28143
"1030",78.27024,171.29474
"1031",78.118866,171.3081
"1032",78.00168,171.32141
"1033",77.91135,171.33478
"1034",77.840546,171.34808
"1035",77.77219,171.36145
"1036",77.69161,171.37476
"1037",77.60372,171.38812
"1038",77.50118,171.40143
"1039",77.39376,171.4148
"1040",77.28634,171.4281
"1041",77.17403,171.44147
"1042",77.06416,171.45477
"1043",76.946976,171.46814
"1044",76.822464,171.48145
"1045",76.68818,171.49481
"1046",76.54658,171.50812
"1047",76.40009,171.52148
"1048",76.280464,171.53479
"1049",76.2707,171.54816
"1050",76.52216,171.56146
"1051",77.171585,171.57483
"1052",78.277565,171.58813
"1053",79.75708,171.6015
"1054",81.41726,171.6148
"1055",82.99687,171.62817
"1056",84.24933,171.64148
"1057",85.05257,171.65485
"1058",85.40414,171.66815
"1059",85.39437,171.68152
"1060",85.14046,171.69482
"1061",84.76692,171.70819
"1062",84.37629,171.7215
"1063",84.04425,171.73486
"1064",83.809875,171.74817
"1065",83.682915,171.76154
"1066",83.6292,171.77484
"1067",83.60479,171.78821
"1068",83.54864,171.80151
"1069",83.4168,171.81488
"1070",83.192184,171.82819
"1071",82.879684,171.84155
"1072",82.51835,171.85486
"1073",82.14725,171.86823
"1074",81.80057,171.88153
"1075",81.50515,171.8949
"1076",81.26101,171.9082
"1077",81.05592,171.92157
"1078",80.87526,171.93488
"1079",80.706795,171.94824
"1080",80.5359,171.96155
"1081",80.34791,171.97491
"1082",80.1355,171.98822
"1083",79.8938,172.00159
"1084",79.62524,172.0149
"1085",79.33227,172.02826
"1086",79.03441,172.04156
"1087",78.746315,172.05493
"1088",78.48997,172.06824
"1089",78.2678,172.0816
"1090",78.09445,172.09491
"1091",77.960175,172.10828
"1092",77.855194,172.12158
"1093",77.7673,172.13495
"1094",77.68673,172.14825
"1095",77.608604,172.16162
"1096",77.52071,172.17493
"1097",77.42306,172.1883
"1098",77.31075,172.2016
"1099",77.18379,172.21497
"1100",77.049515,172.22827
"1101",76.912796,172.24164
"1102",76.78096,172.25494
"1103",76.65888,172.26831
"1104",76.54902,172.28162
"1105",76.44648,172.29498
"1106",76.34638,172.30829
"1107",76.25117,172.32166
"1108",76.15106,172.33496
"1109",76.04852,172.34833
"1110",75.945984,172.36163
"1111",75.85809,172.375
"1112",75.84589,172.3883
"1113",76.04364,172.40167
"1114",76.60761,172.41498
"1115",77.628136,172.42834
"1116",79.07103,172.44165
"1117",80.780045,172.45502
"1118",82.496376,172.46832
"1119",83.95392,172.48169
"1120",84.96956,172.495
"1121",85.50179,172.50836
"1122",85.62142,172.52167
"1123",85.45052,172.53503
"1124",85.118484,172.54834
"1125",84.73762,172.5617
"1126",84.39582,172.57501
"1127",84.14191,172.58838
"1128",83.9881,172.60168
"1129",83.91974,172.61505
"1130",83.90021,172.62836
"1131",83.88068,172.64172
"1132",83.807434,172.65503
"1133",83.64141,172.6684
"1134",83.3753,172.6817
"1135",83.03105,172.69507
"1136",82.6453,172.70837
"1137",82.266884,172.72174
"1138",81.9202,172.73505
"1139",81.6321,172.74841
"1140",81.392845,172.76172
"1141",81.19264,172.77509
"1142",81.007095,172.78839
"1143",80.81911,172.80176
"1144",80.61646,172.81506
"1145",80.38941,172.82843
"1146",80.13306,172.84174
"1147",79.85718,172.8551
"1148",79.569084,172.86841
"1149",79.273674,172.88177
"1150",78.98558,172.89508
"1151",78.71702,172.90845
"1152",78.47532,172.92175
"1153",78.27024,172.93512
"1154",78.101776,172.94843
"1155",77.9675,172.96179
"1156",77.86496,172.9751
"1157",77.78439,172.98846
"1158",77.71847,173.00177
"1159",77.64767,173.01514
"1160",77.5671,173.02844
"1161",77.467,173.04181
"1162",77.347374,173.05511
"1163",77.21553,173.06848
"1164",77.08125,173.08179
"1165",76.95674,173.09515
"1166",76.83467,173.10846
"1167",76.72968,173.12183
"1168",76.63691,173.13513
"1169",76.5539,173.1485
"1170",76.473335,173.1618
"1171",76.39765,173.17517
"1172",76.32197,173.18848
"1173",76.23895,173.20184
"1174",76.14862,173.21515
"1175",76.06561,173.22852
"1176",76.016785,173.24182
"1177",76.102234,173.25519
"1178",76.46845,173.2685
"1179",77.2375,173.28186
"1180",78.44114,173.29517
"1181",79.97681,173.30853
"1182",81.64431,173.32184
"1183",83.177536,173.3352
"1184",84.351875,173.34851
"1185",85.06233,173.36188
"1186",85.33578,173.37518
"1187",85.26986,173.38855
"1188",84.998856,173.40186
"1189",84.6424,173.41522
"1190",84.29328,173.42853
"1191",84.01984,173.4419
"1192",83.8465,173.4552
"1193",83.76105,173.46857
"1194",83.73174,173.48187
"1195",83.71221,173.49524
"1196",83.648735,173.50854
"1197",83.50713,173.52191
"1198",83.267876,173.53522
"1199",82.950485,173.54858
"1200",82.58427,173.56189
"1201",82.21561,173.57526
"1202",81.87625,173.58856
"1203",81.58816,173.60193
"1204",81.34402,173.61523
"1205",81.14137,173.6286
"1206",80.96315,173.6419
"1207",80.79225,173.65527
"1208",80.61646,173.66858
"1209",80.42359,173.68195
"1210",80.2063,173.69525
"1211",79.957275,173.70862
"1212",79.68627,173.72192
"1213",79.40063,173.73529
"1214",79.11253,173.7486
"1215",78.84642,173.76196
"1216",78.60471,173.77527
"1217",78.399635,173.78864
"1218",78.22873,173.80194
"1219",78.08713,173.8153
"1220",77.97238,173.82861
"1221",77.872284,173.84198
"1222",77.77951,173.85529
"1223",77.68917,173.86865
"1224",77.591515,173.88196
"1225",77.48409,173.89532
"1226",77.36446,173.90863
"1227",77.23506,173.922
"1228",77.09346,173.9353
"1229",76.94942,173.94867
"1230",76.8127,173.96198
"1231",76.68574,173.97534
"1232",76.56855,173.98865
"1233",76.46357,174.00201
"1234",76.368355,174.01532
"1235",76.27802,174.02869
"1236",76.192566,174.04199
"1237",76.102234,174.05536
"1238",76.00702,174.06866
"1239",75.90936,174.08203
"1240",75.841,174.09534
"1241",75.894714,174.1087
"1242",76.21942,174.12201
"1243",76.944534,174.13538
"1244",78.10666,174.14868
"1245",79.62035,174.16205
"1246",81.28054,174.17535
"1247",82.83574,174.18872
"1248",84.04913,174.20203
"1249",84.81087,174.2154
"1250",85.13313,174.2287
"1251",85.1136,174.24207
"1252",84.8719,174.25537
"1253",84.53254,174.26874
"1254",84.18585,174.28204
"1255",83.895325,174.29541
"1256",83.69756,174.30872
"1257",83.59258,174.32208
"1258",83.54864,174.33539
"1259",83.52178,174.34875
"1260",83.46319,174.36206
"1261",83.32891,174.37543
"1262",83.106735,174.38873
"1263",82.80644,174.4021
"1264",82.4622,174.4154
"1265",82.108185,174.42877
"1266",81.78104,174.44208
"1267",81.497826,174.45544
"1268",81.25613,174.46875
"1269",81.05104,174.48212
"1270",80.87038,174.49542
"1271",80.69215,174.50879
"1272",80.50416,174.5221
"1273",80.291756,174.53546
"1274",80.05249,174.54877
"1275",79.77905,174.56213
"1276",79.48608,174.57544
"1277",79.183334,174.5888
"1278",78.88548,174.60211
"1279",78.60471,174.61548
"1280",78.35569,174.62878
"1281",78.14572,174.64215
"1282",77.97482,174.65546
"1283",77.838104,174.66882
"1284",77.72823,174.68213
"1285",77.6379,174.6955
"1286",77.55489,174.7088
"1287",77.469444,174.72217
"1288",77.38155,174.73547
"1289",77.28878,174.74884
"1290",77.18623,174.76215
"1291",77.07637,174.77551
"1292",76.95674,174.78882
"1293",76.83467,174.80219
"1294",76.71015,174.81549
"1295",76.59785,174.82886
"1296",76.490425,174.84216
"1297",76.39277,174.85553
"1298",76.297554,174.86884
"1299",76.20233,174.8822
"1300",76.09491,174.89551
"1301",75.97528,174.90887
"1302",75.85565,174.92218
"1303",75.772644,174.93555
"1304",75.826355,174.94885
"1305",76.16327,174.96222
"1306",76.92012,174.97552
"1307",78.12619,174.98889
"1308",79.676506,175.0022
"1309",81.36111,175.01556
"1310",82.913864,175.02887
"1311",84.102844,175.04224
"1312",84.823074,175.05554
"1313",85.09651,175.06891
"1314",85.03548,175.08221
"1315",84.7596,175.09558
"1316",84.3885,175.10889
"1317",84.02472,175.12225
"1318",83.7293,175.13556
"1319",83.52422,175.14893
"1320",83.4168,175.16223
"1321",83.370415,175.1756
"1322",83.33379,175.1889
"1323",83.25323,175.20227
"1324",83.09209,175.21558
"1325",82.83574,175.22894
"1326",82.513466,175.24225
"1327",82.159454,175.25562
"1328",81.812775,175.26892
"1329",81.512474,175.28229
"1330",81.26589,175.2956
"1331",81.06569,175.30896
"1332",80.89235,175.32227
"1333",80.723885,175.33563
"1334",80.550545,175.34894
"1335",80.35523,175.3623
"1336",80.13306,175.37561
"1337",79.886475,175.38898
"1338",79.61547,175.40228
"1339",79.3225,175.41565
"1340",79.01976,175.42896
"1341",78.71702,175.44232
"1342",78.4387,175.45563
"1343",78.19211,175.469
"1344",77.98947,175.4823
"1345",77.83078,175.49567
"1346",77.713585,175.50897
"1347",77.62081,175.52234
"1348",77.54513,175.53564
"1349",77.47433,175.54901
"1350",77.40597,175.56232
"1351",77.32784,175.57568
"1352",77.2375,175.58899
"1353",77.13008,175.60236
"1354",77.00801,175.61566
"1355",76.87129,175.62903
"1356",76.732124,175.64233
"1357",76.60029,175.6557
"1358",76.48066,175.669
"1359",76.368355,175.68237
"1360",76.265816,175.69568
"1361",76.17059,175.70905
"1362",76.06561,175.72235
"1363",75.95087,175.73572
"1364",75.83124,175.74902
"1365",75.72381,175.76239
"1366",75.69207,175.7757
"1367",75.88251,175.78906
"1368",76.44892,175.80237
"1369",77.49874,175.81573
"1370",78.98802,175.82904
"1371",80.743416,175.8424
"1372",82.496376,175.85571
"1373",83.97101,175.86908
"1374",84.97688,175.88239
"1375",85.4847,175.89575
"1376",85.56771,175.90906
"1377",85.367516,175.92242
"1378",85.00618,175.93573
"1379",84.60334,175.9491
"1380",84.23468,175.9624
"1381",83.95392,175.97577
"1382",83.77814,175.98907
"1383",83.69024,176.00244
"1384",83.65118,176.01575
"1385",83.597466,176.02911
"1386",83.48028,176.04242
"1387",83.2752,176.05579
"1388",82.984665,176.06909
"1389",82.63798,176.08246
"1390",82.27665,176.09576
"1391",81.94461,176.10913
"1392",81.65896,176.12244
"1393",81.427025,176.1358
"1394",81.22682,176.14911
"1395",81.05348,176.16248
"1396",80.88014,176.17578
"1397",80.69215,176.18915
"1398",80.46998,176.20245
"1399",80.216064,176.21582
"1400",79.93042,176.22913
"1401",79.622795,176.2425
"1402",79.30541,176.2558
"1403",78.99046,176.26917
"1404",78.69749,176.28247
"1405",78.4387,176.29584
"1406",78.221405,176.30914
"1407",78.048065,176.32251
"1408",77.91867,176.33582
"1409",77.821014,176.34918
"1410",77.74532,176.36249
"1411",77.68185,176.37585
"1412",77.625694,176.38916
"1413",77.56222,176.40253
"1414",77.48165,176.41583
"1415",77.37911,176.4292
"1416",77.25704,176.4425
"1417",77.117874,176.45587
"1418",76.97383,176.46918
"1419",76.82735,176.48254
"1420",76.68574,176.49585
"1421",76.544136,176.50922
"1422",76.404976,176.52252
"1423",76.25605,176.53589
"1424",76.09979,176.5492
"1425",75.93622,176.56256
"1426",75.78729,176.57587
"1427",75.71404,176.58923
"1428",75.85321,176.60254
"1429",76.368355,176.6159
"1430",77.366905,176.62921
"1431",78.819565,176.64258
"1432",80.570076,176.65588
"1433",82.34501,176.66925
"1434",83.86847,176.68256
"1435",84.93782,176.69592
"1436",85.49691,176.70923
"1437",85.6141,176.7226
"1438",85.41634,176.7359
"1439",85.04036,176.74927
"1440",84.6009,176.76257
"1441",84.19806,176.77594
"1442",83.88312,176.78925
"1443",83.682915,176.80261
"1444",83.577934,176.81592
"1445",83.526665,176.82928
"1446",83.47051,176.84259
"1447",83.35577,176.85596
"1448",83.158005,176.86926
"1449",82.879684,176.88263
"1450",82.545204,176.89594
"1451",82.19852,176.9093
"1452",81.87625,176.9226
"1453",81.59548,176.93597
"1454",81.36355,176.94928
"1455",81.17555,176.96265
"1456",81.00954,176.97595
"1457",80.848404,176.98932
"1458",80.67506,177.00262
"1459",80.46754,177.01599
"1460",80.22339,177.0293
"1461",79.94263,177.04266
"1462",79.635,177.05597
"1463",79.31274,177.06934
"1464",78.995346,177.08264
"1465",78.69749,177.09601
"1466",78.44114,177.10931
"1467",78.22873,177.12268
"1468",78.065155,177.13599
"1469",77.943085,177.14935
"1470",77.85275,177.16266
"1471",77.77951,177.17603
"1472",77.713585,177.18933
"1473",77.63546,177.2027
"1474",77.54757,177.216
"1475",77.44747,177.22937
"1476",77.330284,177.24268
"1477",77.20332,177.25604
"1478",77.066605,177.26935
"1479",76.927444,177.28271
"1480",76.7834,177.29602
"1481",76.63447,177.30939
"1482",76.48066,177.3227
"1483",76.317085,177.33606
"1484",76.138855,177.34937
"1485",75.95087,177.36273
"1486",75.809265,177.37604
"1487",75.8288,177.3894
"1488",76.175476,177.40271
"1489",76.97383,177.41608
"1490",78.238495,177.42938
"1491",79.83765,177.44275
"1492",81.53933,177.45605
"1493",83.05791,177.46942
"1494",84.1712,177.48273
"1495",84.788895,177.4961
"1496",84.95979,177.5094
"1497",84.79866,177.52277
"1498",84.44221,177.53607
"1499",84.00519,177.54944
"1500",83.58282,177.56274
"1501",83.23125,177.57611
"1502",82.98222,177.58942
"1503",82.83574,177.60278
"1504",82.75273,177.61609
"1505",82.68192,177.62946
"1506",82.5745,177.64276
"1507",82.40116,177.65613
"1508",82.16678,177.66943
"1509",81.898224,177.6828
"1510",81.634544,177.6961
"1511",81.40749,177.70947
"1512",81.231705,177.72278
"1513",81.094986,177.73615
"1514",80.9778,177.74945
"1515",80.86305,177.76282
"1516",80.73121,177.77612
"1517",80.56275,177.78949
"1518",80.35035,177.8028
"1519",80.093994,177.81616
"1520",79.80347,177.82947
"1521",79.48852,177.84283
"1522",79.15892,177.85614
"1523",78.839096,177.8695
"1524",78.54856,177.88281
"1525",78.2971,177.89618
"1526",78.099335,177.90948
"1527",77.960175,177.92285
"1528",77.87961,177.93616
"1529",77.838104,177.94952
"1530",77.81857,177.96283
"1531",77.80148,177.9762
"1532",77.77219,177.9895
"1533",77.72335,178.00287
"1534",77.65011,178.01617
"1535",77.55245,178.02954
"1536",77.437706,178.04285
"1537",77.30587,178.05621
"1538",77.15694,178.06952
"1539",76.978714,178.08289
"1540",76.7834,178.09619
"1541",76.60273,178.10956
"1542",76.52949,178.12286
"1543",76.71259,178.13623
"1544",77.28634,178.14954
"1545",78.29954,178.1629
"1546",79.6643,178.17621
"1547",81.19264,178.18958
"1548",82.62089,178.20288
"1549",83.72686,178.21625
"1550",84.3885,178.22955
"1551",84.61799,178.24292
"1552",84.508125,178.25623
"1553",84.17609,178.26959
"1554",83.74395,178.2829
"1555",83.302055,178.29626
"1556",82.92363,178.30957
"1557",82.64042,178.32294
"1558",82.45731,178.33624
"1559",82.34501,178.34961
"1560",82.24979,178.36292
"1561",82.12039,178.37628
"1562",81.934845,178.38959
"1563",81.69802,178.40295
"1564",81.43435,178.41626
"1565",81.18532,178.42963
"1566",80.972916,178.44293
"1567",80.80202,178.4563
"1568",80.66773,178.4696
"1569",80.55787,178.48297
"1570",80.445564,178.49628
"1571",80.325935,178.50964
"1572",80.17456,178.52295
"1573",79.974365,178.53632
"1574",79.73022,178.54962
"1575",79.447014,178.56299
"1576",79.13695,178.5763
"1577",78.81712,178.58966
"1578",78.5095,178.60297
"1579",78.22629,178.61633
"1580",77.979706,178.62964
"1581",77.78195,178.643
"1582",77.6379,178.65631
"1583",77.54757,178.66968
"1584",77.488976,178.68298
"1585",77.452354,178.69635
"1586",77.42306,178.70966
"1587",77.383995,178.72302
"1588",77.330284,178.73633
"1589",77.261925,178.7497
"1590",77.17647,178.763
"1591",77.07637,178.77637
"1592",76.95674,178.78967
"1593",76.824905,178.80304
"1594",76.6833,178.81635
"1595",76.52705,178.82971
"1596",76.35859,178.84302
"1597",76.20477,178.85638
"1598",76.13397,178.86969
"1599",76.29023,178.88306
"1600",76.841995,178.89636
"1601",77.872284,178.90973
"1602",79.33471,178.92303
"1603",81.0486,178.9364
"1604",82.738075,178.9497
"1605",84.13214,178.96307
"1606",85.05745,178.97638
"1607",85.49447,178.98975
"1608",85.521324,179.00305
"1609",85.2723,179.01642
"1610",84.8719,179.02972
"1611",84.44221,179.04309
"1612",84.05646,179.0564
"1613",83.76349,179.06976
"1614",83.58282,179.08307
"1615",83.492485,179.09644
"1616",83.4461,179.10974
"1617",83.387505,179.12311
"1618",83.265434,179.13641
"1619",83.04814,179.14978
"1620",82.74784,179.16309
"1621",82.39384,179.17645
"1622",82.022736,179.18976
"1623",81.67361,179.20312
"1624",81.37087,179.21643
"1625",81.1194,179.2298
"1626",80.91188,179.2431
"1627",80.73609,179.25647
"1628",80.57496,179.26978
"1629",80.40406,179.28314
"1630",80.20386,179.29645
"1631",79.974365,179.30981
"1632",79.7058,179.32312
"1633",79.412834,179.33649
"1634",79.10521,179.3498
"1635",78.802475,179.36316
"1636",78.5095,179.37646
"1637",78.24826,179.38983
"1638",78.028534,179.40314
"1639",77.855194,179.4165
"1640",77.71847,179.42981
"1641",77.61837,179.44318
"1642",77.53536,179.45648
"1643",77.467,179.46985
"1644",77.39132,179.48315
"1645",77.30587,179.49652
"1646",77.208206,179.50983
"1647",77.0959,179.5232
"1648",76.96651,179.5365
"1649",76.83467,179.54987
"1650",76.70527,179.56317
"1651",76.58564,179.57654
"1652",76.473335,179.58984
"1653",76.36347,179.60321
"1654",76.25117,179.61652
"1655",76.12665,179.62988
"1656",75.98993,179.64319
"1657",75.87274,179.65656
"1658",75.85077,179.66986
"1659",76.08026,179.68323
"1660",76.72236,179.69653
"1661",77.84787,179.7099
"1662",79.38842,179.7232
"1663",81.15114,179.73657
"1664",82.85039,179.74988
"1665",84.22003,179.76324
"1666",85.09895,179.77655
"1667",85.4847,179.78992
"1668",85.47738,179.80322
"1669",85.2137,179.81659
"1670",84.823074,179.8299
"1671",84.420235,179.84326
"1672",84.068665,179.85657
"1673",83.81964,179.86993
"1674",83.67315,179.88324
"1675",83.60723,179.8966
"1676",83.57061,179.90991
"1677",83.51202,179.92328
"1678",83.38018,179.93658
"1679",83.15556,179.94995
"1680",82.84062,179.96326
"1681",82.46464,179.97662
"1682",82.06912,179.98993
"1683",81.6907,180.0033
"1684",81.358665,180.0166
"1685",81.077896,180.02997
"1686",80.84352,180.04327
"1687",80.65064,180.05664
"1688",80.47242,180.06995
"1689",80.29664,180.08331
"1690",80.10376,180.09662
"1691",79.888916,180.10999
"1692",79.64233,180.12329
"1693",79.36889,180.13666
"1694",79.07347,180.14996
"1695",78.77318,180.16333
"1696",78.48264,180.17664
"1697",78.21164,180.19
"1698",77.977264,180.20331
"1699",77.78439,180.21667
"1700",77.628136,180.22998
"1701",77.50851,180.24335
"1702",77.40841,180.25665
"1703",77.3254,180.27002
"1704",77.242386,180.28333
"1705",77.154495,180.29669
"1706",77.05928,180.31
"1707",76.9543,180.32336
"1708",76.84688,180.33667
"1709",76.734566,180.35004
"1710",76.612495,180.36334
"1711",76.490425,180.37671
"1712",76.36591,180.39001
"1713",76.243835,180.40338
"1714",76.13153,180.41669
"1715",76.03143,180.43005
"1716",75.93622,180.44336
"1717",75.841,180.45673
"1718",75.7409,180.47003
"1719",75.63592,180.4834
"1720",75.528496,180.4967
"1721",75.43572,180.51007
"1722",75.43572,180.52338
"1723",75.67254,180.53674
"1724",76.32929,180.55005
"1725",77.50118,180.56342
"1726",79.132065,180.57672
"1727",81.01686,180.59009
"1728",82.862595,180.6034
"1729",84.36164,180.61676
"1730",85.333336,180.63007
"1731",85.76547,180.64343
"1732",85.770355,180.65674
"1733",85.49447,180.6701
"1734",85.084305,180.68341
"1735",84.64973,180.69678
"1736",84.266426,180.71008
"1737",83.97345,180.72345
"1738",83.78058,180.73676
"1739",83.67071,180.75012
"1740",83.60235,180.76343
"1741",83.526665,180.7768
"1742",83.404594,180.7901
"1743",83.20195,180.80347
"1744",82.913864,180.81677
"1745",82.55741,180.83014
"1746",82.1741,180.84344
"1747",81.795685,180.85681
"1748",81.45388,180.87012
"1749",81.160904,180.88348
"1750",80.91432,180.89679
"1751",80.70435,180.91016
"1752",80.51392,180.92346
"1753",80.33082,180.93683
"1754",80.14038,180.95013
"1755",79.9353,180.9635
"1756",79.71313,180.9768
"1757",79.46899,180.99017
"1758",79.19798,181.00348
"1759",78.91966,181.01685
"1760",78.63889,181.03015
"1761",78.380104,181.04352
"1762",78.150604,181.05682
"1763",77.95773,181.07019
"1764",77.803925,181.0835
"1765",77.68673,181.09686
"1766",77.58907,181.11017
"1767",77.51339,181.12354
"1768",77.44991,181.13684
"1769",77.383995,181.1502
"1770",77.313194,181.16351
"1771",77.22774,181.17688
"1772",77.13008,181.19019
"1773",77.01778,181.20355
"1774",76.90059,181.21686
"1775",76.77852,181.23022
"1776",76.66132,181.24353
"1777",76.541695,181.2569
"1778",76.42939,181.2702
"1779",76.31953,181.28357
"1780",76.22186,181.29688
"1781",76.13153,181.31024
"1782",76.03876,181.32355
"1783",75.945984,181.33691
"1784",75.84833,181.35022
"1785",75.74822,181.36359
"1786",75.68719,181.37689
"1787",75.78241,181.39026
"1788",76.20477,181.40356
"1789",77.0959,181.41693
"1790",78.48997,181.43024
"1791",80.257576,181.4436
"1792",82.142365,181.45691
"1793",83.83429,181.47028
"1794",85.07698,181.48358
"1795",85.76303,181.49695
"1796",85.94858,181.51025
"1797",85.76547,181.52362
"1798",85.367516,181.53693
"1799",84.89143,181.5503
"1800",84.44221,181.5636
"1801",84.07843,181.57697
"1802",83.83429,181.59027
"1803",83.69512,181.60364
"1804",83.62432,181.61694
"1805",83.56817,181.63031
"1806",83.46563,181.64362
"1807",83.28008,181.65698
"1808",83.001755,181.67029
"1809",82.65507,181.68365
"1810",82.27909,181.69696
"1811",81.91287,181.71033
"1812",81.5906,181.72363
"1813",81.322044,181.737
"1814",81.09743,181.7503
"1815",80.902115,181.76367
"1816",80.71412,181.77698
"1817",80.52369,181.79034
"1818",80.31373,181.80365
"1819",80.07446,181.81702
"1820",79.798584,181.83032
"1821",79.49828,181.84369
"1822",79.17601,181.857
"1823",78.8513,181.87036
"1824",78.536354,181.88367
"1825",78.25315,181.89703
"1826",78.009,181.91034
"1827",77.80881,181.9237
"1828",77.65499,181.93701
"1829",77.54269,181.95038
"1830",77.46456,181.96368
"1831",77.40353,181.97705
"1832",77.349815,181.99036
"1833",77.29366,182.00372
"1834",77.22774,182.01703
"1835",77.14473,182.0304
"1836",77.049515,182.0437
"1837",76.93721,182.05707
"1838",76.81514,182.07037
"1839",76.68818,182.08374
"1840",76.55634,182.09705
"1841",76.419624,182.11041
"1842",76.282906,182.12372
"1843",76.14862,182.13708
"1844",76.02167,182.15039
"1845",75.90204,182.16376
"1846",75.79462,182.17706
"1847",75.701836,182.19043
"1848",75.6115,182.20374
"1849",75.51873,182.2171
"1850",75.43328,182.23041
"1851",75.40154,182.24377
"1852",75.54803,182.25708
"1853",76.070496,182.27045
"1854",77.13008,182.28375
"1855",78.74143,182.29712
"1856",80.74586,182.31042
"1857",82.847946,182.32379
"1858",84.70344,182.3371
"1859",86.03891,182.35046
"1860",86.75426,182.36377
"1861",86.93004,182.37714
"1862",86.71763,182.39044
"1863",86.278175,182.40381
"1864",85.74349,182.41711
"1865",85.206375,182.43048
"1866",84.732735,182.44379
"1867",84.351875,182.45715
"1868",84.071106,182.47046
"1869",83.86603,182.48383
"1870",83.69512,182.49713
"1871",83.51202,182.5105
"1872",83.27764,182.5238
"1873",82.98222,182.53717
"1874",82.63554,182.55048
"1875",82.27421,182.56384
"1876",81.92508,182.57715
"1877",81.61501,182.59052
"1878",81.35134,182.60382
"1879",81.13405,182.61719
"1880",80.94606,182.6305
"1881",80.77516,182.64386
"1882",80.59937,182.65717
"1883",80.4065,182.67053
"1884",80.184326,182.68384
"1885",79.93286,182.6972
"1886",79.656975,182.71051
"1887",79.364006,182.72388
"1888",79.06615,182.73718
"1889",78.77074,182.75055
"1890",78.487526,182.76385
"1891",78.24094,182.77722
"1892",78.03342,182.79053
"1893",77.874725,182.8039
"1894",77.76242,182.8172
"1895",77.68673,182.83057
"1896",77.6379,182.84387
"1897",77.59884,182.85724
"1898",77.557335,182.87054
"1899",77.503624,182.88391
"1900",77.43038,182.89722
"1901",77.33517,182.91058
"1902",77.22041,182.92389
"1903",77.0959,182.93726
"1904",76.961624,182.95056
"1905",76.82002,182.96393
"1906",76.663765,182.97723
"1907",76.49531,182.9906
"1908",76.30488,183.0039
"1909",76.087585,183.01727
"1910",75.85565,183.03058
"1911",75.66033,183.04395
"1912",75.62615,183.05725
"1913",75.9411,183.07062
"1914",76.771194,183.08392
"1915",78.150604,183.09729
"1916",79.94995,183.1106
"1917",81.8909,183.12396
"1918",83.64629,183.13727
"1919",84.93538,183.15063
"1920",85.63119,183.16394
"1921",85.79233,183.1773
"1922",85.557945,183.19061
"1923",85.08675,183.20398
"1924",84.52033,183.21729
"1925",83.963684,183.23065
"1926",83.48028,183.24396
"1927",83.106735,183.25732
"1928",82.83818,183.27063
"1929",82.650185,183.284
"1930",82.49882,183.2973
"1931",82.340126,183.31067
"1932",82.15213,183.32397
"1933",81.92996,183.33734
"1934",81.70046,183.35065
"1935",81.480736,183.36401
"1936",81.29763,183.37732
"1937",81.15114,183.39069
"1938",81.04372,183.40399
"1939",80.955826,183.41736
"1940",80.86305,183.43066
"1941",80.74586,183.44403
"1942",80.59205,183.45734
"1943",80.38697,183.4707
"1944",80.12085,183.48401
"1945",79.80347,183.49738
"1946",79.4519,183.51068
"1947",79.07103,183.52405
"1948",78.68528,183.53735
"1949",78.314186,183.55072
"1950",77.98947,183.56403
"1951",77.71603,183.5774
"1952",77.50851,183.5907
"1953",77.366905,183.60406
"1954",77.281456,183.61737
"1955",77.23018,183.63074
"1956",77.205765,183.64404
"1957",77.188675,183.65741
"1958",77.1667,183.67072
"1959",77.134964,183.68408
"1960",77.09102,183.69739
"1961",77.02998,183.71075
"1962",76.944534,183.72406
"1963",76.83467,183.73743
"1964",76.69306,183.75073
"1965",76.52216,183.7641
"1966",76.32685,183.7774
"1967",76.16327,183.79077
"1968",76.14618,183.80408
"1969",76.46845,183.81744
"1970",77.29122,183.83075
"1971",78.658424,183.84412
"1972",80.4358,183.85742
"1973",82.35966,183.87079
"1974",84.102844,183.8841
"1975",85.38705,183.89746
"1976",86.09262,183.91077
"1977",86.26597,183.92413
"1978",86.048676,183.93744
"1979",85.592125,183.9508
"1980",85.02327,183.96411
"1981",84.44709,183.97748
"1982",83.931946,183.99078
"1983",83.51202,184.00415
"1984",83.192184,184.01746
"1985",82.95537,184.03082
"1986",82.760056,184.04413
"1987",82.56962,184.0575
"1988",82.357216,184.0708
"1989",82.125275,184.08417
"1990",81.883575,184.09747
"1991",81.6614,184.11084
"1992",81.47097,184.12415
"1993",81.31716,184.13751
"1994",81.1902,184.15082
"1995",81.077896,184.16418
"1996",80.95827,184.17749
"1997",80.816666,184.19086
"1998",80.64576,184.20416
"1999",80.428474,184.21753
"2000",80.164795,184.23083
"2001",79.85474,184.2442
"2002",79.51293,184.2575
"2003",79.149155,184.27087
"2004",78.785385,184.28418
"2005",78.4387,184.29755
"2006",78.13107,184.31085
"2007",77.87717,184.32422
"2008",77.68185,184.33752
"2009",77.54513,184.35089
"2010",77.45724,184.3642
"2011",77.40841,184.37756
"2012",77.37423,184.39087
"2013",77.34249,184.40424
"2014",77.30343,184.41754
"2015",77.24971,184.43091
"2016",77.17891,184.44421
"2017",77.086136,184.45758
"2018",76.964066,184.47089
"2019",76.81758,184.48425
"2020",76.63935,184.49756
"2021",76.439156,184.51093
"2022",76.243835,184.52423
"2023",76.13153,184.5376
"2024",76.26093,184.5509
"2025",76.824905,184.56427
"2026",77.9382,184.57758
"2027",79.551994,184.59094
"2028",81.45876,184.60425
"2029",83.36065,184.61761
"2030",84.94026,184.63092
"2031",85.997406,184.64429
"2032",86.50767,184.6576
"2033",86.56382,184.67096
"2034",86.3148,184.68427
"2035",85.89487,184.69763
"2036",85.418785,184.71094
"2037",84.972,184.7243
"2038",84.60578,184.73761
"2039",84.349434,184.75098
"2040",84.18829,184.76428
"2041",84.09064,184.77765
"2042",83.99542,184.79095
"2043",83.8587,184.80432
"2044",83.64385,184.81763
"2045",83.34844,184.831
"2046",82.99443,184.8443
"2047",82.62333,184.85767
"2048",82.266884,184.87097
"2049",81.95438,184.88434
"2050",81.69314,184.89764
"2051",81.478294,184.91101
"2052",81.287865,184.92432
"2053",81.10475,184.93768
"2054",80.90944,184.95099
"2055",80.68482,184.96436
"2056",80.430916,184.97766
"2057",80.14282,184.99103
"2058",79.82788,185.00433
"2059",79.50317,185.0177
"2060",79.17357,185.031
"2061",78.856186,185.04437
"2062",78.57053,185.05768
"2063",78.328835,185.07104
"2064",78.133514,185.08435
"2065",77.98215,185.09772
"2066",77.8674,185.11102
"2067",77.77951,185.12439
"2068",77.70138,185.1377
"2069",77.63058,185.15106
"2070",77.55001,185.16437
"2071",77.45724,185.17773
"2072",77.35714,185.19104
"2073",77.242386,185.2044
"2074",77.117874,185.21771
"2075",76.98848,185.23108
"2076",76.85176,185.24438
"2077",76.70771,185.25775
"2078",76.55146,185.27106
"2079",76.387886,185.28442
"2080",76.23895,185.29773
"2081",76.175476,185.3111
"2082",76.34394,185.3244
"2083",76.910355,185.33777
"2084",77.962616,185.35107
"2085",79.4519,185.36444
"2086",81.20241,185.37775
"2087",82.93828,185.39111
"2088",84.38361,185.40442
"2089",85.35531,185.41779
"2090",85.82895,185.43109
"2091",85.89487,185.44446
"2092",85.6849,185.45776
"2093",85.32357,185.47113
"2094",84.92561,185.48444
"2095",84.56672,185.4978
"2096",84.28596,185.51111
"2097",84.1004,185.52448
"2098",83.99542,185.53778
"2099",83.929504,185.55115
"2100",83.84894,185.56445
"2101",83.70733,185.57782
"2102",83.47784,185.59113
"2103",83.16533,185.60449
"2104",82.78935,185.6178
"2105",82.39872,185.63116
"2106",82.03494,185.64447
"2107",81.71023,185.65784
"2108",81.43679,185.67114
"2109",81.20973,185.68451
"2110",81.01198,185.69781
"2111",80.82155,185.71118
"2112",80.621346,185.72449
"2113",80.40162,185.73785
"2114",80.15991,185.75116
"2115",79.89136,185.76453
"2116",79.603264,185.77783
"2117",79.30297,185.7912
"2118",79.00023,185.8045
"2119",78.69993,185.81787
"2120",78.42405,185.83118
"2121",78.17746,185.84454
"2122",77.96994,185.85785
"2123",77.79904,185.87122
"2124",77.659874,185.88452
"2125",77.54757,185.89789
"2126",77.44991,185.9112
"2127",77.35714,185.92456
"2128",77.261925,185.93787
"2129",77.16182,185.95123
"2130",77.051956,185.96454
"2131",76.93233,185.9779
"2132",76.805374,185.99121
"2133",76.67109,186.00458
"2134",76.52949,186.01788
"2135",76.387886,186.03125
"2136",76.24872,186.04456
"2137",76.11688,186.05792
"2138",75.99237,186.07123
"2139",75.8703,186.0846
"2140",75.75067,186.0979
"2141",75.62371,186.11127
"2142",75.508965,186.12457
"2143",75.47234,186.13794
"2144",75.65789,186.15125
"2145",76.23651,186.16461
"2146",77.31808,186.17792
"2147",78.853745,186.19128
"2148",80.67017,186.20459
"2149",82.48661,186.21796
"2150",84.017395,186.23126
"2151",85.0721,186.24463
"2152",85.6141,186.25793
"2153",85.731285,186.2713
"2154",85.55306,186.2846
"2155",85.2137,186.29797
"2156",84.825516,186.31128
"2157",84.471504,186.32465
"2158",84.2005,186.33795
"2159",84.02716,186.35132
"2160",83.92706,186.36462
"2161",83.86603,186.37799
"2162",83.79523,186.3913
"2163",83.66827,186.40466
"2164",83.46319,186.41797
"2165",83.17998,186.43134
"2166",82.8333,186.44464
"2167",82.4622,186.45801
"2168",82.10086,186.47131
"2169",81.77371,186.48468
"2170",81.497826,186.49799
"2171",81.26589,186.51135
"2172",81.058365,186.52466
"2173",80.867935,186.53802
"2174",80.67506,186.55133
"2175",80.462654,186.5647
"2176",80.233154,186.578
"2177",79.97925,186.59137
"2178",79.69604,186.60468
"2179",79.39086,186.61804
"2180",79.078354,186.63135
"2181",78.765854,186.64471
"2182",78.470436,186.65802
"2183",78.204315,186.67139
"2184",77.98215,186.6847
"2185",77.79904,186.69806
"2186",77.65011,186.71136
"2187",77.53292,186.72473
"2188",77.437706,186.73804
"2189",77.347374,186.7514
"2190",77.25948,186.76471
"2191",77.1667,186.77808
"2192",77.06416,186.79138
"2193",76.95186,186.80475
"2194",76.82979,186.81805
"2195",76.70283,186.83142
"2196",76.58076,186.84473
"2197",76.470894,186.8581
"2198",76.37324,186.8714
"2199",76.29023,186.88477
"2200",76.207214,186.89807
"2201",76.121765,186.91144
"2202",76.02167,186.92474
"2203",75.90692,186.93811
"2204",75.78485,186.95142
"2205",75.682304,186.96478
"2206",75.67986,186.97809
"2207",75.92401,186.99146
"2208",76.57099,187.00476
"2209",77.69405,187.01813
"2210",79.22728,187.03143
"2211",80.98024,187.0448
"2212",82.67704,187.0581
"2213",84.0589,187.07147
"2214",84.96712,187.08478
"2215",85.39437,187.09814
"2216",85.43343,187.11145
"2217",85.21614,187.12482
"2218",84.8719,187.13812
"2219",84.50324,187.15149
"2220",84.18097,187.1648
"2221",83.946594,187.17816
"2222",83.809875,187.19147
"2223",83.74151,187.20483
"2224",83.700005,187.21814
"2225",83.63409,187.2315
"2226",83.49737,187.24481
"2227",83.27764,187.25818
"2228",82.9749,187.27148
"2229",82.62577,187.28485
"2230",82.266884,187.29816
"2231",81.93729,187.31152
"2232",81.64919,187.32483
"2233",81.40261,187.3382
"2234",81.18776,187.3515
"2235",80.987564,187.36487
"2236",80.78493,187.37817
"2237",80.57252,187.39154
"2238",80.34058,187.40485
"2239",80.076904,187.41821
"2240",79.78882,187.43152
"2241",79.47875,187.44489
"2242",79.15648,187.45819
"2243",78.839096,187.47156
"2244",78.54124,187.48486
"2245",78.27268,187.49823
"2246",78.048065,187.51154
"2247",77.86984,187.5249
"2248",77.74044,187.53821
"2249",77.645226,187.55157
"2250",77.57931,187.56488
"2251",77.52071,187.57825
"2252",77.45968,187.59155
"2253",77.38888,187.60492
"2254",77.298546,187.61823
"2255",77.196,187.63159
"2256",77.083694,187.6449
"2257",76.964066,187.65826
"2258",76.839554,187.67157
"2259",76.715034,187.68494
"2260",76.595406,187.69824
"2261",76.4831,187.71161
"2262",76.3708,187.72491
"2263",76.25849,187.73828
"2264",76.14374,187.75159
"2265",76.02411,187.76495
"2266",75.88983,187.77826
"2267",75.75067,187.79163
"2268",75.63348,187.80493
"2269",75.60662,187.8183
"2270",75.82391,187.8316
"2271",76.4416,187.84497
"2272",77.540245,187.85828
"2273",79.061264,187.87164
"2274",80.816666,187.88495
"2275",82.53544,187.89832
"2276",83.946594,187.91162
"2277",84.89632,187.92499
"2278",85.36019,187.9383
"2279",85.43343,187.95166
"2280",85.240555,187.96497
"2281",84.9012,187.97833
"2282",84.52033,187.99164
"2283",84.17853,188.005
"2284",83.92706,188.01831
"2285",83.773254,188.03168
"2286",83.702446,188.04498
"2287",83.665825,188.05835
"2288",83.60723,188.07166
"2289",83.48028,188.08502
"2290",83.26299,188.09833
"2291",82.97002,188.1117
"2292",82.62821,188.125
"2293",82.27909,188.13837
"2294",81.95682,188.15167
"2295",81.67849,188.16504
"2296",81.44167,188.17834
"2297",81.23659,188.19171
"2298",81.04616,188.20502
"2299",80.85329,188.21838
"2300",80.64332,188.23169
"2301",80.411385,188.24506
"2302",80.15015,188.25836
"2303",79.86206,188.27173
"2304",79.551994,188.28503
"2305",79.22972,188.2984
"2306",78.9099,188.3117
"2307",78.607155,188.32507
"2308",78.331276,188.33838
"2309",78.09201,188.35175
"2310",77.89914,188.36505
"2311",77.747765,188.37842
"2312",77.63546,188.39172
"2313",77.54757,188.40509
"2314",77.471886,188.4184
"2315",77.401085,188.43176
"2316",77.32296,188.44507
"2317",77.22774,188.45844
"2318",77.120316,188.47174
"2319",76.995804,188.4851
"2320",76.86397,188.49841
"2321",76.72236,188.51178
"2322",76.575874,188.52509
"2323",76.42939,188.53845
"2324",76.29023,188.55176
"2325",76.15839,188.56512
"2326",76.03876,188.57843
"2327",75.931335,188.5918
"2328",75.826355,188.6051
"2329",75.716484,188.61847
"2330",75.5993,188.63177
"2331",75.47723,188.64514
"2332",75.36736,188.65845
"2333",75.3576,188.67181
"2334",75.596855,188.68512
"2335",76.25849,188.69849
"2336",77.43038,188.71179
"2337",79.05638,188.72516
"2338",80.938736,188.73846
"2339",82.78203,188.75183
"2340",84.30305,188.76514
"2341",85.32113,188.7785
"2342",85.81674,188.79181
"2343",85.8851,188.80518
"2344",85.66781,188.81848
"2345",85.28939,188.83185
"2346",84.86214,188.84515
"2347",84.473946,188.85852
"2348",84.16876,188.87183
"2349",83.963684,188.8852
"2350",83.84161,188.8985
"2351",83.76593,188.91187
"2352",83.67803,188.92517
"2353",83.529106,188.93854
"2354",83.3045,188.95184
"2355",83.00908,188.96521
"2356",82.669716,188.97852
"2357",82.32548,188.99188
"2358",82.005646,189.00519
"2359",81.72732,189.01855
"2360",81.48806,189.03186
"2361",81.2781,189.04523
"2362",81.08034,189.05853
"2363",80.885025,189.0719
"2364",80.6775,189.0852
"2365",80.44068,189.09857
"2366",80.17212,189.11188
"2367",79.871826,189.12524
"2368",79.54467,189.13855
"2369",79.20531,189.15192
"2370",78.86595,189.16522
"2371",78.54368,189.17859
"2372",78.25071,189.1919
"2373",78.00412,189.20526
"2374",77.80148,189.21857
"2375",77.64767,189.23193
"2376",77.5378,189.24524
"2377",77.452354,189.2586
"2378",77.383995,189.27191
"2379",77.31808,189.28528
"2380",77.24483,189.29858
"2381",77.15694,189.31195
"2382",77.04707,189.32526
"2383",76.91524,189.33862
"2384",76.76387,189.35193
"2385",76.60029,189.3653
"2386",76.42695,189.3786
"2387",76.25117,189.39197
"2388",76.07538,189.40527
"2389",75.90204,189.41864
"2390",75.736015,189.43195
"2391",75.56512,189.44531
"2392",75.389336,189.45862
"2393",75.20622,189.47198
"2394",75.028,189.48529
"2395",74.92302,189.49866
"2396",75.035324,189.51196
"2397",75.55535,189.52533
"2398",76.61494,189.53864
"2399",78.204315,189.552
"2400",80.14038,189.5653
"2401",82.1326,189.57867
"2402",83.86359,189.59198
"2403",85.08919,189.60535
"2404",85.748375,189.61865
"2405",85.91196,189.63202
"2406",85.72396,189.64532
"2407",85.32113,189.65869
"2408",84.8304,189.672
"2409",84.35432,189.68536
"2410",83.946594,189.69867
"2411",83.64141,189.71204
"2412",83.44366,189.72534
"2413",83.31426,189.73871
"2414",83.19951,189.75201
"2415",83.053024,189.76538
"2416",82.845505,189.77869
"2417",82.5745,189.79205
"2418",82.266884,189.80536
"2419",81.951935,189.81873
"2420",81.66628,189.83203
"2421",81.427025,189.8454
"2422",81.22926,189.8587
"2423",81.06325,189.87207
"2424",80.90944,189.88538
"2425",80.75075,189.89874
"2426",80.570076,189.91205
"2427",80.34791,189.92542
"2428",80.08423,189.93872
"2429",79.77661,189.95209
"2430",79.43481,189.9654
"2431",79.07591,189.97876
"2432",78.71458,189.99207
"2433",78.365456,190.00543
"2434",78.05539,190.01874
"2435",77.7966,190.0321
"2436",77.591515,190.04541
"2437",77.44747,190.05878
"2438",77.3547,190.07208
"2439",77.29122,190.08545
"2440",77.2375,190.09875
"2441",77.18135,190.11212
"2442",77.10811,190.12543
"2443",77.01289,190.1388
"2444",76.90059,190.1521
"2445",76.77608,190.16547
"2446",76.64423,190.17877
"2447",76.50263,190.19214
"2448",76.35371,190.20544
"2449",76.192566,190.21881
"2450",76.02167,190.23212
"2451",75.8288,190.24548
"2452",75.61883,190.25879
"2453",75.40887,190.27216
"2454",75.25994,190.28546
"2455",75.30877,190.29883
"2456",75.74822,190.31213
"2457",76.72236,190.3255
"2458",78.23361,190.3388
"2459",80.11597,190.35217
"2460",82.07889,190.36548
"2461",83.79523,190.37885
"2462",85.013504,190.39215
"2463",85.65316,190.40552
"2464",85.785,190.41882
"2465",85.55306,190.43219
"2466",85.10872,190.4455
"2467",84.5716,190.45886
"2468",84.04181,190.47217
"2469",83.58282,190.48553
"2470",83.228806,190.49884
"2471",82.9749,190.5122
"2472",82.78935,190.52551
"2473",82.63065,190.53888
"2474",82.45487,190.55219
"2475",82.2449,190.56555
"2476",82.01053,190.57886
"2477",81.778595,190.59222
"2478",81.57839,190.60553
"2479",81.41482,190.6189
"2480",81.290306,190.6322
"2481",81.18776,190.64557
"2482",81.08278,190.65887
"2483",80.955826,190.67224
"2484",80.78981,190.68555
"2485",80.57984,190.69891
"2486",80.32105,190.71222
"2487",80.01343,190.72559
"2488",79.66674,190.73889
"2489",79.29809,190.75226
"2490",78.922104,190.76556
"2491",78.55833,190.77893
"2492",78.22873,190.79224
"2493",77.95285,190.8056
"2494",77.74044,190.81891
"2495",77.5964,190.83228
"2496",77.51095,190.84558
"2497",77.467,190.85895
"2498",77.44259,190.87225
"2499",77.420616,190.88562
"2500",77.38644,190.89893
"2501",77.330284,190.9123
"2502",77.25216,190.9256
"2503",77.154495,190.93896
"2504",77.02998,190.95227
"2505",76.87862,190.96564
"2506",76.700386,190.97894
"2507",76.49287,190.99231
"2508",76.27558,191.00562
"2509",76.112,191.01898
"2510",76.138855,191.03229
"2511",76.53925,191.04565
"2512",77.44259,191.05896
"2513",78.84886,191.07233
"2514",80.59449,191.08563
"2515",82.41093,191.099
"2516",83.99542,191.1123
"2517",85.12581,191.12567
"2518",85.7264,191.13898
"2519",85.86801,191.15234
"2520",85.67269,191.16565
"2521",85.26986,191.17902
"2522",84.78401,191.19232
"2523",84.30305,191.20569
"2524",83.888,191.219
"2525",83.57549,191.23236
"2526",83.36553,191.24567
"2527",83.22392,191.25903
"2528",83.09453,191.27234
"2529",82.93584,191.2857
"2530",82.720985,191.29901
"2531",82.44755,191.31238
"2532",82.142365,191.32568
"2533",81.846954,191.33905
"2534",81.58083,191.35236
"2535",81.36111,191.36572
"2536",81.18532,191.37903
"2537",81.03395,191.3924
"2538",80.88747,191.4057
"2539",80.72877,191.41907
"2540",80.54322,191.43237
"2541",80.31617,191.44574
"2542",80.04761,191.45905
"2543",79.7351,191.47241
"2544",79.3933,191.48572
"2545",79.03929,191.49908
"2546",78.69016,191.51239
"2547",78.37034,191.52576
"2548",78.09445,191.53906
"2549",77.872284,191.55243
"2550",77.7087,191.56573
"2551",77.593956,191.5791
"2552",77.51583,191.5924
"2553",77.46212,191.60577
"2554",77.418175,191.61908
"2555",77.36935,191.63245
"2556",77.30587,191.64575
"2557",77.222855,191.65912
"2558",77.12764,191.67242
"2559",77.015335,191.68579
"2560",76.88838,191.6991
"2561",76.75166,191.71246
"2562",76.59785,191.72577
"2563",76.42451,191.73914
"2564",76.23651,191.75244
"2565",76.06317,191.76581
"2566",75.99481,191.77911
"2567",76.19745,191.79248
"2568",76.84932,191.80579
"2569",78.02121,191.81915
"2570",79.64233,191.83246
"2571",81.497826,191.84583
"2572",83.29473,191.85913
"2573",84.7425,191.8725
"2574",85.677574,191.8858
"2575",86.0975,191.89917
"2576",86.09506,191.91248
"2577",85.81918,191.92584
"2578",85.40414,191.93915
"2579",84.962234,191.95251
"2580",84.576485,191.96582
"2581",84.29328,191.97919
"2582",84.11261,191.9925
"2583",84.01251,192.00586
"2584",83.946594,192.01917
"2585",83.85626,192.03253
"2586",83.700005,192.04584
"2587",83.455864,192.0592
"2588",83.12871,192.07251
"2589",82.75029,192.08588
"2590",82.354774,192.09918
"2591",81.98123,192.11255
"2592",81.65896,192.12585
"2593",81.38796,192.13922
"2594",81.16823,192.15253
"2595",80.9778,192.1659
"2596",80.799576,192.1792
"2597",80.60914,192.19257
"2598",80.38941,192.20587
"2599",80.1355,192.21924
"2600",79.84497,192.23254
"2601",79.52514,192.24591
"2602",79.185776,192.25922
"2603",78.84886,192.27258
"2604",78.52903,192.28589
"2605",78.25071,192.29926
"2606",78.02121,192.31256
"2607",77.84299,192.32593
"2608",77.71114,192.33923
"2609",77.611046,192.3526
"2610",77.53048,192.3659
"2611",77.452354,192.37927
"2612",77.36935,192.39258
"2613",77.27169,192.40594
"2614",77.16182,192.41925
"2615",77.04219,192.43262
"2616",76.912796,192.44592
"2617",76.77852,192.45929
"2618",76.646675,192.4726
"2619",76.51728,192.48596
"2620",76.39033,192.49927
"2621",76.25849,192.51263
"2622",76.121765,192.52594
"2623",75.97284,192.5393
"2624",75.82147,192.55261
"2625",75.70916,192.56598
"2626",75.75311,192.57928
"2627",76.12421,192.59265
"2628",76.95918,192.60596
"2629",78.29221,192.61932
"2630",79.99634,192.63263
"2631",81.832306,192.646
"2632",83.50225,192.6593
"2633",84.75716,192.67267
"2634",85.49447,192.68597
"2635",85.75815,192.69934
"2636",85.660484,192.71265
"2637",85.34554,192.72601
"2638",84.93538,192.73932
"2639",84.53254,192.75269
"2640",84.19806,192.76599
"2641",83.96124,192.77936
"2642",83.82208,192.79266
"2643",83.75372,192.80603
"2644",83.69756,192.81934
"2645",83.60723,192.8327
"2646",83.43633,192.84601
"2647",83.16777,192.85938
"2648",82.81865,192.87268
"2649",82.425575,192.88605
"2650",82.03006,192.89935
"2651",81.66628,192.91272
"2652",81.356224,192.92603
"2653",81.09987,192.93939
"2654",80.885025,192.9527
"2655",80.69215,192.96606
"2656",80.50904,192.97937
"2657",80.31617,192.99274
"2658",80.096436,193.00604
"2659",79.852295,193.01941
"2660",79.58129,193.03271
"2661",79.290764,193.04608
"2662",78.98314,193.05939
"2663",78.67307,193.07275
"2664",78.37278,193.08606
"2665",78.099335,193.09943
"2666",77.86496,193.11273
"2667",77.67696,193.1261
"2668",77.53536,193.1394
"2669",77.42794,193.15277
"2670",77.34005,193.16608
"2671",77.25948,193.17944
"2672",77.18135,193.19275
"2673",77.09346,193.20612
"2674",76.99092,193.21942
"2675",76.87373,193.23279
"2676",76.749214,193.2461
"2677",76.61738,193.25946
"2678",76.490425,193.27277
"2679",76.36591,193.28613
"2680",76.24872,193.29944
"2681",76.138855,193.3128
"2682",76.033875,193.32611
"2683",75.931335,193.33948
"2684",75.826355,193.35278
"2685",75.718925,193.36615
"2686",75.60418,193.37946
"2687",75.526054,193.39282
"2688",75.59441,193.40613
"2689",75.98505,193.4195
"2690",76.84444,193.4328
"2691",78.19211,193.44617
"2692",79.91821,193.45947
"2693",81.77371,193.47284
"2694",83.46319,193.48615
"2695",84.732735,193.49951
"2696",85.4847,193.51282
"2697",85.75571,193.52618
"2698",85.677574,193.53949
"2699",85.37972,193.55286
"2700",84.98665,193.56616
"2701",84.59846,193.57953
"2702",84.281075,193.59283
"2703",84.05646,193.6062
"2704",83.92706,193.6195
"2705",83.86359,193.63287
"2706",83.81232,193.64618
"2707",83.719536,193.65955
"2708",83.54864,193.67285
"2709",83.282524,193.68622
"2710",82.93584,193.69952
"2711",82.547646,193.71289
"2712",82.15701,193.7262
"2713",81.80057,193.73956
"2714",81.495384,193.75287
"2715",81.24147,193.76624
"2716",81.02174,193.77954
"2717",80.81911,193.79291
"2718",80.621346,193.80621
"2719",80.41627,193.81958
"2720",80.19409,193.83289
"2721",79.957275,193.84625
"2722",79.70092,193.85956
"2723",79.4226,193.87292
"2724",79.13451,193.88623
"2725",78.84398,193.8996
"2726",78.56321,193.9129
"2727",78.30686,193.92627
"2728",78.082245,193.93958
"2729",77.891815,193.95294
"2730",77.74044,193.96625
"2731",77.62325,193.97961
"2732",77.52804,193.99292
"2733",77.44259,194.00629
"2734",77.35714,194.01959
"2735",77.264366,194.03296
"2736",77.15938,194.04626
"2737",77.04463,194.05963
"2738",76.925,194.07294
"2739",76.79805,194.0863
"2740",76.66621,194.09961
"2741",76.53193,194.11298
"2742",76.39765,194.12628
"2743",76.2707,194.13965
"2744",76.1535,194.15295
"2745",76.04608,194.16632
"2746",75.948425,194.17963
"2747",75.85077,194.193
"2748",75.74334,194.2063
"2749",75.62859,194.21967
"2750",75.52361,194.23297
"2751",75.4992,194.24634
"2752",75.68963,194.25964
"2753",76.27558,194.27301
"2754",77.35958,194.28632
"2755",78.9099,194.29968
"2756",80.743416,194.31299
"2757",82.58427,194.32635
"2758",84.137024,194.33966
"2759",85.20882,194.35303
"2760",85.75815,194.36633
"2761",85.87045,194.3797
"2762",85.680016,194.393
"2763",85.32601,194.40637
"2764",84.92073,194.41968
"2765",84.54719,194.43304
"2766",84.25422,194.44635
"2767",84.0589,194.45972
"2768",83.946594,194.47302
"2769",83.878235,194.48639
"2770",83.79767,194.4997
"2771",83.66338,194.51306
"2772",83.4461,194.52637
"2773",83.14824,194.53973
"2774",82.791794,194.55304
"2775",82.42069,194.5664
"2776",82.06424,194.57971
"2777",81.74685,194.59308
"2778",81.47341,194.60638
"2779",81.23903,194.61975
"2780",81.03151,194.63306
"2781",80.83864,194.64642
"2782",80.64088,194.65973
"2783",80.43336,194.6731
"2784",80.201416,194.6864
"2785",79.94751,194.69977
"2786",79.66674,194.71307
"2787",79.37377,194.72644
"2788",79.07591,194.73975
"2789",78.785385,194.75311
"2790",78.51194,194.76642
"2791",78.2678,194.77979
"2792",78.06027,194.79309
"2793",77.89426,194.80646
"2794",77.76486,194.81976
"2795",77.66476,194.83313
"2796",77.58175,194.84644
"2797",77.50118,194.8598
"2798",77.41085,194.87311
"2799",77.31075,194.88647
"2800",77.196,194.89978
"2801",77.07149,194.91315
"2802",76.93721,194.92645
"2803",76.80049,194.93982
"2804",76.65644,194.95312
"2805",76.51484,194.96649
"2806",76.38056,194.9798
"2807",76.25605,194.99316
"2808",76.14374,195.00647
"2809",76.04364,195.01984
"2810",75.945984,195.03314
"2811",75.85077,195.04651
"2812",75.74578,195.05981
"2813",75.631035,195.07318
"2814",75.52117,195.08649
"2815",75.48211,195.09985
"2816",75.66277,195.11316
"2817",76.241394,195.12653
"2818",77.33517,195.13983
"2819",78.91234,195.1532
"2820",80.78493,195.1665
"2821",82.6746,195.17987
"2822",84.27619,195.19318
"2823",85.382164,195.20654
"2824",85.94858,195.21985
"2825",86.063324,195.23322
"2826",85.86801,195.24652
"2827",85.49691,195.25989
"2828",85.06477,195.2732
"2829",84.664375,195.28656
"2830",84.34455,195.29987
"2831",84.11505,195.31323
"2832",83.96857,195.32654
"2833",83.87091,195.3399
"2834",83.76593,195.35321
"2835",83.612114,195.36658
"2836",83.38506,195.37988
"2837",83.08476,195.39325
"2838",82.74296,195.40656
"2839",82.38651,195.41992
"2840",82.04959,195.43323
"2841",81.75418,195.4466
"2842",81.50027,195.4599
"2843",81.28054,195.47327
"2844",81.08278,195.48657
"2845",80.88991,195.49994
"2846",80.689705,195.51324
"2847",80.465096,195.52661
"2848",80.21362,195.53992
"2849",79.93286,195.55328
"2850",79.63012,195.56659
"2851",79.31518,195.57996
"2852",78.99779,195.59326
"2853",78.695045,195.60663
"2854",78.416725,195.61993
"2855",78.17502,195.6333
"2856",77.97238,195.6466
"2857",77.806366,195.65997
"2858",77.67696,195.67328
"2859",77.57931,195.68665
"2860",77.49874,195.69995
"2861",77.4255,195.71332
"2862",77.349815,195.72662
"2863",77.26681,195.73999
"2864",77.16914,195.7533
"2865",77.051956,195.76666
"2866",76.92256,195.77997
"2867",76.7834,195.79333
"2868",76.63447,195.80664
"2869",76.4831,195.82
"2870",76.33662,195.83331
"2871",76.19745,195.84668
"2872",76.05829,195.85999
"2873",75.91913,195.87335
"2874",75.772644,195.88666
"2875",75.62127,195.90002
"2876",75.46502,195.91333
"2877",75.33318,195.9267
"2878",75.30877,195.94
"2879",75.55047,195.95337
"2880",76.23407,195.96667
"2881",77.452354,195.98004
"2882",79.14427,195.99335
"2883",81.094986,196.00671
"2884",82.99687,196.02002
"2885",84.54963,196.03339
"2886",85.575035,196.04669
"2887",86.05844,196.06006
"2888",86.10483,196.07336
"2889",85.858246,196.08673
"2890",85.45541,196.10004
"2891",85.0013,196.1134
"2892",84.57404,196.12671
"2893",84.224915,196.14008
"2894",83.97833,196.15338
"2895",83.8172,196.16675
"2896",83.702446,196.18005
"2897",83.580376,196.19342
"2898",83.40948,196.20673
"2899",83.160446,196.2201
"2900",82.85039,196.2334
"2901",82.50614,196.24677
"2902",82.16922,196.26007
"2903",81.864044,196.27344
"2904",81.59792,196.28674
"2905",81.37087,196.30011
"2906",81.163345,196.31342
"2907",80.96315,196.32678
"2908",80.75807,196.34009
"2909",80.5359,196.35345
"2910",80.289314,196.36676
"2911",80.008545,196.38013
"2912",79.70336,196.39343
"2913",79.381096,196.4068
"2914",79.046616,196.4201
"2915",78.71946,196.43347
"2916",78.4094,196.44678
"2917",78.133514,196.46014
"2918",77.8967,196.47345
"2919",77.70626,196.48682
"2920",77.56222,196.50012
"2921",77.454796,196.51349
"2922",77.36935,196.5268
"2923",77.298546,196.54016
"2924",77.23018,196.55347
"2925",77.154495,196.56683
"2926",77.06416,196.58014
"2927",76.95918,196.5935
"2928",76.839554,196.60681
"2929",76.700386,196.62018
"2930",76.54658,196.63348
"2931",76.383,196.64685
"2932",76.21942,196.66016
"2933",76.06317,196.67352
"2934",75.91669,196.68683
"2935",75.775085,196.7002
"2936",75.631035,196.7135
"2937",75.47723,196.72687
"2938",75.30877,196.74017
"2939",75.13786,196.75354
"2940",75.01091,196.76685
"2941",75.05974,196.78021
"2942",75.47723,196.79352
"2943",76.43427,196.80688
"2944",77.97238,196.82019
"2945",79.957275,196.83356
"2946",82.10574,196.84686
"2947",84.07599,196.86023
"2948",85.57259,196.87354
"2949",86.46372,196.8869
"2950",86.79088,196.9002
"2951",86.695656,196.91357
"2952",86.33189,196.92688
"2953",85.83383,196.94025
"2954",85.316246,196.95355
"2955",84.84749,196.96692
"2956",84.471504,196.98022
"2957",84.2005,196.99359
"2958",84.017395,197.0069
"2959",83.87091,197.02026
"2960",83.71465,197.03357
"2961",83.50713,197.04694
"2962",83.23613,197.06024
"2963",82.91875,197.07361
"2964",82.581825,197.08691
"2965",82.262,197.10028
"2966",81.97879,197.11359
"2967",81.739525,197.12695
"2968",81.532005,197.14026
"2969",81.339134,197.15363
"2970",81.146255,197.16693
"2971",80.93385,197.1803
"2972",80.69215,197.1936
"2973",80.41871,197.20697
"2974",80.1062,197.22028
"2975",79.764404,197.23364
"2976",79.40063,197.24695
"2977",79.03197,197.26031
"2978",78.66819,197.27362
"2979",78.331276,197.28699
"2980",78.03586,197.3003
"2981",77.79172,197.31366
"2982",77.60616,197.32697
"2983",77.471886,197.34033
"2984",77.38155,197.35364
"2985",77.313194,197.367
"2986",77.25948,197.38031
"2987",77.20088,197.39368
"2988",77.13008,197.40698
"2989",77.04219,197.42035
"2990",76.93965,197.43365
"2991",76.82002,197.44702
"2992",76.6833,197.46033
"2993",76.53193,197.4737
"2994",76.36591,197.487
"2995",76.17792,197.50037
"2996",75.97528,197.51367
"2997",75.757996,197.52704
"2998",75.52361,197.54034
"2999",75.30877,197.55371
"3000",75.208664,197.56702
"3001",75.3991,197.58038
"3002",76.06073,197.59369
"3003",77.28878,197.60706
"3004",79.012436,197.62036
"3005",81.007095,197.63373
"3006",82.9456,197.64703
"3007",84.51789,197.6604
"3008",85.52865,197.6737
"3009",85.96811,197.68707
"3010",85.94858,197.70038
"3011",85.61898,197.71375
"3012",85.12337,197.72705
"3013",84.576485,197.74042
"3014",84.068665,197.75372
"3015",83.64385,197.76709
"3016",83.32891,197.7804
"3017",83.09941,197.79376
"3018",82.92363,197.80707
"3019",82.75029,197.82043
"3020",82.55253,197.83374
"3021",82.32304,197.8471
"3022",82.07889,197.86041
"3023",81.84207,197.87378
"3024",81.63943,197.88708
"3025",81.480736,197.90045
"3026",81.356224,197.91376
"3027",81.25124,197.92712
"3028",81.143814,197.94043
"3029",81.007095,197.9538
"3030",80.82399,197.9671
"3031",80.58961,197.98047
"3032",80.30152,197.99377
"3033",79.9646,198.00714
"3034",79.59594,198.02045
"3035",79.21019,198.03381
"3036",78.82445,198.04712
"3037",78.45579,198.06049
"3038",78.13107,198.07379
"3039",77.86496,198.08716
"3040",77.66964,198.10046
"3041",77.54269,198.11383
"3042",77.47433,198.12714
"3043",77.44991,198.1405
"3044",77.44259,198.15381
"3045",77.43038,198.16718
"3046",77.3962,198.18048
"3047",77.32784,198.19385
"3048",77.22774,198.20715
"3049",77.0959,198.22052
"3050",76.93965,198.23383
"3051",76.756546,198.2472
"3052",76.54902,198.2605
"3053",76.317085,198.27386
"3054",76.0827,198.28717
"3055",75.92157,198.30054
"3056",75.98505,198.31384
"3057",76.44648,198.32721
"3058",77.42306,198.34052
"3059",78.890366,198.35388
"3060",80.672615,198.36719
"3061",82.48173,198.38055
"3062",84.01984,198.39386
"3063",85.0721,198.40723
"3064",85.57748,198.42053
"3065",85.6141,198.4339
"3066",85.32357,198.4472
"3067",84.83772,198.46057
"3068",84.2884,198.47388
"3069",83.756165,198.48724
"3070",83.302055,198.50055
"3071",82.950485,198.51392
"3072",82.69413,198.52722
"3073",82.49149,198.54059
"3074",82.30595,198.5539
"3075",82.108185,198.56726
"3076",81.87869,198.58057
"3077",81.62966,198.59393
"3078",81.38308,198.60724
"3079",81.163345,198.6206
"3080",80.98512,198.63391
"3081",80.84596,198.64728
"3082",80.72877,198.66058
"3083",80.61646,198.67395
"3084",80.49439,198.68726
"3085",80.3357,198.70062
"3086",80.13794,198.71393
"3087",79.89136,198.7273
"3088",79.60082,198.7406
"3089",79.276115,198.75397
"3090",78.93187,198.76727
"3091",78.58762,198.78064
"3092",78.26536,198.79395
"3093",77.98947,198.80731
"3094",77.77707,198.82062
"3095",77.63302,198.83398
"3096",77.55245,198.84729
"3097",77.5256,198.86066
"3098",77.52804,198.87396
"3099",77.54269,198.88733
"3100",77.54757,198.90063
"3101",77.54269,198.914
"3102",77.51339,198.9273
"3103",77.45968,198.94067
"3104",77.383995,198.95398
"3105",77.2839,198.96735
"3106",77.15694,198.98065
"3107",77.00069,198.99402
"3108",76.81758,199.00732
"3109",76.612495,199.02069
"3110",76.422066,199.034
"3111",76.334175,199.04736
"3112",76.51484,199.06067
"3113",77.152054,199.07404
"3114",78.331276,199.08734
"3115",79.98657,199.10071
"3116",81.90555,199.11401
"3117",83.78302,199.12738
"3118",85.31869,199.14069
"3119",86.33433,199.15405
"3120",86.81041,199.16736
"3121",86.854355,199.18073
"3122",86.60532,199.19403
"3123",86.202484,199.2074
"3124",85.750824,199.2207
"3125",85.3431,199.23407
"3126",85.01839,199.24738
"3127",84.79866,199.26074
"3128",84.664375,199.27405
"3129",84.56916,199.28741
"3130",84.4593,199.30072
"3131",84.2884,199.31409
"3132",84.0296,199.3274
"3133",83.69024,199.34076
"3134",83.29717,199.35406
"3135",82.88457,199.36743
"3136",82.49882,199.38074
"3137",82.161896,199.3941
"3138",81.87625,199.40741
"3139",81.6321,199.42078
"3140",81.41238,199.43408
"3141",81.20241,199.44745
"3142",80.9778,199.46075
"3143",80.73365,199.47412
"3144",80.46021,199.48743
"3145",80.15991,199.5008
"3146",79.82544,199.5141
"3147",79.47143,199.52747
"3148",79.11742,199.54077
"3149",78.77562,199.55414
"3150",78.470436,199.56744
"3151",78.2092,199.58081
"3152",77.99924,199.59412
"3153",77.82834,199.60748
"3154",77.68429,199.62079
"3155",77.55978,199.63416
"3156",77.44503,199.64746
"3157",77.332726,199.66083
"3158",77.22041,199.67413
"3159",77.10811,199.6875
"3160",76.99336,199.7008
"3161",76.87373,199.71417
"3162",76.754105,199.72748
"3163",76.63691,199.74084
"3164",76.51728,199.75415
"3165",76.39033,199.76752
"3166",76.25849,199.78082
"3167",76.11932,199.79419
"3168",75.99725,199.8075
"3169",75.95331,199.82086
"3170",76.12909,199.83417
"3171",76.67841,199.84753
"3172",77.68429,199.86084
"3173",79.114975,199.8742
"3174",80.80446,199.88751
"3175",82.5037,199.90088
"3176",83.95148,199.91418
"3177",84.96956,199.92755
"3178",85.51888,199.94086
"3179",85.66537,199.95422
"3180",85.52865,199.96753
"3181",85.23323,199.9809
"3182",84.88167,199.9942
"3183",84.56184,200.00757
"3184",84.32014,200.02087
"3185",84.16876,200.03424
"3186",84.085754,200.04755
"3187",84.03693,200.06091
"3188",83.966125,200.07422
"3189",83.83429,200.08759
"3190",83.60967,200.10089
"3191",83.29473,200.11426
"3192",82.91875,200.12756
"3193",82.52079,200.14093
"3194",82.13748,200.15424
"3195",81.80057,200.1676
"3196",81.514915,200.18091
"3197",81.27322,200.19427
"3198",81.05348,200.20758
"3199",80.84596,200.22095
"3200",80.63111,200.23425
"3201",80.39918,200.24762
"3202",80.14038,200.26093
"3203",79.85474,200.27429
"3204",79.54711,200.2876
"3205",79.22484,200.30096
"3206",78.90013,200.31427
"3207",78.58518,200.32764
"3208",78.294655,200.34094
"3209",78.0383,200.35431
"3210",77.823456,200.36761
"3211",77.65011,200.38098
"3212",77.51339,200.39429
"3213",77.40353,200.40765
"3214",77.30587,200.42096
"3215",77.21065,200.43433
"3216",77.11299,200.44763
"3217",77.00801,200.461
"3218",76.893265,200.4743
"3219",76.773636,200.48767
"3220",76.65156,200.50098
"3221",76.52949,200.51434
"3222",76.40742,200.52765
"3223",76.28535,200.54102
"3224",76.16083,200.55432
"3225",76.03143,200.56769
"3226",75.897156,200.581
"3227",75.757996,200.59436
"3228",75.62127,200.60767
"3229",75.5407,200.62103
"3230",75.62859,200.63434
"3231",76.04364,200.6477
"3232",76.90303,200.66101
"3233",78.204315,200.67438
"3234",79.82056,200.68768
"3235",81.52468,200.70105
"3236",83.04814,200.71436
"3237",84.18097,200.72772
"3238",84.840164,200.74103
"3239",85.07698,200.7544
"3240",84.99153,200.7677
"3241",84.715645,200.78107
"3242",84.35676,200.79437
"3243",84.01495,200.80774
"3244",83.74883,200.82104
"3245",83.58282,200.83441
"3246",83.50469,200.84772
"3247",83.47295,200.86108
"3248",83.43633,200.87439
"3249",83.33868,200.88776
"3250",83.14336,200.90106
"3251",82.85283,200.91443
"3252",82.493935,200.92773
"3253",82.11063,200.9411
"3254",81.74441,200.9544
"3255",81.42947,200.96777
"3256",81.16823,200.98108
"3257",80.9485,200.99445
"3258",80.75563,201.00775
"3259",80.57252,201.02112
"3260",80.38453,201.03442
"3261",80.17212,201.04779
"3262",79.93042,201.0611
"3263",79.66186,201.07446
"3264",79.37621,201.08777
"3265",79.078354,201.10114
"3266",78.7805,201.11444
"3267",78.49485,201.1278
"3268",78.23361,201.14111
"3269",78.00412,201.15448
"3270",77.80881,201.16779
"3271",77.65499,201.18115
"3272",77.5378,201.19446
"3273",77.44259,201.20782
"3274",77.366905,201.22113
"3275",77.296104,201.2345
"3276",77.21797,201.2478
"3277",77.12764,201.26117
"3278",77.02266,201.27448
"3279",76.90059,201.28784
"3280",76.76631,201.30115
"3281",76.63203,201.31451
"3282",76.50263,201.32782
"3283",76.385445,201.34119
"3284",76.27558,201.35449
"3285",76.175476,201.36786
"3286",76.07538,201.38116
"3287",75.97284,201.39453
"3288",75.862976,201.40784
"3289",75.74578,201.4212
"3290",75.64324,201.43451
"3291",75.62615,201.44788
"3292",75.83124,201.46118
"3293",76.402534,201.47455
"3294",77.42794,201.48785
"3295",78.856186,201.50122
"3296",80.51392,201.51453
"3297",82.144806,201.5279
"3298",83.50225,201.5412
"3299",84.43,201.55457
"3300",84.893875,201.56787
"3301",84.97444,201.58124
"3302",84.79378,201.59454
"3303",84.46418,201.60791
"3304",84.09796,201.62122
"3305",83.775696,201.63458
"3306",83.53887,201.64789
"3307",83.39971,201.66125
"3308",83.33868,201.67456
"3309",83.302055,201.68793
"3310",83.23369,201.70123
"3311",83.09209,201.7146
"3312",82.86748,201.7279
"3313",82.56718,201.74127
"3314",82.22537,201.75458
"3315",81.88846,201.76794
"3316",81.57839,201.78125
"3317",81.31716,201.79462
"3318",81.09987,201.80792
"3319",80.91432,201.82129
"3320",80.74586,201.8346
"3321",80.57984,201.84796
"3322",80.396736,201.86127
"3323",80.17944,201.87463
"3324",79.93042,201.88794
"3325",79.64965,201.9013
"3326",79.344475,201.91461
"3327",79.03197,201.92798
"3328",78.7219,201.94128
"3329",78.4387,201.95465
"3330",78.18967,201.96796
"3331",77.979706,201.98132
"3332",77.81125,201.99463
"3333",77.68429,202.008
"3334",77.58907,202.0213
"3335",77.51583,202.03467
"3336",77.454796,202.04797
"3337",77.3962,202.06134
"3338",77.32784,202.07465
"3339",77.24727,202.08801
"3340",77.14961,202.10132
"3341",77.04219,202.11469
"3342",76.925,202.12799
"3343",76.80049,202.14136
"3344",76.67597,202.15466
"3345",76.55634,202.16803
"3346",76.439156,202.18134
"3347",76.32197,202.1947
"3348",76.20233,202.20801
"3349",76.07782,202.22137
"3350",75.9411,202.23468
"3351",75.79706,202.24805
"3352",75.67986,202.26135
"3353",75.68719,202.27472
"3354",75.9704,202.28802
"3355",76.67109,202.30139
"3356",77.82834,202.3147
"3357",79.35668,202.32806
"3358",81.04616,202.34137
"3359",82.62821,202.35474
"3360",83.86359,202.36804
"3361",84.630196,202.38141
"3362",84.947586,202.39471
"3363",84.90608,202.40808
"3364",84.63752,202.42139
"3365",84.25178,202.43475
"3366",83.86359,202.44806
"3367",83.53155,202.46143
"3368",83.29717,202.47473
"3369",83.158005,202.4881
"3370",83.08232,202.5014
"3371",83.021286,202.51477
"3372",82.916306,202.52808
"3373",82.735634,202.54144
"3374",82.4744,202.55475
"3375",82.159454,202.56812
"3376",81.829865,202.58142
"3377",81.5198,202.59473
"3378",81.26101,202.60815
"3379",81.05592,202.62146
"3380",80.89235,202.63477
"3381",80.75807,202.64807
"3382",80.62867,202.6615
"3383",80.482185,202.6748
"3384",80.30152,202.68811
"3385",80.07446,202.70142
"3386",79.80347,202.71484
"3387",79.49096,202.72815
"3388",79.15648,202.74146
"3389",78.82201,202.75476
"3390",78.504616,202.76819
"3391",78.21408,202.7815
"3392",77.96994,202.7948
"3393",77.77707,202.8081
"3394",77.63302,202.82153
"3395",77.53536,202.83484
"3396",77.467,202.84814
"3397",77.418175,202.86145
"3398",77.36446,202.87488
"3399",77.296104,202.88818
"3400",77.208206,202.90149
"3401",77.103226,202.9148
"3402",76.9836,202.92822
"3403",76.8542,202.94153
"3404",76.71992,202.95483
"3405",76.578316,202.96814
"3406",76.43183,202.98157
"3407",76.282906,202.99487
"3408",76.12665,203.00818
"3409",75.95331,203.02148
"3410",75.772644,203.03491
"3411",75.61883,203.04822
"3412",75.5993,203.06152
"3413",75.877625,203.07483
"3414",76.60029,203.08826
"3415",77.81613,203.10156
"3416",79.415276,203.11487
"3417",81.16579,203.12817
"3418",82.77959,203.1416
"3419",84.01007,203.1549
"3420",84.732735,203.16821
"3421",84.97444,203.18152
"3422",84.842606,203.19495
"3423",84.47639,203.20825
"3424",83.99542,203.22156
"3425",83.50225,203.23486
"3426",83.070114,203.24829
"3427",82.74296,203.2616
"3428",82.52079,203.2749
"3429",82.374306,203.28821
"3430",82.25468,203.30164
"3431",82.11307,203.31494
"3432",81.92508,203.32825
"3433",81.6907,203.34155
"3434",81.43679,203.35498
"3435",81.19264,203.36829
"3436",80.99245,203.38159
"3437",80.8362,203.3949
"3438",80.72144,203.40833
"3439",80.62379,203.42163
"3440",80.53101,203.43494
"3441",80.41627,203.44824
"3442",80.26002,203.46167
"3443",80.05493,203.47498
"3444",79.798584,203.48828
"3445",79.49584,203.50159
"3446",79.15892,203.51501
"3447",78.80736,203.52832
"3448",78.46067,203.54163
"3449",78.1384,203.55493
"3450",77.86008,203.56836
"3451",77.63546,203.58167
"3452",77.471886,203.59497
"3453",77.36446,203.60828
"3454",77.298546,203.6217
"3455",77.25704,203.63501
"3456",77.225296,203.64832
"3457",77.13008,203.67505
"3458",77.051956,203.68835
"3459",76.95918,203.70166
"3460",76.84444,203.71497
"3461",76.71015,203.7284
"3462",76.561226,203.7417
"3463",76.39277,203.755
"3464",76.19501,203.76831
"3465",75.98016,203.78174
"3466",75.7702,203.79504
"3467",75.65545,203.80835
"3468",75.80194,203.82166
"3469",76.39033,203.83508
"3470",77.51827,203.84839
"3471",79.11742,203.8617
"3472",80.98268,203.875
"3473",82.804,203.88843
"3474",84.28596,203.90173
"3475",85.24544,203.91504
"3476",85.66781,203.92834
"3477",85.6556,203.94177
"3478",85.3431,203.95508
"3479",84.8719,203.96838
"3480",84.351875,203.98169
"3481",83.86359,203.99512
"3482",83.46563,204.00842
"3483",83.18242,204.02173
"3484",82.98955,204.03503
"3485",82.847946,204.04846
"3486",82.70634,204.06177
"3487",82.52079,204.07507
"3488",82.28153,204.08838
"3489",82.003204,204.1018
"3490",81.722435,204.11511
"3491",81.46609,204.12842
"3492",81.25613,204.14172
"3493",81.094986,204.15515
"3494",80.96559,204.16846
"3495",80.84596,204.18176
"3496",80.71656,204.19507
"3497",80.55787,204.2085
"3498",80.35035,204.2218
"3499",80.08667,204.2351
"3500",79.76929,204.24841
"3501",79.40551,204.26184
"3502",79.012436,204.27515
"3503",78.61204,204.28845
"3504",78.23361,204.30176
"3505",77.89426,204.31519
"3506",77.61349,204.32849
"3507",77.3962,204.3418
"3508",77.242386,204.3551
"3509",77.14473,204.36853
"3510",77.08858,204.38184
"3511",77.0544,204.39514
"3512",77.0251,204.40845
"3513",76.981155,204.42188
"3514",76.91768,204.43518
"3515",76.82735,204.44849
"3516",76.717476,204.46179
"3517",76.58564,204.47522
"3518",76.439156,204.48853
"3519",76.28535,204.50183
"3520",76.12421,204.51514
"3521",75.95087,204.52856
"3522",75.76776,204.54187
"3523",75.56512,204.55518
"3524",75.3576,204.56848
"3525",75.21843,204.58191
"3526",75.318535,204.59521
"3527",75.880066,204.60852
"3528",77.06172,204.62183
"3529",78.839096,204.63525
"3530",81.004654,204.64856
"3531",83.2166,204.66187
"3532",85.11116,204.67517
"3533",86.42954,204.6886
"3534",87.113144,204.7019
"3535",87.25475,204.71521
"3536",87.02525,204.72852
"3537",86.58091,204.74194
"3538",86.056,204.75525
"3539",85.54818,204.76855
"3540",85.12825,204.78186
"3541",84.823074,204.79529
"3542",84.62287,204.8086
"3543",84.49836,204.8219
"3544",84.3885,204.8352
"3545",84.23712,204.84863
"3546",84.00275,204.86194
"3547",83.67803,204.87524
"3548",83.27764,204.88855
"3549",82.85283,204.90198
"3550",82.44022,204.91528
"3551",82.074005,204.92859
"3552",81.75662,204.9419
"3553",81.4905,204.95532
"3554",81.25613,204.96863
"3555",81.041275,204.98193
"3556",80.82643,204.99524
"3557",80.59693,205.00867
"3558",80.32838,205.02197
"3559",80.02075,205.03528
"3560",79.66918,205.04858
"3561",79.281,205.06201
"3562",78.8806,205.07532
"3563",78.49241,205.08862
"3564",78.1384,205.10193
"3565",77.83078,205.11536
"3566",77.58419,205.12866
"3567",77.3962,205.14197
"3568",77.2546,205.15527
"3569",77.154495,205.1687
"3570",77.069046,205.182
"3571",76.98848,205.19531
"3572",76.893265,205.20862
"3573",76.7834,205.22205
"3574",76.64423,205.23535
"3575",76.4831,205.24866
"3576",76.30976,205.26196
"3577",76.13153,205.27539
"3578",75.95575,205.2887
"3579",75.78241,205.302
"3580",75.6115,205.3153
"3581",75.43816,205.32874
"3582",75.26238,205.34204
"3583",75.07927,205.35535
"3584",74.8864,205.36865
"3585",74.6984,205.38208
"3586",74.58854,205.39539
"3587",74.72282,205.40869
"3588",75.34051,205.422
"3589",76.60273,205.43542
"3590",78.49729,205.44873
"3591",80.80446,205.46204
"3592",83.17265,205.47534
"3593",85.20882,205.48877
"3594",86.6395,205.50208
"3595",87.38415,205.51538
"3596",87.555046,205.52869
"3597",87.33288,205.54211
"3598",86.890976,205.55542
"3599",86.3563,205.56873
"3600",85.841156,205.58203
"3601",85.401695,205.59546
"3602",85.067215,205.60876
"3603",84.840164,205.62207
"3604",84.69367,205.63538
"3605",84.5716,205.6488
"3606",84.41779,205.66211
"3607",84.18341,205.67542
"3608",83.85626,205.68872
"3609",83.4461,205.70215
"3610",82.99687,205.71545
"3611",82.547646,205.72876
"3612",82.1326,205.74207
"3613",81.77127,205.7555
"3614",81.45876,205.7688
"3615",81.1902,205.7821
"3616",80.95094,205.79541
"3617",80.723885,205.80884
"3618",80.48707,205.82214
"3619",80.22339,205.83545
"3620",79.91821,205.84875
"3621",79.57885,205.86218
"3622",79.21263,205.87549
"3623",78.83177,205.8888
"3624",78.450905,205.9021
"3625",78.09201,205.91553
"3626",77.7673,205.92883
"3627",77.49142,205.94214
"3628",77.264366,205.95544
"3629",77.086136,205.96887
"3630",76.946976,205.98218
"3631",76.83711,205.99548
"3632",76.73701,206.00879
"3633",76.63447,206.02222
"3634",76.524605,206.03552
"3635",76.39765,206.04883
"3636",76.25361,206.06213
"3637",76.09247,206.07556
"3638",75.91669,206.08887
"3639",75.736015,206.10217
"3640",75.55535,206.11548
"3641",75.37957,206.1289
"3642",75.208664,206.14221
"3643",75.04021,206.15552
"3644",74.87419,206.16882
"3645",74.70084,206.18225
"3646",74.512856,206.19556
"3647",74.31754,206.20886
"3648",74.13687,206.22217
"3649",74.06363,206.2356
"3650",74.29801,206.2489
"3651",75.08171,206.2622
"3652",76.56367,206.27551
"3653",78.6804,206.28894
"3654",81.16579,206.30225
"3655",83.62188,206.31555
"3656",85.64828,206.32886
"3657",86.98863,206.34229
"3658",87.61364,206.35559
"3659",87.67223,206.3689
"3660",87.35241,206.3822
"3661",86.83482,206.39563
"3662",86.25376,206.40894
"3663",85.70443,206.42224
"3664",85.24788,206.43555
"3665",84.910965,206.44897
"3666",84.68879,206.46228
"3667",84.53986,206.47559
"3668",84.40803,206.48889
"3669",84.23468,206.50232
"3670",83.980774,206.51562
"3671",83.63409,206.52893
"3672",83.21904,206.54224
"3673",82.76738,206.55566
"3674",82.32792,206.56897
"3675",81.92996,206.58228
"3676",81.58572,206.59558
"3677",81.290306,206.60901
"3678",81.02907,206.62231
"3679",80.780045,206.63562
"3680",80.5359,206.64893
"3681",80.28443,206.66235
"3682",80.01099,206.67566
"3683",79.71557,206.68896
"3684",79.395744,206.70227
"3685",79.0515,206.7157
"3686",78.68528,206.729
"3687",78.31663,206.74231
"3688",77.962616,206.75562
"3689",77.6379,206.76904
"3690",77.35714,206.78235
"3691",77.13008,206.79565
"3692",76.9543,206.80896
"3693",76.82002,206.82239
"3694",76.71015,206.8357
"3695",76.61738,206.849
"3696",76.52705,206.8623
"3697",76.42451,206.87573
"3698",76.30488,206.88904
"3699",76.16815,206.90234
"3700",76.016785,206.91565
"3701",75.85077,206.92908
"3702",75.6701,206.94238
"3703",75.48455,206.95569
"3704",75.29168,206.969
"3705",75.106125,206.98242
"3706",74.92302,206.99573
"3707",74.74967,207.00903
"3708",74.58366,207.02234
"3709",74.4152,207.03577
"3710",74.23697,207.04907
"3711",74.05142,207.06238
"3712",73.87808,207.07568
"3713",73.79996,207.08911
"3714",74.00748,207.10242
"3715",74.76677,207.11572
"3716",76.25849,207.12903
"3717",78.44602,207.14246
"3718",81.06813,207.15576
"3719",83.719536,207.16907
"3720",85.95102,207.18237
"3721",87.464714,207.1958
"3722",88.19714,207.2091
"3723",88.29725,207.22241
"3724",87.97009,207.23572
"3725",87.415886,207.24915
"3726",86.77623,207.26245
"3727",86.153656,207.27576
"3728",85.61166,207.28906
"3729",85.17952,207.30249
"3730",84.85481,207.3158
"3731",84.610664,207.3291
"3732",84.4007,207.3424
"3733",84.1712,207.35583
"3734",83.89044,207.36914
"3735",83.54864,207.38245
"3736",83.158005,207.39575
"3737",82.74784,207.40918
"3738",82.354774,207.42249
"3739",82.00076,207.43579
"3740",81.688255,207.4491
"3741",81.41238,207.46252
"3742",81.15602,207.47583
"3743",80.907,207.48914
"3744",80.65308,207.50244
"3745",80.38453,207.51587
"3746",80.093994,207.52917
"3747",79.77905,207.54248
"3748",79.43725,207.55579
"3749",79.06859,207.56921
"3750",78.68772,207.58252
"3751",78.30686,207.59583
"3752",77.945526,207.60913
"3753",77.62081,207.62256
"3754",77.347374,207.63586
"3755",77.12764,207.64917
"3756",76.964066,207.66248
"3757",76.839554,207.6759
"3758",76.74433,207.68921
"3759",76.66865,207.70251
"3760",76.595406,207.71582
"3761",76.51728,207.72925
"3762",76.42451,207.74255
"3763",76.314644,207.75586
"3764",76.18524,207.76917
"3765",76.04364,207.7826
"3766",75.88983,207.7959
"3767",75.72137,207.8092
"3768",75.545586,207.82251
"3769",75.36248,207.83594
"3770",75.17204,207.84924
"3771",74.969406,207.86255
"3772",74.76189,207.87585
"3773",74.54215,207.88928
"3774",74.3151,207.90259
"3775",74.10513,207.9159
"3776",74.02945,207.9292
"3777",74.31022,207.94263
"3778",75.21355,207.95593
"3779",76.87373,207.96924
"3780",79.1931,207.98254
"3781",81.85428,207.99597
"3782",84.40803,208.00928
"3783",86.43931,208.02258
"3784",87.69909,208.03589
"3785",88.20447,208.04932
"3786",88.131226,208.06262
"3787",87.70153,208.07593
"3788",87.09117,208.08923
"3789",86.42222,208.10266
"3790",85.785,208.11597
"3791",85.23567,208.12927
"3792",84.79378,208.14258
"3793",84.4593,208.156
"3794",84.2005,208.16931
"3795",83.97345,208.18262
"3796",83.7293,208.19592
"3797",83.441216,208.20935
"3798",83.106735,208.22266
"3799",82.7454,208.23596
"3800",82.388954,208.24927
"3801",82.0618,208.2627
"3802",81.77615,208.276
"3803",81.532005,208.2893
"3804",81.31228,208.30261
"3805",81.09743,208.31604
"3806",80.87526,208.32935
"3807",80.62867,208.34265
"3808",80.35035,208.35596
"3809",80.03052,208.36938
"3810",79.676506,208.38269
"3811",79.28344,208.396
"3812",78.86595,208.4093
"3813",78.44114,208.42273
"3814",78.030975,208.43604
"3815",77.65011,208.44934
"3816",77.32296,208.46265
"3817",77.05684,208.47607
"3818",76.8542,208.48938
"3819",76.70771,208.50269
"3820",76.61494,208.51599
"3821",76.558784,208.52942
"3822",76.51972,208.54272
"3823",76.48066,208.55603
"3824",76.42695,208.56934
"3825",76.34638,208.58276
"3826",76.23895,208.59607
"3827",76.104675,208.60938
"3828",75.95331,208.62268
"3829",75.792175,208.63611
"3830",75.62615,208.64941
"3831",75.457695,208.66272
"3832",75.28191,208.67603
"3833",75.09636,208.68945
"3834",74.898605,208.70276
"3835",74.68131,208.71606
"3836",74.45182,208.72937
"3837",74.25651,208.7428
"3838",74.24429,208.7561
"3839",74.666664,208.76941
"3840",75.77997,208.78271
"3841",77.66964,208.79614
"3842",80.16724,208.80945
"3843",82.896774,208.82275
"3844",85.39193,208.83606
"3845",87.25475,208.84949
"3846",88.307014,208.8628
"3847",88.621956,208.8761
"3848",88.40711,208.8894
"3849",87.87732,208.90283
"3850",87.19615,208.91614
"3851",86.47837,208.92944
"3852",85.80698,208.94275
"3853",85.23323,208.95618
"3854",84.77669,208.96948
"3855",84.43,208.98279
"3856",84.156555,208.9961
"3857",83.90997,209.00952
"3858",83.65118,209.02283
"3859",83.36065,209.03613
"3860",83.038376,209.04944
"3861",82.70634,209.06287
"3862",82.391396,209.07617
"3863",82.11063,209.08948
"3864",81.8616,209.10278
"3865",81.634544,209.11621
"3866",81.41482,209.12952
"3867",81.1902,209.14282
"3868",80.94606,209.15613
"3869",80.67506,209.16956
"3870",80.36744,209.18286
"3871",80.02319,209.19617
"3872",79.63744,209.20947
"3873",79.219955,209.2229
"3874",78.78294,209.2362
"3875",78.345924,209.24951
"3876",77.93332,209.26282
"3877",77.57198,209.27625
"3878",77.26925,209.28955
"3879",77.03487,209.30286
"3880",76.86641,209.31616
"3881",76.75166,209.32959
"3882",76.67597,209.3429
"3883",76.6247,209.3562
"3884",76.57343,209.3695
"3885",76.5124,209.38293
"3886",76.436714,209.39624
"3887",76.33662,209.40955
"3888",76.21942,209.42285
"3889",76.087585,209.43628
"3890",75.9411,209.44958
"3891",75.77997,209.46289
"3892",75.5993,209.4762
"3893",75.39422,209.48962
"3894",75.16228,209.50293
"3895",74.90105,209.51624
"3896",74.63004,209.52954
"3897",74.424965,209.54297
"3898",74.46647,209.55627
"3899",75.02312,209.56958
"3900",76.30976,209.58289
"3901",78.328835,209.59631
"3902",80.850845,209.60962
"3903",83.47295,209.62292
"3904",85.748375,209.63623
"3905",87.33776,209.64966
"3906",88.14343,209.66296
"3907",88.289925,209.67627
"3908",87.98718,209.68958
"3909",87.42565,209.703
"3910",86.74937,209.71631
"3911",86.06088,209.72961
"3912",85.43343,209.74292
"3913",84.90364,209.75635
"3914",84.49348,209.76965
"3915",84.173645,209.78296
"3916",83.90997,209.79626
"3917",83.6585,209.8097
"3918",83.39239,209.823
"3919",83.09453,209.8363
"3920",82.78691,209.84961
"3921",82.48417,209.86304
"3922",82.20828,209.87634
"3923",81.9617,209.88965
"3924",81.739525,209.90295
"3925",81.52712,209.91638
"3926",81.31228,209.92969
"3927",81.08278,209.943
"3928",80.82643,209.9563
"3929",80.53834,209.96973
"3930",80.2063,209.98303
"3931",79.83276,209.99634
"3932",79.42748,210.00964
"3933",79.00755,210.02307
"3934",78.5803,210.03638
"3935",78.17502,210.04968
"3936",77.803925,210.06299
"3937",77.486534,210.07642
"3938",77.23262,210.08972
"3939",77.04463,210.10303
"3940",76.910355,210.11633
"3941",76.824905,210.12976
"3942",76.76875,210.14307
"3943",76.72236,210.15637
"3944",76.67841,210.16968
"3945",76.62226,210.1831
"3946",76.54902,210.19641
"3947",76.45136,210.20972
"3948",76.32929,210.22302
"3949",76.18524,210.23645
"3950",76.019226,210.24976
"3951",75.8288,210.26306
"3952",75.60906,210.27637
"3953",75.36492,210.2898
"3954",75.12077,210.3031
"3955",74.99382,210.3164
"3956",75.20378,210.32971
"3957",75.98505,210.34314
"3958",77.44747,210.35645
"3959",79.500725,210.36975
"3960",81.849396,210.38306
"3961",84.09552,210.39648
"3962",85.86069,210.40979
"3963",86.93736,210.4231
"3964",87.33532,210.4364
"3965",87.20836,210.44983
"3966",86.744484,210.46313
"3967",86.10483,210.47644
"3968",85.4139,210.48975
"3969",84.754715,210.50317
"3970",84.190735,210.51648
"3971",83.74151,210.52979
"3972",83.40215,210.54309
"3973",83.13359,210.55652
"3974",82.90166,210.56982
"3975",82.67948,210.58313
"3976",82.45487,210.59644
"3977",82.230255,210.60986
"3978",82.03494,210.62317
"3979",81.87869,210.63647
"3980",81.75418,210.64978
"3981",81.64919,210.66321
"3982",81.54177,210.67651
"3983",81.41238,210.68982
"3984",81.234146,210.70312
"3985",81.00954,210.71655
"3986",80.723885,210.72986
"3987",80.377205,210.74316
"3988",79.97925,210.75647
"3989",79.54223,210.7699
"3990",79.093,210.7832
"3991",78.6511,210.79651
"3992",78.24826,210.80981
"3993",77.90158,210.82324
"3994",77.63058,210.83655
"3995",77.435265,210.84985
"3996",77.315636,210.86316
"3997",77.264366,210.87659
"3998",77.25948,210.8899
"3999",77.27413,210.9032
"4000",77.29122,210.9165
"4001",77.29366,210.92993
"4002",77.26925,210.94324
"4003",77.21065,210.95654
"4004",77.11299,210.96985
"4005",76.97383,210.98328
"4006",76.788284,210.99658
"4007",76.56367,211.00989
"4008",76.36103,211.0232
"4009",76.31953,211.03662
"4010",76.63935,211.04993
"4011",77.48165,211.06323
"4012",78.86107,211.07654
"4013",80.63355,211.08997
"4014",82.528114,211.10327
"4015",84.21759,211.11658
"4016",85.44808,211.12988
"4017",86.12192,211.14331
"4018",86.29282,211.15662
"4019",86.082855,211.16992
"4020",85.63363,211.18323
"4021",85.067215,211.19666
"4022",84.48371,211.20996
"4023",83.95636,211.22327
"4024",83.529106,211.23657
"4025",83.19951,211.25
"4026",82.948044,211.2633
"4027",82.73075,211.27661
"4028",82.51591,211.28992
"4029",82.286415,211.30334
"4030",82.04959,211.31665
"4031",81.83475,211.32996
"4032",81.65896,211.34326
"4033",81.52712,211.35669
"4034",81.43679,211.37
"4035",81.356224,211.3833
"4036",81.26589,211.3966
"4037",81.13893,211.41003
"4038",80.96071,211.42334
"4039",80.723885,211.43665
"4040",80.430916,211.44995
"4041",80.076904,211.46338
"4042",79.68139,211.47668
"4043",79.26147,211.48999
"4044",78.84398,211.5033
"4045",78.44602,211.51672
"4046",78.09445,211.53003
"4047",77.81125,211.54333
"4048",77.60372,211.55664
"4049",77.469444,211.57007
"4050",77.3962,211.58337
"4051",77.36935,211.59668
"4052",77.37179,211.60999
"4053",77.38155,211.62341
"4054",77.37911,211.63672
"4055",77.3547,211.65002
"4056",77.29366,211.66333
"4057",77.196,211.67676
"4058",77.051956,211.69006
"4059",76.876175,211.70337
"4060",76.71992,211.71667
"4061",76.700386,211.7301
"4062",76.99336,211.74341
"4063",77.74288,211.75671
"4064",78.97826,211.77002
"4065",80.57496,211.78345
"4066",82.303505,211.79675
"4067",83.87579,211.81006
"4068",85.05501,211.82336
"4069",85.73861,211.83679
"4070",85.96323,211.8501
"4071",85.82651,211.8634
"4072",85.46029,211.87671
"4073",84.97444,211.89014
"4074",84.47639,211.90344
"4075",84.04181,211.91675
"4076",83.717094,211.93005
"4077",83.50225,211.94348
"4078",83.36553,211.95679
"4079",83.24834,211.9701
"4080",83.09941,211.9834
"4081",82.88701,211.99683
"4082",82.60868,212.01013
"4083",82.28886,212.02344
"4084",81.97391,212.03674
"4085",81.69558,212.05017
"4086",81.47097,212.06348
"4087",81.29519,212.07678
"4088",81.15602,212.09009
"4089",81.02663,212.10352
"4090",80.88258,212.11682
"4091",80.69703,212.13013
"4092",80.465096,212.14343
"4093",80.17944,212.15686
"4094",79.84253,212.17017
"4095",79.466545,212.18347
"4096",79.07347,212.19678
"4097",78.69016,212.2102
"4098",78.34348,212.22351
"4099",78.05295,212.23682
"4100",77.83078,212.25012
"4101",77.67696,212.26355
"4102",77.58419,212.27686
"4103",77.53048,212.29016
"4104",77.50118,212.30347
"4105",77.47677,212.3169
"4106",77.437706,212.3302
"4107",77.37667,212.3435
"4108",77.28634,212.35681
"4109",77.16914,212.37024
"4110",77.02266,212.38354
"4111",76.84932,212.39685
"4112",76.65644,212.41016
"4113",76.46601,212.42358
"4114",76.35615,212.43689
"4115",76.473335,212.4502
"4116",76.9836,212.4635
"4117",77.960175,212.47693
"4118",79.361565,212.49023
"4119",81.01442,212.50354
"4120",82.65995,212.51685
"4121",84.03693,212.53027
"4122",84.98665,212.54358
"4123",85.470055,212.55688
"4124",85.56039,212.57019
"4125",85.3724,212.58362
"4126",85.030594,212.59692
"4127",84.63752,212.61023
"4128",84.281075,212.62354
"4129",84.01495,212.63696
"4130",83.85382,212.65027
"4131",83.77081,212.66357
"4132",83.719536,212.67688
"4133",83.64629,212.6903
"4134",83.49737,212.70361
"4135",83.24834,212.71692
"4136",82.916306,212.73022
"4137",82.533,212.74365
"4138",82.14725,212.75696
"4139",81.79324,212.77026
"4140",81.497826,212.78357
"4141",81.25857,212.797
"4142",81.06325,212.8103
"4143",80.88991,212.82361
"4144",80.71656,212.83691
"4145",80.52613,212.85034
"4146",80.29664,212.86365
"4147",80.025635,212.87695
"4148",79.708244,212.89026
"4149",79.35424,212.90369
"4150",78.9807,212.91699
"4151",78.61448,212.9303
"4152",78.28001,212.9436
"4153",77.996796,212.95703
"4154",77.77951,212.97034
"4155",77.61837,212.98364
"4156",77.50851,212.99695
"4157",77.42306,213.01038
"4158",77.35226,213.02368
"4159",77.279015,213.03699
"4160",77.19112,213.0503
"4161",77.083694,213.06372
"4162",76.964066,213.07703
"4163",76.83467,213.09033
"4164",76.6955,213.10364
"4165",76.5539,213.11707
"4166",76.4123,213.13037
"4167",76.26826,213.14368
"4168",76.11688,213.15698
"4169",75.96063,213.17041
"4170",75.81171,213.18372
"4171",75.7409,213.19702
"4172",75.877625,213.21033
"4173",76.387886,213.22375
"4174",77.35958,213.23706
"4175",78.76341,213.25037
"4176",80.44312,213.26367
"4177",82.142365,213.2771
"4178",83.59991,213.2904
"4179",84.63508,213.30371
"4180",85.20882,213.31702
"4181",85.39193,213.33044
"4182",85.28939,213.34375
"4183",85.02571,213.35706
"4184",84.71809,213.37036
"4185",84.44465,213.38379
"4186",84.24933,213.3971
"4187",84.14923,213.4104
"4188",84.119934,213.4237
"4189",84.11749,213.43713
"4190",84.085754,213.45044
"4191",83.97589,213.46375
"4192",83.75372,213.47705
"4193",83.424126,213.49048
"4194",83.0164,213.50378
"4195",82.579384,213.51709
"4196",82.159454,213.5304
"4197",81.795685,213.54382
"4198",81.50271,213.55713
"4199",81.26833,213.57043
"4200",81.07057,213.58374
"4201",80.88747,213.59717
"4202",80.69947,213.61047
"4203",80.48463,213.62378
"4204",80.22827,213.63708
"4205",79.9353,213.65051
"4206",79.603264,213.66382
"4207",79.256584,213.67712
"4208",78.907455,213.69043
"4209",78.57786,213.70386
"4210",78.28489,213.71716
"4211",78.03586,213.73047
"4212",77.8259,213.74377
"4213",77.65743,213.7572
"4214",77.523155,213.77051
"4215",77.41329,213.78381
"4216",77.31808,213.79712
"4217",77.222855,213.81055
"4218",77.12276,213.82385
"4219",77.00801,213.83716
"4220",76.88106,213.85046
"4221",76.74189,213.86389
"4222",76.592964,213.8772
"4223",76.44404,213.8905
"4224",76.297554,213.90381
"4225",76.155945,213.91724
"4226",76.02899,213.93054
"4227",75.91669,213.94385
"4228",75.81659,213.95715
"4229",75.72625,213.97058
"4230",75.63348,213.98389
"4231",75.528496,213.9972
"4232",75.43572,214.0105
"4233",75.403984,214.02393
"4234",75.56756,214.03723
"4235",76.07782,214.05054
"4236",77.03487,214.06384
"4237",78.41917,214.07727
"4238",80.08179,214.09058
"4239",81.78348,214.10388
"4240",83.265434,214.11719
"4241",84.34455,214.13062
"4242",84.97444,214.14392
"4243",85.20882,214.15723
"4244",85.16487,214.17053
"4245",84.964676,214.18396
"4246",84.7132,214.19727
"4247",84.488594,214.21057
"4248",84.34455,214.22388
"4249",84.281075,214.2373
"4250",84.27863,214.25061
"4251",84.300606,214.26392
"4252",84.29328,214.27722
"4253",84.207825,214.29065
"4254",84.01251,214.30396
"4255",83.70733,214.31726
"4256",83.31182,214.33057
"4257",82.87236,214.344
"4258",82.4329,214.3573
"4259",82.03494,214.3706
"4260",81.69802,214.38391
"4261",81.42214,214.39734
"4262",81.1902,214.41064
"4263",80.98512,214.42395
"4264",80.780045,214.43726
"4265",80.55787,214.45068
"4266",80.306404,214.46399
"4267",80.02075,214.4773
"4268",79.70336,214.4906
"4269",79.364006,214.50403
"4270",79.02464,214.51733
"4271",78.695045,214.53064
"4272",78.39231,214.54395
"4273",78.12375,214.55737
"4274",77.89914,214.57068
"4275",77.71847,214.58398
"4276",77.5671,214.59729
"4277",77.44259,214.61072
"4278",77.3254,214.62402
"4279",77.21553,214.63733
"4280",77.09346,214.65063
"4281",76.96651,214.66406
"4282",76.82979,214.67737
"4283",76.68818,214.69067
"4284",76.53681,214.70398
"4285",76.383,214.7174
"4286",76.23407,214.73071
"4287",76.09003,214.74402
"4288",75.95819,214.75732
"4289",75.843445,214.77075
"4290",75.74578,214.78406
"4291",75.66277,214.79736
"4292",75.59441,214.81067
"4293",75.528496,214.8241
"4294",75.46258,214.8374
"4295",75.389336,214.85071
"4296",75.30877,214.86401
"4297",75.23308,214.87744
"4298",75.21599,214.89075
"4299",75.386894,214.90405
"4300",75.8996,214.91736
"4301",76.85664,214.93079
"4302",78.24826,214.94409
"4303",79.92798,214.9574
"4304",81.654076,214.9707
"4305",83.160446,214.98413
"4306",84.25666,214.99744
"4307",84.893875,215.01074
"4308",85.12337,215.02405
"4309",85.05989,215.03748
"4310",84.82796,215.05078
"4311",84.54475,215.06409
"4312",84.29572,215.0774
"4313",84.12726,215.09082
"4314",84.0589,215.10413
"4315",84.06622,215.11743
"4316",84.1004,215.13074
"4317",84.102844,215.14417
"4318",84.017395,215.15747
"4319",83.81964,215.17078
"4320",83.50469,215.18408
"4321",83.10185,215.19751
"4322",82.65751,215.21082
"4323",82.22537,215.22412
"4324",81.84451,215.23743
"4325",81.532005,215.25085
"4326",81.28542,215.26416
"4327",81.08522,215.27747
"4328",80.90944,215.29077
"4329",80.73365,215.3042
"4330",80.53101,215.3175
"4331",80.29664,215.33081
"4332",80.025635,215.34412
"4333",79.71557,215.35754
"4334",79.381096,215.37085
"4335",79.03929,215.38416
"4336",78.709694,215.39746
"4337",78.4094,215.41089
"4338",78.14572,215.4242
"4339",77.92844,215.4375
"4340",77.75021,215.4508
"4341",77.60372,215.46423
"4342",77.48165,215.47754
"4343",77.37423,215.49084
"4344",77.27657,215.50415
"4345",77.171585,215.51758
"4346",77.05928,215.53088
"4347",76.927444,215.54419
"4348",76.788284,215.5575
"4349",76.63691,215.57092
"4350",76.48554,215.58423
"4351",76.34394,215.59753
"4352",76.21942,215.61084
"4353",76.10956,215.62427
"4354",76.016785,215.63757
"4355",75.93622,215.65088
"4356",75.860535,215.66418
"4357",75.78729,215.67761
"4358",75.70672,215.69092
"4359",75.61639,215.70422
"4360",75.51385,215.71753
"4361",75.40887,215.73096
"4362",75.3283,215.74426
"4363",75.36736,215.75757
"4364",75.67498,215.77087
"4365",76.39277,215.7843
"4366",77.5671,215.7976
"4367",79.10765,215.81091
"4368",80.816666,215.82422
"4369",82.43046,215.83765
"4370",83.70489,215.85095
"4371",84.51789,215.86426
"4372",84.88655,215.87756
"4373",84.90608,215.89099
"4374",84.701,215.9043
"4375",84.39582,215.9176
"4376",84.088196,215.93091
"4377",83.844055,215.94434
"4378",83.69756,215.95764
"4379",83.63653,215.97095
"4380",83.62432,215.98425
"4381",83.617,215.99768
"4382",83.54864,216.01099
"4383",83.38262,216.02429
"4384",83.106735,216.0376
"4385",82.738075,216.05103
"4386",82.31571,216.06433
"4387",81.8909,216.07764
"4388",81.51003,216.09094
"4389",81.19508,216.10437
"4390",80.94362,216.11768
"4391",80.74586,216.13098
"4392",80.5774,216.14429
"4393",80.40894,216.15771
"4394",80.22339,216.17102
"4395",80.00366,216.18433
"4396",79.74731,216.19763
"4397",79.4519,216.21106
"4398",79.12962,216.22437
"4399",78.79515,216.23767
"4400",78.467995,216.25098
"4401",78.167694,216.2644
"4402",77.908905,216.27771
"4403",77.69894,216.29102
"4404",77.53292,216.30432
"4405",77.40353,216.31775
"4406",77.30099,216.33105
"4407",77.21553,216.34436
"4408",77.134964,216.35767
"4409",77.05684,216.3711
"4410",76.96895,216.3844
"4411",76.86153,216.3977
"4412",76.74189,216.41101
"4413",76.60517,216.42444
"4414",76.46601,216.43774
"4415",76.32441,216.45105
"4416",76.18768,216.46436
"4417",76.06073,216.47778
"4418",75.94354,216.49109
"4419",75.83612,216.5044
"4420",75.736015,216.5177
"4421",75.63348,216.53113
"4422",75.51873,216.54443
"4423",75.38201,216.55774
"4424",75.23552,216.57104
"4425",75.11589,216.58447
"4426",75.1281,216.59778
"4427",75.43328,216.61108
"4428",76.19501,216.62439
"4429",77.452354,216.63782
"4430",79.11009,216.65112
"4431",80.938736,216.66443
"4432",82.652626,216.67773
"4433",83.9881,216.69116
"4434",84.81331,216.70447
"4435",85.1429,216.71777
"4436",85.08675,216.73108
"4437",84.77913,216.7445
"4438",84.35432,216.75781
"4439",83.9173,216.77112
"4440",83.546196,216.78442
"4441",83.27764,216.79785
"4442",83.11894,216.81116
"4443",83.03349,216.82446
"4444",82.967575,216.83777
"4445",82.862595,216.8512
"4446",82.67948,216.8645
"4447",82.41337,216.8778
"4448",82.08133,216.89111
"4449",81.72488,216.90454
"4450",81.3904,216.91785
"4451",81.109634,216.93115
"4452",80.88747,216.94446
"4453",80.71412,216.95789
"4454",80.57252,216.97119
"4455",80.43824,216.9845
"4456",80.289314,216.9978
"4457",80.10376,217.01123
"4458",79.87671,217.02454
"4459",79.603264,217.03784
"4460",79.293205,217.05115
"4461",78.958725,217.06458
"4462",78.61936,217.07788
"4463",78.28977,217.09119
"4464",77.994354,217.10449
"4465",77.75021,217.11792
"4466",77.56466,217.13123
"4467",77.44015,217.14453
"4468",77.36935,217.15784
"4469",77.32784,217.17126
"4470",77.298546,217.18457
"4471",77.261925,217.19788
"4472",77.19844,217.21118
"4473",77.103226,217.22461
"4474",76.9836,217.23792
"4475",76.84688,217.25122
"4476",76.697945,217.26453
"4477",76.54658,217.27795
"4478",76.40009,217.29126
"4479",76.25361,217.30457
"4480",76.09491,217.31787
"4481",75.92401,217.3313
"4482",75.73846,217.3446
"4483",75.53094,217.35791
"4484",75.335625,217.37122
"4485",75.2404,217.38464
"4486",75.41619,217.39795
"4487",76.04852,217.41125
"4488",77.22041,217.42456
"4489",78.85863,217.43799
"4490",80.73853,217.4513
"4491",82.55985,217.4646
