"","ppg","time"
"1",79.429924,580.76953
"2",80.46021,580.7827
"3",81.62234,580.7959
"4",82.78935,580.8091
"5",83.81964,580.82227
"6",84.59846,580.83545
"7",85.06477,580.84863
"8",85.20882,580.8618
"9",85.07454,580.875
"10",84.74006,580.8882
"11",84.28596,580.90137
"12",83.78546,580.91455
"13",83.28008,580.92773
"14",82.79668,580.9409
"15",82.32548,580.9541
"16",81.8616,580.9673
"17",81.39529,580.98047
"18",80.936295,580.99365
"19",80.50172,581.00684
"20",80.12573,581.02
"21",79.83765,581.0332
"22",79.64721,581.0464
"23",79.554436,581.0596
"24",79.54711,581.07275
"25",79.5935,581.08594
"26",79.656975,581.0991
"27",79.708244,581.1123
"28",79.71313,581.1255
"29",79.66186,581.1387
"30",79.54711,581.15186
"31",79.381096,581.16504
"32",79.17113,581.1782
"33",78.93675,581.1914
"34",78.69016,581.2046
"35",78.44358,581.2178
"36",78.20187,581.23096
"37",77.97482,581.24414
"38",77.77219,581.2573
"39",77.59884,581.2705
"40",77.46212,581.2837
"41",77.36446,581.2969
"42",77.30343,581.31006
"43",77.27657,581.32324
"44",77.27657,581.3364
"45",77.30099,581.3496
"46",77.34493,581.3628
"47",77.39864,581.376
"48",77.454796,581.38916
"49",77.50851,581.40234
"50",77.55001,581.4155
"51",77.57198,581.4287
"52",77.57931,581.4419
"53",77.57931,581.4551
"54",77.576866,581.46826
"55",77.57931,581.48145
"56",77.58907,581.4946
"57",77.61349,581.5078
"58",77.66964,581.521
"59",77.79416,581.5342
"60",78.05783,581.54736
"61",78.52415,581.56055
"62",79.24681,581.5737
"63",80.22095,581.5869
"64",81.3782,581.6001
"65",82.59647,581.6133
"66",83.71465,581.62646
"67",84.610664,581.63965
"68",85.19905,581.65283
"69",85.452965,581.666
"70",85.40658,581.6792
"71",85.13069,581.6924
"72",84.70832,581.70557
"73",84.22003,581.71875
"74",83.72442,581.73193
"75",83.250786,581.7451
"76",82.80644,581.7583
"77",82.36942,581.7715
"78",81.92264,581.78467
"79",81.461205,581.79785
"80",81.00221,581.81104
"81",80.5774,581.8242
"82",80.22339,581.8374
"83",79.96216,581.8506
"84",79.80347,581.8638
"85",79.73266,581.87695
"86",79.7351,581.89014
"87",79.76929,581.9033
"88",79.80835,581.9165
"89",79.818115,581.9297
"90",79.783936,581.9429
"91",79.693596,581.95605
"92",79.54711,581.96924
"93",79.35668,581.9824
"94",79.13451,581.9956
"95",78.90013,582.0088
"96",78.65598,582.022
"97",78.416725,582.03516
"98",78.187225,582.04834
"99",77.977264,582.0615
"100",77.789276,582.0747
"101",77.628136,582.0879
"102",77.4963,582.1011
"103",77.3962,582.11426
"104",77.32296,582.12744
"105",77.281456,582.1406
"106",77.27169,582.1538
"107",77.29122,582.167
"108",77.33761,582.1802
"109",77.40841,582.19336
"110",77.49386,582.20654
"111",77.58175,582.2197
"112",77.66476,582.2329
"113",77.733116,582.2461
"114",77.77951,582.2593
"115",77.80148,582.27246
"116",77.80881,582.28564
"117",77.79904,582.2988
"118",77.77951,582.312
"119",77.7551,582.3252
"120",77.733116,582.3384
"121",77.71603,582.35156
"122",77.72335,582.36475
"123",77.79416,582.3779
"124",77.994354,582.3911
"125",78.38743,582.4043
"126",79.04173,582.4175
"127",79.971924,582.43066
"128",81.13405,582.44385
"129",82.41581,582.45703
"130",83.66094,582.4702
"131",84.72053,582.4834
"132",85.489586,582.4966
"133",85.909515,582.50977
"134",85.997406,582.52295
"135",85.80942,582.53613
"136",85.43343,582.5493
"137",84.9427,582.5625
"138",84.41779,582.5757
"139",83.90509,582.58887
"140",83.42657,582.60205
"141",82.97246,582.61523
"142",82.52567,582.6284
"143",82.06668,582.6416
"144",81.59548,582.6548
"145",81.126724,582.66797
"146",80.70191,582.68115
"147",80.35279,582.69434
"148",80.10132,582.7075
"149",79.95239,582.7207
"150",79.89136,582.7339
"151",79.886475,582.7471
"152",79.91089,582.76025
"153",79.9353,582.77344
"154",79.93042,582.7866
"155",79.886475,582.7998
"156",79.79126,582.813
"157",79.635,582.8262
"158",79.43969,582.83936
"159",79.21019,582.85254
"160",78.96117,582.8657
"161",78.70725,582.8789
"162",78.46067,582.8921
"163",78.23117,582.9053
"164",78.01877,582.91846
"165",77.83322,582.93164
"166",77.67452,582.9448
"167",77.54269,582.958
"168",77.44259,582.9712
"169",77.36935,582.9844
"170",77.32052,582.99756
"171",77.30343,583.01074
"172",77.31075,583.0239
"173",77.34493,583.0371
"174",77.401085,583.0503
"175",77.471886,583.0635
"176",77.54757,583.07666
"177",77.628136,583.08984
"178",77.7087,583.103
"179",77.786835,583.1162
"180",77.86252,583.1294
"181",77.93088,583.1426
"182",77.977264,583.15576
"183",78.00168,583.16895
"184",78.00168,583.1821
"185",77.977264,583.1953
"186",77.94064,583.2085
"187",77.8967,583.2217
"188",77.85031,583.23486
"189",77.81857,583.24805
"190",77.803925,583.2612
"191",77.821014,583.2744
"192",77.90646,583.2876
"193",78.12131,583.3008
"194",78.54124,583.31396
"195",79.23216,583.32715
"196",80.218506,583.34033
"197",81.449,583.3535
"198",82.81377,583.3667
"199",84.15411,583.3799
"200",85.316246,583.39307
"201",86.17563,583.40625
"202",86.676125,583.41943
"203",86.82262,583.4326
"204",86.66392,583.4458
"205",86.278175,583.459
"206",85.76059,583.47217
"207",85.19661,583.48535
"208",84.6424,583.49854
"209",84.119934,583.5117
"210",83.631645,583.5249
"211",83.15312,583.5381
"212",82.67216,583.5513
"213",82.178986,583.56445
"214",81.685814,583.57764
"215",81.2195,583.5908
"216",80.816666,583.604
"217",80.50172,583.6172
"218",80.291756,583.6304
"219",80.177,583.64355
"220",80.14038,583.65674
"221",80.14526,583.6699
"222",80.15747,583.6831
"223",80.14282,583.6963
"224",80.08179,583.7095
"225",79.96704,583.72266
"226",79.80347,583.73584
"227",79.588615,583.749
"228",79.34203,583.7622
"229",79.078354,583.7754
"230",78.8098,583.7886
"231",78.54612,583.80176
"232",78.29954,583.81494
"233",78.082245,583.8281
"234",77.891815,583.8413
"235",77.72335,583.8545
"236",77.58175,583.8677
"237",77.469444,583.88086
"238",77.383995,583.89404
"239",77.330284,583.9072
"240",77.30587,583.9204
"241",77.30343,583.9336
"242",77.32296,583.9468
"243",77.3547,583.95996
"244",77.401085,583.97314
"245",77.45724,583.9863
"246",77.523155,583.9995
"247",77.58907,584.0127
"248",77.65255,584.0259
"249",77.713585,584.03906
"250",77.77219,584.05225
"251",77.821014,584.0654
"252",77.8674,584.0786
"253",77.90402,584.0918
"254",77.9382,584.105
"255",77.96506,584.11816
"256",77.98459,584.13135
"257",77.99924,584.14453
"258",78.01633,584.1577
"259",78.028534,584.1709
"260",78.0383,584.1841
"261",78.0383,584.19727
"262",78.030975,584.21045
"263",78.01877,584.22363
"264",77.99924,584.2368
"265",77.98215,584.25
"266",77.96994,584.2632
"267",77.97238,584.27637
"268",78.009,584.28955
"269",78.12131,584.30273
"270",78.382545,584.3159
"271",78.8806,584.3291
"272",79.676506,584.3423
"273",80.780045,584.35547
"274",82.1326,584.36865
"275",83.597466,584.38184
"276",84.99397,584.395
"277",86.1561,584.4082
"278",86.97154,584.4214
"279",87.39391,584.4346
"280",87.4403,584.44775
"281",87.17662,584.46094
"282",86.69077,584.4741
"283",86.07797,584.4873
"284",85.418785,584.5005
"285",84.78157,584.5137
"286",84.19806,584.52686
"287",83.67559,584.54004
"288",83.19707,584.5532
"289",82.74296,584.5664
"290",82.29862,584.5796
"291",81.85916,584.5928
"292",81.446556,584.60596
"293",81.08278,584.61914
"294",80.79225,584.6323
"295",80.58961,584.6455
"296",80.46998,584.6587
"297",80.41871,584.6719
"298",80.40894,584.68506
"299",80.4065,584.69824
"300",80.377205,584.7114
"301",80.308846,584.7246
"302",80.18677,584.7378
"303",80.01099,584.751
"304",79.79126,584.76416
"305",79.53246,584.77734
"306",79.24925,584.7905
"307",78.95628,584.8037
"308",78.67063,584.8169
"309",78.39475,584.8301
"310",78.14328,584.84326
"311",77.92355,584.85645
"312",77.73556,584.8696
"313",77.58419,584.8828
"314",77.46456,584.896
"315",77.37423,584.9092
"316",77.313194,584.92236
"317",77.27657,584.93555
"318",77.264366,584.9487
"319",77.27657,584.9619
"320",77.30831,584.9751
"321",77.35714,584.9883
"322",77.418175,585.00146
"323",77.47433,585.01465
"324",77.52804,585.02783
"325",77.58175,585.041
"326",77.63546,585.0542
"327",77.679405,585.0674
"328",77.71847,585.08057
"329",77.74532,585.09375
"330",77.76242,585.10693
"331",77.76486,585.1201
"332",77.75998,585.1333
"333",77.76242,585.1465
"334",77.769745,585.15967
"335",77.77951,585.17285
"336",77.7966,585.18604
"337",77.81369,585.1992
"338",77.83078,585.2124
"339",77.84787,585.2256
"340",77.86252,585.2388
"341",77.874725,585.25195
"342",77.88449,585.26514
"343",77.88693,585.2783
"344",77.88937,585.2915
"345",77.891815,585.3047
"346",77.89914,585.3179
"347",77.91623,585.33105
"348",77.95529,585.34424
"349",78.05783,585.3574
"350",78.2971,585.3706
"351",78.77074,585.3838
"352",79.554436,585.397
"353",80.67017,585.41016
"354",82.06668,585.42334
"355",83.60967,585.4365
"356",85.11604,585.4497
"357",86.41245,585.4629
"358",87.362175,585.4761
"359",87.89685,585.48926
"360",88.01892,585.50244
"361",87.784546,585.5156
"362",87.28649,585.5288
"363",86.62241,585.542
"364",85.88754,585.5552
"365",85.15755,585.56836
"366",84.47639,585.58154
"367",83.86603,585.5947
"368",83.32647,585.6079
"369",82.83818,585.6211
"370",82.388954,585.6343
"371",81.969025,585.64746
"372",81.57595,585.66064
"373",81.22926,585.6738
"374",80.9485,585.687
"375",80.7483,585.7002
"376",80.63111,585.7134
"377",80.584724,585.72656
"378",80.58228,585.73975
"379",80.59937,585.7529
"380",80.59937,585.7661
"381",80.56031,585.7793
"382",80.46754,585.7925
"383",80.31617,585.80566
"384",80.10864,585.81885
"385",79.85718,585.83203
"386",79.569084,585.8452
"387",79.259026,585.8584
"388",78.94652,585.8716
"389",78.63889,585.88477
"390",78.348366,585.89795
"391",78.08957,585.91113
"392",77.86008,585.9243
"393",77.6672,585.9375
"394",77.51095,585.9507
"395",77.38888,585.96387
"396",77.30099,585.97705
"397",77.24483,585.99023
"398",77.222855,586.0034
"399",77.23262,586.0166
"400",77.26681,586.0298
"401",77.32052,586.04297
"402",77.383995,586.05615
"403",77.44259,586.06934
"404",77.49874,586.0825
"405",77.54757,586.0957
"406",77.593956,586.1089
"407",77.642784,586.1221
"408",77.68673,586.13525
"409",77.730675,586.14844
"410",77.77219,586.1616
"411",77.806366,586.1748
"412",77.83566,586.188
"413",77.86252,586.2012
"414",77.88205,586.21436
"415",77.89914,586.22754
"416",77.90158,586.2407
"417",77.89914,586.2539
"418",77.88937,586.2671
"419",77.874725,586.2803
"420",77.857635,586.29346
"421",77.84299,586.30664
"422",77.823456,586.3198
"423",77.80881,586.333
"424",77.79416,586.3462
"425",77.789276,586.3594
"426",77.806366,586.37256
"427",77.89426,586.38574
"428",78.12619,586.3989
"429",78.59983,586.4121
"430",79.38598,586.4253
"431",80.50416,586.4385
"432",81.89578,586.45166
"433",83.43633,586.46484
"434",84.94026,586.478
"435",86.22934,586.4912
"436",87.1693,586.5044
"437",87.69909,586.5176
"438",87.818726,586.53076
"439",87.57702,586.54395
"440",87.05943,586.5571
"441",86.37339,586.5703
"442",85.609215,586.5835
"443",84.83284,586.5967
"444",84.09552,586.60986
"445",83.424126,586.62305
"446",82.81377,586.6362
"447",82.266884,586.6494
"448",81.778595,586.6626
"449",81.34646,586.6758
"450",80.98024,586.68896
"451",80.689705,586.70215
"452",80.48707,586.71533
"453",80.37476,586.7285
"454",80.34547,586.7417
"455",80.38453,586.7549
"456",80.46021,586.76807
"457",80.53834,586.78125
"458",80.59449,586.79443
"459",80.601814,586.8076
"460",80.53834,586.8208
"461",80.40162,586.834
"462",80.201416,586.84717
"463",79.94507,586.86035
"464",79.656975,586.87354
"465",79.3518,586.8867
"466",79.04906,586.8999
"467",78.751205,586.9131
"468",78.46555,586.9263
"469",78.19699,586.93945
"470",77.95773,586.95264
"471",77.747765,586.9658
"472",77.574425,586.979
"473",77.44259,586.9922
"474",77.347374,587.0054
"475",77.28634,587.01855
"476",77.2546,587.03174
"477",77.24727,587.0449
"478",77.25948,587.0581
"479",77.29366,587.0713
"480",77.347374,587.0845
"481",77.41329,587.09766
"482",77.486534,587.11084
"483",77.5671,587.124
"484",77.645226,587.1372
"485",77.71847,587.1504
"486",77.78195,587.1636
"487",77.838104,587.17676
"488",77.88937,587.18994
"489",77.93576,587.2031
"490",77.97482,587.2163
"491",78.009,587.2295
"492",78.03586,587.2427
"493",78.048065,587.25586
"494",78.04318,587.26904
"495",78.030975,587.2822
"496",78.011444,587.2954
"497",77.98459,587.3086
"498",77.95529,587.3218
"499",77.92355,587.33496
"500",77.89426,587.34814
"501",77.874725,587.3613
"502",77.89426,587.3745
"503",78.00412,587.3877
"504",78.29221,587.4009
"505",78.836655,587.41406
"506",79.70092,587.42725
"507",80.87526,587.4404
"508",82.28153,587.4536
"509",83.77081,587.4668
"510",85.169754,587.48
"511",86.312355,587.49316
"512",87.096054,587.50635
"513",87.47448,587.51953
"514",87.464714,587.5327
"515",87.13023,587.5459
"516",86.54673,587.5591
"517",85.81186,587.57227
"518",85.00618,587.58545
"519",84.190735,587.59863
"520",83.41192,587.6118
"521",82.69657,587.625
"522",82.04715,587.6382
"523",81.47341,587.65137
"524",80.98268,587.66455
"525",80.58228,587.67773
"526",80.28443,587.6909
"527",80.09888,587.7041
"528",80.03296,587.7173
"529",80.06958,587.73047
"530",80.177,587.74365
"531",80.33082,587.75684
"532",80.49683,587.77
"533",80.64088,587.7832
"534",80.73121,587.7964
"535",80.7483,587.8096
"536",80.69215,587.82275
"537",80.55543,587.83594
"538",80.34791,587.8491
"539",80.08423,587.8623
"540",79.78638,587.8755
"541",79.47143,587.8887
"542",79.14671,587.90186
"543",78.83177,587.91504
"544",78.536354,587.9282
"545",78.26536,587.9414
"546",78.028534,587.9546
"547",77.8259,587.9678
"548",77.659874,587.98096
"549",77.53292,587.99414
"550",77.44259,588.0073
"551",77.39132,588.0205
"552",77.37423,588.0337
"553",77.38888,588.0469
"554",77.420616,588.06006
"555",77.471886,588.07324
"556",77.53536,588.0864
"557",77.60372,588.0996
"558",77.679405,588.1128
"559",77.75998,588.126
"560",77.84299,588.13916
"561",77.92844,588.15234
"562",78.009,588.1655
"563",78.08469,588.1787
"564",78.153046,588.1919
"565",78.2092,588.2051
"566",78.25315,588.21826
"567",78.277565,588.23145
"568",78.28733,588.2446
"569",78.277565,588.2578
"570",78.25315,588.271
"571",78.21896,588.2842
"572",78.17502,588.29736
"573",78.135956,588.31055
"574",78.10422,588.3237
"575",78.10422,588.3369
"576",78.187225,588.3501
"577",78.44114,588.3633
"578",78.95384,588.37646
"579",79.78882,588.38965
"580",80.93141,588.40283
"581",82.30106,588.416
"582",83.74395,588.4292
"583",85.084305,588.4424
"584",86.168304,588.45557
"585",86.90074,588.46875
"586",87.24742,588.48193
"587",87.22545,588.4951
"588",86.88609,588.5083
"589",86.30747,588.5215
"590",85.575035,588.53467
"591",84.7596,588.54785
"592",83.929504,588.56104
"593",83.13115,588.5742
"594",82.388954,588.5874
"595",81.71023,588.6006
"596",81.109634,588.6138
"597",80.601814,588.62695
"598",80.201416,588.64014
"599",79.92798,588.6533
"600",79.78882,588.6665
"601",79.781494,588.6797
"602",79.87915,588.6929
"603",80.05493,588.70605
"604",80.26734,588.71924
"605",80.479744,588.7324
"606",80.65797,588.7456
"607",80.77272,588.7588
"608",80.8069,588.772
"609",80.75319,588.78516
"610",80.61158,588.79834
"611",80.394295,588.8115
"612",80.12573,588.8247
"613",79.82544,588.8379
"614",79.50805,588.8511
"615",79.19066,588.86426
"616",78.88548,588.87744
"617",78.59251,588.8906
"618",78.32151,588.9038
"619",78.07004,588.917
"620",77.84787,588.9302
"621",77.662315,588.94336
"622",77.51095,588.95654
"623",77.38888,588.9697
"624",77.30587,588.9829
"625",77.25216,588.9961
"626",77.23018,589.0093
"627",77.23018,589.02246
"628",77.25704,589.03564
"629",77.31075,589.0488
"630",77.383995,589.062
"631",77.469444,589.0752
"632",77.5671,589.0884
"633",77.6672,589.10156
"634",77.76486,589.11475
"635",77.84787,589.1279
"636",77.91867,589.1411
"637",77.96994,589.1543
"638",78.00168,589.1675
"639",78.011444,589.18066
"640",78.00412,589.19385
"641",77.97238,589.20703
"642",77.925995,589.2202
"643",77.8674,589.2334
"644",77.806366,589.2466
"645",77.76486,589.25977
"646",77.77951,589.27295
"647",77.90646,589.28613
"648",78.23117,589.2993
"649",78.82933,589.3125
"650",79.73754,589.3257
"651",80.92409,589.33887
"652",82.28397,589.35205
"653",83.66827,589.36523
"654",84.90608,589.3784
"655",85.86069,589.3916
"656",86.45884,589.4048
"657",86.68589,589.41797
"658",86.571144,589.43115
"659",86.17319,589.44434
"660",85.56527,589.4575
"661",84.825516,589.4707
"662",84.02472,589.4839
"663",83.20683,589.4971
"664",82.41093,589.51025
"665",81.6614,589.52344
"666",80.9778,589.5366
"667",80.37965,589.5498
"668",79.89624,589.563
"669",79.54467,589.5762
"670",79.34203,589.58936
"671",79.28588,589.60254
"672",79.36645,589.6157
"673",79.54711,589.6289
"674",79.79126,589.6421
"675",80.05737,589.6553
"676",80.306404,589.66846
"677",80.50172,589.68164
"678",80.62379,589.6948
"679",80.655525,589.708
"680",80.59449,589.7212
"681",80.45045,589.7344
"682",80.235596,589.74756
"683",79.96704,589.76074
"684",79.66186,589.7739
"685",79.344475,589.7871
"686",79.02464,589.8003
"687",78.71946,589.8135
"688",78.4387,589.82666
"689",78.184784,589.83984
"690",77.95773,589.853
"691",77.75998,589.8662
"692",77.59884,589.8794
"693",77.471886,589.8926
"694",77.383995,589.90576
"695",77.33761,589.91895
"696",77.32784,589.9321
"697",77.347374,589.9453
"698",77.39376,589.9585
"699",77.45968,589.9717
"700",77.54513,589.98486
"701",77.64034,589.99805
"702",77.74288,590.0112
"703",77.84543,590.0244
"704",77.943085,590.0376
"705",78.02609,590.0508
"706",78.09201,590.06396
"707",78.1384,590.07715
"708",78.16037,590.09033
"709",78.16281,590.1035
"710",78.15549,590.1167
"711",78.14328,590.1299
"712",78.150604,590.14307
"713",78.22873,590.15625
"714",78.450905,590.16943
"715",78.9099,590.1826
"716",79.6643,590.1958
"717",80.719,590.209
"718",82.00809,590.22217
"719",83.39483,590.23535
"720",84.715645,590.24854
"721",85.821625,590.2617
"722",86.60288,590.2749
"723",87.01549,590.2881
"724",87.061874,590.3013
"725",86.783554,590.31445
"726",86.25132,590.32764
"727",85.54818,590.3408
"728",84.74738,590.354
"729",83.90997,590.3672
"730",83.07744,590.3804
"731",82.27421,590.39355
"732",81.52712,590.40674
"733",80.85329,590.4199
"734",80.274666,590.4331
"735",79.818115,590.4463
"736",79.50805,590.4595
"737",79.3518,590.47266
"738",79.344475,590.48584
"739",79.4641,590.499
"740",79.67162,590.5122
"741",79.92554,590.5254
"742",80.181885,590.5386
"743",80.40162,590.55176
"744",80.56031,590.56494
"745",80.635994,590.5781
"746",80.621346,590.5913
"747",80.51881,590.6045
"748",80.34058,590.6177
"749",80.10132,590.63086
"750",79.815674,590.64404
"751",79.500725,590.6572
"752",79.17601,590.6704
"753",78.853745,590.6836
"754",78.54368,590.6968
"755",78.25559,590.70996
"756",78.00168,590.72314
"757",77.78195,590.7363
"758",77.60616,590.7495
"759",77.467,590.7627
"760",77.36935,590.7759
"761",77.30343,590.78906
"762",77.27169,590.80225
"763",77.26681,590.8154
"764",77.2839,590.8286
"765",77.31808,590.8418
"766",77.36935,590.855
"767",77.42306,590.86816
"768",77.47921,590.88135
"769",77.5378,590.89453
"770",77.60128,590.9077
"771",77.68673,590.9209
"772",77.823456,590.9341
"773",78.07004,590.94727
"774",78.519264,590.96045
"775",79.234604,590.97363
"776",80.24536,590.9868
"777",81.50515,591
"778",82.9041,591.0132
"779",84.28596,591.02637
"780",85.487144,591.03955
"781",86.380714,591.05273
"782",86.8983,591.0659
"783",87.03258,591.0791
"784",86.81773,591.0923
"785",86.32212,591.10547
"786",85.63119,591.11865
"787",84.82796,591.13184
"788",83.98566,591.145
"789",83.15556,591.1582
"790",82.36698,591.1714
"791",81.634544,591.1846
"792",80.9778,591.19775
"793",80.40894,591.21094
"794",79.94507,591.2241
"795",79.60082,591.2373
"796",79.38842,591.2505
"797",79.310295,591.2637
"798",79.35424,591.27686
"799",79.48852,591.29004
"800",79.68139,591.3032
"801",79.89136,591.3164
"802",80.08423,591.3296
"803",80.22827,591.3428
"804",80.29908,591.35596
"805",80.28443,591.36914
"806",80.18677,591.3823
"807",80.0061,591.3955
"808",79.75708,591.4087
"809",79.45678,591.4219
"810",79.12474,591.43506
"811",78.785385,591.44824
"812",78.44846,591.4614
"813",78.133514,591.4746
"814",77.85031,591.4878
"815",77.60128,591.501
"816",77.39132,591.51416
"817",77.21553,591.52734
"818",77.08125,591.5405
"819",76.978714,591.5537
"820",76.912796,591.5669
"821",76.87862,591.5801
"822",76.87129,591.59326
"823",76.88106,591.60645
"824",76.90791,591.6196
"825",76.946976,591.6328
"826",76.995804,591.646
"827",77.0544,591.6592
"828",77.12764,591.67236
"829",77.24727,591.68555
"830",77.471886,591.6987
"831",77.88449,591.7119
"832",78.56809,591.7251
"833",79.57397,591.7383
"834",80.88747,591.75146
"835",82.39872,591.76465
"836",83.9588,591.77783
"837",85.37972,591.791
"838",86.50767,591.8042
"839",87.24498,591.8174
"840",87.55993,591.83057
"841",87.47936,591.84375
"842",87.07408,591.85693
"843",86.43687,591.8701
"844",85.660484,591.8833
"845",84.8304,591.8965
"846",84.01251,591.90967
"847",83.245895,591.92285
"848",82.54032,591.93604
"849",81.90311,591.9492
"850",81.322044,591.9624
"851",80.80934,591.9756
"852",80.365,591.9888
"853",80.01099,592.00195
"854",79.75708,592.01514
"855",79.61547,592.0283
"856",79.58373,592.0415
"857",79.64477,592.0547
"858",79.75952,592.0679
"859",79.89624,592.08105
"860",80.01343,592.09424
"861",80.07202,592.1074
"862",80.05249,592.1206
"863",79.94507,592.1338
"864",79.7522,592.147
"865",79.48852,592.16016
"866",79.17357,592.17334
"867",78.83421,592.1865
"868",78.49241,592.1997
"869",78.16281,592.2129
"870",77.857635,592.2261
"871",77.57931,592.23926
"872",77.332726,592.25244
"873",77.12276,592.2656
"874",76.95674,592.2788
"875",76.83467,592.292
"876",76.75166,592.3052
"877",76.70527,592.31836
"878",76.6833,592.33154
"879",76.6833,592.3447
"880",76.69062,592.3579
"881",76.70771,592.3711
"882",76.73701,592.3843
"883",76.773636,592.39746
"884",76.822464,592.41064
"885",76.88594,592.4238
"886",76.9836,592.437
"887",77.16426,592.4502
"888",77.506065,592.4634
"889",78.099335,592.47656
"890",79.00755,592.48975
"891",80.24048,592.5029
"892",81.71755,592.5161
"893",83.282524,592.5293
"894",84.749825,592.5425
"895",85.94858,592.55566
"896",86.75914,592.56885
"897",87.14,592.58203
"898",87.12291,592.5952
"899",86.77623,592.6084
"900",86.19516,592.6216
"901",85.4847,592.63477
"902",84.72541,592.64795
"903",83.97589,592.66113
"904",83.27276,592.6743
"905",82.62333,592.6875
"906",82.022736,592.7007
"907",81.461205,592.71387
"908",80.938736,592.72705
"909",80.46998,592.74023
"910",80.07202,592.7534
"911",79.76929,592.7666
"912",79.57641,592.7798
"913",79.4934,592.79297
"914",79.500725,592.80615
"915",79.571526,592.81934
"916",79.66918,592.8325
"917",79.7522,592.8457
"918",79.7937,592.8589
"919",79.76929,592.8721
"920",79.66674,592.88525
"921",79.48852,592.89844
"922",79.24681,592.9116
"923",78.95384,592.9248
"924",78.63401,592.938
"925",78.30198,592.9512
"926",77.979706,592.96436
"927",77.679405,592.97754
"928",77.41085,592.9907
"929",77.18379,593.0039
"930",77.00069,593.0171
"931",76.85664,593.0303
"932",76.75166,593.04346
"933",76.67841,593.05664
"934",76.629585,593.0698
"935",76.60761,593.083
"936",76.60273,593.0962
"937",76.612495,593.1094
"938",76.63935,593.12256
"939",76.67109,593.13574
"940",76.71015,593.1489
"941",76.76143,593.1621
"942",76.81514,593.1753
"943",76.87862,593.1885
"944",76.97383,593.20166
"945",77.14961,593.21484
"946",77.488976,593.228
"947",78.07492,593.2412
"948",78.96849,593.2544
"949",80.164795,593.2676
"950",81.58083,593.28076
"951",83.06767,593.29395
"952",84.44221,593.3071
"953",85.54574,593.3203
"954",86.26841,593.3335
"955",86.57603,593.3467
"956",86.50034,593.35986
"957",86.117035,593.37305
"958",85.52865,593.3862
"959",84.8304,593.3994
"960",84.102844,593.4126
"961",83.39483,593.4258
"962",82.73319,593.43896
"963",82.11551,593.45215
"964",81.53933,593.46533
"965",80.99977,593.4785
"966",80.50416,593.4917
"967",80.06958,593.5049
"968",79.72045,593.51807
"969",79.47875,593.53125
"970",79.34936,593.54443
"971",79.33227,593.5576
"972",79.398186,593.5708
"973",79.51293,593.584
"974",79.63012,593.59717
"975",79.71557,593.61035
"976",79.73266,593.62354
"977",79.674065,593.6367
"978",79.53246,593.6499
"979",79.3225,593.6631
"980",79.05882,593.6763
"981",78.76097,593.68945
"982",78.44846,593.70264
"983",78.1384,593.7158
"984",77.85031,593.729
"985",77.58907,593.7422
"986",77.36202,593.7554
"987",77.17403,593.76855
"988",77.032425,593.78174
"989",76.927444,593.7949
"990",76.86153,593.8081
"991",76.82735,593.8213
"992",76.81514,593.8345
"993",76.81026,593.84766
"994",76.81758,593.86084
"995",76.83223,593.874
"996",76.85176,593.8872
"997",76.87129,593.9004
"998",76.895706,593.9136
"999",76.92256,593.92676
"1000",76.946976,593.93994
"1001",76.97383,593.9531
"1002",77.015335,593.9663
"1003",77.09346,593.9795
"1004",77.25704,593.9927
"1005",77.58907,594.00586
"1006",78.17258,594.01904
"1007",79.05882,594.0322
"1008",80.233154,594.0454
"1009",81.61257,594.0586
"1010",83.038376,594.0718
"1011",84.34211,594.08496
"1012",85.36996,594.09814
"1013",86.01938,594.1113
"1014",86.26841,594.1245
"1015",86.1561,594.1377
"1016",85.75815,594.1509
"1017",85.169754,594.16406
"1018",84.48615,594.17725
"1019",83.77814,594.1904
"1020",83.09697,594.2036
"1021",82.45243,594.2168
"1022",81.849396,594.23
"1023",81.28054,594.24316
"1024",80.75563,594.25635
"1025",80.28687,594.26953
"1026",79.903564,594.2827
"1027",79.62524,594.2959
"1028",79.47387,594.3091
"1029",79.43969,594.32227
"1030",79.50561,594.33545
"1031",79.62524,594.34863
"1032",79.766846,594.3618
"1033",79.886475,594.375
"1034",79.94995,594.3882
"1035",79.9353,594.40137
"1036",79.84009,594.41455
"1037",79.66186,594.42773
"1038",79.415276,594.4409
"1039",79.11986,594.4541
"1040",78.80492,594.4673
"1041",78.48264,594.48047
"1042",78.17502,594.49365
"1043",77.89426,594.50684
"1044",77.645226,594.52
"1045",77.435265,594.5332
"1046",77.26925,594.5464
"1047",77.14961,594.5596
"1048",77.07149,594.57275
"1049",77.03487,594.58594
"1050",77.02754,594.5991
"1051",77.04463,594.6123
"1052",77.07881,594.6255
"1053",77.12276,594.6387
"1054",77.17403,594.65186
"1055",77.225296,594.66504
"1056",77.27169,594.6782
"1057",77.313194,594.6914
"1058",77.35226,594.7046
"1059",77.38888,594.7178
"1060",77.42794,594.73096
"1061",77.47677,594.74414
"1062",77.54269,594.7573
"1063",77.662315,594.7705
"1064",77.89426,594.7837
"1065",78.32151,594.7969
"1066",79.01488,594.81006
"1067",80.00366,594.82324
"1068",81.23903,594.8364
"1069",82.59647,594.8496
"1070",83.90753,594.8628
"1071",85.00374,594.876
"1072",85.767914,594.88916
"1073",86.14145,594.90234
"1074",86.14145,594.9155
"1075",85.83383,594.9287
"1076",85.30404,594.9419
"1077",84.644844,594.9551
"1078",83.94415,594.96826
"1079",83.24834,594.98145
"1080",82.581825,594.9946
"1081",81.951935,595.0078
"1082",81.36355,595.021
"1083",80.82155,595.0342
"1084",80.34547,595.04736
"1085",79.96704,595.06055
"1086",79.70336,595.0737
"1087",79.5642,595.0869
"1088",79.54467,595.1001
"1089",79.61547,595.1133
"1090",79.744865,595.12646
"1091",79.888916,595.13965
"1092",80.01343,595.15283
"1093",80.08667,595.166
"1094",80.08911,595.1792
"1095",80.01343,595.1924
"1096",79.8645,595.20557
"1097",79.65453,595.21875
"1098",79.40307,595.23193
"1099",79.12474,595.2451
"1100",78.839096,595.2583
"1101",78.55833,595.2715
"1102",78.29954,595.28467
"1103",78.07004,595.29785
"1104",77.8674,595.31104
"1105",77.7087,595.3242
"1106",77.58419,595.3374
"1107",77.49142,595.3506
"1108",77.42794,595.3638
"1109",77.39376,595.37695
"1110",77.37911,595.39014
"1111",77.38155,595.4033
"1112",77.39376,595.4165
"1113",77.41573,595.4297
"1114",77.44259,595.4429
"1115",77.47433,595.45605
"1116",77.51095,595.46924
"1117",77.55978,595.4824
"1118",77.62081,595.4956
"1119",77.69894,595.5088
"1120",77.823456,595.522
"1121",78.048065,595.53516
"1122",78.44846,595.54834
"1123",79.09056,595.5615
"1124",79.99634,595.5747
"1125",81.13161,595.5879
"1126",82.38651,595.6011
"1127",83.59991,595.61426
"1128",84.61799,595.62744
"1129",85.32845,595.6406
"1130",85.680016,595.6538
"1131",85.680016,595.667
"1132",85.382164,595.6802
"1133",84.874344,595.69336
"1134",84.23468,595.70654
"1135",83.546196,595.7197
"1136",82.85283,595.7329
"1137",82.178986,595.7461
"1138",81.53689,595.7593
"1139",80.936295,595.77246
"1140",80.39185,595.78564
"1141",79.92798,595.7988
"1142",79.571526,595.812
"1143",79.34692,595.8252
"1144",79.25414,595.8384
"1145",79.27856,595.85156
"1146",79.38598,595.86475
"1147",79.53979,595.8779
"1148",79.70092,595.8911
"1149",79.83276,595.9043
"1150",79.906006,595.9175
"1151",79.906006,595.93066
"1152",79.83276,595.94385
"1153",79.68383,595.95703
"1154",79.47387,595.9702
"1155",79.2224,595.9834
"1156",78.94896,595.9966
"1157",78.66819,596.00977
"1158",78.399635,596.02295
"1159",78.153046,596.03613
"1160",77.9382,596.0493
"1161",77.7551,596.0625
"1162",77.608604,596.0757
"1163",77.49386,596.08887
"1164",77.41329,596.10205
"1165",77.35958,596.11523
"1166",77.332726,596.1284
"1167",77.3254,596.1416
"1168",77.332726,596.1548
"1169",77.347374,596.16797
"1170",77.36935,596.18115
"1171",77.39376,596.19434
"1172",77.4255,596.2075
"1173",77.469444,596.2207
"1174",77.523155,596.2339
"1175",77.591515,596.2471
"1176",77.68673,596.26025
"1177",77.855194,596.27344
"1178",78.16525,596.2866
"1179",78.692604,596.2998
"1180",79.49096,596.313
"1181",80.552986,596.3262
"1182",81.80789,596.33936
"1183",83.1165,596.35254
"1184",84.315254,596.3657
"1185",85.262535,596.3789
"1186",85.86557,596.3921
"1187",86.09262,596.4053
"1188",85.977875,596.41846
"1189",85.59457,596.43164
"1190",85.03792,596.4448
"1191",84.39094,596.458
"1192",83.72686,596.4712
"1193",83.07744,596.4844
"1194",82.45487,596.49756
"1195",81.85428,596.51074
"1196",81.28298,596.5239
"1197",80.743416,596.5371
"1198",80.26978,596.5503
"1199",79.88403,596.5635
"1200",79.61547,596.57666
"1201",79.4641,596.58984
"1202",79.42504,596.603
"1203",79.47387,596.6162
"1204",79.57641,596.6294
"1205",79.69604,596.6426
"1206",79.801025,596.65576
"1207",79.852295,596.66895
"1208",79.835205,596.6821
"1209",79.73754,596.6953
"1210",79.569084,596.7085
"1211",79.34203,596.7217
"1212",79.08324,596.73486
"1213",78.80492,596.74805
"1214",78.52659,596.7612
"1215",78.25071,596.7744
"1216",77.98947,596.7876
"1217",77.75021,596.8008
"1218",77.5378,596.81396
"1219",77.35958,596.82715
"1220",77.222855,596.84033
"1221",77.1252,596.8535
"1222",77.066605,596.8667
"1223",77.04707,596.8799
"1224",77.05928,596.89307
"1225",77.09346,596.90625
"1226",77.14229,596.91943
"1227",77.196,596.9326
"1228",77.239944,596.9458
"1229",77.27169,596.959
"1230",77.298546,596.97217
"1231",77.32296,596.98535
"1232",77.349815,596.99854
"1233",77.38888,597.0117
"1234",77.44015,597.0249
"1235",77.52804,597.0381
"1236",77.70382,597.0513
"1237",78.04318,597.06445
"1238",78.63157,597.07764
"1239",79.517815,597.0908
"1240",80.6775,597.104
"1241",82.01785,597.1172
"1242",83.387505,597.1304
"1243",84.61799,597.14355
"1244",85.56527,597.15674
"1245",86.1561,597.1699
"1246",86.37339,597.1831
"1247",86.258644,597.1963
"1248",85.88022,597.2095
"1249",85.33578,597.22266
"1250",84.70832,597.23584
"1251",84.06134,597.249
"1252",83.438774,597.2622
"1253",82.85771,597.2754
"1254",82.303505,597.2886
"1255",81.75906,597.30176
"1256",81.22682,597.31494
"1257",80.71656,597.3281
"1258",80.257576,597.3413
"1259",79.88403,597.3545
"1260",79.62035,597.3677
"1261",79.47875,597.38086
"1262",79.44213,597.39404
"1263",79.47875,597.4072
"1264",79.54955,597.4204
"1265",79.62035,597.4336
"1266",79.65453,597.4468
"1267",79.63256,597.45996
"1268",79.54711,597.47314
"1269",79.3933,597.4863
"1270",79.18089,597.4995
"1271",78.92699,597.5127
"1272",78.65598,597.5259
"1273",78.380104,597.53906
"1274",78.116425,597.55225
"1275",77.86496,597.5654
"1276",77.63302,597.5786
"1277",77.42794,597.5918
"1278",77.24727,597.605
"1279",77.103226,597.61816
"1280",76.995804,597.63135
"1281",76.927444,597.64453
"1282",76.895706,597.6577
"1283",76.895706,597.6709
"1284",76.93233,597.6841
"1285",76.998245,597.69727
"1286",77.086136,597.71045
"1287",77.18623,597.72363
"1288",77.28878,597.7368
"1289",77.38644,597.75
"1290",77.469444,597.7632
"1291",77.5378,597.77637
"1292",77.58419,597.78955
"1293",77.61349,597.80273
"1294",77.62325,597.8159
"1295",77.611046,597.8291
"1296",77.591515,597.8423
"1297",77.56954,597.85547
"1298",77.57198,597.86865
"1299",77.65011,597.88184
"1300",77.874725,597.895
"1301",78.331276,597.9082
"1302",79.08568,597.9214
"1303",80.15747,597.9346
"1304",81.48562,597.94775
"1305",82.93584,597.96094
"1306",84.3299,597.9741
"1307",85.49935,597.9873
"1308",86.32212,598.0005
"1309",86.7567,598.0137
"1310",86.81285,598.02686
"1311",86.56138,598.04004
"1312",86.08774,598.0532
"1313",85.487144,598.0664
"1314",84.83772,598.0796
"1315",84.19806,598.0928
"1316",83.5877,598.10596
"1317",83.01152,598.11914
"1318",82.45243,598.1323
"1319",81.898224,598.1455
"1320",81.35134,598.1587
"1321",80.8362,598.1719
"1322",80.38209,598.18506
"1323",80.025635,598.19824
"1324",79.781494,598.2114
"1325",79.64965,598.2246
"1326",79.61547,598.2378
"1327",79.65453,598.251
"1328",79.725334,598.26416
"1329",79.79614,598.27734
"1330",79.82544,598.2905
"1331",79.79614,598.3037
"1332",79.69604,598.3169
"1333",79.52758,598.3301
"1334",79.30053,598.34326
"1335",79.03685,598.35645
"1336",78.75365,598.3696
"1337",78.46555,598.3828
"1338",78.18967,598.396
"1339",77.93088,598.4092
"1340",77.70382,598.42236
"1341",77.506065,598.43555
"1342",77.34249,598.4487
"1343",77.21309,598.4619
"1344",77.117874,598.4751
"1345",77.051956,598.4883
"1346",77.01045,598.50146
"1347",77.00069,598.51465
"1348",77.015335,598.52783
"1349",77.051956,598.541
"1350",77.10811,598.5542
"1351",77.17891,598.5674
"1352",77.25948,598.58057
"1353",77.34005,598.59375
"1354",77.418175,598.60693
"1355",77.488976,598.6201
"1356",77.55489,598.6333
"1357",77.61593,598.6465
"1358",77.67208,598.65967
"1359",77.72579,598.67285
"1360",77.77707,598.68604
"1361",77.823456,598.6992
"1362",77.8674,598.7124
"1363",77.908905,598.7256
"1364",77.95041,598.7388
"1365",77.994354,598.75195
"1366",78.028534,598.76514
"1367",78.05539,598.7783
"1368",78.0676,598.7915
"1369",78.07004,598.8047
"1370",78.06027,598.8179
"1371",78.04074,598.83105
"1372",78.013885,598.84424
"1373",77.98459,598.8574
"1374",77.96506,598.8706
"1375",77.98215,598.8838
"1376",78.099335,598.897
"1377",78.4094,598.91016
"1378",79.012436,598.92334
"1379",79.95972,598.9365
"1380",81.248795,598.9497
"1381",82.777145,598.9629
"1382",84.37385,598.9761
"1383",85.83627,598.98926
"1384",86.99107,599.00244
"1385",87.73815,599.0156
"1386",88.04822,599.0288
"1387",87.957886,599.042
"1388",87.552605,599.0552
"1389",86.93492,599.06836
"1390",86.204926,599.08154
"1391",85.44076,599.0947
"1392",84.70832,599.1079
"1393",84.0296,599.1211
"1394",83.41924,599.1343
"1395",82.85527,599.14746
"1396",82.32548,599.16064
"1397",81.82742,599.1738
"1398",81.36599,599.187
"1399",80.96559,599.2002
"1400",80.65064,599.2134
"1401",80.43824,599.22656
"1402",80.325935,599.23975
"1403",80.30152,599.2529
"1404",80.33326,599.2661
"1405",80.38453,599.2793
"1406",80.41871,599.2925
"1407",80.411385,599.30566
"1408",80.33814,599.31885
"1409",80.19409,599.33203
"1410",79.98901,599.3452
"1411",79.7351,599.3584
"1412",79.447014,599.3716
"1413",79.14183,599.38477
"1414",78.83421,599.39795
"1415",78.538795,599.41113
"1416",78.26292,599.4243
"1417",78.011444,599.4375
"1418",77.79416,599.4507
"1419",77.608604,599.46387
"1420",77.45724,599.47705
"1421",77.34249,599.49023
"1422",77.261925,599.5034
"1423",77.21797,599.5166
"1424",77.208206,599.5298
"1425",77.225296,599.54297
"1426",77.26925,599.55615
"1427",77.330284,599.56934
"1428",77.401085,599.5825
"1429",77.471886,599.5957
"1430",77.54269,599.6089
"1431",77.608604,599.6221
"1432",77.67452,599.63525
"1433",77.730675,599.64844
"1434",77.786835,599.6616
"1435",77.82834,599.6748
"1436",77.857635,599.688
"1437",77.86984,599.7012
"1438",77.87717,599.71436
"1439",77.88205,599.72754
"1440",77.88937,599.7407
"1441",77.8967,599.7539
"1442",77.90646,599.7671
"1443",77.90646,599.7803
"1444",77.89914,599.79346
"1445",77.88693,599.80664
"1446",77.86984,599.8198
"1447",77.84787,599.833
"1448",77.8259,599.8462
"1449",77.806366,599.8594
"1450",77.7966,599.87256
"1451",77.80881,599.88574
"1452",77.88693,599.8989
"1453",78.1091,599.9121
"1454",78.5803,599.9253
"1455",79.38354,599.9385
"1456",80.54566,599.95166
"1457",82.003204,599.96484
"1458",83.614555,599.978
"1459",85.172195,599.9912
"1460",86.48325,600.0044
"1461",87.411,600.0176
"1462",87.89441,600.03076
"1463",87.94568,600.04395
"1464",87.63561,600.0571
"1465",87.05943,600.0703
"1466",86.327,600.0835
"1467",85.53353,600.0967
"1468",84.754715,600.10986
"1469",84.02472,600.12305
"1470",83.36309,600.1362
"1471",82.76738,600.1494
"1472",82.2327,600.1626
"1473",81.74441,600.1758
"1474",81.307396,600.18896
"1475",80.92653,600.20215
"1476",80.621346,600.21533
"1477",80.40406,600.2285
"1478",80.27955,600.2417
"1479",80.23804,600.2549
"1480",80.257576,600.26807
"1481",80.308846,600.28125
"1482",80.365,600.29443
"1483",80.394295,600.3076
"1484",80.37232,600.3208
"1485",80.28443,600.334
"1486",80.128174,600.34717
"1487",79.91089,600.36035
"1488",79.64721,600.37354
"1489",79.35424,600.3867
"1490",79.04906,600.3999
"1491",78.74387,600.4131
"1492",78.44602,600.4263
"1493",78.170135,600.43945
"1494",77.92111,600.45264
"1495",77.7087,600.4658
"1496",77.53292,600.479
"1497",77.39864,600.4922
"1498",77.296104,600.5054
"1499",77.22774,600.51855
"1500",77.19844,600.53174
"1501",77.19844,600.5449
"1502",77.225296,600.5581
"1503",77.27169,600.5713
"1504",77.332726,600.5845
"1505",77.401085,600.59766
"1506",77.47677,600.61084
"1507",77.55489,600.624
"1508",77.63058,600.6372
"1509",77.70382,600.6504
"1510",77.77219,600.6636
"1511",77.8259,600.67676
"1512",77.872284,600.68994
"1513",77.90402,600.7031
"1514",77.925995,600.7163
"1515",77.945526,600.7295
"1516",77.962616,600.7427
"1517",77.977264,600.75586
"1518",77.98947,600.76904
"1519",77.994354,600.7822
"1520",77.98215,600.7954
"1521",77.960175,600.8086
"1522",77.925995,600.8218
"1523",77.88937,600.83496
"1524",77.85275,600.84814
"1525",77.81857,600.8613
"1526",77.79904,600.8745
"1527",77.823456,600.8877
"1528",77.95041,600.9009
"1529",78.27268,600.91406
"1530",78.890366,600.92725
"1531",79.85474,600.9404
"1532",81.15114,600.9536
"1533",82.67948,600.9668
"1534",84.26887,600.98
"1535",85.71908,600.99316
"1536",86.85924,601.00635
"1537",87.589226,601.01953
"1538",87.8822,601.0327
"1539",87.77234,601.0459
"1540",87.33532,601.0591
"1541",86.676125,601.07227
"1542",85.8851,601.08545
"1543",85.05501,601.09863
"1544",84.244446,601.1118
"1545",83.49493,601.125
"1546",82.811325,601.1382
"1547",82.196075,601.15137
"1548",81.64187,601.16455
"1549",81.15114,601.17773
"1550",80.72877,601.1909
"1551",80.396736,601.2041
"1552",80.164795,601.2173
"1553",80.04028,601.23047
"1554",80.01343,601.24365
"1555",80.06958,601.25684
"1556",80.177,601.27
"1557",80.29908,601.2832
"1558",80.394295,601.2964
"1559",80.4358,601.3096
"1560",80.4065,601.32275
"1561",80.308846,601.33594
"1562",80.14282,601.3491
"1563",79.920654,601.3623
"1564",79.656975,601.3755
"1565",79.36645,601.3887
"1566",79.05394,601.40186
"1567",78.74387,601.41504
"1568",78.44846,601.4282
"1569",78.1799,601.4414
"1570",77.94064,601.4546
"1571",77.74044,601.4678
"1572",77.57198,601.48096
"1573",77.44503,601.49414
"1574",77.349815,601.5073
"1575",77.29366,601.5205
"1576",77.27169,601.5337
"1577",77.27657,601.5469
"1578",77.30831,601.56006
"1579",77.3547,601.57324
"1580",77.41573,601.5864
"1581",77.48409,601.5996
"1582",77.55978,601.6128
"1583",77.6379,601.626
"1584",77.71603,601.63916
"1585",77.786835,601.65234
"1586",77.85275,601.6655
"1587",77.91135,601.6787
"1588",77.95529,601.6919
"1589",77.996796,601.7051
"1590",78.02365,601.71826
"1591",78.04318,601.73145
"1592",78.048065,601.7446
"1593",78.0383,601.7578
"1594",78.01633,601.771
"1595",77.98947,601.7842
"1596",77.95773,601.79736
"1597",77.92111,601.81055
"1598",77.88205,601.8237
"1599",77.84299,601.8369
"1600",77.81613,601.8501
"1601",77.83322,601.8633
"1602",77.960175,601.87646
"1603",78.2971,601.88965
"1604",78.93187,601.90283
"1605",79.90845,601.916
"1606",81.20729,601.9292
"1607",82.72343,601.9424
"1608",84.281075,601.95557
"1609",85.68246,601.96875
"1610",86.76158,601.98193
"1611",87.432976,601.9951
"1612",87.674675,602.0083
"1613",87.52087,602.0215
"1614",87.05211,602.03467
"1615",86.366066,602.04785
"1616",85.56039,602.06104
"1617",84.71076,602.0742
"1618",83.878235,602.0874
"1619",83.104294,602.1006
"1620",82.39872,602.1138
"1621",81.76639,602.12695
"1622",81.214615,602.14014
"1623",80.740974,602.1533
"1624",80.36256,602.1665
"1625",80.09155,602.1797
"1626",79.9353,602.1929
"1627",79.88403,602.20605
"1628",79.92554,602.21924
"1629",80.042725,602.2324
"1630",80.19409,602.2456
"1631",80.343025,602.2588
"1632",80.46021,602.272
"1633",80.51392,602.28516
"1634",80.48707,602.29834
"1635",80.37965,602.3115
"1636",80.19409,602.3247
"1637",79.95239,602.3379
"1638",79.66674,602.3511
"1639",79.35912,602.36426
"1640",79.04173,602.37744
"1641",78.73167,602.3906
"1642",78.44114,602.4038
"1643",78.1799,602.417
"1644",77.95285,602.4302
"1645",77.75754,602.44336
"1646",77.5964,602.45654
"1647",77.47433,602.4697
"1648",77.38888,602.4829
"1649",77.33517,602.4961
"1650",77.31808,602.5093
"1651",77.33517,602.52246
"1652",77.37667,602.53564
"1653",77.437706,602.5488
"1654",77.50851,602.562
"1655",77.58907,602.5752
"1656",77.67208,602.5884
"1657",77.75754,602.60156
"1658",77.85031,602.61475
"1659",77.94797,602.6279
"1660",78.04074,602.6411
"1661",78.12863,602.6543
"1662",78.204315,602.6675
"1663",78.26292,602.68066
"1664",78.2971,602.69385
"1665",78.311745,602.70703
"1666",78.30686,602.7202
"1667",78.28489,602.7334
"1668",78.25315,602.7466
"1669",78.21652,602.75977
"1670",78.167694,602.77295
"1671",78.118866,602.78613
"1672",78.07248,602.7993
"1673",78.05783,602.8125
"1674",78.12619,602.8257
"1675",78.3679,602.83887
"1676",78.87572,602.85205
"1677",79.71801,602.86523
"1678",80.885025,602.8784
"1679",82.30106,602.8916
"1680",83.809875,602.9048
"1681",85.23079,602.91797
"1682",86.383156,602.93115
"1683",87.15953,602.94434
"1684",87.52331,602.9575
"1685",87.48913,602.9707
"1686",87.115585,602.9839
"1687",86.49058,602.9971
"1688",85.70931,603.01025
"1689",84.85481,603.02344
"1690",83.99542,603.0366
"1691",83.17265,603.0498
"1692",82.41581,603.063
"1693",81.73464,603.0762
"1694",81.13893,603.08936
"1695",80.635994,603.10254
"1696",80.24292,603.1157
"1697",79.96704,603.1289
"1698",79.818115,603.1421
"1699",79.77905,603.1553
"1700",79.84009,603.16846
"1701",79.971924,603.18164
"1702",80.14282,603.1948
"1703",80.31861,603.208
"1704",80.465096,603.2212
"1705",80.550545,603.2344
"1706",80.55787,603.24756
"1707",80.4773,603.26074
"1708",80.31617,603.2739
"1709",80.08911,603.2871
"1710",79.818115,603.3003
"1711",79.517815,603.3135
"1712",79.21019,603.32666
"1713",78.90257,603.33984
"1714",78.61204,603.353
"1715",78.34104,603.3662
"1716",78.101776,603.3794
"1717",77.90402,603.3926
"1718",77.74288,603.40576
"1719",77.61837,603.41895
"1720",77.53048,603.4321
"1721",77.471886,603.4453
"1722",77.44503,603.4585
"1723",77.44259,603.4717
"1724",77.471886,603.48486
"1725",77.5256,603.49805
"1726",77.593956,603.5112
"1727",77.67696,603.5244
"1728",77.769745,603.5376
"1729",77.86496,603.5508
"1730",77.96506,603.56396
"1731",78.05539,603.57715
"1732",78.133514,603.59033
"1733",78.19699,603.6035
"1734",78.24826,603.6167
"1735",78.28001,603.6299
"1736",78.2971,603.64307
"1737",78.29954,603.65625
"1738",78.28245,603.66943
"1739",78.25071,603.6826
"1740",78.204315,603.6958
"1741",78.14816,603.709
"1742",78.08957,603.72217
"1743",78.0383,603.73535
"1744",78.01633,603.74854
"1745",78.07736,603.7617
"1746",78.2971,603.7749
"1747",78.77074,603.7881
"1748",79.55688,603.8013
"1749",80.655525,603.81445
"1750",81.99588,603.82764
"1751",83.42657,603.8408
"1752",84.76936,603.854
"1753",85.86557,603.8672
"1754",86.607765,603.8804
"1755",86.95445,603.89355
"1756",86.91783,603.90674
"1757",86.55894,603.9199
"1758",85.95346,603.9331
"1759",85.186844,603.9463
"1760",84.33967,603.9595
"1761",83.47295,603.97266
"1762",82.633095,603.98584
"1763",81.83963,603.999
"1764",81.1194,604.0122
"1765",80.48463,604.0254
"1766",79.96216,604.0386
"1767",79.56176,604.05176
"1768",79.30297,604.06494
"1769",79.183334,604.0781
"1770",79.19554,604.0913
"1771",79.31518,604.1045
"1772",79.50805,604.1177
"1773",79.742424,604.13086
"1774",79.96704,604.14404
"1775",80.147705,604.1572
"1776",80.26734,604.1704
"1777",80.30152,604.1836
"1778",80.25269,604.1968
"1779",80.128174,604.20996
"1780",79.9353,604.22314
"1781",79.691154,604.2363
"1782",79.412834,604.2495
"1783",79.11986,604.2627
"1784",78.82689,604.2759
"1785",78.54612,604.28906
"1786",78.28245,604.30225
"1787",78.04074,604.3154
"1788",77.83078,604.3286
"1789",77.65499,604.3418
"1790",77.52071,604.355
"1791",77.42794,604.36816
"1792",77.36935,604.38135
"1793",77.34249,604.39453
"1794",77.347374,604.4077
"1795",77.383995,604.4209
"1796",77.44259,604.4341
"1797",77.52804,604.44727
"1798",77.63058,604.46045
"1799",77.74044,604.47363
"1800",77.85275,604.4868
"1801",77.9675,604.5
"1802",78.07736,604.5132
"1803",78.17502,604.52637
"1804",78.25315,604.53955
"1805",78.314186,604.55273
"1806",78.348366,604.5659
"1807",78.35569,604.5791
"1808",78.34104,604.5923
"1809",78.30686,604.60547
"1810",78.25315,604.61865
"1811",78.18967,604.63184
"1812",78.12863,604.645
"1813",78.08469,604.6582
"1814",78.08713,604.6714
"1815",78.204315,604.6846
"1816",78.521706,604.69775
"1817",79.11986,604.71094
"1818",80.03296,604.7241
"1819",81.22682,604.7373
"1820",82.59159,604.7505
"1821",83.96857,604.7637
"1822",85.17952,604.77686
"1823",86.09262,604.79004
"1824",86.63706,604.8032
"1825",86.79332,604.8164
"1826",86.59556,604.8296
"1827",86.11215,604.8428
"1828",85.42123,604.85596
"1829",84.60334,604.86914
"1830",83.7293,604.8823
"1831",82.85527,604.8955
"1832",82.01785,604.9087
"1833",81.24635,604.9219
"1834",80.55543,604.93506
"1835",79.971924,604.94824
"1836",79.51293,604.9614
"1837",79.19798,604.9746
"1838",79.044174,604.9878
"1839",79.04906,605.001
"1840",79.17845,605.01416
"1841",79.395744,605.02734
"1842",79.656975,605.0405
"1843",79.91577,605.0537
"1844",80.13794,605.0669
"1845",80.289314,605.0801
"1846",80.360115,605.09326
"1847",80.34547,605.10645
"1848",80.24536,605.1196
"1849",80.0647,605.1328
"1850",79.823,605.146
"1851",79.53979,605.1592
"1852",79.237045,605.17236
"1853",78.92943,605.18555
"1854",78.63401,605.1987
"1855",78.35325,605.2119
"1856",78.09689,605.2251
"1857",77.86984,605.2383
"1858",77.67696,605.25146
"1859",77.51827,605.26465
"1860",77.3962,605.27783
"1861",77.315636,605.291
"1862",77.27413,605.3042
"1863",77.26925,605.3174
"1864",77.298546,605.33057
"1865",77.35958,605.34375
"1866",77.44991,605.35693
"1867",77.557335,605.3701
"1868",77.679405,605.3833
"1869",77.81369,605.3965
"1870",77.945526,605.40967
"1871",78.065155,605.42285
"1872",78.16525,605.43604
"1873",78.23361,605.4492
"1874",78.277565,605.4624
"1875",78.294655,605.4756
"1876",78.28977,605.4888
"1877",78.27024,605.50195
"1878",78.24582,605.51514
"1879",78.238495,605.5283
"1880",78.30198,605.5415
"1881",78.52415,605.5547
"1882",79.00023,605.5679
"1883",79.79614,605.58105
"1884",80.91676,605.59424
"1885",82.286415,605.6074
"1886",83.76105,605.6206
"1887",85.15755,605.6338
"1888",86.30991,605.647
"1889",87.10826,605.66016
"1890",87.50866,605.67334
"1891",87.5111,605.6865
"1892",87.1693,605.6997
"1893",86.56382,605.7129
"1894",85.787445,605.7261
"1895",84.91829,605.73926
"1896",84.034485,605.75244
"1897",83.18486,605.7656
"1898",82.39628,605.7788
"1899",81.67361,605.792
"1900",81.03395,605.8052
"1901",80.49195,605.81836
"1902",80.059814,605.83154
"1903",79.75708,605.8447
"1904",79.59838,605.8579
"1905",79.57641,605.8711
"1906",79.67162,605.8843
"1907",79.84741,605.89746
"1908",80.0647,605.91064
"1909",80.27711,605.9238
"1910",80.45045,605.937
"1911",80.552986,605.9502
"1912",80.57496,605.9634
"1913",80.5066,605.97656
"1914",80.36256,605.98975
"1915",80.14526,606.0029
"1916",79.87915,606.0161
"1917",79.58129,606.0293
"1918",79.26635,606.0425
"1919",78.94652,606.05566
"1920",78.63645,606.06885
"1921",78.35081,606.08203
"1922",78.08957,606.0952
"1923",77.855194,606.1084
"1924",77.662315,606.1216
"1925",77.50851,606.13477
"1926",77.39376,606.14795
"1927",77.3254,606.16113
"1928",77.298546,606.1743
"1929",77.313194,606.1875
"1930",77.35958,606.2007
"1931",77.42794,606.21387
"1932",77.51095,606.22705
"1933",77.60128,606.24023
"1934",77.68673,606.2534
"1935",77.7673,606.2666
"1936",77.83566,606.2798
"1937",77.89426,606.29297
"1938",77.9382,606.30615
"1939",77.97482,606.31934
"1940",78.01877,606.3325
"1941",78.116425,606.3457
"1942",78.331276,606.3589
"1943",78.75609,606.3721
"1944",79.47631,606.38525
"1945",80.51881,606.39844
"1946",81.83963,606.4116
"1947",83.32403,606.4248
"1948",84.79866,606.438
"1949",86.08774,606.4512
"1950",87.04967,606.46436
"1951",87.60876,606.47754
"1952",87.75281,606.4907
"1953",87.52575,606.5039
"1954",87.00572,606.5171
"1955",86.2855,606.5303
"1956",85.45785,606.54346
"1957",84.6009,606.55664
"1958",83.773254,606.5698
"1959",83.001755,606.583
"1960",82.30106,606.5962
"1961",81.668724,606.6094
"1962",81.10231,606.62256
"1963",80.61646,606.63574
"1964",80.22827,606.6489
"1965",79.957275,606.6621
"1966",79.81323,606.6753
"1967",79.79126,606.6885
"1968",79.871826,606.70166
"1969",80.01831,606.71484
"1970",80.184326,606.728
"1971",80.33326,606.7412
"1972",80.430916,606.7544
"1973",80.448006,606.7676
"1974",80.377205,606.78076
"1975",80.22339,606.79395
"1976",79.99634,606.8071
"1977",79.7058,606.8203
"1978",79.37377,606.8335
"1979",79.01976,606.8467
"1980",78.66331,606.85986
"1981",78.32639,606.87305
"1982",78.02365,606.8862
"1983",77.75754,606.8994
"1984",77.53292,606.9126
"1985",77.34493,606.9258
"1986",77.19844,606.93896
"1987",77.09102,606.95215
"1988",77.02022,606.96533
"1989",76.978714,606.9785
"1990",76.964066,606.9917
"1991",76.96651,607.0049
"1992",76.98604,607.01807
"1993",77.01289,607.03125
"1994",77.05684,607.04443
"1995",77.11055,607.0576
"1996",77.18135,607.0708
"1997",77.28634,607.084
"1998",77.471886,607.09717
"1999",77.806366,607.11035
"2000",78.380104,607.12354
"2001",79.26635,607.1367
"2002",80.47486,607.1499
"2003",81.9324,607.1631
"2004",83.50469,607.1763
"2005",84.998856,607.18945
"2006",86.239105,607.20264
"2007",87.098495,607.2158
"2008",87.52575,607.229
"2009",87.53796,607.2422
"2010",87.201035,607.2554
"2011",86.61021,607.26855
"2012",85.86801,607.28174
"2013",85.06233,607.2949
"2014",84.27131,607.3081
"2015",83.52422,607.3213
"2016",82.83818,607.3345
"2017",82.20828,607.34766
"2018",81.62234,607.36084
"2019",81.08278,607.374
"2020",80.59693,607.3872
"2021",80.184326,607.4004
"2022",79.869385,607.4136
"2023",79.6643,607.42676
"2024",79.57641,607.43994
"2025",79.58373,607.4531
"2026",79.66186,607.4663
"2027",79.77661,607.4795
"2028",79.88159,607.4927
"2029",79.937744,607.50586
"2030",79.923096,607.51904
"2031",79.82788,607.5322
"2032",79.64965,607.5454
"2033",79.40551,607.5586
"2034",79.11009,607.5718
"2035",78.78783,607.58496
"2036",78.45335,607.59814
"2037",78.12863,607.6113
"2038",77.8259,607.6245
"2039",77.55978,607.6377
"2040",77.330284,607.6509
"2041",77.13985,607.66406
"2042",76.99336,607.67725
"2043",76.88106,607.6904
"2044",76.805374,607.7036
"2045",76.76143,607.7168
"2046",76.74433,607.73
"2047",76.74433,607.74316
"2048",76.756546,607.75635
"2049",76.771194,607.76953
"2050",76.80049,607.7827
"2051",76.83711,607.7959
"2052",76.88838,607.8091
"2053",76.96651,607.82227
"2054",77.103226,607.83545
"2055",77.35714,607.84863
"2056",77.8259,607.8618
"2057",78.59739,607.875
"2058",79.72289,607.8882
"2059",81.160904,607.90137
"2060",82.78447,607.91455
"2061",84.40559,607.92773
"2062",85.82895,607.9409
"2063",86.890976,607.9541
"2064",87.51354,607.9673
"2065",87.691765,607.98047
"2066",87.48669,607.99365
"2067",86.98619,608.00684
"2068",86.30015,608.02
"2069",85.53597,608.0332
"2070",84.76448,608.0464
"2071",84.0296,608.0596
"2072",83.35088,608.07275
"2073",82.718544,608.08594
"2074",82.11795,608.0991
"2075",81.532005,608.1123
"2076",80.9778,608.1255
"2077",80.465096,608.1387
"2078",80.03296,608.15186
"2079",79.710686,608.16504
"2080",79.517815,608.1782
"2081",79.447014,608.1914
"2082",79.47631,608.2046
"2083",79.56176,608.2178
"2084",79.64965,608.23096
"2085",79.70336,608.24414
"2086",79.68627,608.2573
"2087",79.586174,608.2705
"2088",79.40551,608.2837
"2089",79.15648,608.2969
"2090",78.86351,608.31006
"2091",78.54124,608.32324
"2092",78.2092,608.3364
"2093",77.88693,608.3496
"2094",77.58175,608.3628
"2095",77.298546,608.376
"2096",77.049515,608.38916
"2097",76.83711,608.40234
"2098",76.67109,608.4155
"2099",76.55634,608.4287
"2100",76.48798,608.4419
"2101",76.45869,608.4551
"2102",76.46357,608.46826
"2103",76.48798,608.48145
"2104",76.524605,608.4946
"2105",76.56611,608.5078
"2106",76.612495,608.521
"2107",76.65644,608.5342
"2108",76.700386,608.54736
"2109",76.73701,608.56055
"2110",76.77852,608.5737
"2111",76.82979,608.5869
"2112",76.925,608.6001
"2113",77.11543,608.6133
"2114",77.503624,608.62646
"2115",78.184784,608.63965
"2116",79.21263,608.65283
"2117",80.57496,608.666
"2118",82.17166,608.6792
"2119",83.8172,608.6924
"2120",85.3016,608.70557
"2121",86.45396,608.71875
"2122",87.17418,608.73193
"2123",87.4403,608.7451
"2124",87.30602,608.7583
"2125",86.86412,608.7715
"2126",86.22446,608.78467
"2127",85.489586,608.79785
"2128",84.74006,608.81104
"2129",84.0296,608.8242
"2130",83.36553,608.8374
"2131",82.74052,608.8506
"2132",82.1326,608.8638
"2133",81.52468,608.87695
"2134",80.92409,608.89014
"2135",80.36256,608.9033
"2136",79.886475,608.9165
"2137",79.52514,608.9297
"2138",79.30297,608.9429
"2139",79.21507,608.95605
"2140",79.22972,608.96924
"2141",79.30297,608.9824
"2142",79.39086,608.9956
"2143",79.449455,609.0088
"2144",79.447014,609.022
"2145",79.361565,609.03516
"2146",79.185776,609.04834
"2147",78.92943,609.0615
"2148",78.61692,609.0747
"2149",78.2678,609.0879
"2150",77.908905,609.1011
"2151",77.56466,609.11426
"2152",77.24727,609.12744
"2153",76.96651,609.1406
"2154",76.72968,609.1538
"2155",76.53681,609.167
"2156",76.39277,609.1802
"2157",76.297554,609.19336
"2158",76.25117,609.20654
"2159",76.241394,609.2197
"2160",76.265816,609.2329
"2161",76.317085,609.2461
"2162",76.385445,609.2593
"2163",76.45869,609.27246
"2164",76.53193,609.28564
"2165",76.60517,609.2988
"2166",76.66621,609.312
"2167",76.715034,609.3252
"2168",76.749214,609.3384
"2169",76.771194,609.35156
"2170",76.78096,609.36475
"2171",76.79317,609.3779
"2172",76.822464,609.3911
"2173",76.912796,609.4043
"2174",77.13985,609.4175
"2175",77.60372,609.43066
"2176",78.38987,609.44385
"2177",79.534904,609.45703
"2178",80.99489,609.4702
"2179",82.62333,609.4834
"2180",84.22003,609.4966
"2181",85.57259,609.50977
"2182",86.53208,609.52295
"2183",87.03746,609.53613
"2184",87.10094,609.5493
"2185",86.803085,609.5625
"2186",86.25376,609.5757
"2187",85.56771,609.58887
"2188",84.83284,609.60205
"2189",84.11017,609.61523
"2190",83.421684,609.6284
"2191",82.76982,609.6416
"2192",82.13748,609.6548
"2193",81.51003,609.66797
"2194",80.89723,609.68115
"2195",80.32838,609.69434
"2196",79.835205,609.7075
"2197",79.4641,609.7207
"2198",79.22972,609.7339
"2199",79.14183,609.7471
"2200",79.17113,609.76025
"2201",79.27123,609.77344
"2202",79.38598,609.7866
"2203",79.46899,609.7998
"2204",79.48608,609.813
"2205",79.415276,609.8262
"2206",79.26391,609.83936
"2207",79.03441,609.85254
"2208",78.751205,609.8657
"2209",78.42893,609.8789
"2210",78.09689,609.8921
"2211",77.769745,609.9053
"2212",77.46456,609.91846
"2213",77.188675,609.93164
"2214",76.95186,609.9448
"2215",76.756546,609.958
"2216",76.60761,609.9712
"2217",76.50996,609.9844
"2218",76.46357,609.99756
"2219",76.456245,610.01074
"2220",76.47822,610.0239
"2221",76.52216,610.0371
"2222",76.578316,610.0503
"2223",76.64423,610.0635
"2224",76.71992,610.07666
"2225",76.79561,610.08984
"2226",76.86885,610.103
"2227",76.93233,610.1162
"2228",76.9836,610.1294
"2229",77.0251,610.1426
"2230",77.06172,610.15576
"2231",77.09834,610.16895
"2232",77.14229,610.1821
"2233",77.205765,610.1953
"2234",77.32784,610.2085
"2235",77.591515,610.2217
"2236",78.099335,610.23486
"2237",78.92943,610.24805
"2238",80.1062,610.2612
"2239",81.5613,610.2744
"2240",83.1458,610.2876
"2241",84.65217,610.3008
"2242",85.89487,610.31396
"2243",86.7396,610.32715
"2244",87.13756,610.34033
"2245",87.1107,610.3535
"2246",86.7396,610.3667
"2247",86.134125,610.3799
"2248",85.401695,610.39307
"2249",84.630196,610.40625
"2250",83.87091,610.41943
"2251",83.15068,610.4326
"2252",82.459755,610.4458
"2253",81.795685,610.459
"2254",81.16579,610.47217
"2255",80.587166,610.48535
"2256",80.096436,610.49854
"2257",79.72045,610.5117
"2258",79.4934,610.5249
"2259",79.40795,610.5381
"2260",79.449455,610.5513
"2261",79.57397,610.56445
"2262",79.73266,610.57764
"2263",79.87671,610.5908
"2264",79.95972,610.604
"2265",79.9646,610.6172
"2266",79.87915,610.6304
"2267",79.71557,610.64355
"2268",79.48119,610.65674
"2269",79.1931,610.6699
"2270",78.87816,610.6831
"2271",78.551,610.6963
"2272",78.23117,610.7095
"2273",77.93332,610.72266
"2274",77.66964,610.73584
"2275",77.44259,610.749
"2276",77.264366,610.7622
"2277",77.13008,610.7754
"2278",77.04219,610.7886
"2279",76.995804,610.80176
"2280",76.98848,610.81494
"2281",77.01289,610.8281
"2282",77.05928,610.8413
"2283",77.12276,610.8545
"2284",77.18623,610.8677
"2285",77.239944,610.88086
"2286",77.2839,610.89404
"2287",77.31808,610.9072
"2288",77.347374,610.9204
"2289",77.38155,610.9336
"2290",77.420616,610.9468
"2291",77.469444,610.95996
"2292",77.54757,610.97314
"2293",77.69894,610.9863
"2294",78.009,610.9995
"2295",78.56565,611.0127
"2296",79.429924,611.0259
"2297",80.59693,611.03906
"2298",81.97879,611.05225
"2299",83.41924,611.0654
"2300",84.72785,611.0786
"2301",85.74349,611.0918
"2302",86.37339,611.105
"2303",86.58335,611.11816
"2304",86.417336,611.13135
"2305",85.95346,611.14453
"2306",85.29183,611.1577
"2307",84.52766,611.1709
"2308",83.736626,611.1841
"2309",82.96269,611.19727
"2310",82.22049,611.21045
"2311",81.5198,611.22363
"2312",80.85817,611.2368
"2313",80.26002,611.25
"2314",79.7522,611.2632
"2315",79.36889,611.27637
"2316",79.13695,611.28955
"2317",79.05882,611.30273
"2318",79.11009,611.3159
"2319",79.2517,611.3291
"2320",79.429924,611.3423
"2321",79.603264,611.35547
"2322",79.727776,611.36865
"2323",79.77905,611.38184
"2324",79.744865,611.395
"2325",79.63012,611.4082
"2326",79.44457,611.4214
"2327",79.200424,611.4346
"2328",78.91234,611.44775
"2329",78.607155,611.46094
"2330",78.294655,611.4741
"2331",77.994354,611.4873
"2332",77.72091,611.5005
"2333",77.48409,611.5137
"2334",77.2839,611.52686
"2335",77.12764,611.54004
"2336",77.01045,611.5532
"2337",76.93721,611.5664
"2338",76.90059,611.5796
"2339",76.90547,611.5928
"2340",76.93965,611.60596
"2341",76.98848,611.61914
"2342",77.03975,611.6323
"2343",77.086136,611.6455
"2344",77.1252,611.6587
"2345",77.16182,611.6719
"2346",77.196,611.68506
"2347",77.2375,611.69824
"2348",77.28878,611.7114
"2349",77.36202,611.7246
"2350",77.47433,611.7378
"2351",77.67696,611.751
"2352",78.05539,611.76416
"2353",78.69016,611.77734
"2354",79.635,611.7905
"2355",80.87526,611.8037
"2356",82.31815,611.8169
"2357",83.792786,611.8301
"2358",85.10872,611.84326
"2359",86.0975,611.85645
"2360",86.67368,611.8696
"2361",86.8275,611.8828
"2362",86.60532,611.896
"2363",86.09506,611.9092
"2364",85.40658,611.92236
"2365",84.63508,611.93555
"2366",83.85382,611.9487
"2367",83.09941,611.9619
"2368",82.391396,611.9751
"2369",81.71755,611.9883
"2370",81.08034,612.00146
"2371",80.48707,612.01465
"2372",79.9646,612.02783
"2373",79.54467,612.041
"2374",79.259026,612.0542
"2375",79.114975,612.0674
"2376",79.09544,612.08057
"2377",79.17845,612.09375
"2378",79.31518,612.10693
"2379",79.466545,612.1201
"2380",79.59106,612.1333
"2381",79.656975,612.1465
"2382",79.64721,612.15967
"2383",79.56176,612.17285
"2384",79.398186,612.18604
"2385",79.17113,612.1992
"2386",78.90013,612.2124
"2387",78.60471,612.2256
"2388",78.30442,612.2388
"2389",78.009,612.25195
"2390",77.74044,612.26514
"2391",77.50118,612.2783
"2392",77.29366,612.2915
"2393",77.117874,612.3047
"2394",76.9836,612.3179
"2395",76.89082,612.33105
"2396",76.839554,612.34424
"2397",76.82979,612.3574
"2398",76.86153,612.3706
"2399",76.92256,612.3838
"2400",76.998245,612.397
"2401",77.07637,612.41016
"2402",77.14473,612.42334
"2403",77.205765,612.4365
"2404",77.2546,612.4497
"2405",77.30587,612.4629
"2406",77.35714,612.4761
"2407",77.418175,612.48926
"2408",77.49874,612.50244
"2409",77.63546,612.5156
"2410",77.891815,612.5288
"2411",78.365456,612.542
"2412",79.132065,612.5552
"2413",80.22583,612.56836
"2414",81.602806,612.58154
"2415",83.140915,612.5947
"2416",84.64973,612.6079
"2417",85.94125,612.6211
"2418",86.871445,612.6343
"2419",87.36706,612.64746
"2420",87.432976,612.66064
"2421",87.13512,612.6738
"2422",86.5687,612.687
"2423",85.84848,612.7002
"2424",85.067215,612.7134
"2425",84.29572,612.72656
"2426",83.563286,612.73975
"2427",82.879684,612.7529
"2428",82.230255,612.7661
"2429",81.60525,612.7793
"2430",81.007095,612.7925
"2431",80.45045,612.80566
"2432",79.96704,612.81885
"2433",79.5935,612.83203
"2434",79.35424,612.8452
"2435",79.2517,612.8584
"2436",79.26879,612.8716
"2437",79.361565,612.88477
"2438",79.48852,612.89795
"2439",79.60082,612.91113
"2440",79.6643,612.9243
"2441",79.656975,612.9375
"2442",79.57397,612.9507
"2443",79.41039,612.96387
"2444",79.18822,612.97705
"2445",78.91722,612.99023
"2446",78.6218,613.0034
"2447",78.31663,613.0166
"2448",78.02121,613.0298
"2449",77.738,613.04297
"2450",77.47433,613.05615
"2451",77.2375,613.06934
"2452",77.03487,613.0825
"2453",76.876175,613.0957
"2454",76.76631,613.1089
"2455",76.71259,613.1221
"2456",76.71015,613.13525
"2457",76.749214,613.14844
"2458",76.82002,613.1616
"2459",76.910355,613.1748
"2460",77.00557,613.188
"2461",77.10567,613.2012
"2462",77.19844,613.21436
"2463",77.279015,613.22754
"2464",77.34249,613.2407
"2465",77.39376,613.2539
"2466",77.43282,613.2671
"2467",77.454796,613.2803
"2468",77.469444,613.29346
"2469",77.49386,613.30664
"2470",77.55001,613.3198
"2471",77.70382,613.333
"2472",78.048065,613.3462
"2473",78.6804,613.3594
"2474",79.65942,613.37256
"2475",80.972916,613.38574
"2476",82.51591,613.3989
"2477",84.119934,613.4121
"2478",85.57992,613.4253
"2479",86.72495,613.4385
"2480",87.450066,613.45166
"2481",87.725945,613.46484
"2482",87.603874,613.478
"2483",87.166855,613.4912
"2484",86.51743,613.5044
"2485",85.76059,613.5176
"2486",84.97444,613.53076
"2487",84.21271,613.54395
"2488",83.492485,613.5571
"2489",82.80644,613.5703
"2490",82.144806,613.5835
"2491",81.50515,613.5967
"2492",80.89479,613.60986
"2493",80.34547,613.62305
"2494",79.888916,613.6362
"2495",79.56176,613.6494
"2496",79.36889,613.6626
"2497",79.30297,613.6758
"2498",79.33471,613.68896
"2499",79.429924,613.70215
"2500",79.54223,613.71533
"2501",79.63012,613.7285
"2502",79.6643,613.7417
"2503",79.62768,613.7549
"2504",79.517815,613.76807
"2505",79.33227,613.78125
"2506",79.093,613.79443
"2507",78.8098,613.8076
"2508",78.502174,613.8208
"2509",78.18967,613.834
"2510",77.88205,613.84717
"2511",77.58907,613.86035
"2512",77.32052,613.87354
"2513",77.083694,613.8867
"2514",76.87862,613.8999
"2515",76.715034,613.9131
"2516",76.60029,613.9263
"2517",76.53437,613.93945
"2518",76.50996,613.95264
"2519",76.53437,613.9658
"2520",76.60273,613.979
"2521",76.70771,613.9922
"2522",76.83711,614.0054
"2523",76.98604,614.01855
"2524",77.14229,614.03174
"2525",77.28878,614.0449
"2526",77.42794,614.0581
"2527",77.557335,614.0713
"2528",77.67452,614.0845
"2529",77.78195,614.09766
"2530",77.86984,614.11084
"2531",77.9382,614.124
"2532",77.979706,614.1372
"2533",77.99191,614.1504
"2534",77.96994,614.1636
"2535",77.92111,614.17676
"2536",77.85275,614.18994
"2537",77.77463,614.2031
"2538",77.696495,614.2163
"2539",77.642784,614.2295
"2540",77.6379,614.2427
"2541",77.752655,614.25586
"2542",78.09201,614.26904
"2543",78.77074,614.2822
"2544",79.85474,614.2954
"2545",81.324486,614.3086
"2546",83.053024,614.3218
"2547",84.840164,614.33496
"2548",86.44907,614.34814
"2549",87.691765,614.3613
"2550",88.46082,614.3745
"2551",88.73426,614.3877
"2552",88.56336,614.4009
"2553",88.043335,614.41406
"2554",87.28649,614.42725
"2555",86.41001,614.4404
"2556",85.50912,614.4536
"2557",84.644844,614.4668
"2558",83.85138,614.48
"2559",83.12871,614.49316
"2560",82.459755,614.50635
"2561",81.832306,614.51953
"2562",81.25124,614.5327
"2563",80.726326,614.5459
"2564",80.27955,614.5591
"2565",79.94507,614.57227
"2566",79.73022,614.58545
"2567",79.639885,614.59863
"2568",79.64477,614.6118
"2569",79.71557,614.625
"2570",79.81079,614.6382
"2571",79.888916,614.65137
"2572",79.91821,614.66455
"2573",79.87915,614.67773
"2574",79.76196,614.6909
"2575",79.57397,614.7041
"2576",79.3225,614.7173
"2577",79.0222,614.73047
"2578",78.69749,614.74365
"2579",78.363014,614.75684
"2580",78.03342,614.77
"2581",77.71847,614.7832
"2582",77.42794,614.7964
"2583",77.17403,614.8096
"2584",76.961624,614.82275
"2585",76.79561,614.83594
"2586",76.680855,614.8491
"2587",76.612495,614.8623
"2588",76.5832,614.8755
"2589",76.58076,614.8887
"2590",76.610054,614.90186
"2591",76.66132,614.91504
"2592",76.72968,614.9282
"2593",76.81758,614.9414
"2594",76.91768,614.9546
"2595",77.02022,614.9678
"2596",77.1252,614.98096
"2597",77.22041,614.99414
"2598",77.31075,615.0073
"2599",77.38644,615.0205
"2600",77.44991,615.0337
"2601",77.49874,615.0469
"2602",77.53536,615.06006
"2603",77.56466,615.07324
"2604",77.58907,615.0864
"2605",77.611046,615.0996
"2606",77.628136,615.1128
"2607",77.642784,615.126
"2608",77.65255,615.13916
"2609",77.65499,615.15234
"2610",77.65499,615.1655
"2611",77.65499,615.1787
"2612",77.65255,615.1919
"2613",77.645226,615.2051
"2614",77.6379,615.21826
"2615",77.625694,615.23145
"2616",77.608604,615.2446
"2617",77.59884,615.2578
"2618",77.62081,615.271
"2619",77.73556,615.2842
"2620",78.04562,615.29736
"2621",78.6804,615.31055
"2622",79.73266,615.3237
"2623",81.21217,615.3369
"2624",83.021286,615.3501
"2625",84.95979,615.3633
"2626",86.77379,615.37646
"2627",88.24597,615.38965
"2628",89.22743,615.40283
"2629",89.68154,615.416
"2630",89.64004,615.4292
"2631",89.195694,615.4424
"2632",88.45594,615.45557
"2633",87.54284,615.46875
"2634",86.55894,615.48193
"2635",85.592125,615.4951
"2636",84.69611,615.5083
"2637",83.888,615.5215
"2638",83.16289,615.53467
"2639",82.50858,615.54785
"2640",81.91287,615.56104
"2641",81.375755,615.5742
"2642",80.91432,615.5874
"2643",80.550545,615.6006
"2644",80.29908,615.6138
"2645",80.16724,615.62695
"2646",80.1355,615.64014
"2647",80.184326,615.6533
"2648",80.272224,615.6665
"2649",80.365,615.6797
"2650",80.41871,615.6929
"2651",80.411385,615.70605
"2652",80.32838,615.71924
"2653",80.16235,615.7324
"2654",79.92798,615.7456
"2655",79.64233,615.7588
"2656",79.31762,615.772
"2657",78.96605,615.78516
"2658",78.6096,615.79834
"2659",78.25803,615.8115
"2660",77.93088,615.8247
"2661",77.6379,615.8379
"2662",77.383995,615.8511
"2663",77.17647,615.86426
"2664",77.01045,615.87744
"2665",76.88594,615.8906
"2666",76.80293,615.9038
"2667",76.76143,615.917
"2668",76.75899,615.9302
"2669",76.78584,615.94336
"2670",76.839554,615.95654
"2671",76.912796,615.9697
"2672",76.995804,615.9829
"2673",77.09102,615.9961
"2674",77.19112,616.0093
"2675",77.29122,616.02246
"2676",77.38644,616.03564
"2677",77.47433,616.0488
"2678",77.54757,616.062
"2679",77.611046,616.0752
"2680",77.66476,616.0884
"2681",77.71114,616.10156
"2682",77.75021,616.11475
"2683",77.78195,616.1279
"2684",77.80148,616.1411
"2685",77.81125,616.1543
"2686",77.81613,616.1675
"2687",77.81613,616.18066
"2688",77.80881,616.19385
"2689",77.79904,616.20703
"2690",77.77951,616.2202
"2691",77.747765,616.2334
"2692",77.70626,616.2466
"2693",77.662315,616.25977
"2694",77.62325,616.27295
"2695",77.61349,616.28613
"2696",77.68917,616.2993
"2697",77.95773,616.3125
"2698",78.536354,616.3257
"2699",79.520256,616.33887
"2700",80.921646,616.35205
"2701",82.652626,616.36523
"2702",84.53498,616.3784
"2703",86.33189,616.3916
"2704",87.82605,616.4048
"2705",88.868546,616.41797
"2706",89.40078,616.43115
"2707",89.444725,616.44434
"2708",89.0663,616.4575
"2709",88.37293,616.4707
"2710",87.47692,616.4839
"2711",86.48081,616.4971
"2712",85.46761,616.51025
"2713",84.49592,616.52344
"2714",83.60235,616.5366
"2715",82.79668,616.5498
"2716",82.074005,616.563
"2717",81.43191,616.5762
"2718",80.88258,616.58936
"2719",80.4358,616.60254
"2720",80.10864,616.6157
"2721",79.91821,616.6289
"2722",79.86206,616.6421
"2723",79.91333,616.6553
"2724",80.04028,616.66846
"2725",80.18921,616.68164
"2726",80.33082,616.6948
"2727",80.42603,616.708
"2728",80.45777,616.7212
"2729",80.40894,616.7344
"2730",80.28687,616.74756
"2731",80.08667,616.76074
"2732",79.82056,616.7739
"2733",79.50561,616.7871
"2734",79.1638,616.8003
"2735",78.80492,616.8135
"2736",78.45335,616.82666
"2737",78.11154,616.83984
"2738",77.79904,616.853
"2739",77.52071,616.8662
"2740",77.28634,616.8794
"2741",77.09346,616.8926
"2742",76.94942,616.90576
"2743",76.85664,616.91895
"2744",76.80293,616.9321
"2745",76.7834,616.9453
"2746",76.79561,616.9585
"2747",76.83711,616.9717
"2748",76.90303,616.98486
"2749",76.99092,616.99805
"2750",77.09346,617.0112
"2751",77.20332,617.0244
"2752",77.315636,617.0376
"2753",77.42306,617.0508
"2754",77.52071,617.06396
"2755",77.611046,617.07715
"2756",77.69161,617.09033
"2757",77.7673,617.1035
"2758",77.8259,617.1167
"2759",77.872284,617.1299
"2760",77.89914,617.14307
"2761",77.908905,617.15625
"2762",77.90402,617.16943
"2763",77.88693,617.1826
"2764",77.86252,617.1958
"2765",77.83078,617.209
"2766",77.79172,617.22217
"2767",77.74532,617.23535
"2768",77.70382,617.24854
"2769",77.67696,617.2617
"2770",77.69894,617.2749
"2771",77.84299,617.2881
"2772",78.21164,617.3013
"2773",78.922104,617.31445
"2774",80.03784,617.32764
"2775",81.53689,617.3408
"2776",83.29717,617.354
"2777",85.1136,617.3672
"2778",86.751816,617.3804
"2779",88.0238,617.39355
"2780",88.817276,617.40674
"2781",89.11513,617.4199
"2782",88.956436,617.4331
"2783",88.431526,617.4463
"2784",87.640495,617.4595
"2785",86.693214,617.47266
"2786",85.680016,617.48584
"2787",84.67658,617.499
"2788",83.719536,617.5122
"2789",82.83574,617.5254
"2790",82.037384,617.5386
"2791",81.32937,617.55176
"2792",80.726326,617.56494
"2793",80.2478,617.5781
"2794",79.906006,617.5913
"2795",79.71313,617.6045
"2796",79.65942,617.6177
"2797",79.73022,617.63086
"2798",79.88403,617.64404
"2799",80.08667,617.6572
"2800",80.291756,617.6704
"2801",80.46754,617.6836
"2802",80.570076,617.6968
"2803",80.58228,617.70996
"2804",80.499275,617.72314
"2805",80.33082,617.7363
"2806",80.08423,617.7495
"2807",79.783936,617.7627
"2808",79.449455,617.7759
"2809",79.10033,617.78906
"2810",78.74876,617.80225
"2811",78.40452,617.8154
"2812",78.0798,617.8286
"2813",77.78439,617.8418
"2814",77.52071,617.855
"2815",77.30099,617.86816
"2816",77.12276,617.88135
"2817",76.99336,617.89453
"2818",76.90791,617.9077
"2819",76.86153,617.9209
"2820",76.85176,617.9341
"2821",76.87862,617.94727
"2822",76.929886,617.96045
"2823",77.00069,617.97363
"2824",77.086136,617.9868
"2825",77.18623,618
"2826",77.29122,618.0132
"2827",77.401085,618.02637
"2828",77.51827,618.03955
"2829",77.63302,618.05273
"2830",77.74532,618.0659
"2831",77.84299,618.0791
"2832",77.92355,618.0923
"2833",77.98215,618.10547
"2834",78.01633,618.11865
"2835",78.03342,618.13184
"2836",78.030975,618.145
"2837",78.01633,618.1582
"2838",77.99191,618.1714
"2839",77.95285,618.1846
"2840",77.90646,618.19775
"2841",77.85031,618.21094
"2842",77.80148,618.2241
"2843",77.78439,618.2373
"2844",77.857635,618.2505
"2845",78.13107,618.2637
"2846",78.71702,618.27686
"2847",79.693596,618.29004
"2848",81.06325,618.3032
"2849",82.720985,618.3164
"2850",84.48615,618.3296
"2851",86.1268,618.3428
"2852",87.45739,618.35596
"2853",88.34608,618.36914
"2854",88.75868,618.3823
"2855",88.71717,618.3955
"2856",88.292366,618.4087
"2857",87.57458,618.4219
"2858",86.66392,618.43506
"2859",85.65316,618.44824
"2860",84.62043,618.4614
"2861",83.614555,618.4746
"2862",82.669716,618.4878
"2863",81.80545,618.501
"2864",81.041275,618.51416
"2865",80.38941,618.52734
"2866",79.86694,618.5405
"2867",79.49584,618.5537
"2868",79.28832,618.5669
"2869",79.24193,618.5801
"2870",79.33715,618.59326
"2871",79.537346,618.60645
"2872",79.79614,618.6196
"2873",80.062256,618.6328
"2874",80.289314,618.646
"2875",80.448006,618.6592
"2876",80.51881,618.67236
"2877",80.48463,618.68555
"2878",80.35767,618.6987
"2879",80.147705,618.7119
"2880",79.87427,618.7251
"2881",79.55688,618.7383
"2882",79.217514,618.75146
"2883",78.86595,618.76465
"2884",78.519264,618.77783
"2885",78.19211,618.791
"2886",77.88937,618.8042
"2887",77.61837,618.8174
"2888",77.38644,618.83057
"2889",77.19356,618.84375
"2890",77.04463,618.85693
"2891",76.93965,618.8701
"2892",76.87129,618.8833
"2893",76.84444,618.8965
"2894",76.859085,618.90967
"2895",76.90059,618.92285
"2896",76.96651,618.93604
"2897",77.05684,618.9492
"2898",77.16182,618.9624
"2899",77.27169,618.9756
"2900",77.39132,618.9888
"2901",77.52071,619.00195
"2902",77.65255,619.01514
"2903",77.77951,619.0283
"2904",77.891815,619.0415
"2905",77.979706,619.0547
"2906",78.04318,619.0679
"2907",78.082245,619.08105
"2908",78.099335,619.09424
"2909",78.099335,619.1074
"2910",78.0798,619.1206
"2911",78.04074,619.1338
"2912",77.98703,619.147
"2913",77.925995,619.16016
"2914",77.87717,619.17334
"2915",77.86496,619.1865
"2916",77.95285,619.1997
"2917",78.238495,619.2129
"2918",78.83421,619.2261
"2919",79.801025,619.23926
"2920",81.126724,619.25244
"2921",82.71122,619.2656
"2922",84.37385,619.2788
"2923",85.90219,619.292
"2924",87.11803,619.3052
"2925",87.90906,619.31836
"2926",88.24353,619.33154
"2927",88.1532,619.3447
"2928",87.70153,619.3579
"2929",86.97398,619.3711
"2930",86.07065,619.3843
"2931",85.0721,619.39746
"2932",84.04669,619.41064
"2933",83.04326,619.4238
"2934",82.09354,619.437
"2935",81.22194,619.4502
"2936",80.445564,619.4634
"2937",79.7937,619.47656
"2938",79.29565,619.48975
"2939",78.96849,619.5029
"2940",78.819565,619.5161
"2941",78.84154,619.5293
"2942",79.00511,619.5425
"2943",79.26391,619.55566
"2944",79.571526,619.56885
"2945",79.886475,619.58203
"2946",80.15747,619.5952
"2947",80.35279,619.6084
"2948",80.45045,619.6216
"2949",80.44068,619.63477
"2950",80.325935,619.64795
"2951",80.12329,619.66113
"2952",79.84741,619.6743
"2953",79.52758,619.6875
"2954",79.18089,619.7007
"2955",78.83177,619.71387
"2956",78.48997,619.72705
"2957",78.16525,619.74023
"2958",77.8674,619.7534
"2959",77.60616,619.7666
"2960",77.38888,619.7798
"2961",77.21553,619.79297
"2962",77.09346,619.80615
"2963",77.01778,619.81934
"2964",76.9836,619.8325
"2965",76.98848,619.8457
"2966",77.0251,619.8589
"2967",77.09346,619.8721
"2968",77.19112,619.88525
"2969",77.313194,619.89844
"2970",77.45724,619.9116
"2971",77.611046,619.9248
"2972",77.77463,619.938
"2973",77.93088,619.9512
"2974",78.07492,619.96436
"2975",78.18967,619.97754
"2976",78.277565,619.9907
"2977",78.33372,620.0039
"2978",78.35813,620.0171
"2979",78.35569,620.0303
"2980",78.32639,620.04346
"2981",78.27268,620.05664
"2982",78.20187,620.0698
"2983",78.12375,620.083
"2984",78.05783,620.0962
"2985",78.04562,620.1094
"2986",78.16281,620.12256
"2987",78.51438,620.13574
"2988",79.1931,620.1489
"2989",80.235596,620.1621
"2990",81.60525,620.1753
"2991",83.17998,620.1885
"2992",84.76448,620.20166
"2993",86.16342,620.21484
"2994",87.220566,620.228
"2995",87.85779,620.2412
"2996",88.0531,620.2544
"2997",87.84558,620.2676
"2998",87.310905,620.28076
"2999",86.54185,620.29395
"3000",85.62386,620.3071
"3001",84.63508,620.3203
"3002",83.63653,620.3335
"3003",82.669716,620.3467
"3004",81.75418,620.35986
"3005",80.92653,620.37305
"3006",80.2063,620.3862
"3007",79.62524,620.3994
"3008",79.20531,620.4126
"3009",78.96117,620.4258
"3010",78.89525,620.43896
"3011",78.98314,620.45215
"3012",79.1931,620.46533
"3013",79.483635,620.4785
"3014",79.80347,620.4917
"3015",80.09155,620.5049
"3016",80.31617,620.51807
"3017",80.45045,620.53125
"3018",80.479744,620.54443
"3019",80.411385,620.5576
"3020",80.257576,620.5708
"3021",80.03052,620.584
"3022",79.742424,620.59717
"3023",79.412834,620.61035
"3024",79.05882,620.62354
"3025",78.69749,620.6367
"3026",78.348366,620.6499
"3027",78.02365,620.6631
"3028",77.73556,620.6763
"3029",77.486534,620.68945
"3030",77.279015,620.70264
"3031",77.120316,620.7158
"3032",77.00801,620.729
"3033",76.93965,620.7422
"3034",76.92012,620.7554
"3035",76.944534,620.76855
"3036",77.00069,620.78174
"3037",77.086136,620.7949
"3038",77.19844,620.8081
"3039",77.32052,620.8213
"3040",77.452354,620.8345
"3041",77.576866,620.84766
"3042",77.68917,620.86084
"3043",77.77951,620.874
"3044",77.84543,620.8872
"3045",77.88937,620.9004
"3046",77.91379,620.9136
"3047",77.925995,620.92676
"3048",77.943085,620.93994
"3049",78.011444,620.9531
"3050",78.2092,620.9663
"3051",78.64866,620.9795
"3052",79.415276,620.9927
"3053",80.54322,621.00586
"3054",81.98123,621.01904
"3055",83.595024,621.0322
"3056",85.19417,621.0454
"3057",86.58579,621.0586
"3058",87.61608,621.0718
"3059",88.20935,621.08496
"3060",88.358284,621.09814
"3061",88.10681,621.1113
"3062",87.53307,621.1245
"3063",86.7396,621.1377
"3064",85.8143,621.1509
"3065",84.83772,621.16406
"3066",83.86603,621.17725
"3067",82.93584,621.1904
"3068",82.06424,621.2036
"3069",81.27566,621.2168
"3070",80.58228,621.23
"3071",80.008545,621.24316
"3072",79.569084,621.25635
"3073",79.28344,621.26953
"3074",79.15648,621.2827
"3075",79.17113,621.2959
"3076",79.31274,621.3091
"3077",79.54223,621.32227
"3078",79.81079,621.33545
"3079",80.06714,621.34863
"3080",80.26734,621.3618
"3081",80.38209,621.375
"3082",80.394295,621.3882
"3083",80.30396,621.40137
"3084",80.12329,621.41455
"3085",79.86694,621.42773
"3086",79.554436,621.4409
"3087",79.202866,621.4541
"3088",78.83177,621.4673
"3089",78.45823,621.48047
"3090",78.101776,621.49365
"3091",77.77219,621.50684
"3092",77.47677,621.52
"3093",77.22774,621.5332
"3094",77.0251,621.5464
"3095",76.87129,621.5596
"3096",76.76631,621.57275
"3097",76.71015,621.58594
"3098",76.6955,621.5991
"3099",76.717476,621.6123
"3100",76.771194,621.6255
"3101",76.84444,621.6387
"3102",76.93233,621.65186
"3103",77.02022,621.66504
"3104",77.10567,621.6782
"3105",77.18379,621.6914
"3106",77.2546,621.7046
"3107",77.32296,621.7178
"3108",77.40597,621.73096
"3109",77.53292,621.74414
"3110",77.78439,621.7573
"3111",78.2678,621.7705
"3112",79.078354,621.7837
"3113",80.257576,621.7969
"3114",81.76639,621.81006
"3115",83.475395,621.82324
"3116",85.1844,621.8364
"3117",86.68589,621.8496
"3118",87.81384,621.8628
"3119",88.482796,621.876
"3120",88.68543,621.88916
"3121",88.465706,621.90234
"3122",87.9115,621.9155
"3123",87.12535,621.9287
"3124",86.204926,621.9419
"3125",85.23567,621.9551
"3126",84.2884,621.96826
"3127",83.39239,621.98145
"3128",82.57206,621.9946
"3129",81.829865,622.0078
"3130",81.17067,622.021
"3131",80.59449,622.0342
"3132",80.11841,622.04736
"3133",79.76196,622.06055
"3134",79.537346,622.0737
"3135",79.4519,622.0869
"3136",79.48852,622.1001
"3137",79.61303,622.1133
"3138",79.7937,622.12646
"3139",79.98413,622.13965
"3140",80.1355,622.15283
"3141",80.216064,622.166
"3142",80.20874,622.1792
"3143",80.1062,622.1924
"3144",79.906006,622.20557
"3145",79.62768,622.21875
"3146",79.28344,622.23193
"3147",78.907455,622.2451
"3148",78.51682,622.2583
"3149",78.133514,622.2715
"3150",77.77219,622.28467
"3151",77.452354,622.29785
"3152",77.17891,622.31104
"3153",76.9543,622.3242
"3154",76.77852,622.3374
"3155",76.64912,622.3506
"3156",76.56855,622.3638
"3157",76.53193,622.37695
"3158",76.53437,622.39014
"3159",76.575874,622.4033
"3160",76.64423,622.4165
"3161",76.7248,622.4297
"3162",76.807816,622.4429
"3163",76.8835,622.45605
"3164",76.93721,622.46924
"3165",76.964066,622.4824
"3166",76.97383,622.4956
"3167",76.9836,622.5088
"3168",77.01045,622.522
"3169",77.100784,622.53516
"3170",77.32784,622.54834
"3171",77.7966,622.5615
"3172",78.59983,622.5747
"3173",79.783936,622.5879
"3174",81.3196,622.6011
"3175",83.07988,622.61426
"3176",84.857254,622.62744
"3177",86.431984,622.6406
"3178",87.62829,622.6538
"3179",88.3534,622.667
"3180",88.5951,622.6802
"3181",88.40955,622.69336
"3182",87.88953,622.70654
"3183",87.14,622.7197
"3184",86.261086,622.7329
"3185",85.350426,622.7461
"3186",84.471504,622.7593
"3187",83.648735,622.77246
"3188",82.89433,622.78564
"3189",82.196075,622.7988
"3190",81.54421,622.812
"3191",80.936295,622.8252
"3192",80.396736,622.8384
"3193",79.95972,622.85156
"3194",79.65209,622.86475
"3195",79.48852,622.8779
"3196",79.45434,622.8911
"3197",79.52758,622.9043
"3198",79.6643,622.9175
"3199",79.815674,622.93066
"3200",79.93042,622.94385
"3201",79.98169,622.95703
"3202",79.94507,622.9702
"3203",79.815674,622.9834
"3204",79.59838,622.9966
"3205",79.31274,623.00977
"3206",78.97826,623.02295
"3207",78.61448,623.03613
"3208",78.238495,623.0493
"3209",77.8674,623.0625
"3210",77.51583,623.0757
"3211",77.19112,623.08887
"3212",76.91524,623.10205
"3213",76.6955,623.11523
"3214",76.53193,623.1284
"3215",76.43183,623.1416
"3216",76.383,623.1548
"3217",76.38056,623.16797
"3218",76.4123,623.18115
"3219",76.46357,623.19434
"3220",76.52705,623.2075
"3221",76.59785,623.2207
"3222",76.663765,623.2339
"3223",76.7248,623.2471
"3224",76.78096,623.26025
"3225",76.82735,623.27344
"3226",76.86641,623.2866
"3227",76.89815,623.2998
"3228",76.927444,623.313
"3229",76.97627,623.3262
"3230",77.07393,623.33936
"3231",77.298546,623.35254
"3232",77.7551,623.3657
"3233",78.54368,623.3789
"3234",79.708244,623.3921
"3235",81.20485,623.4053
"3236",82.899216,623.41846
"3237",84.59113,623.43164
"3238",86.063324,623.4448
"3239",87.15221,623.458
"3240",87.77234,623.4712
"3241",87.92615,623.4844
"3242",87.66491,623.49756
"3243",87.09117,623.51074
"3244",86.30991,623.5239
"3245",85.42611,623.5371
"3246",84.52277,623.5503
"3247",83.65118,623.5635
"3248",82.8333,623.57666
"3249",82.07645,623.58984
"3250",81.3782,623.603
"3251",80.73853,623.6162
"3252",80.177,623.6294
"3253",79.72289,623.6426
"3254",79.398186,623.65576
"3255",79.21019,623.66895
"3256",79.15648,623.6821
"3257",79.21019,623.6953
"3258",79.33227,623.7085
"3259",79.48119,623.7217
"3260",79.61791,623.73486
"3261",79.7058,623.74805
"3262",79.72045,623.7612
"3263",79.64965,623.7744
"3264",79.49096,623.7876
"3265",79.25414,623.8008
"3266",78.94652,623.81396
"3267",78.59495,623.82715
"3268",78.21652,623.84033
"3269",77.83322,623.8535
"3270",77.45724,623.8667
"3271",77.11299,623.8799
"3272",76.81026,623.89307
"3273",76.55634,623.90625
"3274",76.35615,623.91943
"3275",76.21698,623.9326
"3276",76.14374,623.9458
"3277",76.12665,623.959
"3278",76.16327,623.97217
"3279",76.23407,623.98535
"3280",76.32441,623.99854
"3281",76.42451,624.0117
"3282",76.524605,624.0249
"3283",76.61738,624.0381
"3284",76.70283,624.0513
"3285",76.77852,624.06445
"3286",76.83711,624.07764
"3287",76.8835,624.0908
"3288",76.910355,624.104
"3289",76.93477,624.1172
"3290",76.964066,624.1304
"3291",77.03975,624.14355
"3292",77.23262,624.15674
"3293",77.64767,624.1699
"3294",78.38499,624.1831
"3295",79.4934,624.1963
"3296",80.94362,624.2095
"3297",82.60136,624.22266
"3298",84.27131,624.23584
"3299",85.74349,624.249
"3300",86.84459,624.2622
"3301",87.484245,624.2754
"3302",87.657585,624.2886
"3303",87.411,624.30176
"3304",86.84459,624.31494
"3305",86.065765,624.3281
"3306",85.18196,624.3413
"3307",84.266426,624.3545
"3308",83.372856,624.3677
"3309",82.51835,624.38086
"3310",81.71999,624.39404
"3311",80.98512,624.4072
"3312",80.33082,624.4204
"3313",79.783936,624.4336
"3314",79.38354,624.4468
"3315",79.14427,624.45996
"3316",79.06615,624.47314
"3317",79.12962,624.4863
"3318",79.29809,624.4995
"3319",79.517815,624.5127
"3320",79.73754,624.5259
"3321",79.91577,624.53906
"3322",80.01831,624.55225
"3323",80.025635,624.5654
"3324",79.940186,624.5786
"3325",79.764404,624.5918
"3326",79.51049,624.605
"3327",79.200424,624.61816
"3328",78.856186,624.63135
"3329",78.502174,624.64453
"3330",78.15793,624.6577
"3331",77.84299,624.6709
"3332",77.56466,624.6841
"3333",77.32784,624.69727
"3334",77.13985,624.71045
"3335",76.998245,624.72363
"3336",76.90059,624.7368
"3337",76.83711,624.75
"3338",76.8127,624.7632
"3339",76.81514,624.77637
"3340",76.83467,624.78955
"3341",76.88106,624.80273
"3342",76.93721,624.8159
"3343",76.995804,624.8291
"3344",77.0544,624.8423
"3345",77.117874,624.85547
"3346",77.18135,624.86865
"3347",77.24971,624.88184
"3348",77.3254,624.895
"3349",77.420616,624.9082
"3350",77.56466,624.9214
"3351",77.82834,624.9346
"3352",78.30686,624.94775
"3353",79.078354,624.96094
"3354",80.177,624.9741
"3355",81.54177,624.9873
"3356",83.035934,625.0005
"3357",84.47639,625.0137
"3358",85.680016,625.02686
"3359",86.51011,625.04004
"3360",86.91783,625.0532
"3361",86.91051,625.0664
"3362",86.55161,625.0796
"3363",85.92905,625.0928
"3364",85.14046,625.10596
"3365",84.26154,625.11914
"3366",83.35088,625.1323
"3367",82.442665,625.1455
"3368",81.57351,625.1587
"3369",80.762955,625.1719
"3370",80.05005,625.18506
"3371",79.4641,625.19824
"3372",79.03441,625.2114
"3373",78.768295,625.2246
"3374",78.67063,625.2378
"3375",78.72434,625.251
"3376",78.89281,625.26416
"3377",79.13939,625.27734
"3378",79.40551,625.2905
"3379",79.64477,625.3037
"3380",79.818115,625.3169
"3381",79.8938,625.3301
"3382",79.86694,625.34326
"3383",79.74975,625.35645
"3384",79.54955,625.3696
"3385",79.293205,625.3828
"3386",79.00511,625.396
"3387",78.70725,625.4092
"3388",78.4094,625.42236
"3389",78.12619,625.43555
"3390",77.86008,625.4487
"3391",77.61837,625.4619
"3392",77.40597,625.4751
"3393",77.22774,625.4883
"3394",77.09102,625.50146
"3395",76.995804,625.51465
"3396",76.94209,625.52783
"3397",76.91768,625.541
"3398",76.91524,625.5542
"3399",76.925,625.5674
"3400",76.94209,625.58057
"3401",76.964066,625.59375
"3402",77.00069,625.60693
"3403",77.05684,625.6201
"3404",77.13008,625.6333
"3405",77.23506,625.6465
"3406",77.39864,625.65967
"3407",77.67696,625.67285
"3408",78.16037,625.68604
"3409",78.92699,625.6992
"3410",80.01587,625.7124
"3411",81.3782,625.7256
"3412",82.88701,625.7388
"3413",84.36652,625.75195
"3414",85.628746,625.76514
"3415",86.53208,625.7783
"3416",87.010605,625.7915
"3417",87.0692,625.8047
"3418",86.75426,625.8179
"3419",86.15854,625.83105
"3420",85.37972,625.84424
"3421",84.50324,625.8574
"3422",83.595024,625.8706
"3423",82.69657,625.8838
"3424",81.83475,625.897
"3425",81.02663,625.91016
"3426",80.29908,625.92334
"3427",79.67895,625.9365
"3428",79.202866,625.9497
"3429",78.887924,625.9629
"3430",78.74143,625.9761
"3431",78.751205,625.98926
"3432",78.88304,626.00244
"3433",79.09056,626.0156
"3434",79.32983,626.0288
"3435",79.551994,626.042
"3436",79.71557,626.0552
"3437",79.801025,626.06836
"3438",79.7937,626.08154
"3439",79.69604,626.0947
"3440",79.517815,626.1079
"3441",79.27856,626.1211
"3442",79.00023,626.1343
"3443",78.69993,626.14746
"3444",78.39475,626.16064
"3445",78.09445,626.1738
"3446",77.81613,626.187
"3447",77.56466,626.2002
"3448",77.347374,626.2134
"3449",77.16914,626.22656
"3450",77.02998,626.23975
"3451",76.927444,626.2529
"3452",76.859085,626.2661
"3453",76.824905,626.2793
"3454",76.81026,626.2925
"3455",76.807816,626.30566
"3456",76.81514,626.31885
"3457",76.82979,626.33203
"3458",76.85176,626.3452
"3459",76.8835,626.3584
"3460",76.93233,626.3716
"3461",77.02998,626.38477
"3462",77.222855,626.39795
"3463",77.59884,626.41113
"3464",78.26292,626.4243
"3465",79.273674,626.4375
"3466",80.61646,626.4507
"3467",82.18631,626.46387
"3468",83.809875,626.47705
"3469",85.28207,626.49023
"3470",86.431984,626.5034
"3471",87.16197,626.5166
"3472",87.44518,626.5298
"3473",87.32067,626.54297
"3474",86.86656,626.55615
"3475",86.17807,626.56934
"3476",85.35531,626.5825
"3477",84.48127,626.5957
"3478",83.614555,626.6089
"3479",82.78447,626.6221
"3480",82.00076,626.63525
"3481",81.270775,626.64844
"3482",80.601814,626.6616
"3483",80.01099,626.6748
"3484",79.534904,626.688
"3485",79.19798,626.7012
"3486",79.012436,626.71436
"3487",78.96849,626.72754
"3488",79.03685,626.7407
"3489",79.18089,626.7539
"3490",79.35912,626.7671
"3491",79.520256,626.7803
"3492",79.635,626.79346
"3493",79.67895,626.80664
"3494",79.639885,626.8198
"3495",79.51293,626.833
"3496",79.31762,626.8462
"3497",79.05882,626.8594
"3498",78.76341,626.87256
"3499",78.44358,626.88574
"3500",78.12131,626.8989
"3501",77.81125,626.9121
"3502",77.52804,626.9253
"3503",77.281456,626.9385
"3504",77.07637,626.95166
"3505",76.91524,626.96484
"3506",76.79805,626.978
"3507",76.717476,626.9912
"3508",76.66865,627.0044
"3509",76.64912,627.0176
"3510",76.646675,627.03076
"3511",76.654,627.04395
"3512",76.67109,627.0571
"3513",76.69306,627.0703
"3514",76.7248,627.0835
"3515",76.76631,627.0967
"3516",76.824905,627.10986
"3517",76.90547,627.12305
"3518",77.02022,627.1362
"3519",77.21553,627.1494
"3520",77.574425,627.1626
"3521",78.18967,627.1758
"3522",79.13451,627.18896
"3523",80.41871,627.20215
"3524",81.95926,627.21533
"3525",83.59258,627.2285
"3526",85.11604,627.2417
"3527",86.346535,627.2549
"3528",87.166855,627.26807
"3529",87.535515,627.28125
"3530",87.484245,627.29443
"3531",87.08385,627.3076
"3532",86.43931,627.3208
"3533",85.64828,627.334
"3534",84.805984,627.34717
"3535",83.97589,627.36035
"3536",83.192184,627.37354
"3537",82.45731,627.3867
"3538",81.75906,627.3999
"3539",81.09743,627.4131
"3540",80.479744,627.4263
"3541",79.92798,627.43945
"3542",79.47631,627.45264
"3543",79.14671,627.4658
"3544",78.95384,627.479
"3545",78.88548,627.4922
"3546",78.924545,627.5054
"3547",79.03197,627.51855
"3548",79.17113,627.53174
"3549",79.293205,627.5449
"3550",79.361565,627.5581
"3551",79.35424,627.5713
"3552",79.256584,627.5845
"3553",79.080795,627.59766
"3554",78.84642,627.61084
"3555",78.572975,627.624
"3556",78.27268,627.6372
"3557",77.962616,627.6504
"3558",77.65743,627.6636
"3559",77.366905,627.67676
"3560",77.09834,627.68994
"3561",76.85664,627.7031
"3562",76.64912,627.7163
"3563",76.4831,627.7295
"3564",76.35615,627.7427
"3565",76.27558,627.75586
"3566",76.241394,627.76904
"3567",76.25117,627.7822
"3568",76.297554,627.7954
"3569",76.37812,627.8086
"3570",76.4831,627.8218
"3571",76.60761,627.83496
"3572",76.74433,627.84814
"3573",76.876175,627.8613
"3574",76.995804,627.8745
"3575",77.0959,627.8877
"3576",77.171585,627.9009
"3577",77.22041,627.91406
"3578",77.24727,627.92725
"3579",77.2546,627.9404
"3580",77.24971,627.9536
"3581",77.24483,627.9668
"3582",77.264366,627.98
"3583",77.35958,627.99316
"3584",77.62081,628.00635
"3585",78.17258,628.01953
"3586",79.093,628.0327
"3587",80.4065,628.0459
"3588",82.02762,628.0591
"3589",83.78546,628.07227
"3590",85.45785,628.08545
"3591",86.84215,628.09863
"3592",87.799194,628.1118
"3593",88.27039,628.125
"3594",88.28504,628.1382
"3595",87.921265,628.15137
"3596",87.28161,628.16455
"3597",86.47593,628.17773
"3598",85.6141,628.1909
"3599",84.76204,628.2041
"3600",83.9588,628.2173
"3601",83.21416,628.23047
"3602",82.52323,628.24365
"3603",81.87137,628.25684
"3604",81.25124,628.27
"3605",80.6775,628.2832
"3606",80.181885,628.2964
"3607",79.79126,628.3096
"3608",79.5227,628.32275
"3609",79.38598,628.33594
"3610",79.361565,628.3491
"3611",79.4226,628.3623
"3612",79.517815,628.3755
"3613",79.60815,628.3887
"3614",79.65942,628.40186
"3615",79.64721,628.41504
"3616",79.56176,628.4282
"3617",79.40307,628.4414
"3618",79.183334,628.4546
"3619",78.922104,628.4678
"3620",78.626686,628.48096
"3621",78.31907,628.49414
"3622",78.01633,628.5073
"3623",77.72335,628.5205
"3624",77.454796,628.5337
"3625",77.21553,628.5469
"3626",77.01045,628.56006
"3627",76.84444,628.57324
"3628",76.715034,628.5864
"3629",76.6247,628.5996
"3630",76.57099,628.6128
"3631",76.54902,628.626
"3632",76.5539,628.63916
"3633",76.5832,628.65234
"3634",76.63203,628.6655
"3635",76.697945,628.6787
"3636",76.77852,628.6919
"3637",76.876175,628.7051
"3638",76.981155,628.71826
"3639",77.09102,628.73145
"3640",77.205765,628.7446
"3641",77.313194,628.7578
"3642",77.41573,628.771
"3643",77.503624,628.7842
"3644",77.58175,628.79736
"3645",77.642784,628.81055
"3646",77.68185,628.8237
"3647",77.696495,628.8369
"3648",77.68429,628.8501
"3649",77.645226,628.8633
"3650",77.58419,628.87646
"3651",77.51339,628.88965
"3652",77.44503,628.90283
"3653",77.39376,628.916
"3654",77.40597,628.9292
"3655",77.55978,628.9424
"3656",77.977264,628.95557
"3657",78.77074,628.96875
"3658",79.99634,628.98193
"3659",81.61013,628.9951
"3660",83.458305,629.0083
"3661",85.316246,629.0215
"3662",86.94713,629.03467
"3663",88.165405,629.04785
"3664",88.87831,629.06104
"3665",89.08583,629.0742
"3666",88.84169,629.0874
"3667",88.2533,629.1006
"3668",87.43786,629.1138
"3669",86.502785,629.12695
"3670",85.555504,629.14014
"3671",84.65705,629.1533
"3672",83.83429,629.1665
"3673",83.09453,629.1797
"3674",82.425575,629.1929
"3675",81.80545,629.20605
"3676",81.23903,629.21924
"3677",80.73609,629.2324
"3678",80.32105,629.2456
"3679",80.01831,629.2588
"3680",79.835205,629.272
"3681",79.75708,629.28516
"3682",79.766846,629.29834
"3683",79.83276,629.3115
"3684",79.91577,629.3247
"3685",79.98413,629.3379
"3686",80.01099,629.3511
"3687",79.96948,629.36426
"3688",79.852295,629.37744
"3689",79.656975,629.3906
"3690",79.395744,629.4038
"3691",79.08812,629.417
"3692",78.751205,629.4302
"3693",78.41184,629.44336
"3694",78.0798,629.45654
"3695",77.75754,629.4697
"3696",77.46212,629.4829
"3697",77.20088,629.4961
"3698",76.97139,629.5093
"3699",76.788284,629.52246
"3700",76.64912,629.53564
"3701",76.55634,629.5488
"3702",76.50263,629.562
"3703",76.490425,629.5752
"3704",76.51484,629.5884
"3705",76.56855,629.60156
"3706",76.646675,629.61475
"3707",76.74433,629.6279
"3708",76.85664,629.6411
"3709",76.981155,629.6543
"3710",77.11299,629.6675
"3711",77.24483,629.68066
"3712",77.366905,629.69385
"3713",77.47433,629.70703
"3714",77.55978,629.7202
"3715",77.63058,629.7334
"3716",77.68917,629.7466
"3717",77.730675,629.75977
"3718",77.7551,629.77295
"3719",77.75754,629.78613
"3720",77.74288,629.7993
"3721",77.71114,629.8125
"3722",77.66964,629.8257
"3723",77.625694,629.83887
"3724",77.5964,629.85205
"3725",77.62081,629.86523
"3726",77.78195,629.8784
"3727",78.20187,629.8916
"3728",78.99046,629.9048
"3729",80.19653,629.91797
"3730",81.77615,629.93115
"3731",83.57549,629.94434
"3732",85.3724,629.9575
"3733",86.93004,629.9707
"3734",88.07507,629.9839
"3735",88.71961,629.9971
"3736",88.866104,630.01025
"3737",88.57801,630.02344
"3738",87.955444,630.0366
"3739",87.11803,630.0498
"3740",86.17807,630.063
"3741",85.223465,630.0762
"3742",84.32014,630.08936
"3743",83.49981,630.10254
"3744",82.760056,630.1157
"3745",82.08865,630.1289
"3746",81.47341,630.1421
"3747",80.91676,630.1553
"3748",80.430916,630.16846
"3749",80.042725,630.18164
"3750",79.77173,630.1948
"3751",79.635,630.208
"3752",79.62035,630.2212
"3753",79.69848,630.2344
"3754",79.83276,630.24756
"3755",79.97925,630.26074
"3756",80.096436,630.2739
"3757",80.15503,630.2871
"3758",80.13794,630.3003
"3759",80.03784,630.3135
"3760",79.86206,630.32666
"3761",79.61547,630.33984
"3762",79.31762,630.353
"3763",78.98314,630.3662
"3764",78.63645,630.3794
"3765",78.29221,630.3926
"3766",77.960175,630.40576
"3767",77.65499,630.41895
"3768",77.383995,630.4321
"3769",77.14717,630.4453
"3770",76.946976,630.4585
"3771",76.79317,630.4717
"3772",76.680855,630.48486
"3773",76.60761,630.49805
"3774",76.57099,630.5112
"3775",76.57099,630.5244
"3776",76.60273,630.5376
"3777",76.663765,630.5508
"3778",76.749214,630.56396
"3779",76.859085,630.57715
"3780",76.98604,630.59033
"3781",77.1252,630.6035
"3782",77.264366,630.6167
"3783",77.401085,630.6299
"3784",77.5256,630.64307
"3785",77.628136,630.65625
"3786",77.713585,630.66943
"3787",77.77219,630.6826
"3788",77.80881,630.6958
"3789",77.81857,630.709
"3790",77.80148,630.72217
"3791",77.76242,630.73535
"3792",77.71114,630.74854
"3793",77.65499,630.7617
"3794",77.60128,630.7749
"3795",77.56222,630.7881
"3796",77.58663,630.8013
"3797",77.752655,630.81445
"3798",78.19211,630.82764
"3799",79.00511,630.8408
"3800",80.233154,630.854
"3801",81.812775,630.8672
"3802",83.58282,630.8804
"3803",85.31136,630.89355
"3804",86.77867,630.90674
"3805",87.82361,630.9199
"3806",88.38026,630.9331
"3807",88.45838,630.9463
"3808",88.128784,630.9595
"3809",87.48669,630.97266
"3810",86.64439,630.98584
"3811",85.70199,630.999
"3812",84.74494,631.0122
"3813",83.826965,631.0254
"3814",82.97978,631.0386
"3815",82.210724,631.05176
"3816",81.5198,631.06494
"3817",80.902115,631.0781
"3818",80.37232,631.0913
"3819",79.94507,631.1045
"3820",79.64477,631.1177
"3821",79.47875,631.13086
"3822",79.44213,631.14404
"3823",79.51293,631.1572
"3824",79.656975,631.1704
"3825",79.83276,631.1836
"3826",80.00122,631.1968
"3827",80.12573,631.20996
"3828",80.177,631.22314
"3829",80.14282,631.2363
"3830",80.01831,631.2495
"3831",79.82056,631.2627
"3832",79.56176,631.2759
"3833",79.26147,631.28906
"3834",78.93431,631.30225
"3835",78.60227,631.3154
"3836",78.27268,631.3286
"3837",77.95285,631.3418
"3838",77.65743,631.355
"3839",77.3962,631.36816
"3840",77.171585,631.38135
"3841",76.98604,631.39453
"3842",76.84932,631.4077
"3843",76.75899,631.4209
"3844",76.71015,631.4341
"3845",76.697945,631.44727
"3846",76.71992,631.46045
"3847",76.773636,631.47363
"3848",76.84932,631.4868
"3849",76.94942,631.5
"3850",77.06172,631.5132
"3851",77.18623,631.52637
"3852",77.31808,631.53955
"3853",77.44991,631.55273
"3854",77.574425,631.5659
"3855",77.69161,631.5791
"3856",77.79172,631.5923
"3857",77.86984,631.60547
"3858",77.92355,631.61865
"3859",77.94797,631.63184
"3860",77.94064,631.645
"3861",77.908905,631.6582
"3862",77.85031,631.6714
"3863",77.78439,631.6846
"3864",77.713585,631.69775
"3865",77.659874,631.71094
"3866",77.65255,631.7241
"3867",77.77463,631.7373
"3868",78.12619,631.7505
"3869",78.81712,631.7637
"3870",79.903564,631.77686
"3871",81.35378,631.79004
"3872",83.0457,631.8032
"3873",84.76936,631.8164
"3874",86.30747,631.8296
"3875",87.47936,631.8428
"3876",88.19226,631.85596
"3877",88.4242,631.86914
"3878",88.22888,631.8823
"3879",87.69421,631.8955
"3880",86.922714,631.9087
"3881",86.02426,631.9219
"3882",85.08186,631.93506
"3883",84.156555,631.94824
"3884",83.28985,631.9614
"3885",82.496376,631.9746
"3886",81.77615,631.9878
"3887",81.13161,632.001
"3888",80.57252,632.01416
"3889",80.111084,632.02734
"3890",79.77417,632.0405
"3891",79.57397,632.0537
"3892",79.50561,632.0669
"3893",79.55688,632.0801
"3894",79.691154,632.09326
"3895",79.871826,632.10645
"3896",80.05249,632.1196
"3897",80.19653,632.1328
"3898",80.27711,632.146
"3899",80.27711,632.1592
"3900",80.19409,632.17236
"3901",80.03052,632.18555
"3902",79.80347,632.1987
"3903",79.52514,632.2119
"3904",79.21019,632.2251
"3905",78.87816,632.2383
"3906",78.54368,632.25146
"3907",78.21896,632.26465
"3908",77.92111,632.27783
"3909",77.65499,632.291
"3910",77.42306,632.3042
"3911",77.23262,632.3174
"3912",77.08125,632.33057
"3913",76.978714,632.34375
"3914",76.91768,632.35693
"3915",76.90059,632.3701
"3916",76.910355,632.3833
"3917",76.95186,632.3965
"3918",77.015335,632.40967
"3919",77.100784,632.42285
"3920",77.19844,632.43604
"3921",77.30831,632.4492
"3922",77.4255,632.4624
"3923",77.54269,632.4756
"3924",77.65255,632.4888
"3925",77.7551,632.50195
"3926",77.84543,632.51514
"3927",77.91135,632.5283
"3928",77.95041,632.5415
"3929",77.960175,632.5547
"3930",77.94797,632.5679
"3931",77.91867,632.58105
"3932",77.872284,632.59424
"3933",77.8259,632.6074
"3934",77.79172,632.6206
"3935",77.81857,632.6338
"3936",77.98215,632.647
"3937",78.39475,632.66016
"3938",79.15892,632.67334
"3939",80.30396,632.6865
"3940",81.77615,632.6997
"3941",83.43389,632.7129
"3942",85.07698,632.7261
"3943",86.4979,632.73926
"3944",87.54772,632.75244
"3945",88.1532,632.7656
"3946",88.31434,632.7788
"3947",88.07263,632.792
"3948",87.50866,632.8052
"3949",86.727394,632.81836
"3950",85.82651,632.83154
"3951",84.89143,632.8447
"3952",83.99054,632.8579
"3953",83.158005,632.8711
"3954",82.4036,632.8843
"3955",81.72976,632.89746
"3956",81.129166,632.91064
"3957",80.62379,632.9238
"3958",80.22095,632.937
"3959",79.937744,632.9502
"3960",79.78638,632.9634
"3961",79.766846,632.97656
"3962",79.85474,632.98975
"3963",80.02075,633.0029
"3964",80.23071,633.0161
"3965",80.44068,633.0293
"3966",80.6067,633.0425
"3967",80.69459,633.05566
"3968",80.68726,633.06885
"3969",80.57984,633.08203
"3970",80.38209,633.0952
"3971",80.10864,633.1084
"3972",79.77661,633.1216
"3973",79.415276,633.13477
"3974",79.046616,633.14795
"3975",78.68772,633.16113
"3976",78.35569,633.1743
"3977",78.05783,633.1875
"3978",77.79416,633.2007
"3979",77.56222,633.21387
"3980",77.36446,633.22705
"3981",77.205765,633.24023
"3982",77.09102,633.2534
"3983",77.01778,633.2666
"3984",76.98848,633.2798
"3985",77.00069,633.29297
"3986",77.04707,633.30615
"3987",77.12276,633.31934
"3988",77.222855,633.3325
"3989",77.33517,633.3457
"3990",77.454796,633.3589
"3991",77.57198,633.3721
"3992",77.67452,633.38525
"3993",77.75998,633.39844
"3994",77.823456,633.4116
"3995",77.86496,633.4248
"3996",77.88449,633.438
"3997",77.88693,633.4512
"3998",77.87717,633.46436
"3999",77.86252,633.47754
"4000",77.857635,633.4907
"4001",77.90402,633.5039
"4002",78.07248,633.5171
"4003",78.47532,633.5303
"4004",79.202866,633.54346
"4005",80.289314,633.55664
"4006",81.688255,633.5698
"4007",83.26299,633.583
"4008",84.81575,633.5962
"4009",86.151215,633.6094
"4010",87.12047,633.62256
"4011",87.65514,633.63574
"4012",87.75281,633.6489
"4013",87.46227,633.6621
"4014",86.86412,633.6753
"4015",86.06821,633.6885
"4016",85.16487,633.70166
"4017",84.23956,633.71484
"4018",83.346,633.728
"4019",82.51591,633.7412
"4020",81.75662,633.7544
"4021",81.06325,633.7676
"4022",80.448006,633.78076
"4023",79.93042,633.79395
"4024",79.5227,633.8071
"4025",79.24437,633.8203
"4026",79.10277,633.8335
"4027",79.093,633.8467
"4028",79.1931,633.85986
"4029",79.36645,633.87305
"4030",79.57397,633.8862
"4031",79.77417,633.8994
"4032",79.92798,633.9126
"4033",80.00122,633.9258
"4034",79.97925,633.93896
"4035",79.8645,633.95215
"4036",79.66674,633.96533
"4037",79.398186,633.9785
"4038",79.08568,633.9917
"4039",78.75365,634.0049
"4040",78.416725,634.01807
"4041",78.09201,634.03125
"4042",77.79904,634.04443
"4043",77.54269,634.0576
"4044",77.315636,634.0708
"4045",77.1252,634.084
"4046",76.97627,634.09717
"4047",76.86885,634.11035
"4048",76.80293,634.12354
"4049",76.77852,634.1367
"4050",76.79561,634.1499
"4051",76.85176,634.1631
"4052",76.93721,634.1763
"4053",77.049515,634.18945
"4054",77.17403,634.20264
"4055",77.31075,634.2158
"4056",77.44015,634.229
"4057",77.557335,634.2422
"4058",77.65011,634.2554
"4059",77.71847,634.26855
"4060",77.75754,634.28174
"4061",77.77219,634.2949
"4062",77.7673,634.3081
"4063",77.75998,634.3213
"4064",77.75998,634.3345
"4065",77.806366,634.34766
"4066",77.979706,634.36084
"4067",78.380104,634.374
"4068",79.09544,634.3872
"4069",80.164795,634.4004
"4070",81.53933,634.4136
"4071",83.09209,634.42676
"4072",84.63264,634.43994
"4073",85.96323,634.4531
"4074",86.93248,634.4663
"4075",87.467155,634.4795
"4076",87.56481,634.4927
"4077",87.28161,634.50586
"4078",86.70542,634.51904
"4079",85.93881,634.5322
"4080",85.07454,634.5454
"4081",84.18341,634.5586
"4082",83.31426,634.5718
"4083",82.49149,634.58496
"4084",81.7322,634.59814
"4085",81.03639,634.6113
"4086",80.42115,634.6245
"4087",79.90112,634.6377
"4088",79.49828,634.6509
"4089",79.23216,634.66406
"4090",79.11253,634.67725
"4091",79.1223,634.6904
"4092",79.22728,634.7036
"4093",79.395744,634.7168
"4094",79.58373,634.73
"4095",79.75708,634.74316
"4096",79.87671,634.75635
"4097",79.91821,634.76953
"4098",79.86694,634.7827
"4099",79.725334,634.7959
"4100",79.500725,634.8091
"4101",79.21507,634.82227
"4102",78.89525,634.83545
"4103",78.56077,634.84863
"4104",78.22873,634.8618
"4105",77.91135,634.875
"4106",77.62081,634.8882
"4107",77.366905,634.90137
"4108",77.14961,634.91455
"4109",76.978714,634.92773
"4110",76.84688,634.9409
"4111",76.75899,634.9541
"4112",76.70771,634.9673
"4113",76.6955,634.98047
"4114",76.71992,634.99365
"4115",76.773636,635.00684
"4116",76.84932,635.02
"4117",76.93965,635.0332
"4118",77.03731,635.0464
"4119",77.13252,635.0596
"4120",77.21309,635.07275
"4121",77.281456,635.08594
"4122",77.32784,635.0991
"4123",77.36202,635.1123
"4124",77.37911,635.1255
"4125",77.39864,635.1387
"4126",77.42794,635.15186
"4127",77.51583,635.16504
"4128",77.74288,635.1782
"4129",78.21652,635.1914
"4130",79.027084,635.2046
"4131",80.201416,635.2178
"4132",81.685814,635.23096
"4133",83.32647,635.24414
"4134",84.91829,635.2573
"4135",86.26353,635.2705
"4136",87.22301,635.2837
"4137",87.73571,635.2969
"4138",87.8114,635.31006
"4139",87.51354,635.32324
"4140",86.9276,635.3364
"4141",86.153656,635.3496
"4142",85.29183,635.3628
"4143",84.41291,635.376
"4144",83.57061,635.38916
"4145",82.78447,635.40234
"4146",82.06424,635.4155
"4147",81.40017,635.4287
"4148",80.80202,635.4419
"4149",80.28199,635.4551
"4150",79.86206,635.46826
"4151",79.5642,635.48145
"4152",79.398186,635.4946
"4153",79.35424,635.5078
"4154",79.42016,635.521
"4155",79.554436,635.5342
"4156",79.72045,635.54736
"4157",79.871826,635.56055
"4158",79.974365,635.5737
"4159",79.99634,635.5869
"4160",79.93042,635.6001
"4161",79.77905,635.6133
"4162",79.54711,635.62646
"4163",79.26147,635.63965
"4164",78.941635,635.65283
"4165",78.6096,635.666
"4166",78.277565,635.6792
"4167",77.962616,635.6924
"4168",77.66964,635.70557
"4169",77.40597,635.71875
"4170",77.18135,635.73193
"4171",77.00069,635.7451
"4172",76.86397,635.7583
"4173",76.77608,635.7715
"4174",76.73701,635.78467
"4175",76.732124,635.79785
"4176",76.76387,635.81104
"4177",76.822464,635.8242
"4178",76.895706,635.8374
"4179",76.981155,635.8506
"4180",77.066605,635.8638
"4181",77.13985,635.87695
"4182",77.19844,635.89014
"4183",77.2375,635.9033
"4184",77.2546,635.9165
"4185",77.2546,635.9297
"4186",77.24727,635.9429
"4187",77.25704,635.95605
"4188",77.31075,635.96924
"4189",77.47921,635.9824
"4190",77.86984,635.9956
"4191",78.5803,636.0088
"4192",79.64965,636.022
"4193",81.05104,636.03516
"4194",82.667274,636.04834
"4195",84.300606,636.0615
"4196",85.74349,636.0747
"4197",86.82994,636.0879
"4198",87.47448,636.1011
"4199",87.66491,636.11426
"4200",87.45495,636.12744
"4201",86.93736,636.1406
"4202",86.21713,636.1538
"4203",85.399254,636.167
"4204",84.56672,636.1802
"4205",83.773254,636.19336
"4206",83.03105,636.20654
"4207",82.34989,636.2197
"4208",81.71267,636.2329
"4209",81.12184,636.2461
"4210",80.57252,636.2593
"4211",80.09888,636.27246
"4212",79.725334,636.28564
"4213",79.466545,636.2988
"4214",79.33715,636.312
"4215",79.327385,636.3252
"4216",79.40795,636.3384
"4217",79.534904,636.35156
"4218",79.66674,636.36475
"4219",79.764404,636.3779
"4220",79.798584,636.3911
"4221",79.7522,636.4043
"4222",79.62768,636.4175
"4223",79.42748,636.43066
"4224",79.17357,636.44385
"4225",78.87572,636.45703
"4226",78.55833,636.4702
"4227",78.23361,636.4834
"4228",77.92111,636.4966
"4229",77.625694,636.50977
"4230",77.366905,636.52295
"4231",77.152054,636.53613
"4232",76.99092,636.5493
"4233",76.876175,636.5625
"4234",76.805374,636.5757
"4235",76.771194,636.58887
"4236",76.76631,636.60205
"4237",76.7834,636.61523
"4238",76.82002,636.6284
"4239",76.876175,636.6416
"4240",76.93965,636.6548
"4241",77.00557,636.66797
"4242",77.069046,636.68115
"4243",77.12276,636.69434
"4244",77.16182,636.7075
"4245",77.19112,636.7207
"4246",77.21553,636.7339
"4247",77.239944,636.7471
"4248",77.27169,636.76025
"4249",77.32784,636.77344
"4250",77.452354,636.7866
"4251",77.72579,636.7998
"4252",78.24094,636.813
"4253",79.078354,636.8262
"4254",80.257576,636.83936
"4255",81.705345,636.85254
"4256",83.265434,636.8657
"4257",84.74494,636.8789
"4258",85.9559,636.8921
"4259",86.77379,636.9053
"4260",87.149765,636.91846
"4261",87.11803,636.93164
"4262",86.746925,636.9448
"4263",86.136566,636.958
"4264",85.39193,636.9712
"4265",84.6009,636.9844
"4266",83.82208,636.99756
"4267",83.08232,637.01074
"4268",82.39384,637.0239
"4269",81.75418,637.0371
"4270",81.160904,637.0503
"4271",80.61646,637.0635
"4272",80.14526,637.07666
"4273",79.77417,637.08984
"4274",79.52514,637.103
"4275",79.40307,637.1162
"4276",79.40063,637.1294
"4277",79.49096,637.1426
"4278",79.63256,637.15576
"4279",79.77417,637.16895
"4280",79.88403,637.1821
"4281",79.93042,637.1953
"4282",79.89136,637.2085
"4283",79.764404,637.2217
"4284",79.56176,637.23486
"4285",79.30053,637.24805
"4286",79.00023,637.2612
"4287",78.6804,637.2744
"4288",78.363014,637.2876
"4289",78.06027,637.3008
"4290",77.77951,637.31396
"4291",77.53048,637.32715
"4292",77.31808,637.34033
"4293",77.152054,637.3535
"4294",77.032425,637.3667
"4295",76.95918,637.3799
"4296",76.927444,637.39307
"4297",76.927444,637.40625
"4298",76.95186,637.41943
"4299",76.995804,637.4326
"4300",77.049515,637.4458
"4301",77.10811,637.459
"4302",77.16182,637.47217
"4303",77.21065,637.48535
"4304",77.25948,637.49854
"4305",77.30343,637.5117
"4306",77.33761,637.5249
"4307",77.36935,637.5381
"4308",77.401085,637.5513
"4309",77.437706,637.56445
"4310",77.503624,637.57764
"4311",77.65011,637.5908
"4312",77.960175,637.604
"4313",78.52659,637.6172
"4314",79.40307,637.6304
"4315",80.58228,637.64355
"4316",81.97879,637.65674
"4317",83.441216,637.6699
"4318",84.77425,637.6831
"4319",85.81674,637.6963
"4320",86.47349,637.7095
"4321",86.71763,637.72266
"4322",86.57847,637.73584
"4323",86.14145,637.749
"4324",85.506676,637.7622
"4325",84.76448,637.7754
"4326",83.99054,637.7886
"4327",83.23613,637.80176
"4328",82.51835,637.81494
"4329",81.84207,637.8281
"4330",81.21706,637.8413
"4331",80.655525,637.8545
"4332",80.177,637.8677
"4333",79.80347,637.88086
"4334",79.54955,637.89404
"4335",79.429924,637.9072
"4336",79.429924,637.9204
"4337",79.53002,637.9336
"4338",79.691154,637.9468
"4339",79.87427,637.95996
"4340",80.03296,637.97314
"4341",80.130615,637.9863
"4342",80.14038,637.9995
"4343",80.062256,638.0127
"4344",79.89868,638.0259
"4345",79.66674,638.03906
"4346",79.378654,638.05225
"4347",79.063705,638.0654
"4348",78.74143,638.0786
"4349",78.42893,638.0918
"4350",78.1384,638.105
"4351",77.88449,638.11816
"4352",77.66476,638.13135
"4353",77.48409,638.14453
"4354",77.34493,638.1577
"4355",77.24727,638.1709
"4356",77.18379,638.1841
"4357",77.15694,638.19727
"4358",77.15694,638.21045
"4359",77.16914,638.22363
"4360",77.19356,638.2368
"4361",77.225296,638.25
"4362",77.261925,638.2632
"4363",77.30099,638.27637
"4364",77.34249,638.28955
"4365",77.38888,638.30273
"4366",77.44259,638.3159
"4367",77.49874,638.3291
"4368",77.5671,638.3423
"4369",77.679405,638.35547
"4370",77.87717,638.36865
"4371",78.24094,638.38184
"4372",78.853745,638.395
"4373",79.76196,638.4082
"4374",80.94118,638.4214
"4375",82.29862,638.4346
"4376",83.682915,638.44775
"4377",84.92073,638.46094
"4378",85.86069,638.4741
"4379",86.414894,638.4873
"4380",86.571144,638.5005
"4381",86.36851,638.5137
"4382",85.88266,638.52686
"4383",85.21858,638.54004
"4384",84.46418,638.5532
"4385",83.682915,638.5664
"4386",82.913864,638.5796
"4387",82.18143,638.5928
"4388",81.497826,638.60596
"4389",80.8777,638.61914
"4390",80.33814,638.6323
"4391",79.90845,638.6455
"4392",79.605705,638.6587
"4393",79.43969,638.6719
"4394",79.40551,638.68506
"4395",79.483635,638.69824
"4396",79.63744,638.7114
"4397",79.818115,638.7246
"4398",79.98901,638.7378
"4399",80.10864,638.751
"4400",80.15503,638.76416
"4401",80.12085,638.77734
"4402",80.00366,638.7905
"4403",79.80835,638.8037
"4404",79.551994,638.8169
"4405",79.26147,638.8301
"4406",78.94896,638.84326
"4407",78.63889,638.85645
"4408",78.34104,638.8696
"4409",78.0676,638.8828
"4410",77.8259,638.896
"4411",77.62081,638.9092
"4412",77.45968,638.92236
"4413",77.34005,638.93555
"4414",77.24971,638.9487
"4415",77.18379,638.9619
"4416",77.14229,638.9751
"4417",77.120316,638.9883
"4418",77.117874,639.00146
"4419",77.13252,639.01465
"4420",77.15694,639.02783
"4421",77.19112,639.041
"4422",77.23018,639.0542
"4423",77.27413,639.0674
"4424",77.330284,639.08057
"4425",77.40353,639.09375
"4426",77.506065,639.10693
"4427",77.67696,639.1201
"4428",77.98459,639.1333
"4429",78.51194,639.1465
"4430",79.32006,639.15967
"4431",80.42359,639.17285
"4432",81.74929,639.18604
"4433",83.16289,639.1992
"4434",84.488594,639.2124
"4435",85.56771,639.2256
"4436",86.2855,639.2388
"4437",86.598,639.25195
"4438",86.53208,639.26514
"4439",86.14877,639.2783
"4440",85.53597,639.2915
"4441",84.78157,639.3047
"4442",83.966125,639.3179
"4443",83.1458,639.33105
"4444",82.35233,639.34424
"4445",81.61257,639.3574
"4446",80.94606,639.3706
"4447",80.37965,639.3838
"4448",79.93042,639.397
"4449",79.62035,639.41016
"4450",79.45434,639.42334
"4451",79.432365,639.4365
"4452",79.52758,639.4497
"4453",79.710686,639.4629
"4454",79.9353,639.4761
"4455",80.15991,639.48926
"4456",80.33814,639.50244
"4457",80.448006,639.5156
"4458",80.46754,639.5288
"4459",80.40406,639.542
"4460",80.26246,639.5552
"4461",80.059814,639.56836
"4462",79.81079,639.58154
"4463",79.53246,639.5947
"4464",79.23949,639.6079
"4465",78.9514,639.6211
"4466",78.677956,639.6343
"4467",78.43137,639.64746
"4468",78.21164,639.66064
"4469",78.02121,639.6738
"4470",77.86008,639.687
"4471",77.72823,639.7002
"4472",77.62081,639.7134
"4473",77.5378,639.72656
"4474",77.48165,639.73975
"4475",77.44015,639.7529
"4476",77.418175,639.7661
"4477",77.41573,639.7793
"4478",77.435265,639.7925
"4479",77.48165,639.80566
"4480",77.55489,639.81885
"4481",77.662315,639.83203
"4482",77.83322,639.8452
"4483",78.12863,639.8584
"4484",78.6218,639.8716
"4485",79.378654,639.88477
"4486",80.41627,639.89795
"4487",81.68093,639.91113
"4488",83.04326,639.9243
"4489",84.33723,639.9375
"4490",85.39681,639.9507
"4491",86.10971,639.96387
"4492",86.4271,639.97705
"4493",86.366066,639.99023
"4494",85.98276,640.0034
"4495",85.37484,640.0166
"4496",84.62531,640.0298
"4497",83.809875,640.04297
"4498",82.97734,640.05615
"4499",82.16678,640.06934
"4500",81.40017,640.0825
"4501",80.70435,640.0957
"4502",80.1062,640.1089
"4503",79.63744,640.1221
"4504",79.31762,640.13525
"4505",79.15892,640.14844
"4506",79.15404,640.1616
"4507",79.27856,640.1748
"4508",79.483635,640.188
"4509",79.727776,640.2012
"4510",79.96948,640.21436
"4511",80.164795,640.22754
"4512",80.291756,640.2407
"4513",80.3357,640.2539
"4514",80.29664,640.2671
"4515",80.177,640.2803
"4516",79.98901,640.29346
"4517",79.74731,640.30664
"4518",79.47875,640.3198
"4519",79.19798,640.333
"4520",78.91722,640.3462
"4521",78.64866,640.3594
"4522",78.397194,640.37256
"4523",78.167694,640.38574
"4524",77.95773,640.3989
"4525",77.77463,640.4121
"4526",77.61349,640.4253
"4527",77.47921,640.4385
"4528",77.366905,640.45166
"4529",77.2839,640.46484
"4530",77.23018,640.478
"4531",77.21309,640.4912
"4532",77.22041,640.5044
"4533",77.261925,640.5176
"4534",77.34493,640.53076
"4535",77.50118,640.54395
"4536",77.79904,640.5571
"4537",78.328835,640.5703
"4538",79.15404,640.5835
"4539",80.27711,640.5967
"4540",81.64675,640.60986
"4541",83.11894,640.62305
"4542",84.51057,640.6362
"4543",85.65072,640.6494
"4544",86.42466,640.6626
"4545",86.77623,640.6758
"4546",86.727394,640.68896
"4547",86.346535,640.70215
"4548",85.7264,640.71533
"4549",84.95979,640.7285
"4550",84.137024,640.7417
"4551",83.302055,640.7549
"4552",82.493935,640.76807
"4553",81.72976,640.78125
"4554",81.02663,640.79443
"4555",80.4065,640.8076
"4556",79.89624,640.8208
"4557",79.517815,640.834
"4558",79.29565,640.84717
"4559",79.219955,640.86035
"4560",79.273674,640.87354
"4561",79.42504,640.8867
"4562",79.63256,640.8999
"4563",79.84985,640.9131
"4564",80.0354,640.9263
"4565",80.15747,640.93945
"4566",80.19653,640.95264
"4567",80.147705,640.9658
"4568",80.01587,640.979
"4569",79.818115,640.9922
"4570",79.57397,641.0054
"4571",79.30541,641.01855
"4572",79.02464,641.03174
"4573",78.751205,641.0449
"4574",78.48997,641.0581
"4575",78.238495,641.0713
