"","ppg","time"
"1",76.1828,916.5425
"2",76.21942,916.55566
"3",76.265816,916.56885
"4",76.3122,916.58203
"5",76.35371,916.5952
"6",76.39033,916.6084
"7",76.422066,916.6216
"8",76.45136,916.63477
"9",76.48554,916.64795
"10",76.52949,916.66113
"11",76.60761,916.6743
"12",76.80049,916.6875
"13",77.21309,916.7007
"14",77.962616,916.71387
"15",79.12718,916.72705
"16",80.70191,916.74023
"17",82.56962,916.7534
"18",84.525215,916.7666
"19",86.329445,916.7798
"20",87.77966,916.79297
"21",88.73914,916.80615
"22",89.161514,916.81934
"23",89.08095,916.8325
"24",88.587776,916.8457
"25",87.79431,916.8589
"26",86.820175,916.8721
"27",85.770355,916.88525
"28",84.715645,916.89844
"29",83.700005,916.9116
"30",82.74052,916.9248
"31",81.8616,916.938
"32",81.077896,916.9512
"33",80.413826,916.96436
"34",79.89136,916.97754
"35",79.54467,916.9907
"36",79.37377,917.0039
"37",79.37133,917.0171
"38",79.50805,917.0303
"39",79.73022,917.04346
"40",79.98413,917.05664
"41",80.21362,917.0698
"42",80.37232,917.083
"43",80.42115,917.0962
"44",80.35523,917.1094
"45",80.16968,917.12256
"46",79.886475,917.13574
"47",79.52514,917.1489
"48",79.11253,917.1621
"49",78.67307,917.1753
"50",78.22385,917.1885
"51",77.77951,917.20166
"52",77.35714,917.21484
"53",76.96651,917.228
"54",76.61494,917.2412
"55",76.3122,917.2544
"56",76.06073,917.2676
"57",75.862976,917.28076
"58",75.72137,917.29395
"59",75.62859,917.3071
"60",75.58221,917.3203
"61",75.579765,917.3335
"62",75.60906,917.3467
"63",75.66033,917.35986
"64",75.72381,917.37305
"65",75.78241,917.3862
"66",75.8288,917.3994
"67",75.86542,917.4126
"68",75.897156,917.4258
"69",75.928894,917.43896
"70",75.96796,917.45215
"71",76.04852,917.46533
"72",76.243835,917.4785
"73",76.67597,917.4917
"74",77.47677,917.5049
"75",78.73899,917.51807
"76",80.448006,917.53125
"77",82.49149,917.54443
"78",84.647285,917.5576
"79",86.65171,917.5708
"80",88.275276,917.584
"81",89.373924,917.59717
"82",89.89151,917.61035
"83",89.86221,917.62354
"84",89.38857,917.6367
"85",88.59754,917.6499
"86",87.620964,917.6631
"87",86.57847,917.6763
"88",85.555504,917.68945
"89",84.58625,917.70264
"90",83.67315,917.7158
"91",82.82109,917.729
"92",82.03494,917.7422
"93",81.324486,917.7554
"94",80.72144,917.76855
"95",80.26002,917.78174
"96",79.957275,917.7949
"97",79.81323,917.8081
"98",79.80835,917.8213
"99",79.906006,917.8345
"100",80.059814,917.84766
"101",80.21362,917.86084
"102",80.323494,917.874
"103",80.34791,917.8872
"104",80.2649,917.9004
"105",80.0647,917.9136
"106",79.764404,917.92676
"107",79.37621,917.93994
"108",78.92943,917.9531
"109",78.450905,917.9663
"110",77.9675,917.9795
"111",77.49874,917.9927
"112",77.05684,918.00586
"113",76.65156,918.01904
"114",76.29023,918.0322
"115",75.982605,918.0454
"116",75.736015,918.0586
"117",75.545586,918.0718
"118",75.41619,918.08496
"119",75.34539,918.09814
"120",75.32342,918.1113
"121",75.35027,918.1245
"122",75.42596,918.1377
"123",75.5407,918.1509
"124",75.684746,918.16406
"125",75.83856,918.17725
"126",75.98505,918.1904
"127",76.10956,918.2036
"128",76.20477,918.2168
"129",76.265816,918.23
"130",76.29023,918.24316
"131",76.28535,918.25635
"132",76.25605,918.26953
"133",76.21942,918.2827
"134",76.209656,918.2959
"135",76.29511,918.3091
"136",76.60517,918.32227
"137",77.281456,918.33545
"138",78.4387,918.34863
"139",80.09888,918.3618
"140",82.16922,918.375
"141",84.43488,918.3882
"142",86.61997,918.40137
"143",88.465706,918.41455
"144",89.78897,918.42773
"145",90.511635,918.4409
"146",90.650795,918.4541
"147",90.29923,918.4673
"148",89.58633,918.48047
"149",88.656136,918.49365
"150",87.63561,918.50684
"151",86.61753,918.52
"152",85.660484,918.5332
"153",84.77669,918.5464
"154",83.95636,918.5596
"155",83.1873,918.57275
"156",82.46952,918.58594
"157",81.815216,918.5991
"158",81.253685,918.6123
"159",80.814224,918.6255
"160",80.52369,918.6387
"161",80.37965,918.65186
"162",80.360115,918.66504
"163",80.428474,918.6782
"164",80.52857,918.6914
"165",80.6067,918.7046
"166",80.618904,918.7178
"167",80.533455,918.73096
"168",80.34058,918.74414
"169",80.04028,918.7573
"170",79.656975,918.7705
"171",79.21263,918.7837
"172",78.73411,918.7969
"173",78.24338,918.81006
"174",77.75998,918.82324
"175",77.30343,918.8364
"176",76.876175,918.8496
"177",76.490425,918.8628
"178",76.1535,918.876
"179",75.86786,918.88916
"180",75.63348,918.90234
"181",75.45525,918.9155
"182",75.33074,918.9287
"183",75.267265,918.9419
"184",75.264824,918.9551
"185",75.318535,918.96826
"186",75.41863,918.98145
"187",75.55047,918.9946
"188",75.68963,919.0078
"189",75.82391,919.021
"190",75.9411,919.0342
"191",76.03143,919.04736
"192",76.087585,919.06055
"193",76.112,919.0737
"194",76.102234,919.0869
"195",76.06073,919.1001
"196",76.00214,919.1133
"197",75.93866,919.12646
"198",75.880066,919.13965
"199",75.85809,919.15283
"200",75.948425,919.166
"201",76.27802,919.1792
"202",76.99336,919.1924
"203",78.19699,919.20557
"204",79.89868,919.21875
"205",81.97635,919.23193
"206",84.20294,919.2451
"207",86.30259,919.2583
"208",88.026245,919.2715
"209",89.2079,919.28467
"210",89.79874,919.29785
"211",89.83536,919.31104
"212",89.410545,919.3242
"213",88.653694,919.3374
"214",87.71374,919.3506
"215",86.70054,919.3638
"216",85.69955,919.37695
"217",84.749825,919.39014
"218",83.86603,919.4033
"219",83.04326,919.4165
"220",82.27665,919.4297
"221",81.57107,919.4429
"222",80.953384,919.45605
"223",80.45289,919.46924
"224",80.10376,919.4824
"225",79.90845,919.4956
"226",79.85962,919.5088
"227",79.923096,919.522
"228",80.05005,919.53516
"229",80.18677,919.54834
"230",80.274666,919.5615
"231",80.28687,919.5747
"232",80.19653,919.5879
"233",80.00122,919.6011
"234",79.708244,919.61426
"235",79.33959,919.62744
"236",78.91478,919.6406
"237",78.45335,919.6538
"238",77.97482,919.667
"239",77.503624,919.6802
"240",77.05684,919.69336
"241",76.64912,919.70654
"242",76.28779,919.7197
"243",75.97772,919.7329
"244",75.72625,919.7461
"245",75.52361,919.7593
"246",75.37469,919.77246
"247",75.27215,919.78564
"248",75.22087,919.7988
"249",75.22575,919.812
"250",75.27703,919.8252
"251",75.369804,919.8384
"252",75.49676,919.85156
"253",75.64568,919.86475
"254",75.80194,919.8779
"255",75.95087,919.8911
"256",76.08026,919.9043
"257",76.18768,919.9175
"258",76.25605,919.93066
"259",76.28779,919.94385
"260",76.28535,919.95703
"261",76.24872,919.9702
"262",76.190125,919.9834
"263",76.121765,919.9966
"264",76.06073,920.00977
"265",76.03876,920.02295
"266",76.104675,920.03613
"267",76.34638,920.0493
"268",76.893265,920.0625
"269",77.874725,920.0757
"270",79.33227,920.08887
"271",81.21706,920.10205
"272",83.36553,920.11523
"273",85.52865,920.1284
"274",87.432976,920.1416
"275",88.86366,920.1548
"276",89.720604,920.16797
"277",89.98917,920.18115
"278",89.74746,920.19434
"279",89.10292,920.2075
"280",88.19226,920.2207
"281",87.14732,920.2339
"282",86.06821,920.2471
"283",85.015945,920.26025
"284",84.02228,920.27344
"285",83.09209,920.2866
"286",82.23514,920.2998
"287",81.46609,920.313
"288",80.8069,920.3262
"289",80.28443,920.33936
"290",79.93286,920.35254
"291",79.74975,920.3657
"292",79.72289,920.3789
"293",79.815674,920.3921
"294",79.97925,920.4053
"295",80.15747,920.41846
"296",80.30152,920.43164
"297",80.37232,920.4448
"298",80.34791,920.458
"299",80.218506,920.4712
"300",79.98169,920.4844
"301",79.65453,920.49756
"302",79.256584,920.51074
"303",78.80492,920.5239
"304",78.328835,920.5371
"305",77.857635,920.5503
"306",77.40841,920.5635
"307",76.99336,920.57666
"308",76.61982,920.58984
"309",76.29511,920.603
"310",76.02411,920.6162
"311",75.79706,920.6294
"312",75.62615,920.6426
"313",75.50652,920.65576
"314",75.43816,920.66895
"315",75.41619,920.6821
"316",75.440605,920.6953
"317",75.50164,920.7085
"318",75.60662,920.7217
"319",75.7409,920.73486
"320",75.897156,920.74805
"321",76.05585,920.7612
"322",76.209656,920.7744
"323",76.334175,920.7876
"324",76.42939,920.8008
"325",76.48798,920.81396
"326",76.5124,920.82715
"327",76.507515,920.84033
"328",76.48554,920.8535
"329",76.44892,920.8667
"330",76.40742,920.8799
"331",76.387886,920.89307
"332",76.436714,920.90625
"333",76.64423,920.91943
"334",77.14961,920.9326
"335",78.07736,920.9458
"336",79.47875,920.959
"337",81.30251,920.97217
"338",83.38018,920.98535
"339",85.46273,920.99854
"340",87.28649,921.0117
"341",88.64881,921.0249
"342",89.444725,921.0381
"343",89.66689,921.0513
"344",89.38369,921.06445
"345",88.71229,921.07764
"346",87.77722,921.0908
"347",86.6981,921.104
"348",85.57992,921.1172
"349",84.47639,921.1304
"350",83.42901,921.14355
"351",82.45731,921.15674
"352",81.58572,921.1699
"353",80.8362,921.1831
"354",80.24048,921.1963
"355",79.82788,921.2095
"356",79.61547,921.22266
"357",79.588615,921.23584
"358",79.727776,921.249
"359",79.97925,921.2622
"360",80.28199,921.2754
"361",80.57496,921.2886
"362",80.80202,921.30176
"363",80.93385,921.31494
"364",80.94118,921.3281
"365",80.82643,921.3413
"366",80.604256,921.3545
"367",80.28687,921.3677
"368",79.90112,921.38086
"369",79.47143,921.39404
"370",79.0222,921.4072
"371",78.57053,921.4204
"372",78.133514,921.4336
"373",77.72579,921.4468
"374",77.35958,921.45996
"375",77.04463,921.47314
"376",76.790726,921.4863
"377",76.595406,921.4995
"378",76.456245,921.5127
"379",76.37568,921.5259
"380",76.3415,921.53906
"381",76.34882,921.55225
"382",76.39033,921.5654
"383",76.45869,921.5786
"384",76.53925,921.5918
"385",76.6247,921.605
"386",76.71015,921.61816
"387",76.788284,921.63135
"388",76.85176,921.64453
"389",76.90547,921.6577
"390",76.9543,921.6709
"391",77.00313,921.6841
"392",77.08125,921.69727
"393",77.264366,921.71045
"394",77.662315,921.72363
"395",78.39231,921.7368
"396",79.53246,921.75
"397",81.06325,921.7632
"398",82.85771,921.77637
"399",84.7132,921.78955
"400",86.39048,921.80273
"401",87.69421,921.8159
"402",88.499886,921.8291
"403",88.79286,921.8423
"404",88.619514,921.85547
"405",88.05554,921.86865
"406",87.2108,921.88184
"407",86.19516,921.895
"408",85.101395,921.9082
"409",83.9881,921.9214
"410",82.9041,921.9346
"411",81.883575,921.94775
"412",80.96071,921.96094
"413",80.16968,921.9741
"414",79.551994,921.9873
"415",79.14427,922.0005
"416",78.96605,922.0137
"417",78.99779,922.02686
"418",79.200424,922.04004
"419",79.517815,922.0532
"420",79.87671,922.0664
"421",80.21118,922.0796
"422",80.4773,922.0928
"423",80.62867,922.10596
"424",80.65308,922.11914
"425",80.5481,922.1323
"426",80.33082,922.1455
"427",80.01831,922.1587
"428",79.63744,922.1719
"429",79.21019,922.18506
"430",78.765854,922.19824
"431",78.32639,922.2114
"432",77.91135,922.2246
"433",77.52804,922.2378
"434",77.19112,922.251
"435",76.90303,922.26416
"436",76.65888,922.27734
"437",76.46113,922.2905
"438",76.30732,922.3037
"439",76.192566,922.3169
"440",76.11444,922.3301
"441",76.06073,922.34326
"442",76.02899,922.35645
"443",76.0119,922.3696
"444",76.00946,922.3828
"445",76.02411,922.396
"446",76.06317,922.4092
"447",76.13153,922.42236
"448",76.241394,922.43555
"449",76.42451,922.4487
"450",76.76631,922.4619
"451",77.39132,922.4751
"452",78.397194,922.4883
"453",79.82788,922.50146
"454",81.619896,922.51465
"455",83.60479,922.52783
"456",85.5433,922.541
"457",87.19371,922.5542
"458",88.38026,922.5674
"459",89.01991,922.58057
"460",89.11757,922.59375
"461",88.7538,922.60693
"462",88.03357,922.6201
"463",87.078964,922.6333
"464",86.00473,922.6465
"465",84.89876,922.65967
"466",83.82208,922.67285
"467",82.79912,922.68604
"468",81.85428,922.6992
"469",81.00221,922.7124
"470",80.26734,922.7256
"471",79.676506,922.7388
"472",79.259026,922.75195
"473",79.03197,922.76514
"474",78.99779,922.7783
"475",79.1223,922.7915
"476",79.35912,922.8047
"477",79.65209,922.8179
"478",79.940186,922.83105
"479",80.15747,922.84424
"480",80.272224,922.8574
"481",80.26246,922.8706
"482",80.12573,922.8838
"483",79.88159,922.897
"484",79.54955,922.91016
"485",79.15892,922.92334
"486",78.73411,922.9365
"487",78.29221,922.9497
"488",77.857635,922.9629
"489",77.44503,922.9761
"490",77.069046,922.98926
"491",76.73701,923.00244
"492",76.453804,923.0156
"493",76.22919,923.0288
"494",76.05585,923.042
"495",75.931335,923.0552
"496",75.85077,923.06836
"497",75.79706,923.08154
"498",75.757996,923.0947
"499",75.736015,923.1079
"500",75.72137,923.1211
"501",75.72381,923.1343
"502",75.74578,923.14746
"503",75.792175,923.16064
"504",75.86542,923.1738
"505",75.98016,923.187
"506",76.17792,923.2002
"507",76.55146,923.2134
"508",77.225296,923.22656
"509",78.314186,923.23975
"510",79.85474,923.2529
"511",81.77371,923.2661
"512",83.90021,923.2793
"513",85.97299,923.2925
"514",87.73815,923.30566
"515",89.007706,923.31885
"516",89.70107,923.33203
"517",89.830475,923.3452
"518",89.478905,923.3584
"519",88.76845,923.3716
"520",87.835815,923.38477
"521",86.800644,923.39795
"522",85.753265,923.41113
"523",84.74494,923.4243
"524",83.807434,923.4375
"525",82.93584,923.4507
"526",82.13016,923.46387
"527",81.39529,923.47705
"528",80.75319,923.49023
"529",80.23071,923.5034
"530",79.84985,923.5166
"531",79.63012,923.5298
"532",79.55932,923.54297
"533",79.60815,923.55615
"534",79.73266,923.56934
"535",79.88159,923.5825
"536",80.0061,923.5957
"537",80.0647,923.6089
"538",80.025635,923.6221
"539",79.87915,923.63525
"540",79.62524,923.64844
"541",79.28344,923.6616
"542",78.870834,923.6748
"543",78.41917,923.688
"544",77.94797,923.7012
"545",77.47921,923.71436
"546",77.032425,923.72754
"547",76.61982,923.7407
"548",76.25605,923.7539
"549",75.948425,923.7671
"550",75.70428,923.7803
"551",75.526054,923.79346
"552",75.41375,923.80664
"553",75.35027,923.8198
"554",75.33318,923.833
"555",75.35027,923.8462
"556",75.39422,923.8594
"557",75.46258,923.87256
"558",75.55291,923.88574
"559",75.65789,923.8989
"560",75.772644,923.9121
"561",75.88739,923.9253
"562",75.99481,923.9385
"563",76.102234,923.95166
"564",76.21698,923.96484
"565",76.385445,923.978
"566",76.71259,923.9912
"567",77.33761,924.0044
"568",78.38499,924.0176
"569",79.91089,924.03076
"570",81.85184,924.04395
"571",84.02716,924.0571
"572",86.17563,924.0703
"573",88.0238,924.0835
"574",89.37148,924.0967
"575",90.13321,924.10986
"576",90.31388,924.12305
"577",90.003815,924.1362
"578",89.32754,924.1494
"579",88.43397,924.1626
"580",87.44518,924.1758
"581",86.45884,924.18896
"582",85.523766,924.20215
"583",84.65705,924.21533
"584",83.844055,924.2285
"585",83.06279,924.2417
"586",82.30839,924.2549
"587",81.600365,924.26807
"588",80.96803,924.28125
"589",80.45533,924.29443
"590",80.08911,924.3076
"591",79.87671,924.3208
"592",79.80591,924.334
"593",79.835205,924.34717
"594",79.91577,924.36035
"595",79.991455,924.37354
"596",80.01831,924.3867
"597",79.9646,924.3999
"598",79.81323,924.4131
"599",79.5642,924.4263
"600",79.22484,924.43945
"601",78.819565,924.45264
"602",78.365456,924.4658
"603",77.88937,924.479
"604",77.41573,924.4922
"605",76.96651,924.5054
"606",76.5539,924.51855
"607",76.18768,924.53174
"608",75.87518,924.5449
"609",75.61883,924.5581
"610",75.421074,924.5713
"611",75.284355,924.5845
"612",75.20134,924.59766
"613",75.1696,924.61084
"614",75.191574,924.624
"615",75.25506,924.6372
"616",75.34295,924.6504
"617",75.44793,924.6636
"618",75.55535,924.67676
"619",75.65301,924.68994
"620",75.73113,924.7031
"621",75.78485,924.7163
"622",75.81659,924.7295
"623",75.8288,924.7427
"624",75.82147,924.75586
"625",75.80682,924.76904
"626",75.81659,924.7822
"627",75.90936,924.7954
"628",76.19989,924.8086
"629",76.83223,924.8218
"630",77.92355,924.83496
"631",79.500725,924.84814
"632",81.48562,924.8613
"633",83.67559,924.8745
"634",85.804535,924.8877
"635",87.606316,924.9009
"636",88.90028,924.91406
"637",89.600975,924.92725
"638",89.73037,924.9404
"639",89.38369,924.9536
"640",88.69276,924.9668
"641",87.80652,924.98
"642",86.84703,924.99316
"643",85.90463,925.00635
"644",85.013504,925.01953
"645",84.18585,925.0327
"646",83.39971,925.0459
"647",82.63798,925.0591
"648",81.89578,925.07227
"649",81.19508,925.08545
"650",80.570076,925.09863
"651",80.07202,925.1118
"652",79.727776,925.125
"653",79.54955,925.1382
"654",79.517815,925.15137
"655",79.59594,925.16455
"656",79.72045,925.17773
"657",79.83765,925.1909
"658",79.8938,925.2041
"659",79.85474,925.2173
"660",79.70092,925.23047
"661",79.43725,925.24365
"662",79.08812,925.25684
"663",78.675514,925.27
"664",78.23361,925.2832
"665",77.786835,925.2964
"666",77.347374,925.3096
"667",76.93477,925.32275
"668",76.5539,925.33594
"669",76.209656,925.3491
"670",75.911804,925.3623
"671",75.665215,925.3755
"672",75.474785,925.3887
"673",75.34295,925.40186
"674",75.27215,925.41504
"675",75.26238,925.4282
"676",75.301445,925.4414
"677",75.386894,925.4546
"678",75.50408,925.4678
"679",75.6408,925.48096
"680",75.78485,925.49414
"681",75.92157,925.5073
"682",76.0412,925.5205
"683",76.13397,925.5337
"684",76.192566,925.5469
"685",76.224304,925.56006
"686",76.226746,925.57324
"687",76.2121,925.5864
"688",76.1828,925.5996
"689",76.15106,925.6128
"690",76.12421,925.626
"691",76.15106,925.63916
"692",76.31953,925.65234
"693",76.76387,925.6655
"694",77.61837,925.6787
"695",78.96117,925.6919
"696",80.762955,925.7051
"697",82.86748,925.71826
"698",85.02571,925.73145
"699",86.96666,925.7446
"700",88.45838,925.7578
"701",89.38125,925.771
"702",89.720604,925.7842
"703",89.54238,925.79736
"704",88.9662,925.81055
"705",88.128784,925.8237
"706",87.16441,925.8369
"707",86.168304,925.8501
"708",85.20149,925.8633
"709",84.281075,925.87646
"710",83.41436,925.88965
"711",82.59647,925.90283
"712",81.83963,925.916
"713",81.16579,925.9292
"714",80.618904,925.9424
"715",80.233154,925.95557
"716",80.01831,925.96875
"717",79.9646,925.98193
"718",80.04028,925.9951
"719",80.19165,926.0083
"720",80.365,926.0215
"721",80.50172,926.03467
"722",80.56519,926.04785
"723",80.52369,926.06104
"724",80.37232,926.0742
"725",80.111084,926.0874
"726",79.766846,926.1006
"727",79.364006,926.1138
"728",78.922104,926.12695
"729",78.470436,926.14014
"730",78.030975,926.1533
"731",77.611046,926.1665
"732",77.225296,926.1797
"733",76.876175,926.1929
"734",76.57099,926.20605
"735",76.317085,926.21924
"736",76.121765,926.2324
"737",75.98749,926.2456
"738",75.91669,926.2588
"739",75.90692,926.272
"740",75.95087,926.28516
"741",76.03143,926.29834
"742",76.13397,926.3115
"743",76.25605,926.3247
"744",76.383,926.3379
"745",76.50507,926.3511
"746",76.612495,926.36426
"747",76.697945,926.37744
"748",76.756546,926.3906
"749",76.788284,926.4038
"750",76.79561,926.417
"751",76.790726,926.4302
"752",76.78584,926.44336
"753",76.79561,926.45654
"754",76.86153,926.4697
"755",77.069046,926.4829
"756",77.54269,926.4961
"757",78.39475,926.5093
"758",79.693596,926.52246
"759",81.39529,926.53564
"760",83.34112,926.5488
"761",85.296715,926.562
"762",87.01305,926.5752
"763",88.289925,926.5884
"764",89.022354,926.60156
"765",89.21034,926.61475
"766",88.9247,926.6279
"767",88.28016,926.6411
"768",87.40124,926.6543
"769",86.41001,926.6675
"770",85.39437,926.68066
"771",84.40559,926.69385
"772",83.46319,926.70703
"773",82.5745,926.7202
"774",81.75174,926.7334
"775",81.004654,926.7466
"776",80.36256,926.75977
"777",79.8645,926.77295
"778",79.54467,926.78613
"779",79.41039,926.7993
"780",79.447014,926.8125
"781",79.61059,926.8257
"782",79.83765,926.83887
"783",80.059814,926.85205
"784",80.216064,926.86523
"785",80.272224,926.8784
"786",80.21362,926.8916
"787",80.04028,926.9048
"788",79.76929,926.91797
"789",79.42016,926.93115
"790",79.01976,926.94434
"791",78.58518,926.9575
"792",78.14328,926.9707
"793",77.713585,926.9839
"794",77.31075,926.9971
"795",76.946976,927.01025
"796",76.62226,927.02344
"797",76.34394,927.0366
"798",76.11688,927.0498
"799",75.94354,927.063
"800",75.82391,927.0762
"801",75.757996,927.08936
"802",75.74578,927.10254
"803",75.77753,927.1157
"804",75.841,927.1289
"805",75.92401,927.1421
"806",76.01434,927.1553
"807",76.09735,927.16846
"808",76.16571,927.18164
"809",76.21454,927.1948
"810",76.24628,927.208
"811",76.265816,927.2212
"812",76.28535,927.2344
"813",76.31953,927.24756
"814",76.404976,927.26074
"815",76.61738,927.2739
"816",77.07393,927.2871
"817",77.88937,927.3003
"818",79.14183,927.3135
"819",80.80934,927.32666
"820",82.7625,927.33984
"821",84.76692,927.353
"822",86.571144,927.3662
"823",87.96033,927.3794
"824",88.81239,927.3926
"825",89.10292,927.40576
"826",88.89784,927.41895
"827",88.307014,927.4321
"828",87.45983,927.4453
"829",86.47837,927.4585
"830",85.46273,927.4717
"831",84.471504,927.48486
"832",83.53155,927.49805
"833",82.64774,927.5112
"834",81.82254,927.5244
"835",81.07301,927.5376
"836",80.42359,927.5508
"837",79.906006,927.56396
"838",79.54955,927.57715
"839",79.36889,927.59033
"840",79.34692,927.6035
"841",79.449455,927.6167
"842",79.63256,927.6299
"843",79.84253,927.64307
"844",80.025635,927.65625
"845",80.1355,927.66943
"846",80.14526,927.6826
"847",80.03784,927.6958
"848",79.815674,927.709
"849",79.49828,927.72217
"850",79.10521,927.73535
"851",78.67063,927.74854
"852",78.21408,927.7617
"853",77.75754,927.7749
"854",77.3254,927.7881
"855",76.925,927.8013
"856",76.56611,927.81445
"857",76.25117,927.82764
"858",75.98993,927.8408
"859",75.78241,927.854
"860",75.63592,927.8672
"861",75.55291,927.8804
"862",75.53338,927.89355
"863",75.57,927.90674
"864",75.650566,927.9199
"865",75.755554,927.9331
"866",75.880066,927.9463
"867",76.00458,927.9595
"868",76.121765,927.97266
"869",76.21698,927.98584
"870",76.28779,927.999
"871",76.32685,928.0122
"872",76.3415,928.0254
"873",76.33906,928.0386
"874",76.33173,928.05176
"875",76.33906,928.06494
"876",76.40742,928.0781
"877",76.63203,928.0913
"878",77.154495,928.1045
"879",78.101776,928.1177
"880",79.54711,928.13086
"881",81.444115,928.14404
"882",83.62432,928.1572
"883",85.81674,928.1704
"884",87.75037,928.1836
"885",89.20058,928.1968
"886",90.05997,928.20996
"887",90.321205,928.22314
"888",90.057526,928.2363
"889",89.39834,928.2495
"890",88.49012,928.2627
"891",87.45983,928.2759
"892",86.41001,928.28906
"893",85.40658,928.30225
"894",84.46906,928.3154
"895",83.595024,928.3286
"896",82.77959,928.3418
"897",82.01785,928.355
"898",81.31716,928.36816
"899",80.709236,928.38135
"900",80.22827,928.39453
"901",79.89624,928.4077
"902",79.72045,928.4209
"903",79.68627,928.4341
"904",79.75708,928.44727
"905",79.88159,928.46045
"906",80.01099,928.47363
"907",80.096436,928.4868
"908",80.10376,928.5
"909",80.0061,928.5132
"910",79.798584,928.52637
"911",79.49096,928.53955
"912",79.11009,928.55273
"913",78.677956,928.5659
"914",78.22385,928.5791
"915",77.77219,928.5923
"916",77.33761,928.60547
"917",76.93721,928.61865
"918",76.575874,928.63184
"919",76.26093,928.645
"920",75.99237,928.6582
"921",75.775085,928.6714
"922",75.60174,928.6846
"923",75.47723,928.69775
"924",75.41131,928.71094
"925",75.3991,928.7241
"926",75.440605,928.7373
"927",75.53094,928.7505
"928",75.66277,928.7637
"929",75.82147,928.77686
"930",75.98749,928.79004
"931",76.14618,928.8032
"932",76.280464,928.8164
"933",76.37812,928.8296
"934",76.43427,928.8428
"935",76.44404,928.85596
"936",76.422066,928.86914
"937",76.3708,928.8823
"938",76.30244,928.8955
"939",76.23651,928.9087
"940",76.19745,928.9219
"941",76.25849,928.93506
"942",76.541695,928.94824
"943",77.196,928.9614
"944",78.34104,928.9746
"945",80.01831,928.9878
"946",82.12039,929.001
"947",84.437325,929.01416
"948",86.67368,929.02734
"949",88.551155,929.0405
"950",89.87198,929.0537
"951",90.55558,929.0669
"952",90.633705,929.0801
"953",90.213776,929.09326
"954",89.43496,929.10645
"955",88.45106,929.1196
"956",87.39147,929.1328
"957",86.346535,929.146
"958",85.35775,929.1592
"959",84.44221,929.17236
"960",83.58282,929.18555
"961",82.77226,929.1987
"962",82.01541,929.2119
"963",81.32693,929.2251
"964",80.743416,929.2383
"965",80.29908,929.25146
"966",80.01587,929.26465
"967",79.886475,929.27783
"968",79.89624,929.291
"969",79.99634,929.3042
"970",80.1355,929.3174
"971",80.26002,929.33057
"972",80.325935,929.34375
"973",80.29664,929.35693
"974",80.15747,929.3701
"975",79.91577,929.3833
"976",79.58373,929.3965
"977",79.18089,929.40967
"978",78.73411,929.42285
"979",78.26292,929.43604
"980",77.789276,929.4492
"981",77.33517,929.4624
"982",76.912796,929.4756
"983",76.53193,929.4888
"984",76.209656,929.50195
"985",75.93866,929.51514
"986",75.72625,929.5283
"987",75.56512,929.5415
"988",75.45525,929.5547
"989",75.389336,929.5679
"990",75.37469,929.58105
"991",75.406425,929.59424
"992",75.48455,929.6074
"993",75.60174,929.6206
"994",75.74578,929.6338
"995",75.90448,929.647
"996",76.06561,929.66016
"997",76.20477,929.67334
"998",76.3122,929.6865
"999",76.383,929.6997
"1000",76.40986,929.7129
"1001",76.39521,929.7261
"1002",76.34882,929.73926
"1003",76.28535,929.75244
"1004",76.21698,929.7656
"1005",76.16571,929.7788
"1006",76.175476,929.792
"1007",76.334175,929.8052
"1008",76.77608,929.81836
"1009",77.6379,929.83154
"1010",79.00023,929.8447
"1011",80.84352,929.8579
"1012",83.01396,929.8711
"1013",85.26009,929.8843
"1014",87.291374,929.89746
"1015",88.87099,929.91064
"1016",89.86954,929.9238
"1017",90.25529,929.937
"1018",90.09659,929.9502
"1019",89.50332,929.9634
"1020",88.60731,929.97656
"1021",87.54528,929.98975
"1022",86.42466,930.0029
"1023",85.32357,930.0161
"1024",84.2884,930.0293
"1025",83.33135,930.0425
"1026",82.44755,930.05566
"1027",81.64431,930.06885
"1028",80.93385,930.08203
"1029",80.34547,930.0952
"1030",79.91089,930.1084
"1031",79.65209,930.1216
"1032",79.56664,930.13477
"1033",79.63256,930.14795
"1034",79.798584,930.16113
"1035",80.008545,930.1743
"1036",80.21362,930.1875
"1037",80.36256,930.2007
"1038",80.42359,930.21387
"1039",80.365,930.22705
"1040",80.19409,930.24023
"1041",79.91333,930.2534
"1042",79.54955,930.2666
"1043",79.12718,930.2798
"1044",78.67307,930.29297
"1045",78.21408,930.30615
"1046",77.769745,930.31934
"1047",77.35226,930.3325
"1048",76.97139,930.3457
"1049",76.63447,930.3589
"1050",76.34394,930.3721
"1051",76.104675,930.38525
"1052",75.91913,930.39844
"1053",75.792175,930.4116
"1054",75.72625,930.4248
"1055",75.72137,930.438
"1056",75.76776,930.4512
"1057",75.862976,930.46436
"1058",75.98749,930.47754
"1059",76.12909,930.4907
"1060",76.2707,930.5039
"1061",76.404976,930.5171
"1062",76.51972,930.5303
"1063",76.612495,930.54346
"1064",76.67597,930.55664
"1065",76.715034,930.5698
"1066",76.72968,930.583
"1067",76.72724,930.5962
"1068",76.715034,930.6094
"1069",76.717476,930.62256
"1070",76.78096,930.63574
"1071",76.99092,930.6489
"1072",77.47433,930.6621
"1073",78.35813,930.6753
"1074",79.70336,930.6885
"1075",81.463646,930.70166
"1076",83.49004,930.71484
"1077",85.53353,930.728
"1078",87.33776,930.7412
"1079",88.690315,930.7544
"1080",89.48623,930.7676
"1081",89.71328,930.78076
"1082",89.43008,930.79395
"1083",88.74891,930.8071
"1084",87.801636,930.8203
"1085",86.70786,930.8335
"1086",85.56039,930.8467
"1087",84.422676,930.85986
"1088",83.33135,930.87305
"1089",82.31327,930.8862
"1090",81.39529,930.8994
"1091",80.604256,930.9126
"1092",79.97925,930.9258
"1093",79.54711,930.93896
"1094",79.32494,930.95215
"1095",79.30297,930.96533
"1096",79.447014,930.9785
"1097",79.7058,930.9917
"1098",80.02075,931.0049
"1099",80.32838,931.01807
"1100",80.58228,931.03125
"1101",80.740974,931.04443
"1102",80.77516,931.0576
"1103",80.69215,931.0708
"1104",80.499275,931.084
"1105",80.21362,931.09717
"1106",79.85718,931.11035
"1107",79.45922,931.12354
"1108",79.03685,931.1367
"1109",78.607155,931.1499
"1110",78.19211,931.1631
"1111",77.80148,931.1763
"1112",77.452354,931.18945
"1113",77.15694,931.20264
"1114",76.91768,931.2158
"1115",76.73945,931.229
"1116",76.61494,931.2422
"1117",76.53437,931.2554
"1118",76.49287,931.26855
"1119",76.49287,931.28174
"1120",76.52216,931.2949
"1121",76.57099,931.3081
"1122",76.627144,931.3213
"1123",76.68574,931.3345
"1124",76.72968,931.34766
"1125",76.76631,931.36084
"1126",76.80049,931.374
"1127",76.83711,931.3872
"1128",76.88838,931.4004
"1129",76.96651,931.4136
"1130",77.11055,931.42676
"1131",77.41573,931.43994
"1132",78.00412,931.4531
"1133",78.9807,931.4663
"1134",80.37476,931.4795
"1135",82.125275,931.4927
"1136",84.0589,931.50586
"1137",85.93393,931.51904
"1138",87.50866,931.5322
"1139",88.61219,931.5454
"1140",89.163956,931.5586
"1141",89.17616,931.5718
"1142",88.72694,931.58496
"1143",87.923706,931.59814
"1144",86.89586,931.6113
"1145",85.753265,931.6245
"1146",84.578926,931.6377
"1147",83.43145,931.6509
"1148",82.34501,931.66406
"1149",81.341576,931.67725
"1150",80.448006,931.6904
"1151",79.70336,931.7036
"1152",79.14671,931.7168
"1153",78.80736,931.73
"1154",78.69016,931.74316
"1155",78.77806,931.75635
"1156",79.0222,931.76953
"1157",79.361565,931.7827
"1158",79.73266,931.7959
"1159",80.076904,931.8091
"1160",80.34058,931.82227
"1161",80.49195,931.83545
"1162",80.5066,931.84863
"1163",80.394295,931.8618
"1164",80.16724,931.875
"1165",79.84985,931.8882
"1166",79.466545,931.90137
"1167",79.04906,931.91455
"1168",78.626686,931.92773
"1169",78.21652,931.9409
"1170",77.838104,931.9541
"1171",77.49874,931.9673
"1172",77.20088,931.98047
"1173",76.946976,931.99365
"1174",76.74189,932.00684
"1175",76.578316,932.02
"1176",76.46113,932.0332
"1177",76.383,932.0464
"1178",76.3415,932.0596
"1179",76.32197,932.07275
"1180",76.32929,932.08594
"1181",76.34638,932.0991
"1182",76.37324,932.1123
"1183",76.404976,932.1255
"1184",76.4416,932.1387
"1185",76.490425,932.15186
"1186",76.56611,932.16504
"1187",76.69062,932.1782
"1188",76.92256,932.1914
"1189",77.36935,932.2046
"1190",78.14328,932.2178
"1191",79.327385,932.23096
"1192",80.93385,932.24414
"1193",82.85771,932.2573
"1194",84.893875,932.2705
"1195",86.79088,932.2837
"1196",88.31678,932.2969
"1197",89.32754,932.31006
"1198",89.76944,932.32324
"1199",89.669334,932.3364
"1200",89.12489,932.3496
"1201",88.26307,932.3628
"1202",87.20836,932.376
"1203",86.063324,932.38916
"1204",84.91585,932.40234
"1205",83.809875,932.4155
"1206",82.76738,932.4287
"1207",81.80301,932.4419
"1208",80.938736,932.4551
"1209",80.19653,932.46826
"1210",79.60815,932.48145
"1211",79.200424,932.4946
"1212",78.98802,932.5078
"1213",78.96361,932.521
"1214",79.10033,932.5342
"1215",79.35424,932.54736
"1216",79.65453,932.56055
"1217",79.94751,932.5737
"1218",80.16968,932.5869
"1219",80.289314,932.6001
"1220",80.28199,932.6133
"1221",80.15015,932.62646
"1222",79.89868,932.63965
"1223",79.551994,932.65283
"1224",79.13939,932.666
"1225",78.68528,932.6792
"1226",78.21164,932.6924
"1227",77.738,932.70557
"1228",77.28634,932.71875
"1229",76.86153,932.73193
"1230",76.48066,932.7451
"1231",76.15839,932.7583
"1232",75.894714,932.7715
"1233",75.68963,932.78467
"1234",75.54803,932.79785
"1235",75.46746,932.81104
"1236",75.440605,932.8242
"1237",75.46014,932.8374
"1238",75.51629,932.8506
"1239",75.5993,932.8638
"1240",75.699394,932.87695
"1241",75.80438,932.89014
"1242",75.914246,932.9033
"1243",76.03143,932.9165
"1244",76.14862,932.9297
"1245",76.28779,932.9429
"1246",76.490425,932.95605
"1247",76.85664,932.96924
"1248",77.52071,932.9824
"1249",78.60227,932.9956
"1250",80.14038,933.0088
"1251",82.05936,933.022
"1252",84.18097,933.03516
"1253",86.22934,933.04834
"1254",87.94812,933.0615
"1255",89.14198,933.0747
"1256",89.740135,933.0879
"1257",89.75723,933.1011
"1258",89.288475,933.11426
"1259",88.46082,933.12744
"1260",87.415886,933.1406
"1261",86.275734,933.1538
"1262",85.138016,933.167
"1263",84.0589,933.1802
"1264",83.06279,933.19336
"1265",82.15701,933.20654
"1266",81.33669,933.2197
"1267",80.61158,933.2329
"1268",80.00122,933.2461
"1269",79.53979,933.2593
"1270",79.2517,933.27246
"1271",79.14671,933.28564
"1272",79.20531,933.2988
"1273",79.38842,933.312
"1274",79.639885,933.3252
"1275",79.8938,933.3384
"1276",80.10132,933.35156
"1277",80.216064,933.36475
"1278",80.22095,933.3779
"1279",80.10132,933.3911
"1280",79.8645,933.4043
"1281",79.53002,933.4175
"1282",79.114975,933.43066
"1283",78.6511,933.44385
"1284",78.16281,933.45703
"1285",77.67208,933.4702
"1286",77.20088,933.4834
"1287",76.76631,933.4966
"1288",76.37812,933.50977
"1289",76.050964,933.52295
"1290",75.789734,933.53613
"1291",75.60174,933.5493
"1292",75.47967,933.5625
"1293",75.41619,933.5757
"1294",75.403984,933.58887
"1295",75.43572,933.60205
"1296",75.50164,933.61523
"1297",75.59197,933.6284
"1298",75.69451,933.6416
"1299",75.80194,933.6548
"1300",75.90692,933.66797
"1301",75.99481,933.68115
"1302",76.07294,933.69434
"1303",76.138855,933.7075
"1304",76.20477,933.7207
"1305",76.29511,933.7339
"1306",76.47822,933.7471
"1307",76.87373,933.76025
"1308",77.62325,933.77344
"1309",78.82689,933.7866
"1310",80.49439,933.7998
"1311",82.511024,933.813
"1312",84.65949,933.8262
"1313",86.659035,933.83936
"1314",88.25819,933.85254
"1315",89.305565,933.8657
"1316",89.75479,933.8789
"1317",89.654686,933.8921
"1318",89.1078,933.9053
"1319",88.25086,933.91846
"1320",87.21324,933.93164
"1321",86.10971,933.9448
"1322",85.013504,933.958
"1323",83.97589,933.9712
"1324",83.00908,933.9844
"1325",82.11551,933.99756
"1326",81.29519,934.01074
"1327",80.56031,934.0239
"1328",79.94263,934.0371
"1329",79.47143,934.0503
"1330",79.17357,934.0635
"1331",79.04906,934.07666
"1332",79.080795,934.08984
"1333",79.2224,934.103
"1334",79.42504,934.1162
"1335",79.63012,934.1294
"1336",79.79126,934.1426
"1337",79.86694,934.15576
"1338",79.83276,934.16895
"1339",79.68383,934.1821
"1340",79.42504,934.1953
"1341",79.07591,934.2085
"1342",78.660866,934.2217
"1343",78.2092,934.23486
"1344",77.75021,934.24805
"1345",77.296104,934.2612
"1346",76.86397,934.2744
"1347",76.470894,934.2876
"1348",76.121765,934.3008
"1349",75.81903,934.31396
"1350",75.577324,934.32715
"1351",75.39666,934.34033
"1352",75.284355,934.3535
"1353",75.23552,934.3667
"1354",75.23796,934.3799
"1355",75.284355,934.39307
"1356",75.36004,934.40625
"1357",75.45281,934.41943
"1358",75.560234,934.4326
"1359",75.665215,934.4458
"1360",75.76532,934.459
"1361",75.85077,934.47217
"1362",75.91913,934.48535
"1363",75.96307,934.49854
"1364",75.98749,934.5117
"1365",75.999695,934.5249
"1366",76.03143,934.5381
"1367",76.1413,934.5513
"1368",76.456245,934.56445
"1369",77.11543,934.57764
"1370",78.24094,934.5908
"1371",79.852295,934.604
"1372",81.85184,934.6172
"1373",84.034485,934.6304
"1374",86.11948,934.64355
"1375",87.84802,934.65674
"1376",89.041885,934.6699
"1377",89.637596,934.6831
"1378",89.65957,934.6963
"1379",89.2079,934.7095
"1380",88.40711,934.72266
"1381",87.396355,934.73584
"1382",86.30015,934.749
"1383",85.21126,934.7622
"1384",84.173645,934.7754
"1385",83.211716,934.7886
"1386",82.320595,934.80176
"1387",81.50027,934.81494
"1388",80.765396,934.8281
"1389",80.1355,934.8413
"1390",79.63744,934.8545
"1391",79.30053,934.8677
"1392",79.132065,934.88086
"1393",79.114975,934.89404
"1394",79.21507,934.9072
"1395",79.38598,934.9204
"1396",79.57641,934.9336
"1397",79.73266,934.9468
"1398",79.81079,934.95996
"1399",79.78882,934.97314
"1400",79.6643,934.9863
"1401",79.432365,934.9995
"1402",79.114975,935.0127
"1403",78.729225,935.0259
"1404",78.30442,935.03906
"1405",77.86252,935.05225
"1406",77.4255,935.0654
"1407",77.01045,935.0786
"1408",76.627144,935.0918
"1409",76.282906,935.105
"1410",75.97772,935.11816
"1411",75.72625,935.13135
"1412",75.53094,935.14453
"1413",75.3991,935.1577
"1414",75.32342,935.1709
"1415",75.30633,935.1841
"1416",75.338066,935.19727
"1417",75.406425,935.21045
"1418",75.50408,935.22363
"1419",75.61883,935.2368
"1420",75.74578,935.25
"1421",75.87274,935.2632
"1422",75.98749,935.27637
"1423",76.07538,935.28955
"1424",76.13641,935.30273
"1425",76.173035,935.3159
"1426",76.18524,935.3291
"1427",76.18524,935.3423
"1428",76.20477,935.35547
"1429",76.3122,935.36865
"1430",76.61494,935.38184
"1431",77.261925,935.395
"1432",78.37034,935.4082
"1433",79.96704,935.4214
"1434",81.969025,935.4346
"1435",84.16876,935.44775
"1436",86.28794,935.46094
"1437",88.06287,935.4741
"1438",89.31045,935.4873
"1439",89.95743,935.5005
"1440",90.03311,935.5137
"1441",89.62783,935.52686
"1442",88.868546,935.54004
"1443",87.89929,935.5532
"1444",86.83971,935.5664
"1445",85.77768,935.5796
"1446",84.76936,935.5928
"1447",83.82941,935.60596
"1448",82.95293,935.61914
"1449",82.1326,935.6323
"1450",81.38064,935.6455
"1451",80.709236,935.6587
"1452",80.15747,935.6719
"1453",79.75708,935.68506
"1454",79.52758,935.69824
"1455",79.4641,935.7114
"1456",79.53979,935.7246
"1457",79.708244,935.7378
"1458",79.91333,935.751
"1459",80.09155,935.76416
"1460",80.19409,935.77734
"1461",80.18677,935.7905
"1462",80.0647,935.8037
"1463",79.83032,935.8169
"1464",79.50317,935.8301
"1465",79.11009,935.84326
"1466",78.67307,935.85645
"1467",78.21652,935.8696
"1468",77.75998,935.8828
"1469",77.32052,935.896
"1470",76.91768,935.9092
"1471",76.5539,935.92236
"1472",76.241394,935.93555
"1473",75.982605,935.9487
"1474",75.78485,935.9619
"1475",75.64324,935.9751
"1476",75.56756,935.9883
"1477",75.54803,936.00146
"1478",75.58465,936.01465
"1479",75.66277,936.02783
"1480",75.76776,936.041
"1481",75.88495,936.0542
"1482",76.00702,936.0674
"1483",76.121765,936.08057
"1484",76.224304,936.09375
"1485",76.30976,936.10693
"1486",76.37324,936.1201
"1487",76.40986,936.1333
"1488",76.422066,936.1465
"1489",76.42695,936.15967
"1490",76.436714,936.17285
"1491",76.507515,936.18604
"1492",76.73945,936.1992
"1493",77.26681,936.2124
"1494",78.21652,936.2256
"1495",79.65209,936.2388
"1496",81.53445,936.25195
"1497",83.69756,936.26514
"1498",85.88754,936.2783
"1499",87.82605,936.2915
"1500",89.30068,936.3047
"1501",90.18936,936.3179
"1502",90.47501,936.33105
"1503",90.22598,936.34424
"1504",89.56191,936.3574
"1505",88.6244,936.3706
"1506",87.552605,936.3838
"1507",86.451515,936.397
"1508",85.39193,936.41016
"1509",84.4007,936.42334
"1510",83.48028,936.4365
"1511",82.63065,936.4497
"1512",81.849396,936.4629
"1513",81.15358,936.4761
"1514",80.57496,936.48926
"1515",80.13794,936.50244
"1516",79.869385,936.5156
"1517",79.766846,936.5288
"1518",79.801025,936.542
"1519",79.9353,936.5552
"1520",80.11597,936.56836
"1521",80.28443,936.58154
"1522",80.39185,936.5947
"1523",80.40162,936.6079
"1524",80.2942,936.6211
"1525",80.06714,936.6343
"1526",79.744865,936.64746
"1527",79.34692,936.66064
"1528",78.9099,936.6738
"1529",78.45579,936.687
"1530",78.00168,936.7002
"1531",77.55978,936.7134
"1532",77.152054,936.72656
"1533",76.7834,936.73975
"1534",76.46601,936.7529
"1535",76.21454,936.7661
"1536",76.02411,936.7793
"1537",75.894714,936.7925
"1538",75.81659,936.80566
"1539",75.792175,936.81885
"1540",75.809265,936.83203
"1541",75.85077,936.8452
"1542",75.91669,936.8584
"1543",75.98993,936.8716
"1544",76.068054,936.88477
"1545",76.1413,936.89795
"1546",76.207214,936.91113
"1547",76.26093,936.9243
"1548",76.30732,936.9375
"1549",76.3415,936.9507
"1550",76.37568,936.96387
"1551",76.43183,936.97705
"1552",76.5539,936.99023
"1553",76.841995,937.0034
"1554",77.42306,937.0166
"1555",78.40696,937.0298
"1556",79.84009,937.04297
"1557",81.66384,937.05615
"1558",83.71221,937.06934
"1559",85.731285,937.0825
"1560",87.467155,937.0957
"1561",88.7367,937.1089
"1562",89.43984,937.1221
"1563",89.57656,937.13525
"1564",89.22743,937.14844
"1565",88.516975,937.1616
"1566",87.572136,937.1748
"1567",86.519875,937.188
"1568",85.45052,937.2012
"1569",84.41047,937.21436
"1570",83.424126,937.22754
"1571",82.50126,937.2407
"1572",81.65652,937.2539
"1573",80.90944,937.2671
"1574",80.28687,937.2803
"1575",79.823,937.29346
"1576",79.537346,937.30664
"1577",79.42016,937.3198
"1578",79.45922,937.333
"1579",79.61059,937.3462
"1580",79.82056,937.3594
"1581",80.03784,937.37256
"1582",80.20874,937.38574
"1583",80.291756,937.3989
"1584",80.2649,937.4121
"1585",80.12573,937.4253
"1586",79.87427,937.4385
"1587",79.53246,937.45166
"1588",79.1223,937.46484
"1589",78.66819,937.478
"1590",78.20187,937.4912
"1591",77.747765,937.5044
"1592",77.330284,937.5176
"1593",76.9543,937.53076
"1594",76.63935,937.54395
"1595",76.38056,937.5571
"1596",76.17792,937.5703
"1597",76.02899,937.5835
"1598",75.931335,937.5967
"1599",75.87274,937.60986
"1600",75.84833,937.62305
"1601",75.85321,937.6362
"1602",75.880066,937.6494
"1603",75.92401,937.6626
"1604",75.97772,937.6758
"1605",76.0412,937.68896
"1606",76.102234,937.70215
"1607",76.16327,937.71533
"1608",76.224304,937.7285
"1609",76.28779,937.7417
"1610",76.35615,937.7549
"1611",76.46845,937.76807
"1612",76.69062,937.78125
"1613",77.134964,937.79443
"1614",77.92355,937.8076
"1615",79.132065,937.8208
"1616",80.740974,937.834
"1617",82.62577,937.84717
"1618",84.578926,937.86035
"1619",86.35142,937.87354
"1620",87.74059,937.8867
"1621",88.61463,937.8999
"1622",88.94423,937.9131
"1623",88.77821,937.9263
"1624",88.20691,937.93945
"1625",87.34264,937.95264
"1626",86.30991,937.9658
"1627",85.206375,937.979
"1628",84.09552,937.9922
"1629",83.02617,938.0054
"1630",82.020294,938.01855
"1631",81.109634,938.03174
"1632",80.323494,938.0449
"1633",79.68871,938.0581
"1634",79.23949,938.0713
"1635",78.995346,938.0845
"1636",78.9514,938.09766
"1637",79.078354,938.11084
"1638",79.33227,938.124
"1639",79.65209,938.1372
"1640",79.97681,938.1504
"1641",80.24536,938.1636
"1642",80.41871,938.17676
"1643",80.46754,938.18994
"1644",80.38453,938.2031
"1645",80.181885,938.2163
"1646",79.88159,938.2295
"1647",79.51049,938.2427
"1648",79.09056,938.25586
"1649",78.65354,938.26904
"1650",78.22385,938.2822
"1651",77.81613,938.2954
"1652",77.44747,938.3086
"1653",77.13008,938.3218
"1654",76.86397,938.33496
"1655",76.65156,938.34814
"1656",76.48798,938.3613
"1657",76.36591,938.3745
"1658",76.280464,938.3877
"1659",76.23407,938.4009
"1660",76.2121,938.41406
"1661",76.21698,938.42725
"1662",76.241394,938.4404
"1663",76.28535,938.4536
"1664",76.3415,938.4668
"1665",76.40742,938.48
"1666",76.4831,938.49316
"1667",76.56611,938.50635
"1668",76.65888,938.51953
"1669",76.77852,938.5327
"1670",76.97139,938.5459
"1671",77.32784,938.5591
"1672",77.962616,938.57227
"1673",78.96605,938.58545
"1674",80.35767,938.59863
"1675",82.054474,938.6118
"1676",83.895325,938.625
"1677",85.643394,938.6382
"1678",87.07652,938.65137
"1679",88.04089,938.66455
"1680",88.480354,938.67773
"1681",88.41444,938.6909
"1682",87.91882,938.7041
"1683",87.113144,938.7173
"1684",86.10727,938.73047
"1685",84.99153,938.74365
"1686",83.83917,938.75684
"1687",82.703896,938.77
"1688",81.62722,938.7832
"1689",80.65064,938.7964
"1690",79.823,938.8096
"1691",79.185776,938.82275
"1692",78.77074,938.83594
"1693",78.59251,938.8491
"1694",78.63401,938.8623
"1695",78.853745,938.8755
"1696",79.1931,938.8887
"1697",79.58373,938.90186
"1698",79.96704,938.91504
"1699",80.28199,938.9282
"1700",80.49439,938.9414
"1701",80.5774,938.9546
"1702",80.533455,938.9678
"1703",80.365,938.98096
"1704",80.093994,938.99414
"1705",79.74975,939.0073
"1706",79.361565,939.0205
"1707",78.95384,939.0337
"1708",78.553444,939.0469
"1709",78.167694,939.06006
"1710",77.81369,939.07324
"1711",77.49386,939.0864
"1712",77.21309,939.0996
"1713",76.97139,939.1128
"1714",76.76631,939.126
"1715",76.59785,939.13916
"1716",76.456245,939.15234
"1717",76.34638,939.1655
"1718",76.25849,939.1787
"1719",76.19989,939.1919
"1720",76.173035,939.2051
"1721",76.17792,939.21826
"1722",76.21454,939.23145
"1723",76.280464,939.2446
"1724",76.39033,939.2578
"1725",76.56855,939.271
"1726",76.88838,939.2842
"1727",77.452354,939.29736
"1728",78.365456,939.31055
"1729",79.68139,939.3237
"1730",81.35134,939.3369
"1731",83.23125,939.3501
"1732",85.09895,939.3633
"1733",86.71519,939.37646
"1734",87.89929,939.38965
"1735",88.55604,939.40283
"1736",88.68055,939.416
"1737",88.33387,939.4292
"1738",87.620964,939.4424
"1739",86.661476,939.45557
"1740",85.56039,939.46875
"1741",84.40559,939.48193
"1742",83.25567,939.4951
"1743",82.14969,939.5083
"1744",81.126724,939.5215
"1745",80.22339,939.53467
"1746",79.48119,939.54785
"1747",78.941635,939.56104
"1748",78.62913,939.5742
"1749",78.54856,939.5874
"1750",78.66575,939.6006
"1751",78.93431,939.6138
"1752",79.290764,939.62695
"1753",79.66674,939.64014
"1754",80.0061,939.6533
"1755",80.26246,939.6665
"1756",80.40162,939.6797
"1757",80.413826,939.6929
"1758",80.30152,939.70605
"1759",80.08179,939.71924
"1760",79.77905,939.7324
"1761",79.41772,939.7456
"1762",79.02464,939.7588
"1763",78.626686,939.772
"1764",78.23361,939.78516
"1765",77.86252,939.79834
"1766",77.5256,939.8115
"1767",77.22774,939.8247
"1768",76.96895,939.8379
"1769",76.749214,939.8511
"1770",76.56611,939.86426
"1771",76.40986,939.87744
"1772",76.282906,939.8906
"1773",76.17792,939.9038
"1774",76.09491,939.917
"1775",76.036316,939.9302
"1776",76.00946,939.94336
"1777",76.016785,939.95654
"1778",76.070496,939.9697
"1779",76.19989,939.9829
"1780",76.470894,939.9961
"1781",76.981155,940.0093
"1782",77.85031,940.02246
"1783",79.14671,940.03564
"1784",80.85329,940.0488
"1785",82.83574,940.062
"1786",84.87923,940.0752
"1787",86.72251,940.0884
"1788",88.15076,940.10156
"1789",89.03456,940.11475
"1790",89.34463,940.1279
"1791",89.1371,940.1411
"1792",88.50965,940.1543
"1793",87.59411,940.1675
"1794",86.51743,940.18066
"1795",85.382164,940.19385
"1796",84.26154,940.20703
"1797",83.19707,940.2202
"1798",82.2034,940.2334
"1799",81.29763,940.2466
"1800",80.49439,940.25977
"1801",79.82788,940.27295
"1802",79.3225,940.28613
"1803",79.00511,940.2993
"1804",78.87816,940.3125
"1805",78.93187,940.3257
"1806",79.11742,940.33887
"1807",79.38842,940.35205
"1808",79.67895,940.36523
"1809",79.93042,940.3784
"1810",80.093994,940.3916
"1811",80.14038,940.4048
"1812",80.06714,940.41797
"1813",79.87671,940.43115
"1814",79.586174,940.44434
"1815",79.22484,940.4575
"1816",78.81224,940.4707
"1817",78.38499,940.4839
"1818",77.960175,940.4971
"1819",77.56222,940.51025
"1820",77.205765,940.52344
"1821",76.88838,940.5366
"1822",76.61494,940.5498
"1823",76.387886,940.563
"1824",76.20233,940.5762
"1825",76.05585,940.58936
"1826",75.945984,940.60254
"1827",75.8703,940.6157
"1828",75.81903,940.6289
"1829",75.78729,940.6421
"1830",75.775085,940.6553
"1831",75.78729,940.66846
"1832",75.8288,940.68164
"1833",75.911804,940.6948
"1834",76.07782,940.708
"1835",76.402534,940.7212
"1836",77.00069,940.7344
"1837",77.98459,940.74756
"1838",79.40551,940.76074
"1839",81.2195,940.7739
"1840",83.265434,940.7871
"1841",85.30892,940.8003
"1842",87.08629,940.8135
"1843",88.40223,940.82666
"1844",89.14931,940.83984
"1845",89.32998,940.853
"1846",89.01747,940.8662
"1847",88.33387,940.8794
"1848",87.415886,940.8926
"1849",86.383156,940.90576
"1850",85.330894,940.91895
"1851",84.32014,940.9321
"1852",83.36553,940.9453
"1853",82.476845,940.9585
"1854",81.651634,940.9717
"1855",80.89479,940.98486
"1856",80.23804,940.99805
"1857",79.710686,941.0112
"1858",79.34692,941.0244
"1859",79.1638,941.0376
"1860",79.15404,941.0508
"1861",79.27856,941.06396
"1862",79.48608,941.07715
"1863",79.71801,941.09033
"1864",79.91577,941.1035
"1865",80.03296,941.1167
"1866",80.04028,941.1299
"1867",79.92554,941.14307
"1868",79.69604,941.15625
"1869",79.37133,941.16943
"1870",78.97826,941.1826
"1871",78.54856,941.1958
"1872",78.1091,941.209
"1873",77.67696,941.22217
"1874",77.27169,941.23535
"1875",76.90303,941.24854
"1876",76.5832,941.2617
"1877",76.32197,941.2749
"1878",76.121765,941.2881
"1879",75.97528,941.3013
"1880",75.87518,941.31445
"1881",75.81659,941.32764
"1882",75.78729,941.3408
"1883",75.78241,941.354
"1884",75.79706,941.3672
"1885",75.826355,941.3804
"1886",75.86542,941.39355
"1887",75.90692,941.40674
"1888",75.95819,941.4199
"1889",76.019226,941.4331
"1890",76.10712,941.4463
"1891",76.25605,941.4595
"1892",76.558784,941.47266
"1893",77.134964,941.48584
"1894",78.1091,941.499
"1895",79.53002,941.5122
"1896",81.35378,941.5254
"1897",83.41436,941.5386
"1898",85.46029,941.55176
"1899",87.22301,941.56494
"1900",88.50477,941.5781
"1901",89.20302,941.5913
"1902",89.32754,941.6045
"1903",88.9662,941.6177
"1904",88.25086,941.63086
"1905",87.32067,941.64404
"1906",86.30991,941.6572
"1907",85.30404,941.6704
"1908",84.35676,941.6836
"1909",83.47295,941.6968
"1910",82.64774,941.70996
"1911",81.864044,941.72314
"1912",81.13161,941.7363
"1913",80.46754,941.7495
"1914",79.90845,941.7627
"1915",79.48852,941.7759
"1916",79.234604,941.78906
"1917",79.14183,941.80225
"1918",79.18822,941.8154
"1919",79.327385,941.8286
"1920",79.51049,941.8418
"1921",79.66918,941.855
"1922",79.75952,941.86816
"1923",79.742424,941.88135
"1924",79.60815,941.89453
"1925",79.361565,941.9077
"1926",79.0222,941.9209
"1927",78.624245,941.9341
"1928",78.187225,941.94727
"1929",77.74044,941.96045
"1930",77.30587,941.97363
"1931",76.90303,941.9868
"1932",76.53681,942
"1933",76.224304,942.0132
"1934",75.96796,942.02637
"1935",75.7702,942.03955
"1936",75.62371,942.05273
"1937",75.52361,942.0659
"1938",75.4699,942.0791
"1939",75.45525,942.0923
"1940",75.47234,942.10547
"1941",75.51385,942.11865
"1942",75.57244,942.13184
"1943",75.631035,942.145
"1944",75.684746,942.1582
"1945",75.73113,942.1714
"1946",75.772644,942.1846
"1947",75.81171,942.19775
"1948",75.860535,942.21094
"1949",75.95087,942.2241
"1950",76.155945,942.2373
"1951",76.59052,942.2505
"1952",77.38644,942.2637
"1953",78.626686,942.27686
"1954",80.29908,942.29004
"1955",82.266884,942.3032
"1956",84.31037,942.3164
"1957",86.16586,942.3296
"1958",87.606316,942.3428
"1959",88.50721,942.35596
"1960",88.849014,942.36914
"1961",88.687874,942.3823
"1962",88.13367,942.3955
"1963",87.32311,942.4087
"1964",86.383156,942.4219
"1965",85.418785,942.43506
"1966",84.491035,942.44824
"1967",83.614555,942.4614
"1968",82.78203,942.4746
"1969",81.991,942.4878
"1970",81.23659,942.501
"1971",80.54078,942.51416
"1972",79.94263,942.52734
"1973",79.48119,942.5405
"1974",79.18089,942.5537
"1975",79.03929,942.5669
"1976",79.044174,942.5801
"1977",79.151596,942.59326
"1978",79.31274,942.60645
"1979",79.46899,942.6196
"1980",79.57641,942.6328
"1981",79.59838,942.646
"1982",79.51293,942.6592
"1983",79.31762,942.67236
"1984",79.02464,942.68555
"1985",78.65354,942.6987
"1986",78.23605,942.7119
"1987",77.79904,942.7251
"1988",77.35958,942.7383
"1989",76.93965,942.75146
"1990",76.55146,942.76465
"1991",76.20233,942.77783
"1992",75.90204,942.791
"1993",75.65545,942.8042
"1994",75.4699,942.8174
"1995",75.34295,942.83057
"1996",75.27459,942.84375
"1997",75.25506,942.85693
"1998",75.28191,942.8701
"1999",75.34539,942.8833
"2000",75.43816,942.8965
"2001",75.545586,942.90967
"2002",75.65789,942.92285
"2003",75.76288,942.93604
"2004",75.843445,942.9492
"2005",75.8996,942.9624
"2006",75.931335,942.9756
"2007",75.93866,942.9888
"2008",75.93378,943.00195
"2009",75.93378,943.01514
"2010",75.95331,943.0283
"2011",76.04608,943.0415
"2012",76.314644,943.0547
"2013",76.90059,943.0679
"2014",77.92355,943.08105
"2015",79.42748,943.09424
"2016",81.33669,943.1074
"2017",83.46319,943.1206
"2018",85.538414,943.1338
"2019",87.29626,943.147
"2020",88.551155,943.16016
"2021",89.22987,943.17334
"2022",89.35195,943.1865
"2023",89.007706,943.1997
"2024",88.326546,943.2129
"2025",87.44518,943.2261
"2026",86.48814,943.23926
"2027",85.538414,943.25244
"2028",84.63996,943.2656
"2029",83.79767,943.2788
"2030",83.004196,943.292
"2031",82.247345,943.3052
"2032",81.53445,943.31836
"2033",80.88258,943.33154
"2034",80.33326,943.3447
"2035",79.91577,943.3579
"2036",79.656975,943.3711
"2037",79.551994,943.3843
"2038",79.58129,943.39746
"2039",79.69848,943.41064
"2040",79.84985,943.4238
"2041",79.97681,943.437
"2042",80.03052,943.4502
"2043",79.98169,943.4634
"2044",79.823,943.47656
"2045",79.5642,943.48975
"2046",79.22972,943.5029
"2047",78.836655,943.5161
"2048",78.41184,943.5293
"2049",77.97238,943.5425
"2050",77.54513,943.55566
"2051",77.13985,943.56885
"2052",76.773636,943.58203
"2053",76.45136,943.5952
"2054",76.18036,943.6084
"2055",75.95575,943.6216
"2056",75.77997,943.63477
"2057",75.65301,943.64795
"2058",75.577324,943.66113
"2059",75.55291,943.6743
"2060",75.577324,943.6875
"2061",75.64568,943.7007
"2062",75.74822,943.71387
"2063",75.877625,943.72705
"2064",76.02411,943.74023
"2065",76.173035,943.7534
"2066",76.3122,943.7666
"2067",76.43183,943.7798
"2068",76.524605,943.79297
"2069",76.58076,943.80615
"2070",76.60029,943.81934
"2071",76.5832,943.8325
"2072",76.53681,943.8457
"2073",76.46845,943.8589
"2074",76.39521,943.8721
"2075",76.34638,943.88525
"2076",76.387886,943.89844
"2077",76.629585,943.9116
"2078",77.21309,943.9248
"2079",78.26536,943.938
"2080",79.82056,943.9512
"2081",81.80301,943.96436
"2082",84.01251,943.97754
"2083",86.17563,943.9907
"2084",88.02136,944.0039
"2085",89.356834,944.0171
"2086",90.10147,944.0303
"2087",90.27482,944.04346
"2088",89.96475,944.05664
"2089",89.30068,944.0698
"2090",88.42176,944.083
"2091",87.450066,944.0962
"2092",86.47837,944.1094
"2093",85.54818,944.12256
"2094",84.67414,944.13574
"2095",83.83917,944.1489
"2096",83.03349,944.1621
"2097",82.25956,944.1753
"2098",81.54421,944.1885
"2099",80.92409,944.20166
"2100",80.44068,944.21484
"2101",80.12085,944.228
"2102",79.95972,944.2412
"2103",79.9353,944.2544
"2104",80.00366,944.2676
"2105",80.10864,944.28076
"2106",80.198975,944.29395
"2107",80.23804,944.3071
"2108",80.201416,944.3203
"2109",80.08423,944.3335
"2110",79.8938,944.3467
"2111",79.62524,944.35986
"2112",79.290764,944.37305
"2113",78.90257,944.3862
"2114",78.4802,944.3994
"2115",78.048065,944.4126
"2116",77.628136,944.4258
"2117",77.242386,944.43896
"2118",76.90059,944.45215
"2119",76.60517,944.46533
"2120",76.35615,944.4785
"2121",76.155945,944.4917
"2122",75.999695,944.5049
"2123",75.88739,944.51807
"2124",75.82147,944.53125
"2125",75.79706,944.54443
"2126",75.81415,944.5576
"2127",75.87274,944.5708
"2128",75.965515,944.584
"2129",76.0827,944.59717
"2130",76.21454,944.61035
"2131",76.34394,944.62354
"2132",76.45869,944.6367
"2133",76.544136,944.6499
"2134",76.592964,944.6631
"2135",76.60273,944.6763
"2136",76.57343,944.68945
"2137",76.51484,944.70264
"2138",76.43427,944.7158
"2139",76.3415,944.729
"2140",76.25849,944.7422
"2141",76.21454,944.7554
"2142",76.27558,944.76855
"2143",76.54902,944.78174
"2144",77.16914,944.7949
"2145",78.24582,944.8081
"2146",79.798584,944.8213
"2147",81.739525,944.8345
"2148",83.861145,944.84766
"2149",85.909515,944.86084
"2150",87.62829,944.874
"2151",88.84657,944.8872
"2152",89.49111,944.9004
"2153",89.59365,944.9136
"2154",89.2372,944.92676
"2155",88.54627,944.93994
"2156",87.657585,944.9531
"2157",86.68345,944.9663
"2158",85.70199,944.9795
"2159",84.754715,944.9927
"2160",83.8587,945.00586
"2161",83.01396,945.01904
"2162",82.21805,945.0322
"2163",81.4905,945.0454
"2164",80.85817,945.0586
"2165",80.35523,945.0718
"2166",80.00366,945.08496
"2167",79.81323,945.09814
"2168",79.77173,945.1113
"2169",79.84497,945.1245
"2170",79.991455,945.1377
"2171",80.15991,945.1509
"2172",80.289314,945.16406
"2173",80.34791,945.17725
"2174",80.29908,945.1904
"2175",80.14038,945.2036
"2176",79.87915,945.2168
"2177",79.534904,945.23
"2178",79.13451,945.24316
"2179",78.70481,945.25635
"2180",78.2678,945.26953
"2181",77.840546,945.2827
"2182",77.437706,945.2959
"2183",77.066605,945.3091
"2184",76.74433,945.32227
"2185",76.470894,945.33545
"2186",76.243835,945.34863
"2187",76.06317,945.3618
"2188",75.931335,945.375
"2189",75.84589,945.3882
"2190",75.81171,945.40137
"2191",75.82147,945.41455
"2192",75.88251,945.42773
"2193",75.97772,945.4409
"2194",76.09979,945.4541
"2195",76.22919,945.4673
"2196",76.35615,945.48047
"2197",76.46601,945.49365
"2198",76.54902,945.50684
"2199",76.60029,945.52
"2200",76.6247,945.5332
"2201",76.61982,945.5464
"2202",76.59052,945.5596
"2203",76.54658,945.57275
"2204",76.49775,945.58594
"2205",76.46357,945.5991
"2206",76.48554,945.6123
"2207",76.654,945.6255
"2208",77.09102,945.6387
"2209",77.91867,945.65186
"2210",79.19554,945.66504
"2211",80.885025,945.6782
"2212",82.847946,945.6914
"2213",84.857254,945.7046
"2214",86.66636,945.7178
"2215",88.07507,945.73096
"2216",88.9662,945.74414
"2217",89.32021,945.7573
"2218",89.181046,945.7705
"2219",88.65125,945.7837
"2220",87.84558,945.7969
"2221",86.88121,945.81006
"2222",85.85336,945.82324
"2223",84.823074,945.8364
"2224",83.82941,945.8496
"2225",82.896774,945.8628
"2226",82.039825,945.876
"2227",81.27566,945.88916
"2228",80.62379,945.90234
"2229",80.113525,945.9155
"2230",79.764404,945.9287
"2231",79.586174,945.9419
"2232",79.5642,945.9551
"2233",79.66918,945.96826
"2234",79.852295,945.98145
"2235",80.0647,945.9946
"2236",80.25025,946.0078
"2237",80.36744,946.021
"2238",80.38941,946.0342
"2239",80.30152,946.04736
"2240",80.10376,946.06055
"2241",79.81079,946.0737
"2242",79.44457,946.0869
"2243",79.03929,946.1001
"2244",78.61448,946.1133
"2245",78.187225,946.12646
"2246",77.7673,946.13965
"2247",77.36935,946.15283
"2248",77.00313,946.166
"2249",76.67109,946.1792
"2250",76.387886,946.1924
"2251",76.15839,946.20557
"2252",75.982605,946.21875
"2253",75.86542,946.23193
"2254",75.80194,946.2451
"2255",75.78729,946.2583
"2256",75.81903,946.2715
"2257",75.88983,946.28467
"2258",75.982605,946.29785
"2259",76.09491,946.31104
"2260",76.21454,946.3242
"2261",76.32929,946.3374
"2262",76.42451,946.3506
"2263",76.49287,946.3638
"2264",76.53437,946.37695
"2265",76.544136,946.39014
"2266",76.52949,946.4033
"2267",76.50263,946.4165
"2268",76.47578,946.4297
"2269",76.46113,946.4429
"2270",76.50507,946.45605
"2271",76.6955,946.46924
"2272",77.14961,946.4824
"2273",77.98459,946.4956
"2274",79.25414,946.5088
"2275",80.92409,946.522
"2276",82.84306,946.53516
"2277",84.791336,946.54834
"2278",86.52476,946.5615
"2279",87.86023,946.5747
"2280",88.690315,946.5879
"2281",89.00038,946.6011
"2282",88.82704,946.61426
"2283",88.26795,946.62744
"2284",87.430534,946.6406
"2285",86.42222,946.6538
"2286",85.333336,946.667
"2287",84.2298,946.6802
"2288",83.16289,946.69336
"2289",82.16434,946.70654
"2290",81.26101,946.7197
"2291",80.482185,946.7329
"2292",79.85962,946.7461
"2293",79.415276,946.7593
"2294",79.1638,946.77246
"2295",79.10277,946.78564
"2296",79.202866,946.7988
"2297",79.4226,946.812
"2298",79.710686,946.8252
"2299",80.00366,946.8384
"2300",80.25269,946.85156
"2301",80.41627,946.86475
"2302",80.4773,946.8779
"2303",80.42359,946.8911
"2304",80.26002,946.9043
"2305",80.00122,946.9175
"2306",79.6643,946.93066
"2307",79.273674,946.94385
"2308",78.856186,946.95703
"2309",78.42893,946.9702
"2310",78.01633,946.9834
"2311",77.63058,946.9966
"2312",77.279015,947.00977
"2313",76.96895,947.02295
"2314",76.70527,947.03613
"2315",76.48798,947.0493
"2316",76.32685,947.0625
"2317",76.21698,947.0757
"2318",76.15839,947.08887
"2319",76.14374,947.10205
"2320",76.16815,947.11523
"2321",76.22186,947.1284
"2322",76.29511,947.1416
"2323",76.38056,947.1548
"2324",76.46601,947.16797
"2325",76.54658,947.18115
"2326",76.61982,947.19434
"2327",76.69062,947.2075
"2328",76.749214,947.2207
"2329",76.80293,947.2339
"2330",76.85176,947.2471
"2331",76.910355,947.26025
"2332",77.02754,947.27344
"2333",77.296104,947.2866
"2334",77.83078,947.2998
"2335",78.73655,947.313
"2336",80.04761,947.3262
"2337",81.7029,947.33936
"2338",83.54864,947.35254
"2339",85.36263,947.3657
"2340",86.9276,947.3789
"2341",88.079956,947.3921
"2342",88.73182,947.4053
"2343",88.88808,947.41846
"2344",88.59998,947.43164
"2345",87.96277,947.4448
"2346",87.078964,947.458
"2347",86.04379,947.4712
"2348",84.94026,947.4844
"2349",83.82208,947.49756
"2350",82.73319,947.51074
"2351",81.71267,947.5239
"2352",80.80934,947.5371
"2353",80.0647,947.5503
"2354",79.5227,947.5635
"2355",79.200424,947.57666
"2356",79.10521,947.58984
"2357",79.20775,947.603
"2358",79.4641,947.6162
"2359",79.80591,947.6294
"2360",80.177,947.6426
"2361",80.516365,947.65576
"2362",80.77516,947.66895
"2363",80.93141,947.6821
"2364",80.9778,947.6953
"2365",80.91432,947.7085
"2366",80.743416,947.7217
"2367",80.48463,947.73486
"2368",80.15747,947.74805
"2369",79.781494,947.7612
"2370",79.378654,947.7744
"2371",78.97093,947.7876
"2372",78.572975,947.8008
"2373",78.20187,947.81396
"2374",77.86252,947.82715
"2375",77.56466,947.84033
"2376",77.30831,947.8535
"2377",77.09834,947.8667
"2378",76.93233,947.8799
"2379",76.81026,947.89307
"2380",76.71992,947.90625
"2381",76.65644,947.91943
"2382",76.61494,947.9326
"2383",76.59785,947.9458
"2384",76.59785,947.959
"2385",76.6247,947.97217
"2386",76.67597,947.98535
"2387",76.754105,947.99854
"2388",76.86153,948.0117
"2389",77.03731,948.0249
"2390",77.3547,948.0381
"2391",77.92111,948.0513
"2392",78.83421,948.06445
"2393",80.13306,948.07764
"2394",81.76395,948.0908
"2395",83.58282,948.104
"2396",85.382164,948.1172
"2397",86.94469,948.1304
"2398",88.09949,948.14355
"2399",88.763565,948.15674
"2400",88.93202,948.1699
"2401",88.65125,948.1831
"2402",88.01648,948.1963
"2403",87.12291,948.2095
"2404",86.07309,948.22266
"2405",84.9427,948.23584
"2406",83.792786,948.249
"2407",82.66239,948.2622
"2408",81.59548,948.2754
"2409",80.635994,948.2886
"2410",79.83276,948.30176
"2411",79.22484,948.31494
"2412",78.84398,948.3281
"2413",78.69993,948.3413
"2414",78.76341,948.3545
"2415",78.992905,948.3677
"2416",79.33227,948.38086
"2417",79.72045,948.39404
"2418",80.093994,948.4072
"2419",80.411385,948.4204
"2420",80.62867,948.4336
"2421",80.719,948.4468
"2422",80.67994,948.45996
"2423",80.52369,948.47314
"2424",80.26246,948.4863
"2425",79.92554,948.4995
"2426",79.54467,948.5127
"2427",79.13695,948.5259
"2428",78.729225,948.53906
"2429",78.33372,948.55225
"2430",77.960175,948.5654
"2431",77.61349,948.5786
"2432",77.30343,948.5918
"2433",77.02754,948.605
"2434",76.790726,948.61816
"2435",76.592964,948.63135
"2436",76.436714,948.64453
"2437",76.314644,948.6577
"2438",76.22186,948.6709
"2439",76.15839,948.6841
"2440",76.12421,948.69727
"2441",76.12421,948.71045
"2442",76.16327,948.72363
"2443",76.26826,948.7368
"2444",76.47822,948.75
"2445",76.88838,948.7632
"2446",77.60616,948.77637
"2447",78.7219,948.78955
"2448",80.2478,948.80273
"2449",82.1033,948.8159
"2450",84.11017,948.8291
"2451",86.031586,948.8423
"2452",87.64294,948.85547
"2453",88.78554,948.86865
"2454",89.40322,948.88184
"2455",89.50088,948.895
"2456",89.14931,948.9082
"2457",88.45106,948.9214
"2458",87.51598,948.9346
"2459",86.44419,948.94775
"2460",85.31869,948.96094
"2461",84.19806,948.9741
"2462",83.12138,948.9873
"2463",82.11795,949.0005
"2464",81.21706,949.0137
"2465",80.45045,949.02686
"2466",79.84741,949.04004
"2467",79.43481,949.0532
"2468",79.22728,949.0664
"2469",79.21263,949.0796
"2470",79.35912,949.0928
"2471",79.61547,949.10596
"2472",79.923096,949.11914
"2473",80.22339,949.1323
"2474",80.46021,949.1455
"2475",80.59205,949.1587
"2476",80.6067,949.1719
"2477",80.499275,949.18506
"2478",80.27955,949.19824
"2479",79.96704,949.2114
"2480",79.59106,949.2246
"2481",79.17845,949.2378
"2482",78.74876,949.251
"2483",78.32395,949.26416
"2484",77.91867,949.27734
"2485",77.540245,949.2905
"2486",77.20088,949.3037
"2487",76.90059,949.3169
"2488",76.64179,949.3301
"2489",76.42451,949.34326
"2490",76.24628,949.35645
"2491",76.104675,949.3696
"2492",75.99481,949.3828
"2493",75.911804,949.396
"2494",75.85809,949.4092
"2495",75.83856,949.42236
"2496",75.85321,949.43555
"2497",75.90936,949.4487
"2498",76.033875,949.4619
"2499",76.297554,949.4751
"2500",76.805374,949.4883
"2501",77.67452,949.50146
"2502",78.975815,949.51465
"2503",80.68726,949.52783
"2504",82.68192,949.541
"2505",84.74006,949.5542
"2506",86.61265,949.5674
"2507",88.08728,949.58057
"2508",89.03456,949.59375
"2509",89.42519,949.60693
"2510",89.305565,949.6201
"2511",88.763565,949.6333
"2512",87.92615,949.6465
"2513",86.91539,949.65967
"2514",85.83627,949.67285
"2515",84.75716,949.68604
"2516",83.72198,949.6992
"2517",82.74784,949.7124
"2518",81.846954,949.7256
"2519",81.04372,949.7388
"2520",80.35279,949.75195
"2521",79.81323,949.76514
"2522",79.44213,949.7783
"2523",79.25414,949.7915
"2524",79.23216,949.8047
"2525",79.344475,949.8179
"2526",79.54467,949.83105
"2527",79.783936,949.84424
"2528",80.0061,949.8574
"2529",80.15991,949.8706
"2530",80.218506,949.8838
"2531",80.16235,949.897
"2532",79.98901,949.91016
"2533",79.71313,949.92334
"2534",79.35912,949.9365
"2535",78.95628,949.9497
"2536",78.52903,949.9629
"2537",78.10422,949.9761
"2538",77.696495,949.98926
"2539",77.32296,950.00244
"2540",76.98848,950.0156
"2541",76.6955,950.0288
"2542",76.44892,950.042
"2543",76.243835,950.0552
"2544",76.07782,950.06836
"2545",75.94354,950.08154
"2546",75.83856,950.0947
"2547",75.76044,950.1079
"2548",75.70672,950.1211
"2549",75.67986,950.1343
"2550",75.684746,950.14746
"2551",75.718925,950.16064
"2552",75.789734,950.1738
"2553",75.914246,950.187
"2554",76.1535,950.2002
"2555",76.61494,950.2134
"2556",77.42306,950.22656
"2557",78.6511,950.23975
"2558",80.29664,950.2529
"2559",82.24246,950.2661
"2560",84.27619,950.2793
"2561",86.14633,950.2925
"2562",87.63317,950.30566
"2563",88.59754,950.31885
"2564",89.007706,950.33203
"2565",88.90761,950.3452
"2566",88.394905,950.3584
"2567",87.59655,950.3716
"2568",86.63218,950.38477
"2569",85.609215,950.39795
"2570",84.60334,950.41113
"2571",83.64629,950.4243
"2572",82.75273,950.4375
"2573",81.92508,950.4507
"2574",81.163345,950.46387
"2575",80.48463,950.47705
"2576",79.91333,950.49023
"2577",79.47875,950.5034
"2578",79.20775,950.5166
"2579",79.10277,950.5298
"2580",79.14427,950.54297
"2581",79.29809,950.55615
"2582",79.50805,950.56934
"2583",79.71801,950.5825
"2584",79.8645,950.5957
"2585",79.91577,950.6089
"2586",79.84497,950.6221
"2587",79.65942,950.63525
"2588",79.37621,950.64844
"2589",79.01976,950.6616
"2590",78.61692,950.6748
"2591",78.19211,950.688
"2592",77.75998,950.7012
"2593",77.33517,950.71436
"2594",76.946976,950.72754
"2595",76.59785,950.7407
"2596",76.29511,950.7539
"2597",76.050964,950.7671
"2598",75.860535,950.7803
"2599",75.72137,950.79346
"2600",75.62615,950.80664
"2601",75.57,950.8198
"2602",75.55047,950.833
"2603",75.560234,950.8462
"2604",75.59197,950.8594
"2605",75.64568,950.87256
"2606",75.70916,950.88574
"2607",75.7702,950.8989
"2608",75.83124,950.9121
"2609",75.89227,950.9253
"2610",75.97284,950.9385
"2611",76.11444,950.95166
"2612",76.41474,950.96484
"2613",76.998245,950.978
"2614",77.977264,950.9912
"2615",79.40063,951.0044
"2616",81.21217,951.0176
"2617",83.23857,951.03076
"2618",85.240555,951.04395
"2619",86.956894,951.0571
"2620",88.199585,951.0703
"2621",88.88075,951.0835
"2622",89.01503,951.0967
"2623",88.687874,951.10986
"2624",88.0116,951.12305
"2625",87.12779,951.1362
"2626",86.151215,951.1494
"2627",85.16243,951.1626
"2628",84.207825,951.1758
"2629",83.30938,951.18896
"2630",82.46708,951.20215
"2631",81.67605,951.21533
"2632",80.95094,951.2285
"2633",80.308846,951.2417
"2634",79.78638,951.2549
"2635",79.415276,951.26807
"2636",79.21507,951.28125
"2637",79.17601,951.29443
"2638",79.26635,951.3076
"2639",79.44213,951.3208
"2640",79.639885,951.334
"2641",79.798584,951.34717
"2642",79.87915,951.36035
"2643",79.85474,951.37354
"2644",79.71801,951.3867
"2645",79.48119,951.3999
"2646",79.16136,951.4131
"2647",78.7805,951.4263
"2648",78.3679,951.43945
"2649",77.9382,951.45264
"2650",77.51339,951.4658
"2651",77.11299,951.479
"2652",76.74433,951.4922
"2653",76.419624,951.5054
"2654",76.14374,951.51855
"2655",75.92157,951.53174
"2656",75.75311,951.5449
"2657",75.63836,951.5581
"2658",75.577324,951.5713
"2659",75.56512,951.5845
"2660",75.58953,951.59766
"2661",75.64568,951.61084
"2662",75.72381,951.624
"2663",75.809265,951.6372
"2664",75.89227,951.6504
"2665",75.9704,951.6636
"2666",76.033875,951.67676
"2667",76.09003,951.68994
"2668",76.13641,951.7031
"2669",76.18768,951.7163
"2670",76.27802,951.7295
"2671",76.48798,951.7427
"2672",76.93721,951.75586
"2673",77.752655,951.76904
"2674",79.012436,951.7822
"2675",80.69215,951.7954
"2676",82.65507,951.8086
"2677",84.66682,951.8218
"2678",86.47105,951.83496
"2679",87.850464,951.84814
"2680",88.690315,951.8613
"2681",88.9662,951.8745
"2682",88.75136,951.8877
"2683",88.15564,951.9009
"2684",87.31335,951.91406
"2685",86.35142,951.92725
"2686",85.36019,951.9404
"2687",84.40559,951.9536
"2688",83.49737,951.9668
"2689",82.64286,951.98
"2690",81.83475,951.99316
"2691",81.077896,952.00635
"2692",80.394295,952.01953
"2693",79.815674,952.0327
"2694",79.38842,952.0459
"2695",79.12718,952.0591
"2696",79.03197,952.07227
"2697",79.080795,952.08545
"2698",79.22972,952.09863
"2699",79.42016,952.1118
"2700",79.5935,952.125
"2701",79.70336,952.1382
"2702",79.71801,952.15137
"2703",79.622795,952.16455
"2704",79.41772,952.17773
"2705",79.114975,952.1909
"2706",78.74143,952.2041
"2707",78.328835,952.2173
"2708",77.8967,952.23047
"2709",77.471886,952.24365
"2710",77.07149,952.25684
"2711",76.71015,952.27
"2712",76.387886,952.2832
"2713",76.112,952.2964
"2714",75.880066,952.3096
"2715",75.69207,952.32275
"2716",75.55047,952.33594
"2717",75.46258,952.3491
"2718",75.42596,952.3623
"2719",75.440605,952.3755
"2720",75.50408,952.3887
"2721",75.5993,952.40186
"2722",75.716484,952.41504
"2723",75.83368,952.4282
"2724",75.945984,952.4414
"2725",76.03876,952.4546
"2726",76.102234,952.4678
"2727",76.1413,952.48096
"2728",76.15839,952.49414
"2729",76.16327,952.5073
"2730",76.17792,952.5205
"2731",76.25117,952.5337
"2732",76.47578,952.5469
"2733",76.98848,952.56006
"2734",77.91623,952.57324
"2735",79.32494,952.5864
"2736",81.17311,952.5996
"2737",83.29229,952.6128
"2738",85.43099,952.626
"2739",87.31335,952.63916
"2740",88.72938,952.65234
"2741",89.57412,952.6655
"2742",89.84024,952.6787
"2743",89.61074,952.6919
"2744",89.01503,952.7051
"2745",88.19226,952.71826
"2746",87.259636,952.73145
"2747",86.30991,952.7446
"2748",85.38949,952.7578
"2749",84.51301,952.771
"2750",83.67315,952.7842
"2751",82.862595,952.79736
"2752",82.08621,952.81055
"2753",81.36355,952.8237
"2754",80.73365,952.8369
"2755",80.233154,952.8501
"2756",79.89624,952.8633
"2757",79.727776,952.87646
"2758",79.70336,952.88965
"2759",79.78638,952.90283
"2760",79.91821,952.916
"2761",80.04028,952.9292
"2762",80.10132,952.9424
"2763",80.07202,952.95557
"2764",79.9353,952.96875
"2765",79.693596,952.98193
"2766",79.361565,952.9951
"2767",78.96361,953.0083
"2768",78.52659,953.0215
"2769",78.07248,953.03467
"2770",77.625694,953.04785
"2771",77.19844,953.06104
"2772",76.81026,953.0742
"2773",76.46357,953.0874
"2774",76.16571,953.1006
"2775",75.91913,953.1138
"2776",75.72869,953.12695
"2777",75.59441,953.14014
"2778",75.51385,953.1533
"2779",75.48455,953.1665
"2780",75.50652,953.1797
"2781",75.56756,953.1929
"2782",75.65789,953.20605
"2783",75.76044,953.21924
"2784",75.87274,953.2324
"2785",75.97284,953.2456
"2786",76.050964,953.2588
"2787",76.112,953.272
"2788",76.14862,953.28516
"2789",76.16571,953.29834
"2790",76.16327,953.3115
"2791",76.155945,953.3247
"2792",76.155945,953.3379
"2793",76.209656,953.3511
"2794",76.40742,953.36426
"2795",76.87373,953.37744
"2796",77.738,953.3906
"2797",79.080795,953.4038
"2798",80.8777,953.417
"2799",82.98222,953.4302
"2800",85.15999,953.44336
"2801",87.132675,953.45654
"2802",88.66834,953.4697
"2803",89.63271,953.4829
"2804",90.006256,953.4961
"2805",89.850006,953.5093
"2806",89.29336,953.52246
"2807",88.47303,953.53564
"2808",87.52087,953.5488
"2809",86.53452,953.562
"2810",85.56771,953.5752
"2811",84.6424,953.5884
"2812",83.75372,953.60156
"2813",82.90166,953.61475
"2814",82.08865,953.6279
"2815",81.33669,953.6411
"2816",80.68238,953.6543
"2817",80.16968,953.6675
"2818",79.818115,953.68066
"2819",79.639885,953.69385
"2820",79.61059,953.70703
"2821",79.693596,953.7202
"2822",79.83276,953.7334
"2823",79.96948,953.7466
"2824",80.05737,953.75977
"2825",80.05249,953.77295
"2826",79.94263,953.78613
"2827",79.73022,953.7993
"2828",79.42504,953.8125
"2829",79.0515,953.8257
"2830",78.62913,953.83887
"2831",78.184784,953.85205
"2832",77.74288,953.86523
"2833",77.31808,953.8784
"2834",76.92256,953.8916
"2835",76.56855,953.9048
"2836",76.265816,953.91797
"2837",76.016785,953.93115
"2838",75.82147,953.94434
"2839",75.67986,953.9575
"2840",75.5993,953.9707
"2841",75.57244,953.9839
"2842",75.596855,953.9971
"2843",75.66033,954.01025
"2844",75.757996,954.02344
"2845",75.8703,954.0366
"2846",75.98993,954.0498
"2847",76.104675,954.063
"2848",76.209656,954.0762
"2849",76.29267,954.08936
"2850",76.34882,954.10254
"2851",76.37568,954.1157
"2852",76.37324,954.1289
"2853",76.34638,954.1421
"2854",76.30244,954.1553
"2855",76.25849,954.16846
"2856",76.23163,954.18164
"2857",76.2707,954.1948
"2858",76.47822,954.208
"2859",76.9836,954.2212
"2860",77.90646,954.2344
"2861",79.30785,954.24756
"2862",81.13405,954.26074
"2863",83.2166,954.2739
"2864",85.30404,954.2871
"2865",87.12535,954.3003
"2866",88.47303,954.3135
"2867",89.24452,954.32666
"2868",89.43252,954.33984
"2869",89.11757,954.353
"2870",88.4242,954.3662
"2871",87.49157,954.3794
"2872",86.44663,954.3926
"2873",85.382164,954.40576
"2874",84.351875,954.41895
"2875",83.37774,954.4321
"2876",82.47196,954.4453
"2877",81.634544,954.4585
"2878",80.885025,954.4717
"2879",80.25269,954.48486
"2880",79.77417,954.49805
"2881",79.47143,954.5112
"2882",79.34692,954.5244
"2883",79.38598,954.5376
"2884",79.54467,954.5508
"2885",79.766846,954.56396
"2886",79.99634,954.57715
"2887",80.17944,954.59033
"2888",80.27711,954.6035
"2889",80.2649,954.6167
"2890",80.130615,954.6299
"2891",79.89136,954.64307
"2892",79.571526,954.65625
"2893",79.18822,954.66943
"2894",78.77318,954.6826
"2895",78.34104,954.6958
"2896",77.91867,954.709
"2897",77.50851,954.72217
"2898",77.134964,954.73535
"2899",76.807816,954.74854
"2900",76.53681,954.7617
"2901",76.32441,954.7749
"2902",76.17792,954.7881
"2903",76.09247,954.8013
"2904",76.06073,954.81445
"2905",76.070496,954.82764
"2906",76.11932,954.8408
"2907",76.18768,954.854
"2908",76.2707,954.8672
"2909",76.36103,954.8804
"2910",76.45136,954.89355
"2911",76.53681,954.90674
"2912",76.60761,954.9199
"2913",76.66621,954.9331
"2914",76.70283,954.9463
"2915",76.72724,954.9595
"2916",76.74677,954.97266
"2917",76.790726,954.98584
"2918",76.90303,954.999
"2919",77.18135,955.0122
"2920",77.74288,955.0254
"2921",78.69993,955.0386
"2922",80.076904,955.05176
"2923",81.81766,955.06494
"2924",83.74883,955.0781
"2925",85.63363,955.0913
"2926",87.22789,955.1045
"2927",88.35584,955.1177
"2928",88.93935,955.13086
"2929",88.990616,955.14404
"2930",88.585335,955.1572
"2931",87.84314,955.1704
"2932",86.89342,955.1836
"2933",85.83383,955.1968
"2934",84.74738,955.20996
"2935",83.67315,955.22314
"2936",82.64286,955.2363
"2937",81.67605,955.2495
"2938",80.8069,955.2627
"2939",80.07446,955.2759
"2940",79.520256,955.28906
"2941",79.17113,955.30225
"2942",79.027084,955.3154
"2943",79.078354,955.3286
"2944",79.27123,955.3418
"2945",79.55688,955.355
"2946",79.86694,955.36816
"2947",80.15015,955.38135
"2948",80.34791,955.39453
"2949",80.43336,955.4077
"2950",80.39185,955.4209
"2951",80.23071,955.4341
"2952",79.96216,955.44727
"2953",79.61791,955.46045
"2954",79.219955,955.47363
"2955",78.79515,955.4868
"2956",78.363014,955.5
"2957",77.94797,955.5132
"2958",77.56222,955.52637
"2959",77.22041,955.53955
"2960",76.927444,955.55273
"2961",76.68574,955.5659
"2962",76.50019,955.5791
"2963",76.368355,955.5923
"2964",76.280464,955.60547
"2965",76.23895,955.61865
"2966",76.22919,955.63184
"2967",76.24628,955.645
"2968",76.282906,955.6582
"2969",76.33662,955.6714
"2970",76.39277,955.6846
"2971",76.45136,955.69775
"2972",76.50996,955.71094
"2973",76.57099,955.7241
"2974",76.63447,955.7373
"2975",76.71259,955.7505
"2976",76.82735,955.7637
"2977",77.02998,955.77686
"2978",77.42794,955.79004
"2979",78.14084,955.8032
"2980",79.26635,955.8164
"2981",80.81911,955.8296
"2982",82.701454,955.8428
"2983",84.715645,955.85596
"2984",86.60044,955.86914
"2985",88.1239,955.8823
"2986",89.12489,955.8955
"2987",89.55215,955.9087
"2988",89.44717,955.9219
"2989",88.902725,955.93506
"2990",88.04822,955.94824
"2991",87.01549,955.9614
"2992",85.909515,955.9746
"2993",84.79866,955.9878
"2994",83.734184,956.001
"2995",82.73075,956.01416
"2996",81.80545,956.02734
"2997",80.98268,956.0405
"2998",80.289314,956.0537
"2999",79.75708,956.0669
"3000",79.40551,956.0801
"3001",79.24437,956.09326
"3002",79.259026,956.10645
"3003",79.412834,956.1196
"3004",79.65209,956.1328
"3005",79.92554,956.146
"3006",80.16968,956.1592
"3007",80.32838,956.17236
"3008",80.377205,956.18555
"3009",80.29908,956.1987
"3010",80.10132,956.2119
"3011",79.801025,956.2251
"3012",79.42748,956.2383
"3013",79.00511,956.25146
"3014",78.56321,956.26465
"3015",78.118866,956.27783
"3016",77.696495,956.291
"3017",77.313194,956.3042
"3018",76.96895,956.3174
"3019",76.67841,956.33057
"3020",76.4416,956.34375
"3021",76.25849,956.35693
"3022",76.121765,956.3701
"3023",76.02899,956.3833
"3024",75.98505,956.3965
"3025",75.98016,956.40967
"3026",76.00214,956.42285
"3027",76.03876,956.43604
"3028",76.0827,956.4492
"3029",76.121765,956.4624
"3030",76.15839,956.4756
"3031",76.190125,956.4888
"3032",76.23163,956.50195
"3033",76.29023,956.51514
"3034",76.37812,956.5283
"3035",76.541695,956.5415
"3036",76.87373,956.5547
"3037",77.503624,956.5679
"3038",78.54124,956.58105
"3039",80.028076,956.59424
"3040",81.898224,956.6074
"3041",83.97833,956.6206
"3042",86.00473,956.6338
"3043",87.72106,956.647
"3044",88.94179,956.66016
"3045",89.583885,956.67334
"3046",89.654686,956.6865
"3047",89.249405,956.6997
"3048",88.49256,956.7129
"3049",87.52331,956.7261
"3050",86.4564,956.73926
"3051",85.384605,956.75244
"3052",84.351875,956.7656
"3053",83.372856,956.7788
"3054",82.459755,956.792
"3055",81.61501,956.8052
"3056",80.85573,956.81836
"3057",80.2063,956.83154
"3058",79.708244,956.8447
"3059",79.38598,956.8579
"3060",79.237045,956.8711
"3061",79.24925,956.8843
"3062",79.3933,956.89746
"3063",79.60815,956.91064
"3064",79.82788,956.9238
"3065",80.00122,956.937
"3066",80.08423,956.9502
"3067",80.04761,956.9634
"3068",79.88159,956.97656
"3069",79.605705,956.98975
"3070",79.24437,957.0029
"3071",78.82689,957.0161
"3072",78.37766,957.0293
"3073",77.92355,957.0425
"3074",77.49142,957.05566
"3075",77.083694,957.06885
"3076",76.71259,957.08203
"3077",76.387886,957.0952
"3078",76.11932,957.1084
"3079",75.90448,957.1216
"3080",75.75311,957.13477
"3081",75.65545,957.14795
"3082",75.60906,957.16113
"3083",75.60418,957.1743
"3084",75.631035,957.1875
"3085",75.682304,957.2007
"3086",75.74578,957.21387
"3087",75.82147,957.22705
"3088",75.8996,957.24023
"3089",75.98016,957.2534
"3090",76.050964,957.2666
"3091",76.11932,957.2798
"3092",76.18036,957.29297
"3093",76.263374,957.30615
"3094",76.42939,957.31934
"3095",76.79805,957.3325
"3096",77.50851,957.3457
"3097",78.67063,957.3589
"3098",80.2942,957.3721
"3099",82.27665,957.38525
"3100",84.403145,957.39844
"3101",86.39292,957.4116
"3102",87.99451,957.4248
"3103",89.039444,957.438
"3104",89.48623,957.4512
"3105",89.376366,957.46436
"3106",88.82948,957.47754
"3107",87.98718,957.4907
"3108",86.98863,957.5039
"3109",85.94614,957.5171
"3110",84.93294,957.5303
"3111",83.97589,957.54346
"3112",83.07988,957.55664
"3113",82.24002,957.5698
"3114",81.444115,957.583
"3115",80.71168,957.5962
"3116",80.07202,957.6094
"3117",79.56664,957.62256
"3118",79.22484,957.63574
"3119",79.05638,957.6489
"3120",79.04173,957.6621
"3121",79.14183,957.6753
"3122",79.30297,957.6885
"3123",79.4641,957.70166
"3124",79.57397,957.71484
"3125",79.59838,957.728
"3126",79.51537,957.7412
"3127",79.3225,957.7544
"3128",79.03197,957.7676
"3129",78.66575,957.78076
"3130",78.25071,957.79395
"3131",77.81125,957.8071
"3132",77.36446,957.8203
"3133",76.927444,957.8335
"3134",76.51972,957.8467
"3135",76.14374,957.85986
"3136",75.81415,957.87305
"3137",75.528496,957.8862
"3138",75.301445,957.8994
"3139",75.13786,957.9126
"3140",75.037766,957.9258
"3141",74.98894,957.93896
"3142",74.986496,957.95215
"3143",75.02312,957.96533
"3144",75.07927,957.9785
"3145",75.15251,957.9917
"3146",75.23308,958.0049
"3147",75.31365,958.01807
"3148",75.38445,958.03125
"3149",75.44305,958.04443
"3150",75.48699,958.0576
"3151",75.51385,958.0708
"3152",75.5407,958.084
"3153",75.577324,958.09717
"3154",75.667656,958.11035
"3155",75.911804,958.12354
"3156",76.436714,958.1367
"3157",77.36202,958.1499
"3158",78.73167,958.1631
"3159",80.48951,958.1763
"3160",82.47196,958.18945
"3161",84.43,958.20264
"3162",86.11215,958.2158
"3163",87.33532,958.229
"3164",88.0116,958.2422
"3165",88.1532,958.2554
"3166",87.835815,958.26855
"3167",87.18883,958.28174
"3168",86.348976,958.2949
"3169",85.43343,958.3081
"3170",84.51545,958.3213
"3171",83.64141,958.3345
"3172",82.828415,958.34766
"3173",82.05936,958.36084
"3174",81.33425,958.374
"3175",80.655525,958.3872
"3176",80.045166,958.4004
"3177",79.52758,958.4136
"3178",79.14427,958.42676
"3179",78.91478,958.43994
"3180",78.83421,958.4531
"3181",78.87572,958.4663
"3182",78.99779,958.4795
"3183",79.149155,958.4927
"3184",79.276115,958.50586
"3185",79.33715,958.51904
"3186",79.31274,958.5322
"3187",79.18822,958.5454
"3188",78.96117,958.5586
"3189",78.64622,958.5718
"3190",78.27268,958.58496
"3191",77.86008,958.59814
"3192",77.435265,958.6113
"3193",77.02022,958.6245
"3194",76.627144,958.6377
"3195",76.265816,958.6509
"3196",75.94354,958.66406
"3197",75.66277,958.67725
"3198",75.4284,958.6904
"3199",75.24773,958.7036
"3200",75.12077,958.7168
"3201",75.04997,958.73
"3202",75.03288,958.74316
"3203",75.0573,958.75635
"3204",75.11589,958.76953
"3205",75.1989,958.7827
"3206",75.2868,958.7959
"3207",75.37469,958.8091
"3208",75.45037,958.82227
"3209",75.508965,958.83545
"3210",75.545586,958.84863
"3211",75.55779,958.8618
"3212",75.55535,958.875
"3213",75.543144,958.8882
"3214",75.52361,958.90137
"3215",75.52117,958.91455
"3216",75.58709,958.92773
"3217",75.826355,958.9409
"3218",76.35371,958.9541
"3219",77.27413,958.9673
"3220",78.6096,958.98047
"3221",80.28199,958.99365
"3222",82.12039,959.00684
"3223",83.895325,959.02
"3224",85.38949,959.0332
"3225",86.45884,959.0464
"3226",87.044785,959.0596
"3227",87.16441,959.07275
"3228",86.89342,959.08594
"3229",86.34409,959.0991
"3230",85.63607,959.1123
"3231",84.86214,959.1255
"3232",84.09064,959.1387
"3233",83.35821,959.15186
"3234",82.667274,959.16504
"3235",82.005646,959.1782
"3236",81.373314,959.1914
"3237",80.782486,959.2046
"3238",80.255135,959.2178
"3239",79.82056,959.23096
"3240",79.51049,959.24414
"3241",79.32494,959.2573
"3242",79.259026,959.2705
"3243",79.28832,959.2837
"3244",79.38354,959.2969
"3245",79.49828,959.31006
"3246",79.59106,959.32324
"3247",79.635,959.3364
"3248",79.59838,959.3496
"3249",79.47631,959.3628
"3250",79.273674,959.376
"3251",79.00267,959.38916
"3252",78.68284,959.40234
"3253",78.33616,959.4155
"3254",77.979706,959.4287
"3255",77.642784,959.4419
"3256",77.34493,959.4551
"3257",77.10811,959.46826
"3258",76.93233,959.48145
"3259",76.8127,959.4946
"3260",76.72968,959.5078
"3261",76.67841,959.521
"3262",76.64912,959.5342
"3263",76.63691,959.54736
"3264",76.65156,959.56055
"3265",76.6955,959.5737
"3266",76.76143,959.5869
"3267",76.83711,959.6001
"3268",76.91768,959.6133
"3269",76.99092,959.62646
"3270",77.051956,959.63965
"3271",77.08858,959.65283
"3272",77.0959,959.666
"3273",77.07881,959.6792
"3274",77.04219,959.6924
"3275",76.99336,959.70557
"3276",76.94209,959.71875
"3277",76.89815,959.73193
"3278",76.895706,959.7451
"3279",76.99336,959.7583
"3280",77.29122,959.7715
"3281",77.88693,959.78467
"3282",78.8513,959.79785
"3283",80.17212,959.81104
"3284",81.74685,959.8242
"3285",83.40948,959.8374
"3286",84.95491,959.8506
"3287",86.21713,959.8638
"3288",87.08385,959.87695
"3289",87.52575,959.89014
"3290",87.57702,959.9033
"3291",87.308464,959.9165
"3292",86.81773,959.9297
"3293",86.204926,959.9429
"3294",85.55306,959.95605
"3295",84.90364,959.96924
"3296",84.281075,959.9824
"3297",83.682915,959.9956
"3298",83.104294,960.0088
"3299",82.53544,960.022
"3300",81.99832,960.03516
"3301",81.512474,960.04834
"3302",81.109634,960.0615
"3303",80.814224,960.0747
"3304",80.635994,960.0879
"3305",80.567635,960.1011
"3306",80.58228,960.11426
"3307",80.64088,960.12744
"3308",80.706795,960.1406
"3309",80.73853,960.1538
"3310",80.71168,960.167
"3311",80.61158,960.1802
"3312",80.43824,960.19336
"3313",80.19409,960.20654
"3314",79.89868,960.2197
"3315",79.56176,960.2329
"3316",79.20531,960.2461
"3317",78.84642,960.2593
"3318",78.502174,960.27246
"3319",78.187225,960.28564
"3320",77.90158,960.2988
"3321",77.65255,960.312
"3322",77.435265,960.3252
"3323",77.25216,960.3384
"3324",77.10567,960.35156
"3325",77.00069,960.36475
"3326",76.929886,960.3779
"3327",76.90303,960.3911
"3328",76.90303,960.4043
"3329",76.927444,960.4175
"3330",76.95674,960.43066
"3331",76.99092,960.44385
"3332",77.02022,960.45703
"3333",77.03731,960.4702
"3334",77.03975,960.4834
"3335",77.032425,960.4966
"3336",77.01778,960.50977
"3337",76.99336,960.52295
"3338",76.96895,960.53613
"3339",76.95674,960.5493
"3340",76.97383,960.5625
"3341",77.066605,960.5757
"3342",77.30831,960.58887
"3343",77.79172,960.60205
"3344",78.57053,960.61523
"3345",79.65209,960.6284
"3346",80.96803,960.6416
"3347",82.37919,960.6548
"3348",83.72442,960.66797
"3349",84.84749,960.68115
"3350",85.64828,960.69434
"3351",86.08774,960.7075
"3352",86.18295,960.7207
"3353",85.99008,960.7339
"3354",85.592125,960.7471
"3355",85.07454,960.76025
"3356",84.50324,960.77344
"3357",83.92462,960.7866
"3358",83.36553,960.7998
"3359",82.82109,960.813
"3360",82.29618,960.8262
"3361",81.79324,960.83936
"3362",81.33181,960.85254
"3363",80.92897,960.8657
"3364",80.61646,960.8789
"3365",80.413826,960.8921
"3366",80.323494,960.9053
"3367",80.33082,960.91846
"3368",80.40894,960.93164
"3369",80.516365,960.9448
"3370",80.621346,960.958
"3371",80.68726,960.9712
"3372",80.69215,960.9844
"3373",80.62379,960.99756
"3374",80.48707,961.01074
"3375",80.28687,961.0239
"3376",80.0354,961.0371
"3377",79.75464,961.0503
"3378",79.45922,961.0635
"3379",79.16136,961.07666
"3380",78.873276,961.08984
"3381",78.60227,961.103
"3382",78.35813,961.1162
"3383",78.14328,961.1294
"3384",77.960175,961.1426
"3385",77.80881,961.15576
"3386",77.69405,961.16895
"3387",77.608604,961.1821
"3388",77.55489,961.1953
"3389",77.53048,961.2085
"3390",77.53048,961.2217
"3391",77.54513,961.23486
"3392",77.56954,961.24805
"3393",77.60128,961.2612
"3394",77.63058,961.2744
"3395",77.65255,961.2876
"3396",77.66476,961.3008
"3397",77.6672,961.31396
"3398",77.65743,961.32715
"3399",77.63546,961.34033
"3400",77.608604,961.3535
"3401",77.58419,961.3667
"3402",77.57198,961.3799
"3403",77.60616,961.39307
"3404",77.75021,961.40625
"3405",78.082245,961.41943
"3406",78.66819,961.4326
"3407",79.52758,961.4458
"3408",80.62623,961.459
"3409",81.8616,961.47217
"3410",83.087204,961.48535
"3411",84.15167,961.49854
"3412",84.95491,961.5117
"3413",85.44076,961.5249
"3414",85.60677,961.5381
"3415",85.49691,961.5513
"3416",85.1844,961.56445
"3417",84.7425,961.57764
"3418",84.23712,961.5908
"3419",83.717094,961.604
"3420",83.20195,961.6172
"3421",82.70634,961.6304
"3422",82.230255,961.64355
"3423",81.77615,961.65674
"3424",81.36111,961.6699
"3425",81.01198,961.6831
"3426",80.74586,961.6963
"3427",80.57984,961.7095
"3428",80.51392,961.72266
"3429",80.533455,961.73584
"3430",80.61646,961.749
"3431",80.723885,961.7622
"3432",80.81911,961.7754
"3433",80.88258,961.7886
"3434",80.88991,961.80176
"3435",80.833755,961.81494
"3436",80.71656,961.8281
"3437",80.5359,961.8413
"3438",80.306404,961.8545
"3439",80.042725,961.8677
"3440",79.75464,961.88086
"3441",79.4641,961.89404
"3442",79.183334,961.9072
"3443",78.91966,961.9204
"3444",78.675514,961.9336
"3445",78.44846,961.9468
"3446",78.24582,961.95996
"3447",78.07736,961.97314
"3448",77.943085,961.9863
"3449",77.85275,961.9995
"3450",77.80148,962.0127
"3451",77.77707,962.0259
"3452",77.77463,962.03906
"3453",77.77951,962.05225
"3454",77.786835,962.0654
"3455",77.79904,962.0786
"3456",77.80881,962.0918
"3457",77.81613,962.105
"3458",77.821014,962.11816
"3459",77.821014,962.13135
"3460",77.81613,962.14453
"3461",77.80881,962.1577
"3462",77.803925,962.1709
"3463",77.8259,962.1841
"3464",77.93088,962.19727
"3465",78.18234,962.21045
"3466",78.64622,962.22363
"3467",79.35912,962.2368
"3468",80.30152,962.25
"3469",81.39773,962.2632
"3470",82.530556,962.27637
"3471",83.56573,962.28955
"3472",84.39094,962.30273
"3473",84.9427,962.3159
"3474",85.19661,962.3291
"3475",85.172195,962.3423
"3476",84.92317,962.35547
"3477",84.51789,962.36865
"3478",84.02228,962.38184
"3479",83.492485,962.395
"3480",82.95781,962.4082
"3481",82.44511,962.4214
"3482",81.9617,962.4346
"3483",81.51736,962.44775
"3484",81.126724,962.46094
"3485",80.80934,962.4741
"3486",80.5774,962.4873
"3487",80.445564,962.5005
"3488",80.40894,962.5137
"3489",80.45045,962.52686
"3490",80.5481,962.54004
"3491",80.672615,962.5532
"3492",80.799576,962.5664
"3493",80.89235,962.5796
"3494",80.94118,962.5928
"3495",80.92653,962.60596
"3496",80.848404,962.61914
"3497",80.706795,962.6323
"3498",80.51392,962.6455
"3499",80.28687,962.6587
"3500",80.03784,962.6719
"3501",79.783936,962.68506
"3502",79.53979,962.69824
"3503",79.310295,962.7114
"3504",79.10277,962.7246
"3505",78.91722,962.7378
"3506",78.75609,962.751
"3507",78.61692,962.76416
"3508",78.502174,962.77734
"3509",78.40208,962.7905
"3510",78.31907,962.8037
"3511",78.25559,962.8169
"3512",78.2092,962.8301
"3513",78.1799,962.84326
"3514",78.16525,962.85645
"3515",78.15549,962.8696
"3516",78.153046,962.8828
"3517",78.153046,962.896
"3518",78.15549,962.9092
"3519",78.16037,962.92236
"3520",78.17258,962.93555
"3521",78.20676,962.9487
"3522",78.294655,962.9619
"3523",78.49241,962.9751
"3524",78.853745,962.9883
"3525",79.4226,963.00146
"3526",80.19165,963.01465
"3527",81.10475,963.02783
"3528",82.06668,963.041
"3529",82.95781,963.0542
"3530",83.67803,963.0674
"3531",84.156555,963.08057
"3532",84.368965,963.09375
"3533",84.334785,963.10693
"3534",84.102844,963.1201
"3535",83.72198,963.1333
"3536",83.25323,963.1465
"3537",82.73319,963.15967
"3538",82.20096,963.17285
"3539",81.67605,963.18604
"3540",81.17799,963.1992
"3541",80.73365,963.2124
"3542",80.365,963.2256
"3543",80.08423,963.2388
"3544",79.91333,963.25195
"3545",79.85474,963.26514
"3546",79.90112,963.2783
"3547",80.025635,963.2915
"3548",80.20386,963.3047
"3549",80.396736,963.3179
"3550",80.567635,963.33105
"3551",80.68726,963.34424
"3552",80.743416,963.3574
"3553",80.73365,963.3706
"3554",80.65308,963.3838
"3555",80.51881,963.397
"3556",80.33814,963.41016
"3557",80.13306,963.42334
"3558",79.91333,963.4365
"3559",79.691154,963.4497
"3560",79.47875,963.4629
"3561",79.28588,963.4761
"3562",79.10765,963.48926
"3563",78.95384,963.50244
"3564",78.819565,963.5156
"3565",78.70725,963.5288
"3566",78.61204,963.542
"3567",78.46311,963.56836
"3568",78.4094,963.58154
"3569",78.365456,963.5947
"3570",78.33616,963.6079
"3571",78.314186,963.6211
"3572",78.30442,963.6343
"3573",78.30198,963.64746
"3574",78.3093,963.66064
"3575",78.3386,963.6738
"3576",78.4094,963.687
"3577",78.572975,963.7002
"3578",78.88304,963.7134
"3579",79.3933,963.72656
"3580",80.12573,963.73975
"3581",81.04616,963.7529
"3582",82.07156,963.7661
"3583",83.07988,963.7793
"3584",83.95636,963.7925
"3585",84.6009,963.80566
"3586",84.97444,963.81885
"3587",85.07698,963.83203
"3588",84.94026,963.8452
"3589",84.61799,963.8584
"3590",84.1712,963.8716
"3591",83.65606,963.88477
"3592",83.11162,963.89795
"3593",82.564735,963.91113
"3594",82.039825,963.9243
"3595",81.54421,963.9375
"3596",81.10719,963.9507
"3597",80.74586,963.96387
"3598",80.482185,963.97705
"3599",80.325935,963.99023
"3600",80.27711,964.0034
"3601",80.323494,964.0166
"3602",80.44312,964.0298
"3603",80.601814,964.04297
"3604",80.77272,964.05615
"3605",80.91676,964.06934
"3606",81.01198,964.0825
"3607",81.04372,964.0957
"3608",81.007095,964.1089
"3609",80.90456,964.1221
"3610",80.7483,964.13525
"3611",80.55543,964.14844
"3612",80.33326,964.1616
"3613",80.093994,964.1748
"3614",79.85474,964.188
"3615",79.62768,964.2012
"3616",79.412834,964.21436
"3617",79.21019,964.22754
"3618",79.0222,964.2407
"3619",78.84398,964.2539
"3620",78.67307,964.2671
"3621",78.51194,964.2803
"3622",78.36057,964.29346
"3623",78.22873,964.30664
"3624",78.118866,964.3198
"3625",78.028534,964.333
"3626",77.960175,964.3462
"3627",77.91135,964.3594
"3628",77.87961,964.37256
"3629",77.874725,964.38574
"3630",77.90402,964.3989
"3631",77.996796,964.4121
"3632",78.20187,964.4253
"3633",78.58762,964.4385
"3634",79.200424,964.45166
"3635",80.04761,964.46484
"3636",81.075455,964.478
"3637",82.193634,964.4912
"3638",83.267876,964.5044
"3639",84.17609,964.5176
"3640",84.83528,964.53076
"3641",85.20882,964.54395
"3642",85.29916,964.5571
"3643",85.15022,964.5703
"3644",84.823074,964.5835
"3645",84.38117,964.5967
"3646",83.88556,964.60986
"3647",83.3753,964.62305
"3648",82.87236,964.6362
"3649",82.38407,964.6494
"3650",81.9202,964.6626
"3651",81.48562,964.6758
"3652",81.10475,964.68896
"3653",80.797134,964.70215
"3654",80.57984,964.71533
"3655",80.45777,964.7285
"3656",80.4358,964.7417
"3657",80.49195,964.7549
"3658",80.59449,964.76807
"3659",80.71656,964.78125
"3660",80.82399,964.79443
"3661",80.885025,964.8076
"3662",80.885025,964.8208
"3663",80.81178,964.834
"3664",80.67994,964.84717
"3665",80.48951,964.86035
"3666",80.257576,964.87354
"3667",79.9939,964.8867
"3668",79.71557,964.8999
"3669",79.429924,964.9131
"3670",79.15648,964.9263
"3671",78.89769,964.93945
"3672",78.66331,964.95264
"3673",78.45823,964.9658
"3674",78.28001,964.979
"3675",78.12375,964.9922
"3676",77.98947,965.0054
"3677",77.87717,965.01855
"3678",77.78195,965.03174
"3679",77.70382,965.0449
"3680",77.6379,965.0581
"3681",77.58663,965.0713
"3682",77.54757,965.0845
"3683",77.51583,965.09766
"3684",77.49142,965.11084
"3685",77.48409,965.124
"3686",77.51095,965.1372
"3687",77.608604,965.1504
"3688",77.84543,965.1636
"3689",78.294655,965.17676
"3690",79.00023,965.18994
"3691",79.954834,965.2031
"3692",81.092545,965.2163
"3693",82.30106,965.2295
"3694",83.441216,965.2427
"3695",84.37629,965.25586
"3696",85.02327,965.26904
"3697",85.35531,965.2822
"3698",85.39193,965.2954
"3699",85.18196,965.3086
"3700",84.8011,965.3218
"3701",84.332344,965.33496
"3702",83.83185,965.34814
"3703",83.33379,965.3613
"3704",82.85527,965.3745
"3705",82.39384,965.3877
"3706",81.94949,965.4009
"3707",81.51736,965.41406
"3708",81.11452,965.42725
"3709",80.762955,965.4404
"3710",80.482185,965.4536
"3711",80.289314,965.4668
"3712",80.18677,965.48
"3713",80.164795,965.49316
"3714",80.19653,965.50635
"3715",80.25269,965.51953
"3716",80.30152,965.5327
"3717",80.31617,965.5459
"3718",80.27711,965.5591
"3719",80.177,965.57227
"3720",80.008545,965.58545
"3721",79.78638,965.59863
"3722",79.520256,965.6118
"3723",79.22972,965.625
"3724",78.92943,965.6382
"3725",78.63645,965.65137
"3726",78.36057,965.66455
"3727",78.11154,965.67773
"3728",77.88693,965.6909
"3729",77.68917,965.7041
"3730",77.52071,965.7173
"3731",77.383995,965.73047
"3732",77.27169,965.74365
"3733",77.18135,965.75684
"3734",77.10811,965.77
"3735",77.049515,965.7832
"3736",77.00313,965.7964
"3737",76.964066,965.8096
"3738",76.94209,965.82275
"3739",76.93233,965.83594
"3740",76.93233,965.8491
"3741",76.93965,965.8623
"3742",76.95918,965.8755
"3743",77.00557,965.8887
"3744",77.117874,965.90186
"3745",77.366905,965.91504
"3746",77.8259,965.9282
"3747",78.54368,965.9414
"3748",79.5227,965.9546
"3749",80.70435,965.9678
"3750",81.96658,965.98096
"3751",83.16289,965.99414
"3752",84.16144,966.0073
"3753",84.86702,966.0205
"3754",85.25521,966.0337
"3755",85.33578,966.0469
"3756",85.16243,966.06006
"3757",84.80354,966.07324
"3758",84.34455,966.0864
"3759",83.844055,966.0996
"3760",83.346,966.1128
"3761",82.862595,966.126
"3762",82.39384,966.13916
"3763",81.92752,966.15234
"3764",81.46609,966.1655
"3765",81.02907,966.1787
"3766",80.62867,966.1919
"3767",80.30152,966.2051
"3768",80.0647,966.21826
"3769",79.92554,966.23145
"3770",79.869385,966.2446
"3771",79.87671,966.2578
"3772",79.923096,966.271
"3773",79.96948,966.2842
"3774",79.98413,966.29736
"3775",79.94263,966.31055
"3776",79.84009,966.3237
"3777",79.674065,966.3369
"3778",79.45434,966.3501
"3779",79.19554,966.3633
"3780",78.91478,966.37646
"3781",78.6218,966.38965
"3782",78.33372,966.40283
"3783",78.05295,966.416
"3784",77.789276,966.4292
"3785",77.55001,966.4424
"3786",77.33517,966.45557
"3787",77.15694,966.46875
"3788",77.015335,966.48193
"3789",76.912796,966.4951
"3790",76.84444,966.5083
"3791",76.807816,966.5215
"3792",76.78584,966.53467
"3793",76.78584,966.54785
"3794",76.79805,966.56104
"3795",76.81514,966.5742
"3796",76.82979,966.5874
"3797",76.841995,966.6006
"3798",76.841995,966.6138
"3799",76.83223,966.62695
"3800",76.807816,966.64014
"3801",76.77852,966.6533
"3802",76.74677,966.6665
"3803",76.732124,966.6797
"3804",76.76631,966.6929
"3805",76.91768,966.70605
"3806",77.27169,966.71924
"3807",77.89914,966.7324
"3808",78.82445,966.7456
"3809",80.008545,966.7588
"3810",81.34646,966.772
"3811",82.684364,966.78516
"3812",83.87579,966.79834
"3813",84.79866,966.8115
"3814",85.39681,966.8247
"3815",85.660484,966.8379
"3816",85.626305,966.8511
"3817",85.36263,966.86426
"3818",84.95491,966.87744
"3819",84.471504,966.8906
"3820",83.97101,966.9038
"3821",83.475395,966.917
"3822",82.99199,966.9302
"3823",82.50614,966.94336
"3824",82.02762,966.95654
"3825",81.5613,966.9697
"3826",81.129166,966.9829
"3827",80.75807,966.9961
"3828",80.465096,967.0093
"3829",80.2649,967.02246
"3830",80.15747,967.03564
"3831",80.128174,967.0488
"3832",80.15015,967.062
"3833",80.19653,967.0752
"3834",80.23071,967.0884
"3835",80.218506,967.10156
"3836",80.14526,967.11475
"3837",80.00366,967.1279
"3838",79.801025,967.1411
"3839",79.54955,967.1543
"3840",79.26147,967.1675
"3841",78.958725,967.18066
"3842",78.6511,967.19385
"3843",78.35325,967.20703
"3844",78.07492,967.2202
"3845",77.823456,967.2334
"3846",77.5964,967.2466
"3847",77.39864,967.25977
"3848",77.23018,967.27295
"3849",77.09102,967.28613
"3850",76.9836,967.2993
"3851",76.90303,967.3125
"3852",76.8542,967.3257
"3853",76.82979,967.33887
"3854",76.82979,967.35205
"3855",76.84444,967.36523
"3856",76.87129,967.3784
"3857",76.90059,967.3916
"3858",76.925,967.4048
"3859",76.94209,967.41797
"3860",76.946976,967.43115
"3861",76.946976,967.44434
"3862",76.946976,967.4575
"3863",76.95918,967.4707
"3864",76.99336,967.4839
"3865",77.049515,967.4971
"3866",77.13985,967.51025
"3867",77.31808,967.52344
"3868",77.64767,967.5366
"3869",78.2092,967.5498
"3870",79.063705,967.563
"3871",80.20386,967.5762
"3872",81.55154,967.58936
"3873",82.96513,967.60254
"3874",84.28596,967.6157
"3875",85.365074,967.6289
"3876",86.117035,967.6421
"3877",86.51499,967.6553
"3878",86.58091,967.66846
"3879",86.37339,967.68164
"3880",85.98276,967.6948
"3881",85.48226,967.708
"3882",84.94026,967.7212
"3883",84.39094,967.7344
"3884",83.844055,967.74756
"3885",83.302055,967.76074
"3886",82.76738,967.7739
"3887",82.24002,967.7871
"3888",81.74197,967.8003
"3889",81.304955,967.8135
"3890",80.94606,967.82666
"3891",80.68726,967.83984
"3892",80.533455,967.853
"3893",80.47242,967.8662
"3894",80.479744,967.8794
"3895",80.52125,967.8926
"3896",80.55543,967.90576
"3897",80.55543,967.91895
"3898",80.49683,967.9321
"3899",80.36988,967.9453
"3900",80.177,967.9585
"3901",79.93286,967.9717
"3902",79.64965,967.98486
"3903",79.33959,967.99805
"3904",79.02464,968.0112
"3905",78.709694,968.0244
"3906",78.41184,968.0376
"3907",78.13107,968.0508
"3908",77.87961,968.06396
"3909",77.659874,968.07715
"3910",77.47677,968.09033
"3911",77.3254,968.1035
"3912",77.205765,968.1167
"3913",77.11543,968.1299
"3914",77.0544,968.14307
"3915",77.02266,968.15625
"3916",77.01778,968.16943
"3917",77.03487,968.1826
"3918",77.07149,968.1958
"3919",77.11543,968.209
"3920",77.15694,968.22217
"3921",77.19356,968.23535
"3922",77.21553,968.24854
"3923",77.21797,968.2617
"3924",77.20332,968.2749
"3925",77.16914,968.2881
"3926",77.12276,968.3013
"3927",77.07149,968.31445
"3928",77.01778,968.32764
"3929",76.981155,968.3408
"3930",76.98848,968.354
"3931",77.10811,968.3672
"3932",77.418175,968.3804
"3933",77.994354,968.39355
"3934",78.87816,968.40674
"3935",80.045166,968.4199
"3936",81.39529,968.4331
"3937",82.78447,968.4463
"3938",84.051575,968.4595
"3939",85.05257,968.47266
"3940",85.714195,968.48584
"3941",86.01938,968.499
"3942",85.994965,968.5122
"3943",85.711754,968.5254
"3944",85.25765,968.5386
"3945",84.70832,968.55176
"3946",84.119934,968.56494
"3947",83.53155,968.5781
"3948",82.96025,968.5913
"3949",82.406044,968.6045
"3950",81.87625,968.6177
"3951",81.38796,968.63086
"3952",80.96071,968.64404
"3953",80.621346,968.6572
"3954",80.38941,968.6704
"3955",80.272224,968.6836
"3956",80.25269,968.6968
"3957",80.31129,968.70996
"3958",80.411385,968.72314
"3959",80.516365,968.7363
"3960",80.58961,968.7495
"3961",80.60914,968.7627
"3962",80.55543,968.7759
"3963",80.428474,968.78906
"3964",80.235596,968.80225
"3965",79.991455,968.8154
"3966",79.710686,968.8286
"3967",79.41039,968.8418
"3968",79.10033,968.855
"3969",78.78783,968.86816
"3970",78.48997,968.88135
"3971",78.21408,968.89453
"3972",77.9675,968.9077
"3973",77.75754,968.9209
"3974",77.58907,968.9341
"3975",77.45968,968.94727
"3976",77.36202,968.96045
"3977",77.30343,968.97363
"3978",77.27413,968.9868
"3979",77.26925,969
"3980",77.279015,969.0132
"3981",77.30099,969.02637
"3982",77.32296,969.03955
"3983",77.332726,969.05273
"3984",77.33517,969.0659
"3985",77.332726,969.0791
"3986",77.32784,969.0923
"3987",77.31808,969.10547
"3988",77.315636,969.11865
"3989",77.32052,969.13184
"3990",77.35226,969.145
"3991",77.44747,969.1582
"3992",77.67696,969.1714
"3993",78.11398,969.1846
"3994",78.81468,969.19775
"3995",79.79126,969.21094
"3996",80.99245,969.2241
"3997",82.30106,969.2373
"3998",83.56573,969.2505
"3999",84.644844,969.2637
"4000",85.42611,969.27686
"4001",85.87045,969.29004
"4002",85.980316,969.3032
"4003",85.80698,969.3164
"4004",85.42123,969.3296
"4005",84.89632,969.3428
"4006",84.298164,969.35596
"4007",83.66827,969.36914
"4008",83.03105,969.3823
"4009",82.406044,969.3955
"4010",81.80789,969.4087
"4011",81.26101,969.4219
"4012",80.78981,969.43506
"4013",80.42603,969.44824
"4014",80.184326,969.4614
"4015",80.07202,969.4746
"4016",80.07446,969.4878
"4017",80.164795,969.501
"4018",80.29908,969.51416
"4019",80.43824,969.52734
"4020",80.550545,969.5405
"4021",80.601814,969.5537
"4022",80.57252,969.5669
"4023",80.465096,969.5801
"4024",80.28443,969.59326
"4025",80.042725,969.60645
"4026",79.75464,969.6196
"4027",79.44457,969.6328
"4028",79.11986,969.646
"4029",78.79759,969.6592
"4030",78.485085,969.67236
"4031",78.19455,969.68555
"4032",77.92844,969.6987
"4033",77.69405,969.7119
"4034",77.4963,969.7251
"4035",77.33517,969.7383
"4036",77.21309,969.75146
"4037",77.1252,969.76465
"4038",77.066605,969.77783
"4039",77.03731,969.791
"4040",77.02998,969.8042
"4041",77.032425,969.8174
"4042",77.03975,969.83057
"4043",77.04463,969.84375
"4044",77.04219,969.85693
"4045",77.032425,969.8701
"4046",77.01778,969.8833
"4047",77.00069,969.8965
"4048",76.99336,969.90967
"4049",77.015335,969.92285
"4050",77.0959,969.93604
"4051",77.30587,969.9492
"4052",77.730675,969.9624
"4053",78.433815,969.9756
"4054",79.44213,969.9888
"4055",80.70435,970.00195
"4056",82.108185,970.01514
"4057",83.49493,970.0283
"4058",84.70588,970.0415
"4059",85.61654,970.0547
"4060",86.16586,970.0679
"4061",86.35142,970.08105
"4062",86.21713,970.09424
"4063",85.83383,970.1074
"4064",85.29183,970.1206
"4065",84.664375,970.1338
"4066",84.00275,970.147
"4067",83.346,970.16016
"4068",82.70878,970.17334
"4069",82.10086,970.1865
"4070",81.53689,970.1997
"4071",81.03395,970.2129
"4072",80.604256,970.2261
"4073",80.27711,970.23926
"4074",80.05493,970.25244
"4075",79.94507,970.2656
"4076",79.940186,970.2788
"4077",80.01587,970.292
"4078",80.1355,970.3052
"4079",80.255135,970.31836
"4080",80.34058,970.33154
"4081",80.360115,970.3447
"4082",80.30396,970.3579
"4083",80.164795,970.3711
"4084",79.95972,970.3843
"4085",79.693596,970.39746
"4086",79.38598,970.41064
"4087",79.05394,970.4238
"4088",78.71702,970.437
"4089",78.38743,970.4502
"4090",78.07248,970.4634
"4091",77.786835,970.47656
"4092",77.53048,970.48975
"4093",77.31075,970.5029
"4094",77.12764,970.5161
"4095",76.98604,970.5293
"4096",76.8835,970.5425
"4097",76.81758,970.55566
"4098",76.788284,970.56885
"4099",76.78584,970.58203
"4100",76.805374,970.5952
"4101",76.83711,970.6084
"4102",76.86885,970.6216
"4103",76.89082,970.63477
"4104",76.90791,970.64795
"4105",76.912796,970.66113
"4106",76.912796,970.6743
"4107",76.90547,970.6875
"4108",76.90547,970.7007
"4109",76.91768,970.71387
"4110",76.98848,970.72705
"4111",77.18379,970.74023
"4112",77.60372,970.7534
"4113",78.32639,970.7666
"4114",79.38598,970.7798
"4115",80.73853,970.79297
"4116",82.27177,970.80615
"4117",83.807434,970.81934
"4118",85.169754,970.8325
"4119",86.222015,970.8457
"4120",86.88365,970.8589
"4121",87.14488,970.8721
"4122",87.047226,970.88525
"4123",86.66392,970.89844
"4124",86.0853,970.9116
"4125",85.40902,970.9248
"4126",84.70588,970.938
"4127",84.01495,970.9512
"4128",83.35088,970.96436
"4129",82.720985,970.97754
"4130",82.12039,970.9907
"4131",81.55886,971.0039
"4132",81.05348,971.0171
"4133",80.62867,971.0303
"4134",80.31373,971.04346
"4135",80.113525,971.05664
"4136",80.02319,971.0698
"4137",80.02075,971.083
"4138",80.08179,971.0962
"4139",80.16235,971.1094
"4140",80.22583,971.12256
"4141",80.23804,971.13574
"4142",80.17944,971.1489
"4143",80.04028,971.1621
"4144",79.823,971.1753
"4145",79.537346,971.1885
"4146",79.20531,971.20166
"4147",78.84642,971.21484
"4148",78.47288,971.228
"4149",78.10422,971.2412
"4150",77.752655,971.2544
"4151",77.42794,971.2676
"4152",77.134964,971.28076
"4153",76.87373,971.29395
"4154",76.65644,971.3071
"4155",76.48554,971.3203
"4156",76.35859,971.3335
"4157",76.27558,971.3467
"4158",76.23407,971.35986
"4159",76.226746,971.37305
"4160",76.243835,971.3862
"4161",76.280464,971.3994
"4162",76.33173,971.4126
"4163",76.385445,971.4258
"4164",76.43183,971.43896
"4165",76.470894,971.45215
"4166",76.49775,971.46533
"4167",76.5124,971.4785
"4168",76.51728,971.4917
"4169",76.51972,971.5049
"4170",76.52705,971.51807
"4171",76.578316,971.53125
"4172",76.73945,971.54443
"4173",77.10567,971.5576
"4174",77.77951,971.5708
"4175",78.81712,971.584
"4176",80.2063,971.59717
"4177",81.846954,971.61035
"4178",83.57305,971.62354
"4179",85.17464,971.6367
"4180",86.485695,971.6499
"4181",87.38903,971.6631
"4182",87.850464,971.6763
"4183",87.90173,971.68945
"4184",87.620964,971.70264
"4185",87.10582,971.7158
"4186",86.45396,971.729
"4187",85.74349,971.7422
"4188",85.033035,971.7554
"4189",84.34455,971.76855
"4190",83.682915,971.78174
"4191",83.0457,971.7949
"4192",82.43046,971.8081
"4193",81.846954,971.8213
"4194",81.3196,971.8345
"4195",80.88258,971.84766
"4196",80.56275,971.86084
"4197",80.36744,971.874
"4198",80.28687,971.8872
"4199",80.2942,971.9004
"4200",80.35523,971.9136
"4201",80.42359,971.92676
"4202",80.45777,971.93994
"4203",80.43336,971.9531
"4204",80.33082,971.9663
"4205",80.14526,971.9795
"4206",79.88159,971.9927
"4207",79.554436,972.00586
"4208",79.185776,972.01904
"4209",78.78783,972.0322
"4210",78.380104,972.0454
"4211",77.98459,972.0586
"4212",77.608604,972.0718
"4213",77.25948,972.08496
"4214",76.946976,972.09814
"4215",76.67109,972.1113
"4216",76.436714,972.1245
"4217",76.243835,972.1377
"4218",76.09491,972.1509
"4219",75.99237,972.16406
"4220",75.93622,972.17725
"4221",75.92157,972.1904
"4222",75.94354,972.2036
"4223",75.99237,972.2168
"4224",76.05585,972.23
"4225",76.121765,972.24316
"4226",76.175476,972.25635
"4227",76.207214,972.26953
"4228",76.21942,972.2827
"4229",76.207214,972.2959
"4230",76.190125,972.3091
"4231",76.173035,972.32227
"4232",76.15839,972.33545
"4233",76.17059,972.34863
"4234",76.263374,972.3618
"4235",76.52216,972.375
"4236",77.04707,972.3882
"4237",77.93576,972.40137
"4238",79.21019,972.41455
"4239",80.82155,972.42773
"4240",82.61356,972.4409
"4241",84.4007,972.4541
"4242",85.97543,972.4673
"4243",87.19127,972.48047
"4244",87.957886,972.49365
"4245",88.26795,972.50684
"4246",88.17273,972.52
"4247",87.75769,972.5332
"4248",87.13023,972.5464
"4249",86.39048,972.5596
"4250",85.61166,972.57275
"4251",84.842606,972.58594
"4252",84.105286,972.5991
"4253",83.39971,972.6123
"4254",82.718544,972.6255
"4255",82.07645,972.6387
"4256",81.495384,972.65186
"4257",81.00221,972.66504
"4258",80.621346,972.6782
"4259",80.37232,972.6914
"4260",80.2478,972.7046
"4261",80.22583,972.7178
"4262",80.274666,972.73096
"4263",80.360115,972.74414
"4264",80.428474,972.7573
"4265",80.448006,972.7705
"4266",80.39918,972.7837
"4267",80.26246,972.7969
"4268",80.03784,972.81006
"4269",79.74731,972.82324
"4270",79.40307,972.8364
"4271",79.02464,972.8496
"4272",78.626686,972.8628
"4273",78.23361,972.876
"4274",77.85275,972.88916
"4275",77.50118,972.90234
"4276",77.18135,972.9155
"4277",76.90303,972.9287
"4278",76.66865,972.9419
"4279",76.48066,972.9551
"4280",76.33906,972.96826
"4281",76.243835,972.98145
"4282",76.18524,972.9946
"4283",76.15839,973.0078
"4284",76.1535,973.021
"4285",76.16815,973.0342
"4286",76.192566,973.04736
"4287",76.224304,973.06055
"4288",76.25361,973.0737
"4289",76.27558,973.0869
"4290",76.28779,973.1001
"4291",76.29511,973.1133
"4292",76.299995,973.12646
"4293",76.314644,973.13965
"4294",76.36103,973.15283
"4295",76.490425,973.166
"4296",76.78584,973.1792
"4297",77.347374,973.1924
"4298",78.25559,973.20557
"4299",79.53002,973.21875
"4300",81.10231,973.23193
"4301",82.82353,973.2451
"4302",84.49592,973.2583
"4303",85.92905,973.2715
"4304",86.98131,973.28467
"4305",87.586784,973.29785
"4306",87.74792,973.31104
"4307",87.52331,973.3242
"4308",87.00084,973.3374
"4309",86.28062,973.3506
"4310",85.46029,973.3638
"4311",84.610664,973.37695
"4312",83.77081,973.39014
"4313",82.967575,973.4033
"4314",82.210724,973.4165
"4315",81.51736,973.4297
"4316",80.91188,973.4429
"4317",80.41871,973.45605
"4318",80.0647,973.46924
"4319",79.85718,973.4824
"4320",79.7937,973.4956
"4321",79.84741,973.5088
"4322",79.98413,973.522
"4323",80.15747,973.53516
"4324",80.323494,973.54834
"4325",80.44068,973.5615
"4326",80.48707,973.5747
"4327",80.44068,973.5879
"4328",80.30152,973.6011
"4329",80.076904,973.61426
"4330",79.781494,973.62744
"4331",79.429924,973.6406
"4332",79.046616,973.6538
"4333",78.65354,973.667
"4334",78.27512,973.6802
"4335",77.91623,973.69336
"4336",77.591515,973.70654
"4337",77.31075,973.7197
"4338",77.07637,973.7329
"4339",76.88106,973.7461
"4340",76.7248,973.7593
"4341",76.60273,973.77246
"4342",76.50507,973.78564
"4343",76.43183,973.7988
"4344",76.37812,973.812
"4345",76.34882,973.8252
"4346",76.34394,973.8384
"4347",76.35615,973.85156
"4348",76.383,973.86475
"4349",76.42695,973.8779
"4350",76.4831,973.8911
"4351",76.558784,973.9043
"4352",76.67109,973.9175
"4353",76.86397,973.93066
"4354",77.21553,973.94385
"4355",77.81125,973.95703
"4356",78.71702,973.9702
"4357",79.94751,973.9834
"4358",81.43679,973.9966
"4359",83.038376,974.00977
"4360",84.5716,974.02295
"4361",85.855804,974.03613
"4362",86.77135,974.0493
"4363",87.259636,974.0625
"4364",87.32311,974.0757
"4365",87.02525,974.08887
"4366",86.44907,974.10205
"4367",85.68734,974.11523
"4368",84.81819,974.1284
"4369",83.912415,974.1416
"4370",83.01152,974.1548
"4371",82.14969,974.16797
"4372",81.356224,974.18115
"4373",80.66041,974.19434
"4374",80.10132,974.2075
"4375",79.70092,974.2207
"4376",79.47387,974.2339
"4377",79.42504,974.2471
"4378",79.52758,974.26025
"4379",79.7351,974.27344
"4380",79.99878,974.2866
"4381",80.26002,974.2998
"4382",80.47486,974.313
"4383",80.6067,974.3262
"4384",80.6482,974.33936
"4385",80.587166,974.35254
"4386",80.4358,974.3657
"4387",80.20386,974.3789
"4388",79.91089,974.3921
"4389",79.57397,974.4053
"4390",79.217514,974.41846
"4391",78.86107,974.43164
"4392",78.519264,974.4448
"4393",78.20187,974.458
"4394",77.91623,974.4712
"4395",77.65743,974.4844
"4396",77.42794,974.49756
"4397",77.225296,974.51074
"4398",77.05684,974.5239
"4399",76.91768,974.5371
"4400",76.81026,974.5503
"4401",76.734566,974.5635
"4402",76.68574,974.57666
"4403",76.66132,974.58984
"4404",76.663765,974.603
"4405",76.68818,974.6162
"4406",76.734566,974.6294
"4407",76.822464,974.6426
"4408",76.98604,974.65576
"4409",77.30099,974.66895
"4410",77.857635,974.6821
"4411",78.73411,974.6953
"4412",79.957275,974.7085
"4413",81.47341,974.7217
"4414",83.13847,974.73486
"4415",84.76448,974.74805
"4416",86.15854,974.7612
"4417",87.17906,974.7744
"4418",87.75037,974.7876
"4419",87.87488,974.8008
"4420",87.6112,974.81396
"4421",87.04967,974.82715
"4422",86.28306,974.84033
"4423",85.41146,974.8535
"4424",84.49592,974.8667
"4425",83.57549,974.8799
"4426",82.684364,974.89307
"4427",81.85184,974.90625
"4428",81.10231,974.91943
"4429",80.47242,974.9326
"4430",79.99634,974.9458
"4431",79.693596,974.959
"4432",79.569084,974.97217
"4433",79.60815,974.98535
"4434",79.76929,974.99854
"4435",80.00366,975.0117
"4436",80.26002,975.0249
"4437",80.48463,975.0381
"4438",80.635994,975.0513
"4439",80.69215,975.06445
"4440",80.64088,975.07764
"4441",80.48463,975.0908
"4442",80.23071,975.104
"4443",79.906006,975.1172
"4444",79.534904,975.1304
"4445",79.14183,975.14355
"4446",78.74876,975.15674
"4447",78.37034,975.1699
"4448",78.01877,975.1831
"4449",77.696495,975.1963
"4450",77.41329,975.2095
"4451",77.16426,975.22266
"4452",76.9543,975.23584
"4453",76.77608,975.249
"4454",76.627144,975.2622
"4455",76.50507,975.2754
"4456",76.4123,975.2886
"4457",76.34638,975.30176
"4458",76.30732,975.31494
"4459",76.29511,975.3281
"4460",76.3122,975.3413
"4461",76.368355,975.3545
"4462",76.490425,975.3677
"4463",76.75166,975.38086
"4464",77.239944,975.39404
"4465",78.0383,975.4072
"4466",79.18822,975.4204
"4467",80.65064,975.4336
"4468",82.30839,975.4468
"4469",83.980774,975.45996
"4470",85.46761,975.47314
"4471",86.607765,975.4863
"4472",87.308464,975.4995
"4473",87.552605,975.5127
"4474",87.37682,975.5259
"4475",86.869,975.53906
"4476",86.14145,975.55225
"4477",85.28939,975.5654
"4478",84.39826,975.5786
"4479",83.51446,975.5918
"4480",82.65751,975.605
"4481",81.84207,975.61816
"4482",81.08278,975.63135
"4483",80.40162,975.64453
"4484",79.83276,975.6577
"4485",79.41039,975.6709
"4486",79.151596,975.6841
"4487",79.04906,975.69727
"4488",79.080795,975.71045
"4489",79.217514,975.72363
"4490",79.40551,975.7368
"4491",79.5935,975.75
"4492",79.73998,975.7632
"4493",79.80591,975.77637
"4494",79.77173,975.78955
"4495",79.63744,975.80273
"4496",79.41039,975.8159
"4497",79.11009,975.8291
"4498",78.76097,975.8423
"4499",78.382545,975.85547
"4500",77.994354,975.86865
"4501",77.62325,975.88184
"4502",77.27413,975.895
"4503",76.95674,975.9082
"4504",76.67109,975.9214
"4505",76.41718,975.9346
"4506",76.190125,975.94775
"4507",75.99725,975.96094
"4508",75.83368,975.9741
"4509",75.701836,975.9873
"4510",75.60174,976.0005
"4511",75.53582,976.0137
"4512",75.4992,976.02686
"4513",75.48455,976.04004
"4514",75.49676,976.0532
"4515",75.5407,976.0664
"4516",75.63592,976.0796
"4517",75.83856,976.0928
"4518",76.23407,976.10596
"4519",76.92256,976.11914
"4520",77.9675,976.1323
"4521",79.37133,976.1455
"4522",81.04616,976.1587
"4523",82.82109,976.1719
"4524",84.488594,976.18506
"4525",85.855804,976.19824
"4526",86.79088,976.2114
"4527",87.24742,976.2246
"4528",87.25475,976.2378
"4529",86.888535,976.251
"4530",86.258644,976.26416
"4531",85.472496,976.27734
"4532",84.62531,976.2905
"4533",83.77814,976.3037
"4534",82.95781,976.3169
"4535",82.178986,976.3301
"4536",81.446556,976.34326
"4537",80.76784,976.35645
"4538",80.15503,976.3696
"4539",79.64965,976.3828
"4540",79.28344,976.396
"4541",79.06859,976.4092
"4542",79.00511,976.42236
"4543",79.06859,976.43555
"4544",79.219955,976.4487
"4545",79.412834,976.4619
"4546",79.59106,976.4751
"4547",79.708244,976.4883
"4548",79.73754,976.50146
"4549",79.66674,976.51465
"4550",79.49584,976.52783
"4551",79.24437,976.541
"4552",78.922104,976.5542
"4553",78.55833,976.5674
"4554",78.17258,976.58057
"4555",77.78439,976.59375
"4556",77.41085,976.60693
"4557",77.066605,976.6201
"4558",76.75166,976.6333
"4559",76.48066,976.6465
"4560",76.24872,976.65967
"4561",76.06073,976.67285
"4562",75.911804,976.68604
"4563",75.80682,976.6992
"4564",75.72869,976.7124
"4565",75.67742,976.7256
"4566",75.64324,976.7388
"4567",75.63348,976.75195
"4568",75.6408,976.76514
"4569",75.66277,976.7783
"4570",75.69695,976.7915
"4571",75.74578,976.8047
"4572",75.82147,976.8179
"4573",75.95331,976.83105
