"","ppg","time"
"1",77.85031,24.562977
"2",77.77219,24.576311
"3",77.69161,24.589643
"4",77.61349,24.602976
"5",77.53048,24.61631
"6",77.44991,24.629644
"7",77.36446,24.642977
"8",77.281456,24.65631
"9",77.196,24.669643
"10",77.11055,24.682978
"11",77.02266,24.69631
"12",76.93233,24.709642
"13",76.83711,24.722977
"14",76.734566,24.736311
"15",76.61494,24.749643
"16",76.48554,24.762976
"17",76.34638,24.77631
"18",76.20233,24.789644
"19",76.06073,24.802977
"20",75.95575,24.816309
"21",75.95575,24.829643
"22",76.19745,24.842978
"23",76.841995,24.85631
"24",77.99924,24.869642
"25",79.676506,24.882977
"26",81.72976,24.89631
"27",83.90509,24.909643
"28",85.889984,24.922976
"29",87.43786,24.93631
"30",88.4242,24.949644
"31",88.85878,24.962976
"32",88.83681,24.976309
"33",88.50477,24.989643
"34",87.99451,25.002977
"35",87.42077,25.01631
"36",86.84459,25.029642
"37",86.30015,25.042976
"38",85.78012,25.05631
"39",85.26742,25.069643
"40",84.7425,25.082975
"41",84.2005,25.09631
"42",83.665825,25.109644
"43",83.17265,25.122976
"44",82.76982,25.136309
"45",82.496376,25.149643
"46",82.354774,25.162977
"47",82.31083,25.17631
"48",82.31815,25.189642
"49",82.31083,25.202976
"50",82.24246,25.21631
"51",82.07889,25.229643
"52",81.82254,25.242975
"53",81.48806,25.25631
"54",81.094986,25.269644
"55",80.66773,25.282976
"56",80.22827,25.296309
"57",79.7937,25.309643
"58",79.378654,25.322977
"59",78.99046,25.33631
"60",78.63401,25.349642
"61",78.3093,25.362976
"62",78.02121,25.37631
"63",77.76486,25.389643
"64",77.5378,25.402975
"65",77.33517,25.41631
"66",77.15694,25.429644
"67",76.99336,25.442976
"68",76.84688,25.456308
"69",76.72236,25.469643
"70",76.612495,25.482977
"71",76.51728,25.49631
"72",76.43427,25.509642
"73",76.35859,25.522976
"74",76.29511,25.53631
"75",76.23407,25.549643
"76",76.18036,25.562975
"77",76.12909,25.57631
"78",76.0827,25.589643
"79",76.03143,25.602976
"80",75.98016,25.616308
"81",75.928894,25.629642
"82",75.880066,25.642977
"83",75.83368,25.65631
"84",75.789734,25.669641
"85",75.74334,25.682976
"86",75.701836,25.69631
"87",75.65545,25.709642
"88",75.60906,25.722975
"89",75.57488,25.73631
"90",75.58953,25.749643
"91",75.75311,25.762976
"92",76.21698,25.776308
"93",77.14717,25.789642
"94",78.61692,25.802977
"95",80.59205,25.816309
"96",82.882126,25.829641
"97",85.19661,25.842976
"98",87.22789,25.85631
"99",88.7538,25.869642
"100",89.688866,25.882975
"101",90.06485,25.896309
"102",89.99649,25.909643
"103",89.63027,25.922976
"104",89.10048,25.936308
"105",88.51209,25.949642
"106",87.92859,25.962976
"107",87.37194,25.976309
"108",86.83482,25.989641
"109",86.29282,26.002975
"110",85.73617,26.01631
"111",85.16731,26.029642
"112",84.630196,26.042974
"113",84.1712,26.056309
"114",83.83185,26.069643
"115",83.62188,26.082975
"116",83.51934,26.096308
"117",83.475395,26.109642
"118",83.43145,26.122976
"119",83.33135,26.136309
"120",83.1458,26.149641
"121",82.862595,26.162975
"122",82.48905,26.17631
"123",82.04471,26.189642
"124",81.55398,26.202974
"125",81.03883,26.216309
"126",80.52369,26.229643
"127",80.01831,26.242975
"128",79.534904,26.256308
"129",79.08324,26.269642
"130",78.67063,26.282976
"131",78.2971,26.296309
"132",77.9675,26.30964
"133",77.679405,26.322975
"134",77.4255,26.33631
"135",77.20332,26.349642
"136",77.00801,26.362974
"137",76.83467,26.376308
"138",76.68574,26.389643
"139",76.55634,26.402975
"140",76.44648,26.416307
"141",76.35859,26.429642
"142",76.282906,26.442976
"143",76.21942,26.456308
"144",76.15839,26.46964
"145",76.104675,26.482975
"146",76.05585,26.49631
"147",76.00946,26.509642
"148",75.96307,26.522974
"149",75.92401,26.536308
"150",75.88495,26.549643
"151",75.843445,26.562975
"152",75.80438,26.576307
"153",75.76044,26.589642
"154",75.7116,26.602976
"155",75.65301,26.616308
"156",75.58953,26.62964
"157",75.52117,26.642975
"158",75.44549,26.65631
"159",75.38201,26.669641
"160",75.372246,26.682974
"161",75.511406,26.696308
"162",75.94354,26.709642
"163",76.83711,26.722975
"164",78.277565,26.736307
"165",80.24048,26.749641
"166",82.55985,26.762976
"167",84.964676,26.776308
"168",87.14244,26.78964
"169",88.86366,26.802975
"170",90.01114,26.816309
"171",90.60197,26.829641
"172",90.72892,26.842974
"173",90.52628,26.856308
"174",90.13077,26.869642
"175",89.654686,26.882975
"176",89.15419,26.896307
"177",88.65125,26.909641
"178",88.13855,26.922976
"179",87.59411,26.936308
"180",86.9984,26.94964
"181",86.363625,26.962975
"182",85.73373,26.976309
"183",85.15755,26.989641
"184",84.68879,27.002974
"185",84.34699,27.016308
"186",84.11017,27.029642
"187",83.929504,27.042974
"188",83.74883,27.056307
"189",83.51934,27.069641
"190",83.211716,27.082975
"191",82.82353,27.096308
"192",82.354774,27.10964
"193",81.82742,27.122974
"194",81.253685,27.136309
"195",80.65064,27.149641
"196",80.04028,27.162973
"197",79.43969,27.176308
"198",78.86107,27.189642
"199",78.31663,27.202974
"200",77.80881,27.216307
"201",77.34249,27.229641
"202",76.92012,27.242975
"203",76.54902,27.256308
"204",76.22186,27.26964
"205",75.93866,27.282974
"206",75.69695,27.296309
"207",75.48943,27.30964
"208",75.31365,27.322973
"209",75.174484,27.336308
"210",75.071945,27.349642
"211",74.9987,27.362974
"212",74.949875,27.376307
"213",74.91814,27.38964
"214",74.88884,27.402975
"215",74.847336,27.416307
"216",74.79607,27.42964
"217",74.73502,27.442974
"218",74.65934,27.456308
"219",74.57389,27.46964
"220",74.495766,27.482973
"221",74.42252,27.496307
"222",74.36149,27.509642
"223",74.31022,27.522974
"224",74.27116,27.536306
"225",74.23941,27.54964
"226",74.215,27.562975
"227",74.19302,27.576307
"228",74.175934,27.58964
"229",74.16617,27.602974
"230",74.1564,27.616308
"231",74.14908,27.62964
"232",74.144196,27.642973
"233",74.14664,27.656307
"234",74.17349,27.669641
"235",74.29069,27.682974
"236",74.63981,27.696306
"237",75.38201,27.709639
"238",76.66865,27.722975
"239",78.555885,27.736307
"240",80.953384,27.74964
"241",83.6292,27.762976
"242",86.26597,27.776308
"243",88.551155,27.78964
"244",90.284584,27.802973
"245",91.388115,27.816305
"246",91.91547,27.829641
"247",91.981384,27.842974
"248",91.747,27.856306
"249",91.336845,27.869642
"250",90.85344,27.882975
"251",90.338295,27.896307
"252",89.80118,27.90964
"253",89.215225,27.922972
"254",88.55848,27.936308
"255",87.82361,27.94964
"256",87.04234,27.962973
"257",86.27329,27.976309
"258",85.58968,27.989641
"259",85.05257,28.002974
"260",84.67414,28.016306
"261",84.43,28.029638
"262",84.25666,28.042974
"263",84.07599,28.056307
"264",83.83185,28.06964
"265",83.48028,28.082975
"266",83.01152,28.096308
"267",82.44755,28.10964
"268",81.815216,28.122972
"269",81.146255,28.136305
"270",80.482185,28.149641
"271",79.84253,28.162973
"272",79.24681,28.176306
"273",78.70237,28.189642
"274",78.2092,28.202974
"275",77.76486,28.216307
"276",77.36935,28.22964
"277",77.02022,28.242971
"278",76.71015,28.256308
"279",76.4416,28.26964
"280",76.21454,28.282972
"281",76.01434,28.296309
"282",75.83856,28.30964
"283",75.67986,28.322973
"284",75.53582,28.336306
"285",75.403984,28.349638
"286",75.284355,28.362974
"287",75.174484,28.376307
"288",75.071945,28.389639
"289",74.96452,28.402975
"290",74.844894,28.416307
"291",74.71549,28.42964
"292",74.57877,28.442976
"293",74.43717,28.456308
"294",74.31022,28.46964
"295",74.195465,28.482977
"296",74.10513,28.496313
"297",74.03677,28.509645
"298",73.99039,28.522978
"299",73.96597,28.536314
"300",73.96353,28.54965
"301",73.985504,28.562983
"302",74.03189,28.576315
"303",74.09781,28.589651
"304",74.175934,28.602987
"305",74.25407,28.61632
"306",74.32731,28.629652
"307",74.3859,28.642988
"308",74.43961,28.656324
"309",74.49088,28.669657
"310",74.56168,28.68299
"311",74.70573,28.696325
"312",75.052414,28.709661
"313",75.77997,28.722994
"314",77.03487,28.736326
"315",78.890366,28.749662
"316",81.28542,28.762999
"317",84.01007,28.77633
"318",86.74937,28.789663
"319",89.18593,28.803
"320",91.07805,28.816336
"321",92.318306,28.829668
"322",92.91646,28.843
"323",92.97505,28.856337
"324",92.65522,28.869673
"325",92.11322,28.883005
"326",91.476006,28.896338
"327",90.81438,28.909674
"328",90.15762,28.92301
"329",89.48867,28.936342
"330",88.780655,28.949675
"331",88.02136,28.96301
"332",87.22545,28.976347
"333",86.44419,28.98968
"334",85.731285,29.003012
"335",85.14534,29.016348
"336",84.70344,29.029684
"337",84.39338,29.043016
"338",84.159,29.056349
"339",83.931946,29.069685
"340",83.65362,29.083021
"341",83.282524,29.096354
"342",82.804,29.109686
"343",82.22049,29.123022
"344",81.55886,29.136358
"345",80.848404,29.14969
"346",80.12085,29.163023
"347",79.398186,29.17636
"348",78.70725,29.189695
"349",78.07736,29.203028
"350",77.51339,29.21636
"351",77.02022,29.229696
"352",76.59785,29.243032
"353",76.23895,29.256365
"354",75.931335,29.269697
"355",75.67254,29.283033
"356",75.46014,29.29637
"357",75.27947,29.309702
"358",75.12077,29.323034
"359",74.98161,29.33637
"360",74.85222,29.349707
"361",74.73014,29.363039
"362",74.61295,29.376371
"363",74.50797,29.389708
"364",74.40299,29.403044
"365",74.30045,29.416376
"366",74.19791,29.429708
"367",74.10025,29.443045
"368",74.005035,29.45638
"369",73.91226,29.469713
"370",73.81949,29.483046
"371",73.724266,29.496382
"372",73.63149,29.509718
"373",73.5436,29.52305
"374",73.46792,29.536383
"375",73.40688,29.549719
"376",73.36294,29.563055
"377",73.34341,29.576387
"378",73.34829,29.58972
"379",73.38247,29.603056
"380",73.44839,29.616392
"381",73.53872,29.629725
"382",73.64126,29.643057
"383",73.75601,29.656393
"384",73.86832,29.66973
"385",73.970856,29.683062
"386",74.06363,29.696394
"387",74.13931,29.70973
"388",74.19302,29.723066
"389",74.232086,29.736399
"390",74.27604,29.749731
"391",74.37614,29.763067
"392",74.652016,29.776403
"393",75.27215,29.789736
"394",76.41474,29.803068
"395",78.184784,29.816404
"396",80.56519,29.82974
"397",83.38506,29.843073
"398",86.33433,29.856405
"399",89.07118,29.869741
"400",91.30999,29.883078
"401",92.89693,29.89641
"402",93.81003,29.909742
"403",94.13962,29.923079
"404",94.03708,29.936415
"405",93.663536,29.949747
"406",93.14839,29.96308
"407",92.58198,29.976416
"408",92.000916,29.989752
"409",91.39056,30.003084
"410",90.721596,30.016417
"411",89.96475,30.029753
"412",89.12001,30.043089
"413",88.23132,30.056421
"414",87.36462,30.069754
"415",86.598,30.08309
"416",85.980316,30.096426
"417",85.50912,30.109758
"418",85.152664,30.12309
"419",84.840164,30.136427
"420",84.5008,30.149763
"421",84.08331,30.163095
"422",83.57061,30.176428
"423",82.95781,30.189764
"424",82.262,30.2031
"425",81.50759,30.216433
"426",80.719,30.229765
"427",79.92554,30.243101
"428",79.15404,30.256437
"429",78.433815,30.26977
"430",77.78195,30.283102
"431",77.208206,30.296438
"432",76.70527,30.309774
"433",76.265816,30.323107
"434",75.88251,30.33644
"435",75.54803,30.349775
"436",75.26971,30.363111
"437",75.04997,30.376444
"438",74.88396,30.389776
"439",74.76677,30.403112
"440",74.683754,30.416449
"441",74.617836,30.429781
"442",74.5568,30.443113
"443",74.48356,30.45645
"444",74.40299,30.469786
"445",74.3151,30.483118
"446",74.21988,30.49645
"447",74.124664,30.509787
"448",74.03433,30.523123
"449",73.94156,30.536455
"450",73.85123,30.549788
"451",73.76822,30.563124
"452",73.687645,30.57646
"453",73.61196,30.589792
"454",73.5436,30.603125
"455",73.49233,30.61646
"456",73.460594,30.629797
"457",73.45327,30.64313
"458",73.4728,30.656462
"459",73.50942,30.669798
"460",73.55825,30.683134
"461",73.61196,30.696466
"462",73.670555,30.709799
"463",73.724266,30.723135
"464",73.777985,30.736471
"465",73.829254,30.749804
"466",73.86832,30.763136
"467",73.88785,30.776472
"468",73.89761,30.789808
"469",73.92203,30.80314
"470",74.02457,30.816473
"471",74.3444,30.82981
"472",75.052414,30.843145
"473",76.314644,30.856478
"474",78.21164,30.86981
"475",80.67994,30.883146
"476",83.51202,30.896482
"477",86.39048,30.909815
"478",88.98085,30.923147
"479",91.02922,30.936483
"480",92.41596,30.94982
"481",93.15083,30.963152
"482",93.351036,30.976484
"483",93.172806,30.98982
"484",92.772415,31.003157
"485",92.264595,31.016489
"486",91.71526,31.029821
"487",91.141525,31.043158
"488",90.52384,31.056494
"489",89.83292,31.069826
"490",89.05165,31.083158
"491",88.19714,31.096495
"492",87.31823,31.10983
"493",86.48325,31.123163
"494",85.76547,31.136496
"495",85.20393,31.149832
"496",84.79622,31.163168
"497",84.49348,31.1765
"498",84.23712,31.189833
"499",83.95148,31.203169
"500",83.59014,31.216505
"501",83.13115,31.229837
"502",82.5745,31.24317
"503",81.93729,31.256506
"504",81.24635,31.269842
"505",80.52857,31.283175
"506",79.818115,31.296507
"507",79.132065,31.309843
"508",78.48997,31.32318
"509",77.89914,31.336512
"510",77.37423,31.349844
"511",76.91524,31.36318
"512",76.51728,31.376516
"513",76.18036,31.389849
"514",75.90692,31.403181
"515",75.69451,31.416517
"516",75.5407,31.429853
"517",75.43816,31.443186
"518",75.37713,31.456518
"519",75.34051,31.469854
"520",75.30877,31.48319
"521",75.264824,31.496523
"522",75.20622,31.509855
"523",75.13786,31.523191
"524",75.04997,31.536528
"525",74.94743,31.54986
"526",74.83513,31.563192
"527",74.71549,31.576529
"528",74.59342,31.589865
"529",74.478676,31.603197
"530",74.37614,31.61653
"531",74.29557,31.629866
"532",74.23453,31.643202
"533",74.195465,31.656534
"534",74.178375,31.669867
"535",74.178375,31.683203
"536",74.20035,31.696539
"537",74.23453,31.709871
"538",74.28336,31.723204
"539",74.33463,31.73654
"540",74.38346,31.749876
"541",74.42252,31.763208
"542",74.45182,31.77654
"543",74.46403,31.789877
"544",74.461586,31.803213
"545",74.444496,31.816545
"546",74.42008,31.829878
"547",74.41764,31.843214
"548",74.5153,31.85655
"549",74.861984,31.869883
"550",75.64568,31.883215
"551",77.0251,31.896551
"552",79.06859,31.909887
"553",81.688255,31.92322
"554",84.63752,31.936552
"555",87.57702,31.949888
"556",90.16983,31.963224
"557",92.16693,31.976557
"558",93.46578,31.98989
"559",94.10544,32.003227
"560",94.220184,32.016563
"561",93.978485,32.029896
"562",93.53414,32.04323
"563",93.00191,32.056564
"564",92.43305,32.0699
"565",91.82269,32.083233
"566",91.15373,32.096565
"567",90.392006,32.1099
"568",89.530174,32.123238
"569",88.602425,32.13657
"570",87.67956,32.149902
"571",86.84215,32.16324
"572",86.15854,32.176575
"573",85.6556,32.189907
"574",85.30892,32.20324
"575",85.04768,32.216576
"576",84.788895,32.22991
"577",84.456856,32.243244
"578",84.00519,32.256577
"579",83.42657,32.269913
"580",82.738075,32.28325
"581",81.97391,32.29658
"582",81.180435,32.309914
"583",80.39185,32.32325
"584",79.63256,32.336586
"585",78.924545,32.34992
"586",78.28489,32.36325
"587",77.713585,32.376587
"588",77.21553,32.389923
"589",76.79561,32.403255
"590",76.439156,32.416588
"591",76.13641,32.429924
"592",75.877625,32.44326
"593",75.648125,32.456593
"594",75.43816,32.469925
"595",75.250175,32.48326
"596",75.07683,32.496597
"597",74.92302,32.50993
"598",74.79118,32.523262
"599",74.67643,32.5366
"600",74.57633,32.549934
"601",74.48356,32.563267
"602",74.38834,32.5766
"603",74.285805,32.589935
"604",74.17105,32.60327
"605",74.056305,32.616604
"606",73.94644,32.629936
"607",73.85367,32.643272
"608",73.780426,32.65661
"609",73.73647,32.66994
"610",73.7145,32.683273
"611",73.7145,32.69661
"612",73.73647,32.709946
"613",73.76822,32.723278
"614",73.80972,32.73661
"615",73.85123,32.749947
"616",73.89273,32.763283
"617",73.919586,32.776615
"618",73.936676,32.789948
"619",73.934235,32.803284
"620",73.92691,32.81662
"621",73.92691,32.829952
"622",73.99527,32.843285
"623",74.249176,32.85662
"624",74.8571,32.869957
"625",75.982605,32.88329
"626",77.733116,32.89662
"627",80.08911,32.909958
"628",82.879684,32.923294
"629",85.80209,32.936626
"630",88.516975,32.94996
"631",90.74113,32.963295
"632",92.318306,32.97663
"633",93.23628,32.989964
"634",93.58541,33.003296
"635",93.524376,33.016632
"636",93.20943,33.02997
"637",92.76265,33.0433
"638",92.25239,33.056633
"639",91.69573,33.06997
"640",91.070724,33.083305
"641",90.34806,33.096638
"642",89.50088,33.10997
"643",88.551155,33.123306
"644",87.55016,33.136642
"645",86.590675,33.149975
"646",85.75815,33.163307
"647",85.101395,33.176643
"648",84.62287,33.18998
"649",84.26887,33.203312
"650",83.95636,33.216644
"651",83.612114,33.22998
"652",83.175095,33.243317
"653",82.62577,33.25665
"654",81.96414,33.26998
"655",81.22926,33.283318
"656",80.45045,33.296654
"657",79.66186,33.309986
"658",78.90013,33.32332
"659",78.18967,33.336655
"660",77.54513,33.34999
"661",76.98604,33.363323
"662",76.524605,33.376656
"663",76.15106,33.38999
"664",75.85077,33.403328
"665",75.596855,33.41666
"666",75.36736,33.429993
"667",75.15007,33.44333
"668",74.949875,33.456665
"669",74.76677,33.469997
"670",74.61051,33.48333
"671",74.48112,33.496666
"672",74.371254,33.510002
"673",74.268715,33.523335
"674",74.16861,33.536667
"675",74.07095,33.550003
"676",73.970856,33.56334
"677",73.86832,33.57667
"678",73.76822,33.590004
"679",73.670555,33.60334
"680",73.5729,33.616676
"681",73.47036,33.63001
"682",73.37026,33.64334
"683",73.26772,33.656677
"684",73.16518,33.670013
"685",73.06752,33.683346
"686",72.98451,33.69668
"687",72.91615,33.710014
"688",72.86488,33.72335
"689",72.83559,33.736683
"690",72.833145,33.750015
"691",72.85268,33.76335
"692",72.901505,33.776688
"693",72.97719,33.79002
"694",73.074844,33.803352
"695",73.18959,33.81669
"696",73.31899,33.830025
"697",73.45327,33.843357
"698",73.58022,33.85669
"699",73.69985,33.870026
"700",73.812164,33.88336
"701",73.92203,33.896694
"702",74.06851,33.910027
"703",74.34196,33.923363
"704",74.89372,33.9367
"705",75.90692,33.95003
"706",77.5378,33.963364
"707",79.82056,33.9767
"708",82.650185,33.990036
"709",85.753265,34.00337
"710",88.7831,34.0167
"711",91.41009,34.030037
"712",93.41451,34.043373
"713",94.7158,34.056705
"714",95.37255,34.070038
"715",95.53124,34.083374
"716",95.345695,34.09671
"717",94.959946,34.110043
"718",94.47654,34.123375
"719",93.9321,34.13671
"720",93.32418,34.150047
"721",92.630806,34.16338
"722",91.8056,34.176712
"723",90.83879,34.19005
"724",89.75479,34.203384
"725",88.62684,34.216717
"726",87.552605,34.23005
"727",86.61753,34.243385
"728",85.872894,34.25672
"729",85.30404,34.270054
"730",84.86458,34.283386
"731",84.46906,34.296722
"732",84.051575,34.31006
"733",83.55352,34.32339
"734",82.96025,34.336723
"735",82.27421,34.35006
"736",81.51736,34.363396
"737",80.719,34.376728
"738",79.91333,34.39006
"739",79.12474,34.403397
"740",78.37278,34.416733
"741",77.68185,34.430065
"742",77.06172,34.443398
"743",76.51484,34.456734
"744",76.04608,34.47007
"745",75.65301,34.483402
"746",75.32098,34.496735
"747",75.04509,34.51007
"748",74.82048,34.523407
"749",74.63981,34.53674
"750",74.49821,34.55007
"751",74.38346,34.563408
"752",74.29069,34.576744
"753",74.215,34.590076
"754",74.14664,34.60341
"755",74.07828,34.616745
"756",74.00748,34.63008
"757",73.93912,34.643414
"758",73.8732,34.656746
"759",73.80484,34.670082
"760",73.73403,34.68342
"761",73.653465,34.69675
"762",73.565575,34.710083
"763",73.47524,34.72342
"764",73.392235,34.736755
"765",73.31899,34.750088
"766",73.2604,34.76342
"767",73.22133,34.776756
"768",73.20424,34.790092
"769",73.20424,34.803425
"770",73.22621,34.816757
"771",73.27993,34.830093
"772",73.358055,34.84343
"773",73.463036,34.856762
"774",73.58999,34.870094
"775",73.741356,34.88343
"776",73.900055,34.896767
"777",74.06851,34.9101
"778",74.24185,34.92343
"779",74.4152,34.936768
"780",74.58854,34.950104
"781",74.75212,34.963436
"782",74.90105,34.97677
"783",75.020676,34.990105
"784",75.0988,35.00344
"785",75.142746,35.016773
"786",75.159836,35.030106
"787",75.176926,35.04344
"788",75.26238,35.056778
"789",75.545586,35.07011
"790",76.2121,35.083443
"791",77.44015,35.09678
"792",79.33227,35.110115
"793",81.8616,35.123447
"794",84.83284,35.13678
"795",87.921265,35.150116
"796",90.76555,35.163452
"797",93.08736,35.176785
"798",94.73777,35.190117
"799",95.70702,35.203453
"800",96.10742,35.21679
"801",96.09766,35.23012
"802",95.833984,35.243454
"803",95.433586,35.25679
"804",94.97215,35.270126
"805",94.45945,35.28346
"806",93.875946,35.29679
"807",93.18257,35.310127
"808",91.388115,35.336796
"809",90.33097,35.35013
"810",89.25674,35.363464
"811",88.26063,35.3768
"812",87.413445,35.390133
"813",86.744484,35.403465
"814",86.22934,35.4168
"815",85.79965,35.430138
"816",85.382164,35.44347
"817",84.90608,35.456802
"818",84.32746,35.47014
"819",83.64141,35.483475
"820",82.85527,35.496807
"821",82.00076,35.51014
"822",81.10719,35.523476
"823",80.218506,35.53681
"824",79.361565,35.550144
"825",78.56077,35.563477
"826",77.83322,35.576813
"827",77.18379,35.59015
"828",76.61982,35.60348
"829",76.13153,35.616814
"830",75.716484,35.63015
"831",75.36736,35.643486
"832",75.0695,35.65682
"833",74.81804,35.67015
"834",74.60319,35.683487
"835",74.42252,35.696823
"836",74.27116,35.710155
"837",74.14908,35.723488
"838",74.06119,35.736824
"839",74.00992,35.75016
"840",73.987946,35.763493
"841",73.987946,35.776825
"842",73.99283,35.79016
"843",73.98306,35.803497
"844",73.953766,35.81683
"845",73.90494,35.830162
"846",73.8439,35.8435
"847",73.7731,35.856834
"848",73.69741,35.870167
"849",73.61196,35.8835
"850",73.51675,35.896835
"851",73.42397,35.91017
"852",73.34341,35.923504
"853",73.28481,35.936836
"854",73.248184,35.950172
"855",73.233536,35.96351
"856",73.24086,35.97684
"857",73.26772,35.990173
"858",73.31655,36.00351
"859",73.38735,36.016846
"860",73.477684,36.030178
"861",73.57778,36.04351
"862",73.68032,36.056847
"863",73.76578,36.070183
"864",73.82437,36.083515
"865",73.85123,36.096848
"866",73.85611,36.110184
"867",73.84146,36.12352
"868",73.82193,36.136852
"869",73.80972,36.150185
"870",73.848785,36.16352
"871",74.04898,36.176857
"872",74.57145,36.19019
"873",75.60662,36.20352
"874",77.29122,36.216858
"875",79.64233,36.230194
"876",82.50126,36.243526
"877",85.58724,36.25686
"878",88.53895,36.270195
"879",91.03166,36.28353
"880",92.87984,36.296864
"881",94.032196,36.310196
"882",94.55955,36.323532
"883",94.608376,36.33687
"884",94.3447,36.3502
"885",93.907684,36.363533
"886",93.38033,36.37687
"887",92.79927,36.390205
"888",92.16449,36.403538
"889",91.44427,36.41687
"890",90.60685,36.430206
"891",89.65957,36.443542
"892",88.639046,36.456875
"893",87.62829,36.470207
"894",86.72007,36.483543
"895",85.98276,36.49688
"896",85.43832,36.510212
"897",85.05501,36.523544
"898",84.75716,36.53688
"899",84.46174,36.550217
"900",84.1004,36.56355
"901",83.63409,36.57688
"902",83.05791,36.590218
"903",82.38407,36.603554
"904",81.64187,36.616886
"905",80.86549,36.63022
"906",80.08423,36.643555
"907",79.327385,36.65689
"908",78.61204,36.670223
"909",77.95285,36.683556
"910",77.366905,36.69689
"911",76.84444,36.710228
"912",76.39033,36.72356
"913",76.00458,36.736893
"914",75.67986,36.75023
"915",75.403984,36.763565
"916",75.176926,36.776897
"917",75.001144,36.79023
"918",74.861984,36.803566
"919",74.75456,36.816902
"920",74.67155,36.830235
"921",74.60563,36.843567
"922",74.547035,36.856903
"923",74.493324,36.87024
"924",74.43717,36.88357
"925",74.3859,36.896904
"926",74.32975,36.91024
"927",74.2736,36.923576
"928",74.20523,36.93691
"929",74.127106,36.95024
"930",74.04166,36.963577
"931",73.94644,36.976913
"932",73.848785,36.990246
"933",73.76822,37.00358
"934",73.71206,37.016914
"935",73.68276,37.03025
"936",73.687645,37.043583
"937",73.724266,37.056915
"938",73.780426,37.07025
"939",73.85855,37.083588
"940",73.944,37.09692
"941",74.03189,37.110252
"942",74.107574,37.12359
"943",74.17105,37.136925
"944",74.20523,37.150257
"945",74.22232,37.16359
"946",74.23697,37.176926
"947",74.288246,37.19026
"948",74.476234,37.203594
"949",74.949875,37.216927
"950",75.89227,37.230263
"951",77.437706,37.2436
"952",79.635,37.25693
"953",82.36698,37.270264
"954",85.3724,37.2836
"955",88.3119,37.296936
"956",90.84856,37.31027
"957",92.75777,37.3236
"958",93.95163,37.336937
"959",94.47654,37.350273
"960",94.466774,37.363605
"961",94.103,37.376938
"962",93.53658,37.390274
"963",92.874954,37.40361
"964",92.17914,37.416943
"965",91.44427,37.430275
"966",90.63859,37.44361
"967",89.7499,37.456947
"968",88.78798,37.47028
"969",87.801636,37.483612
"970",86.869,37.49695
"971",86.06821,37.510284
"972",85.44808,37.523617
"973",85.00862,37.53695
"974",84.70344,37.550285
"975",84.454414,37.56362
"976",84.18341,37.576954
"977",83.82941,37.590286
"978",83.36309,37.603622
"979",82.78447,37.61696
"980",82.11063,37.63029
"981",81.36843,37.643623
"982",80.59449,37.65696
"983",79.818115,37.670296
"984",79.061264,37.683628
"985",78.348366,37.69696
"986",77.69894,37.710297
"987",77.117874,37.723633
"988",76.60517,37.736965
"989",76.155945,37.750298
"990",75.7702,37.763634
"991",75.44793,37.77697
"992",75.18425,37.790302
"993",74.966965,37.803635
"994",74.79607,37.81697
"995",74.65446,37.830307
"996",74.53483,37.84364
"997",74.42741,37.85697
"998",74.32975,37.870308
"999",74.24429,37.883644
"1000",74.16617,37.896976
"1001",74.10025,37.91031
"1002",74.03677,37.923645
"1003",73.97574,37.93698
"1004",73.90494,37.950314
"1005",73.82681,37.963646
"1006",73.741356,37.976982
"1007",73.65835,37.99032
"1008",73.58022,38.00365
"1009",73.51675,38.016983
"1010",73.47524,38.03032
"1011",73.460594,38.043655
"1012",73.46548,38.056988
"1013",73.49233,38.07032
"1014",73.5436,38.083656
"1015",73.616844,38.096992
"1016",73.70229,38.110325
"1017",73.795074,38.123657
"1018",73.89517,38.136993
"1019",73.987946,38.15033
"1020",74.06363,38.163662
"1021",74.1149,38.176994
"1022",74.144196,38.19033
"1023",74.16617,38.203667
"1024",74.229645,38.217
"1025",74.43961,38.23033
"1026",74.96452,38.243668
"1027",75.99237,38.257004
"1028",77.66476,38.270336
"1029",79.99878,38.28367
"1030",82.85771,38.297005
"1031",85.960785,38.31034
"1032",88.953995,38.323673
"1033",91.510185,38.337006
"1034",93.416954,38.35034
"1035",94.608376,38.363678
"1036",95.14549,38.37701
"1037",95.167465,38.390343
"1038",94.84276,38.40368
"1039",94.32029,38.417015
"1040",93.70748,38.430347
"1041",93.048294,38.44368
"1042",92.3476,38.457016
"1043",91.578545,38.470352
"1044",90.71427,38.483685
"1045",89.74502,38.497017
"1046",88.70496,38.510353
"1047",87.67223,38.52369
"1048",86.72495,38.53702
"1049",85.93637,38.550354
"1050",85.333336,38.56369
"1051",84.88899,38.577026
"1052",84.53986,38.59036
"1053",84.20538,38.60369
"1054",83.82941,38.617027
"1055",83.35577,38.630363
"1056",82.777145,38.643696
"1057",82.09842,38.65703
"1058",81.34646,38.670364
"1059",80.5481,38.6837
"1060",79.7351,38.697033
"1061",78.93919,38.710365
"1062",78.18967,38.7237
"1063",77.49874,38.737038
"1064",76.87862,38.75037
"1065",76.33906,38.763702
"1066",75.87518,38.77704
"1067",75.47967,38.790375
"1068",75.142746,38.803707
"1069",74.85466,38.81704
"1070",74.60563,38.830376
"1071",74.38834,38.84371
"1072",74.195465,38.857044
"1073",74.02457,38.870377
"1074",73.87564,38.883713
"1075",73.74868,38.89705
"1076",73.636375,38.91038
"1077",73.53872,38.923714
"1078",73.45327,38.93705
"1079",73.3727,38.950386
"1080",73.29458,38.96372
"1081",73.214005,38.97705
"1082",73.14076,38.990387
"1083",73.06996,39.003723
"1084",73.00893,39.017056
"1085",72.9601,39.030388
"1086",72.92836,39.043724
"1087",72.90883,39.05706
"1088",72.90883,39.070393
"1089",72.92592,39.083725
"1090",72.96498,39.09706
"1091",73.01869,39.110397
"1092",73.091934,39.12373
"1093",73.179825,39.137062
"1094",73.26772,39.1504
"1095",73.34829,39.163734
"1096",73.41421,39.177067
"1097",73.46792,39.1904
"1098",73.50698,39.203735
"1099",73.55337,39.21707
"1100",73.636375,39.230404
"1101",73.831696,39.243736
"1102",74.27604,39.257072
"1103",75.142746,39.27041
"1104",76.595406,39.28374
"1105",78.69993,39.297073
"1106",81.3904,39.31041
"1107",84.42512,39.323746
"1108",87.467155,39.33708
"1109",90.17471,39.35041
"1110",92.29145,39.363747
"1111",93.7026,39.377083
"1112",94.43992,39.390415
"1113",94.6157,39.403748
"1114",94.39353,39.417084
"1115",93.9321,39.43042
"1116",93.34615,39.443752
"1117",92.70405,39.457085
"1118",92.02045,39.47042
"1119",91.27825,39.483757
"1120",90.44572,39.49709
"1121",89.498436,39.51042
"1122",88.46815,39.523758
"1123",87.42077,39.537094
"1124",86.44419,39.550426
"1125",85.61898,39.56376
"1126",84.99397,39.577095
"1127",84.559395,39.59043
"1128",84.2591,39.603764
"1129",84.01251,39.617096
"1130",83.734184,39.630432
"1131",83.36065,39.64377
"1132",82.86748,39.6571
"1133",82.25468,39.670433
"1134",81.54177,39.68377
"1135",80.77028,39.697105
"1136",79.98169,39.710438
"1137",79.20531,39.72377
"1138",78.47288,39.737106
"1139",77.806366,39.750443
"1140",77.21065,39.763775
"1141",76.68818,39.777107
"1142",76.241394,39.790443
"1143",75.85809,39.80378
"1144",75.53338,39.817112
"1145",75.2575,39.830444
"1146",75.028,39.84378
"1147",74.83513,39.857117
"1148",74.67643,39.87045
"1149",74.547035,39.88378
"1150",74.43473,39.897118
"1151",74.3444,39.910454
"1152",74.26383,39.923786
"1153",74.19302,39.93712
"1154",74.13199,39.950455
"1155",74.07095,39.96379
"1156",74.00992,39.977123
"1157",73.94644,39.990456
"1158",73.88541,40.00379
"1159",73.82437,40.017128
"1160",73.76822,40.03046
"1161",73.7145,40.043793
"1162",73.66323,40.05713
"1163",73.62905,40.070465
"1164",73.6144,40.083797
"1165",73.63149,40.09713
"1166",73.67544,40.110466
"1167",73.74624,40.123802
"1168",73.829254,40.137135
"1169",73.9147,40.150467
"1170",74.00015,40.163803
"1171",74.07828,40.17714
"1172",74.14664,40.19047
"1173",74.20523,40.203804
"1174",74.25895,40.21714
"1175",74.31754,40.230476
"1176",74.41764,40.24381
"1177",74.63737,40.25714
"1178",75.12077,40.270477
"1179",76.0412,40.283813
"1180",77.54269,40.297146
"1181",79.693596,40.31048
"1182",82.38651,40.323814
"1183",85.37484,40.33715
"1184",88.31922,40.350483
"1185",90.88762,40.363815
"1186",92.840775,40.37715
"1187",94.09079,40.390488
"1188",94.68162,40.40382
"1189",94.747536,40.417152
"1190",94.45945,40.43049
"1191",93.96384,40.443825
"1192",93.368126,40.457157
"1193",92.72114,40.47049
"1194",92.02045,40.483826
"1195",91.23674,40.49716
"1196",90.35783,40.510494
"1197",89.391014,40.523827
"1198",88.394905,40.537163
"1199",87.44274,40.5505
"1200",86.6273,40.56383
"1201",85.99985,40.577164
"1202",85.56771,40.5905
"1203",85.27718,40.603836
"1204",85.0428,40.61717
"1205",84.77913,40.6305
"1206",84.420235,40.643837
"1207",83.929504,40.657173
"1208",83.3167,40.670506
"1209",82.61356,40.683838
"1210",81.846954,40.697174
"1211",81.06081,40.71051
"1212",80.29664,40.723843
"1213",79.586174,40.737175
"1214",78.94896,40.75051
"1215",78.39475,40.763847
"1216",77.91135,40.77718
"1217",77.488976,40.790512
"1218",77.103226,40.80385
"1219",76.75166,40.817184
"1220",76.436714,40.830517
"1221",76.16083,40.84385
"1222",75.928894,40.857185
"1223",75.733574,40.87052
"1224",75.56756,40.883854
"1225",75.421074,40.897186
"1226",75.284355,40.910522
"1227",75.15495,40.92386
"1228",75.03288,40.93719
"1229",74.92302,40.950523
"1230",74.827805,40.96386
"1231",74.73991,40.977196
"1232",74.649574,40.99053
"1233",74.55436,41.00386
"1234",74.444496,41.017197
"1235",74.32487,41.030533
"1236",74.21011,41.043865
"1237",74.11246,41.057198
"1238",74.0441,41.070534
"1239",74.00015,41.08387
"1240",73.98062,41.097202
"1241",73.97818,41.110535
"1242",73.985504,41.12387
"1243",73.99771,41.137207
"1244",74.005035,41.15054
"1245",74.002594,41.16387
"1246",73.99283,41.177208
"1247",73.97574,41.190544
"1248",73.95621,41.203876
"1249",73.94888,41.21721
"1250",73.985504,41.230545
"1251",74.127106,41.24388
"1252",74.493324,41.257214
"1253",75.250175,41.270546
"1254",76.561226,41.283882
"1255",78.49973,41.29722
"1256",81.01442,41.31055
"1257",83.90509,41.323883
"1258",86.854355,41.33722
"1259",89.532616,41.350555
"1260",91.683525,41.363888
"1261",93.18501,41.37722
"1262",94.0444,41.390556
"1263",94.37156,41.403893
"1264",94.30564,41.417225
"1265",93.995575,41.430557
"1266",93.539024,41.443893
"1267",92.999466,41.45723
"1268",92.38178,41.470562
"1269",91.663994,41.483894
"1270",90.82414,41.49723
"1271",89.86221,41.510567
"1272",88.81972,41.5239
"1273",87.77234,41.53723
"1274",86.81773,41.550568
"1275",86.02426,41.563904
"1276",85.42367,41.577236
"1277",84.99153,41.59057
"1278",84.65949,41.603905
"1279",84.33967,41.61724
"1280",83.9588,41.630573
"1281",83.46319,41.643906
"1282",82.84062,41.65724
"1283",82.10086,41.670578
"1284",81.28298,41.68391
"1285",80.42603,41.697243
"1286",79.57885,41.71058
"1287",78.77318,41.723915
"1288",78.03342,41.737247
"1289",77.37423,41.75058
"1290",76.807816,41.763916
"1291",76.32685,41.777252
"1292",75.92401,41.790585
"1293",75.58953,41.803917
"1294",75.31121,41.817253
"1295",75.07439,41.83059
"1296",74.87175,41.84392
"1297",74.70084,41.857254
"1298",74.55436,41.87059
"1299",74.42252,41.883926
"1300",74.30778,41.89726
"1301",74.20035,41.91059
"1302",74.09781,41.923927
"1303",74.002594,41.937263
"1304",73.91226,41.950596
"1305",73.82193,41.96393
"1306",73.72671,41.977264
"1307",73.62661,41.9906
"1308",73.52163,42.003933
"1309",73.411766,42.017265
"1310",73.306786,42.0306
"1311",73.216446,42.043938
"1312",73.14076,42.05727
"1313",73.08217,42.070602
"1314",73.04555,42.08394
"1315",73.0309,42.097275
"1316",73.040665,42.110607
"1317",73.074844,42.12394
"1318",73.14076,42.137276
"1319",73.22621,42.15061
"1320",73.321434,42.163944
"1321",73.41665,42.177277
"1322",73.5021,42.190613
"1323",73.568016,42.20395
"1324",73.62173,42.21728
"1325",73.65835,42.230614
"1326",73.69009,42.24395
"1327",73.724266,42.257286
"1328",73.78775,42.27062
"1329",73.94888,42.28395
"1330",74.34684,42.297287
"1331",75.15495,42.310623
"1332",76.54902,42.323956
"1333",78.61692,42.337288
"1334",81.29519,42.350624
"1335",84.36164,42.36396
"1336",87.484245,42.377293
"1337",90.31388,42.390625
"1338",92.57221,42.40396
"1339",94.12985,42.417297
"1340",95.00145,42.43063
"1341",95.30663,42.443962
"1342",95.20897,42.4573
"1343",94.86473,42.470634
"1344",94.398415,42.483967
"1345",93.87106,42.4973
"1346",93.28756,42.510635
"1347",92.6186,42.52397
"1348",91.82025,42.537304
"1349",90.87053,42.550636
"1350",89.80606,42.563972
"1351",88.707405,42.57731
"1352",87.67223,42.59064
"1353",86.7982,42.603973
"1354",86.12192,42.61731
"1355",85.62386,42.630646
"1356",85.23323,42.64398
"1357",84.859695,42.65731
"1358",84.43,42.670647
"1359",83.90021,42.683983
"1360",83.25323,42.697315
"1361",82.50126,42.710648
"1362",81.68093,42.723984
"1363",80.82887,42.73732
"1364",79.98169,42.750652
"1365",79.17113,42.763985
"1366",78.41917,42.77732
"1367",77.738,42.790657
"1368",77.134964,42.80399
"1369",76.610054,42.81732
"1370",76.155945,42.830658
"1371",75.7702,42.843994
"1372",75.43816,42.857327
"1373",75.15251,42.87066
"1374",74.90837,42.883995
"1375",74.6984,42.89733
"1376",74.5153,42.910664
"1377",74.356606,42.923996
"1378",74.21988,42.937332
"1379",74.092926,42.95067
"1380",73.9733,42.964
"1381",73.85855,42.977333
"1382",73.75113,42.99067
"1383",73.6437,43.004005
"1384",73.53384,43.017338
"1385",73.42397,43.03067
"1386",73.30923,43.044006
"1387",73.19447,43.057343
"1388",73.08461,43.070675
"1389",72.98695,43.084007
"1390",72.90883,43.097343
"1391",72.850235,43.11068
"1392",72.81117,43.124012
"1393",72.79408,43.137344
"1394",72.80141,43.15068
"1395",72.84047,43.164017
"1396",72.90639,43.17735
"1397",73.00404,43.19068
"1398",73.12367,43.204018
"1399",73.25796,43.217354
"1400",73.39956,43.230686
"1401",73.54604,43.24402
"1402",73.69009,43.257355
"1403",73.82193,43.27069
"1404",73.93912,43.284023
"1405",74.03677,43.297356
"1406",74.11734,43.31069
"1407",74.18814,43.324028
"1408",74.29801,43.33736
"1409",74.547035,43.350693
"1410",75.09148,43.36403
"1411",76.121765,43.377365
"1412",77.79172,43.390697
"1413",80.14038,43.40403
"1414",83.04082,43.417366
"1415",86.21469,43.430702
"1416",89.30312,43.444035
"1417",91.95941,43.457367
"1418",93.958954,43.470703
"1419",95.221176,43.48404
"1420",95.80713,43.49737
"1421",95.86328,43.510704
"1422",95.56298,43.52404
"1423",95.0576,43.537376
"1424",94.45701,43.55071
"1425",93.80026,43.56404
"1426",93.07515,43.577377
"1427",92.25239,43.590714
"1428",91.29534,43.604046
"1429",90.213776,43.61738
"1430",89.07362,43.630714
"1431",87.96765,43.64405
"1432",87.00328,43.657383
"1433",86.24155,43.670715
"1434",85.6849,43.68405
"1435",85.279625,43.697388
"1436",84.94026,43.71072
"1437",84.56672,43.724052
"1438",84.102844,43.73739
"1439",83.5169,43.750725
"1440",82.81377,43.764057
"1441",82.01541,43.77739
"1442",81.15846,43.790726
"1443",80.28687,43.80406
"1444",79.42504,43.817394
"1445",78.607155,43.830727
"1446",77.855194,43.844063
"1447",77.17891,43.8574
"1448",76.578316,43.87073
"1449",76.05585,43.884064
"1450",75.613945,43.8974
"1451",75.24284,43.910736
"1452",74.932785,43.92407
"1453",74.67643,43.9374
"1454",74.46403,43.950737
"1455",74.28336,43.964073
"1456",74.127106,43.977406
"1457",73.99039,43.990738
"1458",73.87076,44.004074
"1459",73.763336,44.01741
"1460",73.66079,44.030743
"1461",73.568016,44.044075
"1462",73.480125,44.05741
"1463",73.39712,44.070747
"1464",73.31899,44.08408
"1465",73.24086,44.097412
"1466",73.162735,44.11075
"1467",73.08217,44.124084
"1468",73.006485,44.137417
"1469",72.935684,44.15075
"1470",72.87221,44.164085
"1471",72.8185,44.17742
"1472",72.779434,44.190754
"1473",72.75258,44.204086
"1474",72.742805,44.217422
"1475",72.75502,44.23076
"1476",72.79164,44.24409
"1477",72.850235,44.257423
"1478",72.938126,44.27076
"1479",73.05043,44.284096
"1480",73.18471,44.29743
"1481",73.32632,44.31076
"1482",73.463036,44.324097
"1483",73.58022,44.337433
"1484",73.67544,44.350765
"1485",73.74624,44.364098
"1486",73.79263,44.377434
"1487",73.831696,44.39077
"1488",73.8732,44.404102
"1489",73.94888,44.417435
"1490",74.15396,44.43077
"1491",74.649574,44.4441
"1492",75.63836,44.457436
"1493",77.2839,44.470764
"1494",79.64965,44.4841
"1495",82.62089,44.49743
"1496",85.91928,44.510765
"1497",89.16884,44.524094
"1498",91.998474,44.53743
"1499",94.16403,44.55076
"1500",95.56786,44.564095
"1501",96.26368,44.577423
"1502",96.39796,44.59076
"1503",96.146484,44.604088
"1504",95.66796,44.617424
"1505",95.079575,44.630753
"1506",94.435036,44.64409
"1507",93.73922,44.657417
"1508",92.95796,44.670753
"1509",92.05463,44.684082
"1510",91.00969,44.69742
"1511",89.85489,44.710747
"1512",88.66346,44.724083
"1513",87.5404,44.73741
"1514",86.57847,44.750748
"1515",85.82895,44.764076
"1516",85.28451,44.777412
"1517",84.876785,44.79074
"1518",84.52033,44.804077
"1519",84.12726,44.817406
"1520",83.631645,44.83074
"1521",83.01396,44.84407
"1522",82.27665,44.857407
"1523",81.45144,44.870735
"1524",80.57252,44.88407
"1525",79.68871,44.8974
"1526",78.82933,44.910736
"1527",78.02121,44.924065
"1528",77.281456,44.9374
"1529",76.61982,44.95073
"1530",76.03876,44.964066
"1531",75.53582,44.977394
"1532",75.106125,44.99073
"1533",74.74723,45.00406
"1534",74.44694,45.017395
"1535",74.195465,45.030724
"1536",73.985504,45.04406
"1537",73.80972,45.05739
"1538",73.66567,45.070724
"1539",73.5436,45.084053
"1540",73.43862,45.09739
"1541",73.34585,45.110718
"1542",73.26284,45.124054
"1543",73.18471,45.137383
"1544",73.111465,45.15072
"1545",73.04555,45.164047
"1546",72.98695,45.177383
"1547",72.92836,45.190712
"1548",72.86488,45.20405
"1549",72.798965,45.217377
"1550",72.725716,45.230713
"1551",72.65736,45.24404
"1552",72.59876,45.257378
"1553",72.5597,45.270706
"1554",72.54017,45.284042
"1555",72.54261,45.29737
"1556",72.567024,45.310707
"1557",72.60609,45.324036
"1558",72.65736,45.33737
"1559",72.723274,45.3507
"1560",72.80873,45.364037
"1561",72.91127,45.377365
"1562",73.03334,45.3907
"1563",73.17006,45.40403
"1564",73.31167,45.417366
"1565",73.45327,45.430695
"1566",73.585106,45.44403
"1567",73.69985,45.45736
"1568",73.79019,45.470695
"1569",73.86099,45.484024
"1570",73.90982,45.49736
"1571",73.96353,45.51069
"1572",74.092926,45.524025
"1573",74.43229,45.537354
"1574",75.17937,45.55069
"1575",76.53437,45.56402
"1576",78.61204,45.577354
"1577",81.37087,45.590683
"1578",84.6009,45.60402
"1579",87.94324,45.617348
"1580",91.00725,45.630684
"1581",93.48287,45.644012
"1582",95.20653,45.65735
"1583",96.166016,45.670677
"1584",96.480965,45.684013
"1585",96.31983,45.697342
"1586",95.86084,45.71068
"1587",95.24315,45.724007
"1588",94.55222,45.737343
"1589",93.81979,45.75067
"1590",93.03853,45.764008
"1591",92.1767,45.777336
"1592",91.20744,45.790672
"1593",90.14053,45.804
"1594",89.01259,45.817337
"1595",87.90906,45.830666
"1596",86.91539,45.844
"1597",86.10483,45.85733
"1598",85.487144,45.870667
"1599",85.02815,45.883995
"1600",84.65705,45.89733
"1601",84.283516,45.91066
"1602",83.844055,45.923996
"1603",83.29473,45.937325
"1604",82.64042,45.95066
"1605",81.8909,45.96399
"1606",81.077896,45.977325
"1607",80.233154,45.990654
"1608",79.395744,46.00399
"1609",78.58762,46.01732
"1610",77.8259,46.030655
"1611",77.13008,46.043983
"1612",76.507515,46.05732
"1613",75.95331,46.07065
"1614",75.4699,46.083984
"1615",75.054855,46.097313
"1616",74.70084,46.11065
"1617",74.39811,46.123978
"1618",74.14908,46.137314
"1619",73.94644,46.150642
"1620",73.777985,46.16398
"1621",73.636375,46.177307
"1622",73.50942,46.190643
"1623",73.38979,46.20397
"1624",73.27749,46.217308
"1625",73.17494,46.230637
"1626",73.08461,46.243973
"1627",73.0016,46.2573
"1628",72.92836,46.270638
"1629",72.850235,46.283966
"1630",72.77699,46.297302
"1631",72.70374,46.31063
"1632",72.63538,46.323967
"1633",72.569466,46.337296
"1634",72.51331,46.35063
"1635",72.46937,46.36396
"1636",72.43763,46.377296
"1637",72.42298,46.390625
"1638",72.42542,46.40396
"1639",72.44984,46.41729
"1640",72.498665,46.430626
"1641",72.569466,46.443954
"1642",72.6598,46.45729
"1643",72.764786,46.47062
"1644",72.87709,46.483955
"1645",72.99184,46.497284
"1646",73.111465,46.51062
"1647",73.23598,46.52395
"1648",73.36538,46.537285
"1649",73.48745,46.550613
"1650",73.59731,46.56395
"1651",73.687645,46.57728
"1652",73.75845,46.590614
"1653",73.83414,46.603943
"1654",73.99283,46.61728
"1655",74.3859,46.630608
"1656",75.21355,46.643944
"1657",76.66621,46.657272
"1658",78.82201,46.67061
"1659",81.61257,46.683937
"1660",84.78645,46.697273
"1661",87.972534,46.7106
"1662",90.792404,46.723938
"1663",92.96773,46.737267
"1664",94.383766,46.750603
"1665",95.06981,46.76393
"1666",95.15526,46.777267
"1667",94.82323,46.790596
"1668",94.24948,46.803932
"1669",93.56344,46.81726
"1670",92.840775,46.830597
"1671",92.10101,46.843925
"1672",91.32952,46.85726
"1673",90.48722,46.87059
"1674",89.55703,46.883926
"1675",88.55604,46.897255
"1676",87.53796,46.91059
"1677",86.588234,46.92392
"1678",85.785,46.937256
"1679",85.172195,46.950584
"1680",84.7425,46.96392
"1681",84.437325,46.97725
"1682",84.18341,46.990585
"1683",83.897766,47.003914
"1684",83.526665,47.01725
"1685",83.04326,47.03058
"1686",82.45243,47.043915
"1687",81.77371,47.057243
"1688",81.03395,47.07058
"1689",80.274666,47.083908
"1690",79.5227,47.097244
"1691",78.80003,47.110573
"1692",78.13107,47.12391
"1693",77.5256,47.137238
"1694",76.9836,47.150574
"1695",76.51484,47.163902
"1696",76.121765,47.17724
"1697",75.792175,47.190567
"1698",75.52117,47.203903
"1699",75.29412,47.21723
"1700",75.10368,47.230568
"1701",74.93767,47.243896
"1702",74.80583,47.257233
"1703",74.71061,47.27056
"1704",74.64713,47.283897
"1705",74.61295,47.297226
"1706",74.59098,47.310562
"1707",74.57389,47.32389
"1708",74.54948,47.337227
"1709",74.51774,47.350555
"1710",74.48356,47.36389
"1711",74.45426,47.37722
"1712",74.42985,47.390556
"1713",74.41276,47.403885
"1714",74.40299,47.41722
"1715",74.39323,47.43055
"1716",74.39323,47.443886
"1717",74.40055,47.457214
"1718",74.42008,47.47055
"1719",74.4567,47.48388
"1720",74.512856,47.497215
"1721",74.58366,47.510544
"1722",74.66178,47.52388
"1723",74.74235,47.53721
"1724",74.81804,47.550545
"1725",74.8864,47.563873
"1726",74.94255,47.57721
"1727",74.98161,47.590538
"1728",75.01335,47.603874
"1729",75.0695,47.617203
"1730",75.228195,47.63054
"1731",75.63836,47.643867
"1732",76.490425,47.657204
"1733",77.9382,47.670532
"1734",80.03784,47.68387
"1735",82.69657,47.697197
"1736",85.6556,47.710533
"1737",88.56092,47.72386
"1738",91.070724,47.737198
"1739",92.945755,47.750526
"1740",94.098114,47.763863
"1741",94.56931,47.77719
"1742",94.51316,47.790527
"1743",94.09323,47.803856
"1744",93.47311,47.817192
"1745",92.75777,47.83052
"1746",92.01068,47.843857
"1747",91.2343,47.857185
"1748",90.41154,47.87052
"1749",89.51797,47.88385
"1750",88.5536,47.897186
"1751",87.56237,47.910515
"1752",86.61265,47.92385
"1753",85.785,47.93718
"1754",85.1429,47.950516
"1755",84.698555,47.963844
"1756",84.41535,47.97718
"1757",84.21759,47.99051
"1758",84.02228,48.003845
"1759",83.758606,48.017174
"1760",83.38506,48.03051
"1761",82.88945,48.04384
"1762",82.28886,48.057175
"1763",81.61257,48.070503
"1764",80.89235,48.08384
"1765",80.16235,48.097168
"1766",79.449455,48.110504
"1767",78.77562,48.123833
"1768",78.15549,48.13717
"1769",77.59884,48.150497
"1770",77.11055,48.163834
"1771",76.6955,48.177162
"1772",76.34638,48.1905
"1773",76.050964,48.203827
"1774",75.809265,48.217163
"1775",75.60662,48.23049
"1776",75.43328,48.243828
"1777",75.284355,48.257156
"1778",75.16716,48.270493
"1779",75.0695,48.28382
"1780",74.99138,48.297157
"1781",74.93034,48.310486
"1782",74.879074,48.323822
"1783",74.827805,48.33715
"1784",74.78142,48.350487
"1785",74.73502,48.363815
"1786",74.683754,48.37715
"1787",74.62516,48.39048
"1788",74.55436,48.403816
"1789",74.48112,48.417145
"1790",74.4152,48.43048
"1791",74.36393,48.44381
"1792",74.33463,48.457146
"1793",74.33219,48.470474
"1794",74.34684,48.48381
"1795",74.37614,48.49714
"1796",74.41032,48.510475
"1797",74.444496,48.523804
"1798",74.476234,48.53714
"1799",74.50065,48.55047
"1800",74.512856,48.563805
"1801",74.52506,48.577133
"1802",74.547035,48.59047
"1803",74.62272,48.603798
"1804",74.83757,48.617134
"1805",75.3576,48.630463
"1806",76.368355,48.6438
"1807",78.009,48.657127
"1808",80.306404,48.670464
"1809",83.12138,48.683792
"1810",86.170746,48.69713
"1811",89.0956,48.710457
"1812",91.57122,48.723793
"1813",93.38766,48.73712
"1814",94.49119,48.750458
"1815",94.9453,48.763786
"1816",94.89159,48.777122
"1817",94.50584,48.79045
"1818",93.9321,48.803787
"1819",93.28268,48.817116
"1820",92.60151,48.830452
"1821",91.88129,48.84378
"1822",91.09758,48.857117
"1823",90.2211,48.870445
"1824",89.251854,48.88378
"1825",88.236206,48.89711
"1826",87.24986,48.910446
"1827",86.37827,48.923775
"1828",85.69222,48.93711
"1829",85.206375,48.95044
"1830",84.88167,48.963776
"1831",84.63996,48.977104
"1832",84.39826,48.99044
"1833",84.08331,49.00377
"1834",83.66338,49.017105
"1835",83.13359,49.030434
"1836",82.51591,49.04377
"1837",81.83719,49.0571
"1838",81.1194,49.070435
"1839",80.39185,49.083763
"1840",79.67162,49.0971
"1841",78.97337,49.110428
"1842",78.314186,49.123764
"1843",77.70382,49.137093
"1844",77.154495,49.15043
"1845",76.67109,49.163757
"1846",76.24872,49.177094
"1847",75.88739,49.190422
"1848",75.58221,49.20376
"1849",75.31609,49.217087
"1850",75.08415,49.230423
"1851",74.87663,49.24375
"1852",74.69352,49.257088
"1853",74.53239,49.270416
"1854",74.39323,49.283752
"1855",74.27116,49.29708
"1856",74.15396,49.310417
"1857",74.039215,49.323746
"1858",73.91226,49.337082
"1859",73.77066,49.35041
"1860",73.6144,49.363747
"1861",73.45571,49.377075
"1862",73.3019,49.39041
"1863",73.17006,49.40374
"1864",73.06752,49.417076
"1865",72.99916,49.430405
"1866",72.9601,49.44374
"1867",72.94789,49.45707
"1868",72.96254,49.470406
"1869",72.99916,49.483734
"1870",73.05287,49.49707
"1871",73.11391,49.5104
"1872",73.17494,49.523735
"1873",73.231094,49.537064
"1874",73.28237,49.5504
"1875",73.33608,49.56373
"1876",73.40444,49.577065
"1877",73.514305,49.590393
"1878",73.73159,49.60373
"1879",74.20035,49.617058
"1880",75.11101,49.630394
"1881",76.63447,49.643723
"1882",78.84154,49.65706
"1883",81.64919,49.670387
"1884",84.8011,49.683723
"1885",87.93591,49.697052
"1886",90.69474,49.71039
"1887",92.826126,49.723717
"1888",94.2153,49.737053
"1889",94.90135,49.75038
"1890",95.02098,49.763718
"1891",94.74021,49.777046
"1892",94.22507,49.790382
"1893",93.590294,49.80371
"1894",92.90181,49.817047
"1895",92.171814,49.830376
"1896",91.371025,49.84371
"1897",90.47257,49.85704
"1898",89.47646,49.870377
"1899",88.41932,49.883705
"1900",87.37194,49.89704
"1901",86.4271,49.91037
"1902",85.65316,49.923706
"1903",85.08186,49.937035
"1904",84.68635,49.95037
"1905",84.4007,49.9637
"1906",84.137024,49.977036
"1907",83.81964,49.990364
"1908",83.40215,50.0037
"1909",82.86748,50.01703
"1910",82.22537,50.030365
"1911",81.497826,50.043694
"1912",80.723885,50.05703
"1913",79.940186,50.07036
"1914",79.17845,50.083694
"1915",78.46311,50.097023
"1916",77.81125,50.11036
"1917",77.225296,50.123688
"1918",76.697945,50.137024
"1919",76.23407,50.150352
"1920",75.8288,50.16369
"1921",75.48699,50.177017
"1922",75.20622,50.190353
"1923",74.97673,50.203682
"1924",74.79118,50.21702
"1925",74.632484,50.230347
"1926",74.495766,50.243683
"1927",74.371254,50.25701
"1928",74.26139,50.270348
"1929",74.16373,50.283676
"1930",74.07095,50.297012
"1931",73.97574,50.31034
"1932",73.88541,50.323677
"1933",73.79019,50.337006
"1934",73.69253,50.35034
"1935",73.59487,50.36367
"1936",73.50698,50.377007
"1937",73.4313,50.390335
"1938",73.375145,50.40367
"1939",73.340965,50.417
"1940",73.3312,50.430336
"1941",73.340965,50.443665
"1942",73.36294,50.457
"1943",73.39712,50.47033
"1944",73.43862,50.483665
"1945",73.48501,50.496994
"1946",73.531395,50.51033
"1947",73.568016,50.52366
"1948",73.599754,50.536995
"1949",73.62905,50.550323
"1950",73.68276,50.56366
"1951",73.83658,50.57699
"1952",74.23697,50.590324
"1953",75.07683,50.603653
"1954",76.53193,50.61699
"1955",78.69016,50.630318
"1956",81.48806,50.643654
"1957",84.67902,50.656982
"1958",87.89441,50.67032
"1959",90.75578,50.683647
"1960",92.97261,50.696983
"1961",94.42039,50.71031
"1962",95.11864,50.723648
"1963",95.1992,50.736977
"1964",94.85008,50.750313
"1965",94.2446,50.76364
"1966",93.51949,50.776978
"1967",92.74555,50.790306
"1968",91.93744,50.803642
"1969",91.070724,50.81697
"1970",90.11124,50.830307
"1971",89.058975,50.843636
"1972",87.957886,50.85697
"1973",86.8983,50.8703
"1974",85.97543,50.883636
"1975",85.262535,50.896965
"1976",84.77669,50.9103
"1977",84.46418,50.92363
"1978",84.23956,50.936966
"1979",84.00763,50.950294
"1980",83.69756,50.96363
"1981",83.267876,50.97696
"1982",82.71366,50.990295
"1983",82.04959,51.003624
"1984",81.31472,51.01696
"1985",80.54078,51.03029
"1986",79.75952,51.043625
"1987",79.00023,51.056953
"1988",78.28733,51.07029
"1989",77.63058,51.08362
"1990",77.03487,51.096954
"1991",76.5124,51.110283
"1992",76.06317,51.12362
"1993",75.67986,51.136948
"1994",75.36004,51.150284
"1995",75.0988,51.163612
"1996",74.89128,51.17695
"1997",74.72282,51.190277
"1998",74.59098,51.203613
"1999",74.48356,51.21694
"2000",74.39323,51.230278
"2001",74.31022,51.243607
"2002",74.23453,51.256943
"2003",74.16373,51.27027
"2004",74.09537,51.283607
"2005",74.022125,51.296936
"2006",73.94156,51.310272
"2007",73.8439,51.3236
"2008",73.73159,51.336937
"2009",73.60708,51.350266
"2010",73.48501,51.3636
"2011",73.37759,51.37693
"2012",73.29946,51.390266
"2013",73.253075,51.403595
"2014",73.23598,51.41693
"2015",73.2433,51.43026
"2016",73.2604,51.443596
"2017",73.289696,51.456924
"2018",73.31411,51.47026
"2019",73.32876,51.48359
"2020",73.340965,51.496925
"2021",73.34585,51.510254
"2022",73.34829,51.52359
"2023",73.37026,51.53692
"2024",73.46548,51.550255
"2025",73.75357,51.563583
"2026",74.42008,51.57692
"2027",75.667656,51.59025
"2028",77.63058,51.603584
"2029",80.30152,51.616913
"2030",83.48028,51.63025
"2031",86.81773,51.643578
"2032",89.91348,51.656914
"2033",92.42817,51.670242
"2034",94.17868,51.68358
"2035",95.14305,51.696907
"2036",95.43847,51.710243
"2037",95.238266,51.72357
"2038",94.73289,51.736908
"2039",94.066376,51.750237
"2040",93.32418,51.763573
"2041",92.53071,51.7769
"2042",91.67376,51.790237
"2043",90.721596,51.803566
"2044",89.66445,51.816902
"2045",88.52918,51.83023
"2046",87.39147,51.843567
"2047",86.35142,51.856895
"2048",85.49447,51.87023
"2049",84.859695,51.88356
"2050",84.43244,51.896896
"2051",84.14191,51.910225
"2052",83.895325,51.92356
"2053",83.60235,51.93689
"2054",83.20439,51.950226
"2055",82.67216,51.963554
"2056",82.01053,51.97689
"2057",81.248795,51.99022
"2058",80.428474,52.003555
"2059",79.588615,52.016884
"2060",78.765854,52.03022
"2061",77.98703,52.04355
"2062",77.264366,52.056885
"2063",76.610054,52.070213
"2064",76.033875,52.08355
"2065",75.53338,52.096878
"2066",75.10857,52.110214
"2067",74.74967,52.123543
"2068",74.45182,52.13688
"2069",74.20523,52.150208
"2070",74.00015,52.163544
"2071",73.82193,52.176872
"2072",73.66811,52.19021
"2073",73.53872,52.203537
"2074",73.426414,52.216873
"2075",73.32876,52.2302
"2076",73.2433,52.243538
"2077",73.16518,52.256866
"2078",73.09682,52.270203
"2079",73.03578,52.28353
"2080",72.97963,52.296867
"2081",72.9308,52.310196
"2082",72.88197,52.323532
"2083",72.82338,52.33686
"2084",72.75502,52.350197
"2085",72.68421,52.363525
"2086",72.61341,52.37686
"2087",72.552376,52.39019
"2088",72.52064,52.403526
"2089",72.51087,52.416855
"2090",72.535286,52.43019
"2091",72.59144,52.44352
"2092",72.67933,52.456856
"2093",72.78676,52.470184
"2094",72.91127,52.48352
"2095",73.03578,52.49685
"2096",73.16029,52.510185
"2097",73.26528,52.523514
"2098",73.34829,52.53685
"2099",73.41421,52.55018
"2100",73.47524,52.563515
"2101",73.55825,52.576843
"2102",73.75113,52.59018
"2103",74.21744,52.603508
"2104",75.17204,52.616844
"2105",76.81758,52.630173
"2106",79.24193,52.64351
"2107",82.36454,52.656837
"2108",85.90463,52.670174
"2109",89.45937,52.683502
"2110",92.61616,52.69684
"2111",95.064926,52.710167
"2112",96.66651,52.723503
"2113",97.45754,52.73683
"2114",97.59182,52.750168
"2115",97.26223,52.763496
"2116",96.66407,52.776833
"2117",95.94385,52.79016
"2118",95.16991,52.803497
"2119",94.36179,52.816826
"2120",93.49264,52.830162
"2121",92.52094,52.84349
"2122",91.422295,52.856827
"2123",90.230865,52.870155
"2124",89.01991,52.88349
"2125",87.887085,52.89682
"2126",86.925156,52.910156
"2127",86.18295,52.923485
"2128",85.65072,52.93682
"2129",85.25521,52.95015
"2130",84.90364,52.963486
"2131",84.51545,52.976814
"2132",84.02228,52.99015
"2133",83.39239,53.00348
"2134",82.63798,53.016815
"2135",81.78104,53.030144
"2136",80.86305,53.04348
"2137",79.923096,53.05681
"2138",78.99779,53.070145
"2139",78.118866,53.083473
"2140",77.30587,53.09681
"2141",76.57099,53.110138
"2142",75.91669,53.123474
"2143",75.34539,53.136803
"2144",74.84978,53.15014
"2145",74.42252,53.163467
"2146",74.05142,53.176804
"2147",73.73159,53.190132
"2148",73.45815,53.20347
"2149",73.22377,53.216797
"2150",73.02113,53.230133
"2151",72.84291,53.24346
"2152",72.68421,53.256798
"2153",72.53773,53.270126
"2154",72.410774,53.283463
"2155",72.30091,53.29679
"2156",72.20813,53.310127
"2157",72.12756,53.323456
"2158",72.05188,53.336792
"2159",71.973755,53.35012
"2160",71.885864,53.363457
"2161",71.79553,53.376785
"2162",71.707634,53.39012
"2163",71.62707,53.40345
"2164",71.56359,53.416786
"2165",71.51476,53.430115
"2166",71.485466,53.44345
"2167",71.485466,53.45678
"2168",71.52209,53.470116
"2169",71.59533,53.483444
"2170",71.70031,53.49678
"2171",71.837036,53.51011
"2172",71.99573,53.523445
"2173",72.1593,53.536774
"2174",72.32288,53.55011
"2175",72.47913,53.56344
"2176",72.620735,53.576775
"2177",72.74525,53.590103
"2178",72.84779,53.60344
"2179",72.9308,53.616768
"2180",73.00893,53.630104
"2181",73.13344,53.643433
"2182",73.43862,53.65677
"2183",74.127106,53.670097
"2184",75.43572,53.683434
"2185",77.5378,53.696762
"2186",80.44312,53.7101
"2187",83.966125,53.723427
"2188",87.745476,53.736763
"2189",91.32708,53.75009
"2190",94.32273,53.763428
"2191",96.49317,53.776756
"2192",97.779816,53.790092
"2193",98.27543,53.80342
"2194",98.16312,53.816757
"2195",97.6553,53.830086
"2196",96.92287,53.843422
"2197",96.09033,53.85675
"2198",95.21385,53.870087
"2199",94.29832,53.883415
"2200",93.30221,53.89675
"2201",92.1889,53.91008
"2202",90.95842,53.923416
"2203",89.654686,53.936745
"2204",88.36805,53.95008
"2205",87.19615,53.96341
"2206",86.24155,53.976746
"2207",85.53353,53.990074
"2208",85.050125,54.00341
"2209",84.701,54.01674
"2210",84.3885,54.030075
"2211",84.017395,54.043404
"2212",83.529106,54.05674
"2213",82.896774,54.07007
"2214",82.127716,54.083405
"2215",81.26345,54.096733
"2216",80.34547,54.11007
"2217",79.41039,54.123398
"2218",78.502174,54.136734
"2219",77.65011,54.150063
"2220",76.87373,54.1634
"2221",76.1828,54.176727
"2222",75.577324,54.190063
"2223",75.0573,54.203392
"2224",74.62516,54.21673
"2225",74.268715,54.230057
"2226",73.985504,54.243393
"2227",73.763336,54.25672
"2228",73.58999,54.270058
"2229",73.45327,54.283386
"2230",73.338524,54.296722
"2231",73.24574,54.31005
"2232",73.162735,54.323387
"2233",73.091934,54.336716
"2234",73.02602,54.35005
"2235",72.969864,54.36338
"2236",72.921036,54.376717
"2237",72.87953,54.390045
"2238",72.83803,54.40338
"2239",72.796524,54.41671
"2240",72.75258,54.430046
"2241",72.708626,54.443375
"2242",72.66468,54.45671
"2243",72.63294,54.47004
"2244",72.61585,54.483376
"2245",72.62318,54.496704
"2246",72.654915,54.51004
"2247",72.71595,54.52337
"2248",72.80385,54.536705
"2249",72.91371,54.550034
"2250",73.0309,54.56337
"2251",73.15297,54.5767
"2252",73.270164,54.590034
"2253",73.37026,54.603363
"2254",73.45083,54.6167
"2255",73.51186,54.630028
"2256",73.56313,54.643364
"2257",73.633934,54.656693
"2258",73.80728,54.67003
"2259",74.23453,54.683357
"2260",75.13542,54.696693
"2261",76.72236,54.710022
"2262",79.11742,54.72336
"2263",82.26444,54.736687
"2264",85.91684,54.750023
"2265",89.65957,54.76335
"2266",93.03609,54.776688
"2267",95.6997,54.790016
"2268",97.47463,54.803352
"2269",98.36332,54.81668
"2270",98.512245,54.830017
"2271",98.13382,54.843346
"2272",97.43557,54.85668
"2273",96.57374,54.87001
"2274",95.638664,54.883347
"2275",94.66697,54.896675
"2276",93.63668,54.91001
"2277",92.51606,54.92334
"2278",91.29046,54.936676
"2279",90.003815,54.950005
"2280",88.72694,54.96334
"2281",87.56237,54.97667
"2282",86.60288,54.990005
"2283",85.88754,55.003334
"2284",85.384605,55.01667
"2285",85.02327,55.03
"2286",84.71076,55.043335
"2287",84.35432,55.056664
"2288",83.888,55.07
"2289",83.282524,55.08333
"2290",82.545204,55.096664
"2291",81.7029,55.109993
"2292",80.78981,55.12333
"2293",79.852295,55.136658
"2294",78.93675,55.149994
"2295",78.07248,55.163322
"2296",77.279015,55.17666
"2297",76.56855,55.189987
"2298",75.94354,55.203323
"2299",75.40154,55.216652
"2300",74.93523,55.22999
"2301",74.54215,55.243317
"2302",74.21744,55.256653
"2303",73.95621,55.26998
"2304",73.74868,55.283318
"2305",73.585106,55.296646
"2306",73.45571,55.309982
"2307",73.35073,55.32331
"2308",73.26528,55.336647
"2309",73.196915,55.349976
"2310",73.14076,55.36331
"2311",73.091934,55.37664
"2312",73.04799,55.389977
"2313",73.00404,55.403305
"2314",72.955215,55.41664
"2315",72.89418,55.42997
"2316",72.82094,55.443306
"2317",72.73792,55.456635
"2318",72.654915,55.46997
"2319",72.58167,55.4833
"2320",72.52796,55.496635
"2321",72.50111,55.509964
"2322",72.51331,55.5233
"2323",72.56214,55.53663
"2324",72.63294,55.549965
"2325",72.71107,55.563293
"2326",72.781876,55.57663
"2327",72.83559,55.58996
"2328",72.86244,55.603294
"2329",72.86977,55.616623
"2330",72.87465,55.62996
"2331",72.886856,55.643288
"2332",72.94789,55.656624
"2333",73.15541,55.669952
"2334",73.69253,55.68329
"2335",74.7863,55.696617
"2336",76.64179,55.709953
"2337",79.33227,55.72328
"2338",82.74784,55.736618
"2339",86.56138,55.749947
"2340",90.33341,55.763283
"2341",93.626915,55.77661
"2342",96.13428,55.789948
"2343",97.721214,55.803276
"2344",98.441444,55.816612
"2345",98.45365,55.82994
"2346",97.98245,55.843277
"2347",97.2256,55.856606
"2348",96.33204,55.86994
"2349",95.38232,55.88327
"2350",94.39353,55.896606
"2351",93.33883,55.909935
"2352",92.191345,55.92327
"2353",90.94377,55.9366
"2354",89.64492,55.949936
"2355",88.377815,55.963264
"2356",87.25231,55.9766
"2357",86.348976,55.98993
"2358",85.697105,56.003265
"2359",85.25033,56.016594
"2360",84.92317,56.02993
"2361",84.60822,56.04326
"2362",84.22003,56.056595
"2363",83.700005,56.069923
"2364",83.035934,56.08326
"2365",82.2449,56.09659
"2366",81.36599,56.109924
"2367",80.43336,56.123253
"2368",79.4934,56.13659
"2369",78.572975,56.149918
"2370",77.7087,56.163254
"2371",76.91768,56.176582
"2372",76.207214,56.18992
"2373",75.59441,56.203247
"2374",75.07439,56.216583
"2375",74.634926,56.22991
"2376",74.26627,56.243248
"2377",73.95621,56.256577
"2378",73.69985,56.269913
"2379",73.48501,56.28324
"2380",73.31655,56.296577
"2381",73.18471,56.309906
"2382",73.08949,56.323242
"2383",73.023575,56.33657
"2384",72.97475,56.349907
"2385",72.94057,56.363235
"2386",72.90639,56.37657
"2387",72.867325,56.3899
"2388",72.8185,56.403236
"2389",72.762344,56.416565
"2390",72.69398,56.4299
"2391",72.620735,56.44323
"2392",72.54505,56.456566
"2393",72.47181,56.469894
"2394",72.40589,56.48323
"2395",72.35218,56.49656
"2396",72.32044,56.509895
"2397",72.31312,56.523224
"2398",72.33265,56.53656
"2399",72.376595,56.54989
"2400",72.44007,56.563225
"2401",72.518196,56.576553
"2402",72.59632,56.58989
"2403",72.66712,56.603218
"2404",72.71595,56.616554
"2405",72.75258,56.629883
"2406",72.779434,56.64322
"2407",72.8307,56.656548
"2408",72.97719,56.669884
"2409",73.3727,56.683212
"2410",74.23941,56.69655
"2411",75.80682,56.709877
"2412",78.2092,56.723213
"2413",81.41238,56.73654
"2414",85.17708,56.749878
"2415",89.08827,56.763206
"2416",92.69184,56.776543
"2417",95.621574,56.78987
"2418",97.67483,56.803207
"2419",98.83452,56.816536
"2420",99.22514,56.829872
"2421",99.04204,56.8432
"2422",98.48783,56.856537
"2423",97.73098,56.869865
"2424",96.87404,56.8832
"2425",95.96094,56.89653
"2426",94.974594,56.909866
"2427",93.87106,56.923195
"2428",92.630806,56.93653
"2429",91.283134,56.94986
"2430",89.898834,56.963196
"2431",88.602425,56.976524
"2432",87.49645,56.98986
"2433",86.65171,57.00319
"2434",86.05356,57.016525
"2435",85.628746,57.029854
"2436",85.26742,57.04319
"2437",84.86946,57.05652
"2438",84.36408,57.069855
"2439",83.71221,57.083183
"2440",82.92119,57.09652
"2441",82.01541,57.109848
"2442",81.03639,57.123184
"2443",80.02319,57.136513
"2444",79.01732,57.14985
"2445",78.04318,57.163177
"2446",77.12764,57.176514
"2447",76.28535,57.189842
"2448",75.526054,57.20318
"2449",74.84978,57.216507
"2450",74.26627,57.229843
"2451",73.7731,57.24317
"2452",73.36782,57.256508
"2453",73.040665,57.269836
"2454",72.781876,57.283173
"2455",72.57923,57.2965
"2456",72.42542,57.309837
"2457",72.308235,57.323166
"2458",72.22034,57.336502
"2459",72.15442,57.34983
"2460",72.11047,57.363167
"2461",72.076294,57.376495
"2462",72.047,57.38983
"2463",72.02014,57.40316
"2464",71.98596,57.416496
"2465",71.94202,57.429825
"2466",71.885864,57.44316
"2467",71.82483,57.45649
"2468",71.76135,57.469826
"2469",71.70519,57.483154
"2470",71.66613,57.49649
"2471",71.64904,57.50982
"2472",71.656364,57.523155
"2473",71.68566,57.536484
"2474",71.744255,57.54982
"2475",71.81995,57.56315
"2476",71.91516,57.576485
"2477",72.01282,57.589813
"2478",72.10315,57.60315
"2479",72.17883,57.616478
"2480",72.232544,57.629814
"2481",72.26673,57.643143
"2482",72.29847,57.65648
"2483",72.359505,57.669807
"2484",72.52552,57.683144
"2485",72.96254,57.696472
"2486",73.9025,57.70981
"2487",75.56756,57.723137
"2488",78.08713,57.736473
"2489",81.41726,57.7498
"2490",85.28451,57.763138
"2491",89.26162,57.776466
"2492",92.88228,57.789803
"2493",95.77783,57.80313
"2494",97.7554,57.816467
"2495",98.810104,57.829796
"2496",99.088425,57.843132
"2497",98.7979,57.85646
"2498",98.16312,57.869797
"2499",97.3428,57.883125
"2500",96.43458,57.89646
"2501",95.467766,57.90979
"2502",94.41306,57.923126
"2503",93.23628,57.936455
"2504",91.930115,57.94979
"2505",90.53849,57.96312
"2506",89.15907,57.976456
"2507",87.90906,57.989784
"2508",86.88609,58.00312
"2509",86.12924,58.01645
"2510",85.60677,58.029785
"2511",85.22835,58.043114
"2512",84.89143,58.05645
"2513",84.491035,58.06978
"2514",83.966125,58.083115
"2515",83.29473,58.096443
"2516",82.48417,58.10978
"2517",81.56374,58.123108
"2518",80.57984,58.136444
"2519",79.57885,58.149773
"2520",78.607155,58.16311
"2521",77.69161,58.176437
"2522",76.85176,58.189774
"2523",76.09979,58.203102
"2524",75.44549,58.21644
"2525",74.881516,58.229767
"2526",74.40055,58.243103
"2527",74.00015,58.25643
"2528",73.670555,58.269768
"2529",73.39956,58.283096
"2530",73.18715,58.296432
"2531",73.023575,58.30976
"2532",72.901505,58.323097
"2533",72.80629,58.336426
"2534",72.73548,58.349762
"2535",72.66956,58.36309
"2536",72.61097,58.376427
"2537",72.55482,58.389755
"2538",72.498665,58.40309
"2539",72.444954,58.41642
"2540",72.396126,58.429756
"2541",72.35706,58.443085
"2542",72.33265,58.45642
"2543",72.31556,58.46975
"2544",72.308235,58.483086
"2545",72.30335,58.496414
"2546",72.30579,58.50975
"2547",72.31556,58.52308
"2548",72.32777,58.536415
"2549",72.3473,58.549744
"2550",72.36439,58.56308
"2551",72.38148,58.57641
"2552",72.40101,58.589745
"2553",72.42542,58.603073
"2554",72.47913,58.61641
"2555",72.637825,58.629738
"2556",73.04555,58.643074
"2557",73.9147,58.656403
"2558",75.46746,58.66974
"2559",77.840546,58.683067
"2560",80.99489,58.696404
"2561",84.68391,58.709732
"2562",88.50233,58.72307
"2563",91.998474,58.736397
"2564",94.80614,58.749733
"2565",96.72022,58.76306
"2566",97.73098,58.776398
"2567",97.96536,58.789726
"2568",97.626,58.803062
"2569",96.920425,58.81639
"2570",96.007324,58.829727
"2571",94.991684,58.843056
"2572",93.9028,58.85639
"2573",92.7187,58.86972
"2574",91.422295,58.883057
"2575",90.023346,58.896385
"2576",88.59266,58.90972
"2577",87.24254,58.92305
"2578",86.099945,58.936386
"2579",85.24788,58.949715
"2580",84.68879,58.96305
"2581",84.35676,58.97638
"2582",84.13214,58.989716
"2583",83.89288,59.003044
"2584",83.543755,59.01638
"2585",83.035934,59.02971
"2586",82.3621,59.043045
"2587",81.55154,59.056374
"2588",80.64088,59.06971
"2589",79.68139,59.08304
"2590",78.70725,59.096375
"2591",77.76242,59.109703
"2592",76.876175,59.12304
"2593",76.07538,59.136368
"2594",75.36736,59.149704
"2595",74.76189,59.163033
"2596",74.25407,59.17637
"2597",73.831696,59.189697
"2598",73.48745,59.203033
"2599",73.21156,59.216362
"2600",72.99916,59.2297
"2601",72.83803,59.243027
"2602",72.72816,59.256363
"2603",72.65736,59.26969
"2604",72.61829,59.283028
"2605",72.59632,59.296356
"2606",72.589,59.309692
"2607",72.58167,59.32302
"2608",72.57191,59.336357
"2609",72.55482,59.349686
"2610",72.52796,59.36302
"2611",72.49378,59.37635
"2612",72.45228,59.389687
"2613",72.40833,59.403015
"2614",72.36683,59.41635
"2615",72.33509,59.42968
"2616",72.31068,59.443016
"2617",72.30091,59.456345
"2618",72.30579,59.46968
"2619",72.318,59.48301
"2620",72.33509,59.496346
"2621",72.361946,59.509674
"2622",72.38392,59.52301
"2623",72.40345,59.53634
"2624",72.413216,59.549675
"2625",72.42298,59.563004
"2626",72.44984,59.57634
"2627",72.54749,59.58967
"2628",72.83559,59.603004
"2629",73.52651,59.616333
"2630",74.864426,59.62967
"2631",77.032425,59.642998
"2632",80.076904,59.656334
"2633",83.826965,59.669662
"2634",87.9115,59.683
"2635",91.85443,59.696327
"2636",95.21629,59.709663
"2637",97.71145,59.722992
"2638",99.24956,59.73633
"2639",99.90875,59.749657
"2640",99.87457,59.762993
"2641",99.369194,59.77632
"2642",98.583046,59.789658
"2643",97.64309,59.802986
"2644",96.60548,59.816322
"2645",95.465324,59.82965
"2646",94.19089,59.842987
"2647",92.76997,59.856316
"2648",91.23186,59.86965
"2649",89.66445,59.88298
"2650",88.19714,59.896317
"2651",86.95445,59.909645
"2652",86.012054,59.92298
"2653",85.365074,59.93631
"2654",84.93294,59.949646
"2655",84.59846,59.962975
"2656",84.23468,59.97631
"2657",83.76105,59.98964
"2658",83.13115,60.002975
"2659",82.34989,60.016304
"2660",81.446556,60.02964
"2661",80.46021,60.04297
"2662",79.43481,60.056305
"2663",78.41184,60.069633
"2664",77.43282,60.08297
"2665",76.51484,60.0963
"2666",75.67986,60.109634
"2667",74.94255,60.122963
"2668",74.30045,60.1363
"2669",73.75845,60.149628
"2670",73.31411,60.162964
"2671",72.955215,60.176292
"2672",72.66712,60.18963
"2673",72.44251,60.202957
"2674",72.26429,60.216293
"2675",72.12756,60.22962
"2676",72.02014,60.242958
"2677",71.93469,60.256287
"2678",71.85901,60.269623
"2679",71.78821,60.28295
"2680",71.724724,60.296288
"2681",71.673454,60.309616
"2682",71.62951,60.322952
"2683",71.59533,60.33628
"2684",71.55627,60.349617
"2685",71.51232,60.362946
"2686",71.46105,60.37628
"2687",71.40002,60.38961
"2688",71.346306,60.402946
"2689",71.309685,60.416275
"2690",71.29748,60.42961
"2691",71.31457,60.44294
"2692",71.363396,60.456276
"2693",71.43908,60.469604
"2694",71.53918,60.48294
"2695",71.6466,60.49627
"2696",71.75891,60.509605
"2697",71.86389,60.522934
"2698",71.95178,60.53627
"2699",72.02014,60.5496
"2700",72.06897,60.562935
"2701",72.10071,60.576263
"2702",72.12268,60.5896
"2703",72.14465,60.60293
"2704",72.198364,60.616264
"2705",72.36683,60.629593
"2706",72.8185,60.64293
"2707",73.80972,60.656258
"2708",75.58465,60.669594
"2709",78.26536,60.682922
"2710",81.78104,60.69626
"2711",85.83383,60.709587
"2712",89.95987,60.722923
"2713",93.66842,60.73625
"2714",96.59083,60.749588
"2715",98.55375,60.762917
"2716",99.57427,60.776253
"2717",99.81842,60.78958
"2718",99.49615,60.802917
"2719",98.82231,60.816246
"2720",97.95804,60.829582
"2721",97.00099,60.84291
"2722",95.973145,60.856247
"2723",94.85741,60.869576
"2724",93.609825,60.88291
"2725",92.21332,60.89624
"2726",90.70939,60.909576
"2727",89.19081,60.922905
"2728",87.784546,60.93624
"2729",86.61753,60.94957
"2730",85.750824,60.962906
"2731",85.16731,60.976234
"2732",84.771805,60.98957
"2733",84.43244,61.0029
"2734",84.0296,61.016235
"2735",83.48516,61.029564
"2736",82.76494,61.0429
"2737",81.8909,61.05623
"2738",80.907,61.069565
"2739",79.85962,61.082893
"2740",78.80003,61.09623
"2741",77.7673,61.10956
"2742",76.79805,61.122894
"2743",75.90936,61.136223
"2744",75.11833,61.14956
"2745",74.42741,61.162888
"2746",73.829254,61.176224
"2747",73.323875,61.189552
"2748",72.903946,61.20289
"2749",72.56214,61.216217
"2750",72.29359,61.229553
"2751",72.09094,61.24288
"2752",71.939575,61.256218
"2753",71.82727,61.269547
"2754",71.744255,61.282883
"2755",71.67834,61.29621
"2756",71.61974,61.309547
"2757",71.56603,61.322876
"2758",71.51476,61.336212
"2759",71.465935,61.34954
"2760",71.40978,61.362877
"2761",71.34875,61.376205
"2762",71.275505,61.38954
"2763",71.19249,61.40287
"2764",71.09483,61.416206
"2765",70.99718,61.429535
"2766",70.90929,61.44287
"2767",70.84093,61.4562
"2768",70.79942,61.469536
"2769",70.79454,61.482864
"2770",70.82628,61.4962
"2771",70.89464,61.50953
"2772",70.99962,61.522865
"2773",71.12657,61.536194
"2774",71.27062,61.54953
"2775",71.42931,61.56286
"2776",71.58068,61.576195
"2777",71.71252,61.589523
"2778",71.82239,61.60286
"2779",71.902954,61.616188
"2780",71.96155,61.629524
"2781",72.010376,61.642853
"2782",72.07141,61.65619
"2783",72.20325,61.669518
"2784",72.54017,61.682854
"2785",73.306786,61.696182
"2786",74.759445,61.70952
"2787",77.08858,61.722847
"2788",80.31617,61.736183
"2789",84.23712,61.74951
"2790",88.44373,61.762848
"2791",92.42573,61.776176
"2792",95.73388,61.789513
"2793",98.0972,61.80284
"2794",99.45464,61.816177
"2795",99.90875,61.829506
"2796",99.67681,61.842842
"2797",99.002975,61.85617
"2798",98.092316,61.869507
"2799",97.074234,61.882835
"2800",96.01221,61.89617
"2801",94.89159,61.9095
"2802",93.67574,61.922836
"2803",92.34028,61.936165
"2804",90.914474,61.9495
"2805",89.478905,61.96283
"2806",88.16052,61.976166
"2807",87.07164,61.989494
"2808",86.28794,62.00283
"2809",85.79233,62.01616
"2810",85.50179,62.029495
"2811",85.28939,62.042824
"2812",85.030594,62.05616
"2813",84.63752,62.06949
"2814",84.06134,62.082825
"2815",83.31182,62.096153
"2816",82.425575,62.10949
"2817",81.446556,62.122818
"2818",80.42359,62.136154
"2819",79.40795,62.149483
"2820",78.433815,62.16282
"2821",77.523155,62.176147
"2822",76.697945,62.189484
"2823",75.97772,62.202812
"2824",75.36004,62.21615
"2825",74.844894,62.229477
"2826",74.42008,62.242813
"2827",74.08072,62.25614
"2828",73.80728,62.269478
"2829",73.585106,62.282806
"2830",73.411766,62.296143
"2831",73.27993,62.30947
"2832",73.18227,62.322807
"2833",73.111465,62.336136
"2834",73.057755,62.349472
"2835",73.01869,62.3628
"2836",72.98207,62.376137
"2837",72.94301,62.389465
"2838",72.89662,62.4028
"2839",72.84291,62.41613
"2840",72.779434,62.429466
"2841",72.708626,62.442795
"2842",72.637825,62.45613
"2843",72.57191,62.46946
"2844",72.51331,62.482796
"2845",72.47181,62.496124
"2846",72.45472,62.50946
"2847",72.46937,62.52279
"2848",72.51087,62.536125
"2849",72.57435,62.549454
"2850",72.64759,62.56279
"2851",72.71595,62.57612
"2852",72.76967,62.589455
"2853",72.80141,62.602783
"2854",72.80873,62.61612
"2855",72.80629,62.629448
"2856",72.80629,62.642784
"2857",72.83803,62.656113
"2858",72.98207,62.66945
"2859",73.39468,62.682777
"2860",74.29801,62.696114
"2861",75.931335,62.709442
"2862",78.43626,62.72278
"2863",81.77127,62.736107
"2864",85.677574,62.749443
"2865",89.71084,62.76277
"2866",93.385216,62.776108
"2867",96.3003,62.789436
"2868",98.2559,62.802773
"2869",99.227585,62.8161
"2870",99.36431,62.829437
"2871",98.88823,62.842766
"2872",98.02884,62.856102
"2873",96.96925,62.86943
"2874",95.83154,62.882767
"2875",94.659645,62.896095
"2876",93.434044,62.90943
"2877",92.12787,62.92276
"2878",90.736244,62.936096
"2879",89.30068,62.949425
"2880",87.91882,62.96276
"2881",86.70542,62.97609
"2882",85.75571,62.989426
"2883",85.10628,63.002754
"2884",84.72297,63.01609
"2885",84.50324,63.02942
"2886",84.32258,63.042755
"2887",84.07355,63.056084
"2888",83.67803,63.06942
"2889",83.11162,63.08275
"2890",82.38163,63.096085
"2891",81.52224,63.109413
"2892",80.587166,63.12275
"2893",79.61547,63.136078
"2894",78.65598,63.149414
"2895",77.74044,63.162743
"2896",76.893265,63.17608
"2897",76.13641,63.189407
"2898",75.47723,63.202744
"2899",74.91325,63.216072
"2900",74.43717,63.22941
"2901",74.0441,63.242737
"2902",73.7145,63.256073
"2903",73.443504,63.2694
"2904",73.22133,63.282738
"2905",73.040665,63.296066
"2906",72.89418,63.309402
"2907",72.77699,63.32273
"2908",72.68421,63.336067
"2909",72.61829,63.349396
"2910",72.569466,63.362732
"2911",72.535286,63.37606
"2912",72.50355,63.389397
"2913",72.47181,63.402725
"2914",72.43275,63.41606
"2915",72.38392,63.42939
"2916",72.33021,63.442726
"2917",72.26917,63.456055
"2918",72.20569,63.46939
"2919",72.14465,63.48272
"2920",72.09338,63.496056
"2921",72.061646,63.509384
"2922",72.05432,63.52272
"2923",72.06897,63.53605
"2924",72.10315,63.549385
"2925",72.15198,63.562714
"2926",72.20813,63.57605
"2927",72.254524,63.58938
"2928",72.29847,63.602715
"2929",72.32777,63.616043
"2930",72.359505,63.62938
"2931",72.413216,63.642708
"2932",72.569466,63.656044
"2933",72.99184,63.669373
"2934",73.934235,63.68271
"2935",75.64568,63.696037
"2936",78.2678,63.709373
"2937",81.75906,63.722702
"2938",85.83627,63.73604
"2939",90.037994,63.749367
"2940",93.856415,63.762703
"2941",96.87892,63.77603
"2942",98.88579,63.789368
"2943",99.87457,63.802696
"2944",99.98688,63.816032
"2945",99.459526,63.82936
"2946",98.529335,63.842697
"2947",97.40139,63.856026
"2948",96.200195,63.86936
"2949",94.97215,63.88269
"2950",93.714806,63.896027
"2951",92.39399,63.909355
"2952",90.99504,63.92269
"2953",89.55215,63.93602
"2954",88.13855,63.949356
"2955",86.871445,63.962685
"2956",85.8436,63.97602
"2957",85.103836,63.98935
"2958",84.627754,64.002686
"2959",84.3299,64.016014
"2960",84.088196,64.02935
"2961",83.79523,64.04268
"2962",83.372856,64.056015
"2963",82.78447,64.06934
"2964",82.03006,64.08268
"2965",81.13893,64.09601
"2966",80.15991,64.109344
"2967",79.14183,64.12267
"2968",78.12863,64.13601
"2969",77.15938,64.14934
"2970",76.265816,64.162674
"2971",75.46746,64.176
"2972",74.76921,64.18934
"2973",74.175934,64.20267
"2974",73.69009,64.216
"2975",73.29946,64.22933
"2976",72.99672,64.24267
"2977",72.77699,64.256
"2978",72.63294,64.26933
"2979",72.5597,64.28266
"2980",72.535286,64.296
"2981",72.549934,64.309326
"2982",72.59144,64.32266
"2983",72.64027,64.33599
"2984",72.68665,64.34933
"2985",72.71839,64.362656
"2986",72.742805,64.37599
"2987",72.75258,64.38932
"2988",72.74525,64.40266
"2989",72.723274,64.415985
"2990",72.68665,64.42932
"2991",72.637825,64.44265
"2992",72.584114,64.455986
"2993",72.535286,64.469315
"2994",72.50111,64.48265
"2995",72.49134,64.49598
"2996",72.50111,64.509315
"2997",72.5304,64.522644
"2998",72.57435,64.53598
"2999",72.61585,64.54931
"3000",72.64759,64.562645
"3001",72.66956,64.57597
"3002",72.68177,64.58931
"3003",72.68177,64.60264
"3004",72.68421,64.615974
"3005",72.71839,64.6293
"3006",72.86977,64.64264
"3007",73.323875,64.65597
"3008",74.35172,64.669304
"3009",76.21942,64.68263
"3010",79.05882,64.69597
"3011",82.78935,64.7093
"3012",87.08385,64.72263
"3013",91.439384,64.73596
"3014",95.32128,64.7493
"3015",98.3267,64.76263
"3016",100.27253,64.77596
"3017",101.18074,64.78929
"3018",101.23201,64.80263
"3019",100.66804,64.815956
"3020",99.74029,64.82929
"3021",98.631874,64.84262
"3022",97.4551,64.85596
"3023",96.2417,64.869286
"3024",94.977036,64.88262
"3025",93.626915,64.89595
"3026",92.18646,64.90929
"3027",90.71671,64.922615
"3028",89.31289,64.93595
"3029",88.094604,64.94928
"3030",87.15221,64.962616
"3031",86.51011,64.975945
"3032",86.10483,64.98928
"3033",85.83627,65.00261
"3034",85.575035,65.015945
"3035",85.2137,65.029274
"3036",84.68391,65.04261
"3037",83.97345,65.05594
"3038",83.106735,65.069275
"3039",82.12283,65.0826
"3040",81.06813,65.09594
"3041",79.9939,65.10927
"3042",78.94896,65.122604
"3043",77.962616,65.13593
"3044",77.06416,65.14927
"3045",76.265816,65.1626
"3046",75.56756,65.175934
"3047",74.96452,65.18926
"3048",74.44694,65.2026
"3049",74.0148,65.21593
"3050",73.66567,65.22926
"3051",73.39468,65.24259
"3052",73.18959,65.25593
"3053",73.043106,65.26926
"3054",72.938126,65.28259
"3055",72.867325,65.29592
"3056",72.816055,65.30926
"3057",72.779434,65.322586
"3058",72.75502,65.33592
"3059",72.7306,65.34925
"3060",72.706184,65.36259
"3061",72.67689,65.375916
"3062",72.637825,65.38925
"3063",72.59388,65.40258
"3064",72.54017,65.41592
"3065",72.49134,65.429245
"3066",72.46204,65.44258
"3067",72.45472,65.45591
"3068",72.46204,65.469246
"3069",72.48402,65.482574
"3070",72.50111,65.49591
"3071",72.50843,65.50924
"3072",72.498665,65.522575
"3073",72.47669,65.535904
"3074",72.44984,65.54924
"3075",72.43519,65.56257
"3076",72.45716,65.575905
"3077",72.59876,65.58923
"3078",73.0309,65.60257
"3079",73.99527,65.6159
"3080",75.736015,65.629234
"3081",78.39475,65.64256
"3082",81.917755,65.6559
"3083",86.012054,65.66923
"3084",90.21866,65.68256
"3085",94.032196,65.69589
"3086",97.04738,65.70923
"3087",99.06401,65.72256
"3088",100.07721,65.73589
"3089",100.2359,65.74922
"3090",99.76959,65.76256
"3091",98.91264,65.77589
"3092",97.85306,65.78922
"3093",96.69825,65.80255
"3094",95.482414,65.81589
"3095",94.18356,65.829216
"3096",92.772415,65.84255
"3097",91.25872,65.85588
"3098",89.71084,65.86922
"3099",88.24597,65.882545
"3100",86.98619,65.89588
"3101",86.0267,65.90921
"3102",85.3724,65.92255
"3103",84.95979,65.935875
"3104",84.66926,65.94921
"3105",84.38361,65.96254
"3106",83.99054,65.975876
"3107",83.43145,65.989204
"3108",82.69413,66.00254
"3109",81.80301,66.01587
"3110",80.80202,66.029205
"3111",79.73998,66.042534
"3112",78.66575,66.05587
"3113",77.62325,66.0692
"3114",76.64423,66.082535
"3115",75.75067,66.09586
"3116",74.9572,66.1092
"3117",74.27116,66.12253
"3118",73.69009,66.135864
"3119",73.20912,66.14919
"3120",72.813614,66.16253
"3121",72.49378,66.17586
"3122",72.23743,66.18919
"3123",72.02991,66.20252
"3124",71.86633,66.21586
"3125",71.744255,66.22919
"3126",71.66125,66.24252
"3127",71.60754,66.25585
"3128",71.568474,66.26919
"3129",71.53918,66.28252
"3130",71.502556,66.29585
"3131",71.45617,66.30918
"3132",71.39269,66.32252
"3133",71.32433,66.335846
"3134",71.25353,66.34918
"3135",71.185165,66.36251
"3136",71.12657,66.37585
"3137",71.08751,66.389175
"3138",71.06554,66.40251
"3139",71.07042,66.41584
"3140",71.097275,66.42918
"3141",71.13878,66.442505
"3142",71.182724,66.45584
"3143",71.22667,66.46917
"3144",71.26086,66.482506
"3145",71.28527,66.495834
"3146",71.29748,66.50917
"3147",71.3048,66.5225
"3148",71.32433,66.535835
"3149",71.38781,66.549164
"3150",71.57824,66.5625
"3151",72.07385,66.57583
"3152",73.12123,66.589165
"3153",74.97185,66.60249
"3154",77.76486,66.61583
"3155",81.43923,66.62916
"3156",85.68246,66.642494
"3157",90.023346,66.65582
"3158",93.92966,66.66916
"3159",97.00099,66.68249
"3160",99.03471,66.69582
"3161",100.052795,66.70915
"3162",100.21149,66.72249
"3163",99.754944,66.73582
"3164",98.92241,66.74915
"3165",97.897,66.76248
"3166",96.78615,66.77582
"3167",95.61913,66.78915
"3168",94.37156,66.80248
"3169",93.00191,66.81581
"3170",91.507744,66.82915
"3171",89.94278,66.842476
"3172",88.41688,66.85581
"3173",87.07408,66.86914
"3174",86.01694,66.88248
"3175",85.28939,66.895805
"3176",84.83772,66.90914
"3177",84.54475,66.92247
"3178",84.26887,66.93581
"3179",83.89288,66.949135
"3180",83.34356,66.96247
"3181",82.60868,66.9758
"3182",81.71999,66.989136
"3183",80.719,67.002464
"3184",79.65453,67.0158
"3185",78.57786,67.02913
"3186",77.523155,67.042465
"3187",76.52705,67.05579
"3188",75.61639,67.06913
"3189",74.8156,67.08246
"3190",74.13443,67.095795
"3191",73.56313,67.10912
"3192",73.09926,67.12246
"3193",72.725716,67.13579
"3194",72.43519,67.149124
"3195",72.20325,67.16245
"3196",72.03235,67.17579
"3197",71.905396,67.18912
"3198",71.81506,67.20245
"3199",71.744255,67.21578
"3200",71.690544,67.22912
"3201",71.64904,67.24245
"3202",71.605095,67.25578
"3203",71.56359,67.26911
"3204",71.519646,67.28245
"3205",71.465935,67.29578
"3206",71.40002,67.30911
"3207",71.31945,67.32244
"3208",71.23155,67.33578
"3209",71.13878,67.349106
"3210",71.04845,67.36244
"3211",70.97276,67.37577
"3212",70.92149,67.38911
"3213",70.89708,67.402435
"3214",70.90196,67.41577
"3215",70.93858,67.4291
"3216",70.99718,67.44244
"3217",71.07286,67.455765
"3218",71.150986,67.4691
"3219",71.22911,67.48243
"3220",71.29748,67.495766
"3221",71.34875,67.509094
"3222",71.38537,67.52243
"3223",71.412224,67.53576
"3224",71.44396,67.549095
"3225",71.52453,67.56242
"3226",71.76135,67.57576
"3227",72.36927,67.58909
"3228",73.62173,67.602425
"3229",75.76776,67.61575
"3230",78.90013,67.62909
"3231",82.89189,67.64242
"3232",87.36706,67.655754
"3233",91.793396,67.66908
"3234",95.64843,67.68242
"3235",98.57084,67.69575
"3236",100.41657,67.70908
"3237",101.25399,67.72241
"3238",101.28329,67.73575
"3239",100.755936,67.74908
"3240",99.89899,67.76241
"3241",98.87846,67.77574
"3242",97.77249,67.78908
"3243",96.59327,67.80241
"3244",95.30663,67.81574
"3245",93.88083,67.82907
"3246",92.32075,67.84241
"3247",90.6923,67.855736
"3248",89.12245,67.86907
"3249",87.743034,67.8824
"3250",86.659035,67.89574
"3251",85.89487,67.909065
"3252",85.384605,67.9224
"3253",85.01106,67.93573
"3254",84.63752,67.949066
"3255",84.16388,67.962395
"3256",83.52178,67.97573
"3257",82.703896,67.98906
"3258",81.74197,68.002396
"3259",80.68238,68.015724
"3260",79.5642,68.02906
"3261",78.4387,68.04239
"3262",77.34493,68.055725
"3263",76.31953,68.06905
"3264",75.386894,68.08239
"3265",74.564125,68.09572
"3266",73.85367,68.109055
"3267",73.255516,68.12238
"3268",72.7599,68.13572
"3269",72.359505,68.14905
"3270",72.047,68.162384
"3271",71.81262,68.17571
"3272",71.64416,68.18905
"3273",71.52941,68.20238
"3274",71.448845,68.21571
"3275",71.39269,68.22904
"3276",71.35851,68.24238
"3277",71.33654,68.25571
"3278",71.312126,68.26904
"3279",71.28283,68.28237
"3280",71.24376,68.29571
"3281",71.19005,68.30904
"3282",71.11925,68.32237
"3283",71.03868,68.3357
"3284",70.95079,68.34904
"3285",70.86046,68.362366
"3286",70.77989,68.3757
"3287",70.72129,68.38903
"3288",70.694435,68.40237
"3289",70.70664,68.415695
"3290",70.75304,68.42903
"3291",70.82872,68.44236
"3292",70.92149,68.455696
"3293",71.01671,68.469025
"3294",71.10704,68.48236
"3295",71.18028,68.49569
"3296",71.23155,68.509026
"3297",71.2633,68.522354
"3298",71.28771,68.53569
"3299",71.32189,68.54902
"3300",71.42199,68.562355
"3301",71.7174,68.57568
"3302",72.43519,68.58902
"3303",73.85611,68.60235
"3304",76.207214,68.615685
"3305",79.53002,68.62901
"3306",83.63409,68.64235
"3307",88.097046,68.65568
"3308",92.369576,68.669014
"3309",95.95361,68.68234
"3310",98.53178,68.69568
"3311",100.01373,68.70901
"3312",100.50446,68.72234
"3313",100.226135,68.73567
"3314",99.44488,68.74901
"3315",98.38773,68.76234
"3316",97.21095,68.77567
"3317",95.98535,68.789
"3318",94.713356,68.80234
"3319",93.35592,68.81567
"3320",91.88617,68.829
"3321",90.32853,68.84233
"3322",88.77577,68.85567
"3323",87.3695,68.868996
"3324",86.236664,68.88233
"3325",85.44076,68.89566
"3326",84.964676,68.909
"3327",84.70588,68.922325
"3328",84.52277,68.93566
"3329",84.27863,68.94899
"3330",83.878235,68.962326
"3331",83.284966,68.975655
"3332",82.511024,68.98899
"3333",81.58816,69.00232
"3334",80.567635,69.015656
"3335",79.50561,69.028984
"3336",78.450905,69.04232
"3337",77.435265,69.05565
"3338",76.48798,69.068985
"3339",75.63836,69.08231
"3340",74.89128,69.09565
"3341",74.251625,69.10898
"3342",73.70962,69.122314
"3343",73.26528,69.13564
"3344",72.903946,69.14898
"3345",72.61829,69.16231
"3346",72.396126,69.175644
"3347",72.23743,69.18897
"3348",72.1178,69.20231
"3349",72.02991,69.21564
"3350",71.96155,69.22897
"3351",71.90784,69.2423
"3352",71.85901,69.25564
"3353",71.817505,69.26897
"3354",71.78088,69.2823
"3355",71.744255,69.29563
"3356",71.70519,69.30897
"3357",71.656364,69.322296
"3358",71.60754,69.33563
"3359",71.55871,69.34896
"3360",71.517204,69.3623
"3361",71.49279,69.375626
"3362",71.485466,69.38896
"3363",71.49279,69.40229
"3364",71.51476,69.41563
"3365",71.54162,69.428955
"3366",71.570915,69.44229
"3367",71.59045,69.45562
"3368",71.59533,69.468956
"3369",71.59045,69.482285
"3370",71.57824,69.49562
"3371",71.58068,69.50895
"3372",71.64416,69.522285
"3373",71.888306,69.535614
"3374",72.518196,69.54895
"3375",73.80728,69.56228
"3376",75.98749,69.575615
"3377",79.13451,69.58894
"3378",83.09453,69.60228
"3379",87.484245,69.61561
"3380",91.77142,69.628944
"3381",95.44579,69.64227
"3382",98.160675,69.65561
"3383",99.78912,69.66894
"3384",100.40681,69.682274
"3385",100.21637,69.6956
"3386",99.4815,69.70894
"3387",98.41703,69.72227
"3388",97.20119,69.7356
"3389",95.91455,69.74893
"3390",94.57908,69.76227
"3391",93.1606,69.7756
"3392",91.646904,69.78893
"3393",90.05264,69.80226
"3394",88.45838,69.8156
"3395",86.98619,69.828926
"3396",85.76059,69.84226
"3397",84.86702,69.85559
"3398",84.315254,69.86893
"3399",84.02228,69.882256
"3400",83.85382,69.89559
"3401",83.67559,69.90892
"3402",83.37774,69.92226
"3403",82.89433,69.935585
"3404",82.210724,69.94892
"3405",81.358665,69.96225
"3406",80.39185,69.975586
"3407",79.35424,69.988914
"3408",78.29954,70.00225
"3409",77.27413,70.01558
"3410",76.3122,70.028915
"3411",75.43572,70.042244
"3412",74.666664,70.05558
"3413",74.00748,70.06891
"3414",73.463036,70.082245
"3415",73.02113,70.09557
"3416",72.67689,70.10891
"3417",72.410774,70.12224
"3418",72.21301,70.135574
"3419",72.07385,70.1489
"3420",71.98108,70.16224
"3421",71.92493,70.17557
"3422",71.90051,70.1889
"3423",71.89807,70.20223
"3424",71.91516,70.21557
"3425",71.939575,70.2289
"3426",71.96643,70.24223
"3427",71.98352,70.25556
"3428",71.98352,70.2689
"3429",71.956665,70.28223
"3430",71.90051,70.29556
"3431",71.81995,70.30889
"3432",71.727165,70.32223
"3433",71.639275,70.335556
"3434",71.56603,70.34889
"3435",71.52209,70.36222
"3436",71.50744,70.37556
"3437",71.52941,70.388885
"3438",71.58068,70.40222
"3439",71.66369,70.41555
"3440",71.766235,70.42889
"3441",71.88098,70.442215
"3442",71.99573,70.45555
"3443",72.09338,70.46888
"3444",72.16174,70.482216
"3445",72.20569,70.495544
"3446",72.234985,70.50888
"3447",72.274055,70.52221
"3448",72.393684,70.535545
"3449",72.75014,70.548874
"3450",73.58755,70.56221
"3451",75.20378,70.57554
"3452",77.81369,70.588875
"3453",81.42947,70.6022
"3454",85.80698,70.61554
"3455",90.4799,70.62887
"3456",94.8745,70.642204
"3457",98.48783,70.65553
"3458",101.01961,70.66887
"3459",102.40879,70.6822
"3460",102.78233,70.69553
"3461",102.37705,70.70886
"3462",101.46395,70.7222
"3463",100.27497,70.73553
"3464",98.97612,70.74886
"3465",97.63821,70.76219
"3466",96.273445,70.77553
"3467",94.84764,70.78886
"3468",93.32906,70.80219
"3469",91.72503,70.81552
"3470",90.11612,70.82886
"3471",88.61707,70.842186
"3472",87.345085,70.85552
"3473",86.380714,70.86885
"3474",85.731285,70.88219
"3475",85.31869,70.895515
"3476",85.02571,70.90885
"3477",84.71809,70.92218
"3478",84.29572,70.93552
"3479",83.70733,70.948845
"3480",82.93584,70.96218
"3481",82.00076,70.97551
"3482",80.96071,70.988846
"3483",79.85962,71.002174
"3484",78.75853,71.01551
"3485",77.69405,71.02884
"3486",76.700386,71.042175
"3487",75.792175,71.055504
"3488",74.986496,71.06884
"3489",74.28092,71.08217
"3490",73.68032,71.095505
"3491",73.17738,71.10883
"3492",72.764786,71.12217
"3493",72.43275,71.1355
"3494",72.166626,71.148834
"3495",71.956665,71.16216
"3496",71.79553,71.1755
"3497",71.66613,71.18883
"3498",71.55871,71.20216
"3499",71.46105,71.21549
"3500",71.36584,71.22883
"3501",71.27062,71.24216
"3502",71.168076,71.25549
"3503",71.06065,71.26882
"3504",70.95079,71.28216
"3505",70.838486,71.29549
"3506",70.72373,71.30882
"3507",70.61387,71.32215
"3508",70.50889,71.33549
"3509",70.416115,71.348816
"3510",70.35264,71.36215
"3511",70.32578,71.37548
"3512",70.34287,71.38882
"3513",70.40147,71.402145
"3514",70.49668,71.41548
"3515",70.61143,71.42881
"3516",70.73106,71.44215
"3517",70.84337,71.455475
"3518",70.941025,71.46881
"3519",71.01915,71.48214
"3520",71.07774,71.495476
"3521",71.12901,71.508804
"3522",71.20714,71.52214
"3523",71.39269,71.53547
"3524",71.87366,71.548805
"3525",72.918594,71.56213
"3526",74.810715,71.57547
"3527",77.72579,71.5888
"3528",81.619896,71.602135
"3529",86.185394,71.61546
"3530",90.90959,71.6288
"3531",95.21141,71.64213
"3532",98.62699,71.655464
"3533",100.90242,71.66879
"3534",102.03281,71.68213
"3535",102.186615,71.69546
"3536",101.6202,71.70879
"3537",100.60944,71.72212
"3538",99.37408,71.73546
"3539",98.058136,71.74879
"3540",96.71534,71.76212
"3541",95.33837,71.77545
"3542",93.890594,71.78879
"3543",92.350044,71.80212
"3544",90.75334,71.81545
"3545",89.19081,71.82878
"3546",87.79431,71.84212
"3547",86.6688,71.855446
"3548",85.87045,71.86878
"3549",85.37484,71.88211
"3550",85.07942,71.89545
"3551",84.857254,71.908775
"3552",84.58137,71.92211
"3553",84.16632,71.93544
"3554",83.56573,71.94878
"3555",82.78447,71.962105
"3556",81.849396,71.97544
"3557",80.81178,71.98877
"3558",79.725334,72.002106
"3559",78.63401,72.015434
"3560",77.58663,72.02877
"3561",76.60517,72.0421
"3562",75.71404,72.055435
"3563",74.92546,72.06876
"3564",74.24429,72.0821
"3565",73.673,72.09543
"3566",73.20912,72.108765
"3567",72.84047,72.12209
"3568",72.54749,72.13543
"3569",72.325325,72.14876
"3570",72.16174,72.162094
"3571",72.05188,72.17542
"3572",71.9884,72.18876
"3573",71.96643,72.20209
"3574",71.97131,72.21542
"3575",71.99573,72.22875
"3576",72.02014,72.24209
"3577",72.03723,72.25542
"3578",72.047,72.26875
"3579",72.047,72.28208
"3580",72.03723,72.29542
"3581",72.02258,72.30875
"3582",72.00549,72.32208
"3583",71.993286,72.33541
"3584",71.98352,72.34875
"3585",71.98108,72.362076
"3586",71.98352,72.37541
"3587",71.990845,72.38874
"3588",71.993286,72.40208
"3589",71.98596,72.415405
"3590",71.96155,72.42874
"3591",71.92981,72.44207
"3592",71.91028,72.45541
"3593",71.94446,72.468735
"3594",72.164185,72.48207
"3595",72.798965,72.4954
"3596",74.11978,72.508736
"3597",76.36591,72.522064
"3598",79.622795,72.5354
"3599",83.72686,72.54873
"3600",88.2826,72.562065
"3601",92.733345,72.57539
"3602",96.549324,72.58873
"3603",99.36187,72.60206
"3604",101.034256,72.615395
"3605",101.64217,72.62872
"3606",101.402916,72.64206
"3607",100.58503,72.65539
"3608",99.439995,72.668724
"3609",98.14847,72.68205
"3610",96.79103,72.69539
"3611",95.38964,72.70872
"3612",93.924774,72.72205
"3613",92.384224,72.73538
"3614",90.80461,72.74872
"3615",89.27871,72.76205
"3616",87.93591,72.77538
"3617",86.88609,72.78871
"3618",86.170746,72.80205
"3619",85.75571,72.81538
"3620",85.53353,72.82871
"3621",85.36996,72.84204
"3622",85.13069,72.85538
"3623",84.72297,72.868706
"3624",84.10773,72.88204
"3625",83.3045,72.89537
"3626",82.34989,72.90871
"3627",81.304955,72.922035
"3628",80.23071,72.93537
"3629",79.168686,72.9487
"3630",78.15549,72.962036
"3631",77.21797,72.975365
"3632",76.368355,72.9887
"3633",75.61639,73.00203
"3634",74.969406,73.015366
"3635",74.42008,73.028694
"3636",73.95621,73.04203
"3637",73.5729,73.05536
"3638",73.26284,73.068695
"3639",73.01625,73.08202
"3640",72.82826,73.09536
"3641",72.69642,73.10869
"3642",72.61341,73.122025
"3643",72.56458,73.13535
"3644",72.53773,73.14869
"3645",72.518196,73.16202
"3646",72.4889,73.175354
"3647",72.44251,73.18868
"3648",72.38392,73.20202
"3649",72.318,73.21535
"3650",72.24475,73.22868
"3651",72.17151,73.24201
"3652",72.10315,73.25535
"3653",72.03967,73.26868
"3654",71.993286,73.28201
"3655",71.96399,73.29534
"3656",71.95422,73.30868
"3657",71.95178,73.32201
"3658",71.9469,73.33534
"3659",71.93469,73.34867
"3660",71.905396,73.36201
"3661",71.86389,73.375336
"3662",71.817505,73.38867
"3663",71.783325,73.402
"3664",71.79553,73.41534
"3665",71.95911,73.428665
"3666",72.47181,73.442
"3667",73.599754,73.45533
"3668",75.596855,73.468666
"3669",78.590065,73.481995
"3670",82.48173,73.49533
"3671",86.922714,73.50866
"3672",91.39788,73.521996
"3673",95.37011,73.535324
"3674",98.43412,73.54866
"3675",100.401924,73.56199
"3676",101.315025,73.575325
"3677",101.36874,73.58865
"3678",100.79988,73.60199
"3679",99.85748,73.61532
"3680",98.722206,73.628654
"3681",97.48928,73.64198
"3682",96.180664,73.65532
"3683",94.77684,73.66865
"3684",93.25094,73.681984
"3685",91.615166,73.69531
"3686",89.94766,73.70865
"3687",88.37293,73.72198
"3688",87.03746,73.73531
"3689",86.029144,73.74864
"3690",85.36019,73.76198
"3691",84.95979,73.77531
"3692",84.69367,73.78864
"3693",84.41535,73.80197
"3694",84.01495,73.81531
"3695",83.43389,73.828636
"3696",82.65995,73.84197
"3697",81.722435,73.8553
"3698",80.67017,73.86864
"3699",79.554436,73.881966
"3700",78.42893,73.8953
"3701",77.332726,73.90863
"3702",76.30976,73.92197
"3703",75.38201,73.935295
"3704",74.56901,73.94863
"3705",73.87808,73.96196
"3706",73.29702,73.975296
"3707",72.816055,73.988625
"3708",72.42542,74.00196
"3709",72.11047,74.01529
"3710",71.86389,74.028625
"3711",71.675896,74.041954
"3712",71.53918,74.05529
"3713",71.43908,74.06862
"3714",71.37316,74.081955
"3715",71.329216,74.09528
"3716",71.29992,74.10862
"3717",71.27306,74.12195
"3718",71.2462,74.135284
"3719",71.2047,74.14861
"3720",71.14122,74.16195
"3721",71.05333,74.17528
"3722",70.95323,74.188614
"3723",70.84337,74.20194
"3724",70.74082,74.21528
"3725",70.65293,74.22861
"3726",70.591896,74.24194
"3727",70.56016,74.25527
"3728",70.56748,74.26861
"3729",70.61875,74.28194
"3730",70.70664,74.29527
"3731",70.82628,74.3086
"3732",70.96788,74.32194
"3733",71.114365,74.335266
"3734",71.24132,74.3486
"3735",71.34142,74.36193
"3736",71.414665,74.37527
"3737",71.47082,74.388596
"3738",71.519646,74.40193
"3739",71.59533,74.41526
"3740",71.78821,74.4286
"3741",72.27894,74.441925
"3742",73.33608,74.45526
"3743",75.23796,74.46859
"3744",78.153046,74.481926
"3745",82.02518,74.495255
"3746",86.54673,74.50859
"3747",91.205,74.52192
"3748",95.448235,74.535255
"3749",98.83452,74.548584
"3750",101.13435,74.56192
"3751",102.3502,74.57525
"3752",102.65537,74.588585
"3753",102.294044,74.60191
"3754",101.51766,74.61525
"3755",100.51423,74.62858
"3756",99.405815,74.641914
"3757",98.211945,74.65524
"3758",96.91554,74.66858
"3759",95.47265,74.68191
"3760",93.87106,74.695244
"3761",92.154724,74.70857
"3762",90.43839,74.72191
"3763",88.868546,74.73524
"3764",87.572136,74.74857
"3765",86.61265,74.7619
"3766",85.9559,74.77524
"3767",85.49203,74.78857
"3768",85.08675,74.8019
"3769",84.60578,74.81523
"3770",83.97101,74.82857
"3771",83.158005,74.841896
"3772",82.18143,74.85523
"3773",81.077896,74.86856
"3774",79.89624,74.8819
"3775",78.68284,74.895226
"3776",77.486534,74.90856
"3777",76.34638,74.92189
"3778",75.29656,74.93523
"3779",74.356606,74.948555
"3780",73.54116,74.96189
"3781",72.84779,74.97522
"3782",72.274055,74.988556
"3783",71.80286,75.001884
"3784",71.42931,75.01522
"3785",71.14366,75.02855
"3786",70.9337,75.041885
"3787",70.78233,75.055214
"3788",70.68223,75.06855
"3789",70.61875,75.08188
"3790",70.57481,75.095215
"3791",70.54307,75.10854
"3792",70.518654,75.12188
"3793",70.49668,75.13521
"3794",70.47471,75.148544
"3795",70.450294,75.16187
"3796",70.421,75.17521
"3797",70.38438,75.18854
"3798",70.33311,75.20187
"3799",70.26963,75.2152
"3800",70.20126,75.22854
"3801",70.135345,75.24187
"3802",70.084076,75.2552
"3803",70.05966,75.26853
"3804",70.06943,75.28187
"3805",70.1207,75.2952
"3806",70.20859,75.30853
"3807",70.34043,75.32186
"3808",70.504005,75.3352
"3809",70.694435,75.348526
"3810",70.89708,75.36186
"3811",71.10704,75.37519
"3812",71.312126,75.38853
"3813",71.49523,75.401855
"3814",71.64904,75.41519
"3815",71.76868,75.42852
"3816",71.854126,75.44186
"3817",71.90784,75.455185
"3818",71.96155,75.46852
"3819",72.09094,75.48185
"3820",72.46204,75.495186
"3821",73.33364,75.508514
"3822",75.00847,75.52185
"3823",77.68917,75.53518
"3824",81.38308,75.548515
"3825",85.824066,75.561844
"3826",90.53361,75.57518
"3827",94.92821,75.58851
"3828",98.51713,75.601845
"3829",101.017166,75.61517
"3830",102.3917,75.62851
"3831",102.7921,75.64184
"3832",102.47227,75.655174
"3833",101.698326,75.6685
"3834",100.680244,75.68184
"3835",99.55474,75.69517
"3836",98.3682,75.7085
"3837",97.09621,75.72183
"3838",95.69482,75.73517
"3839",94.14206,75.7485
"3840",92.472115,75.76183
"3841",90.7802,75.77516
"3842",89.21278,75.7885
"3843",87.90662,75.80183
"3844",86.93248,75.81516
"3845",86.27085,75.82849
"3846",85.81674,75.84183
"3847",85.43832,75.855156
"3848",84.99397,75.86849
"3849",84.39338,75.88182
"3850",83.60479,75.89516
"3851",82.64042,75.908485
"3852",81.54421,75.92182
"3853",80.37232,75.93515
"3854",79.18822,75.94849
"3855",78.03586,75.961815
"3856",76.961624,75.97515
"3857",75.98749,75.98848
"3858",75.123215,76.001816
"3859",74.37614,76.015144
"3860",73.73647,76.02848
"3861",73.19203,76.04181
"3862",72.7306,76.055145
"3863",72.3473,76.068474
"3864",72.03479,76.08181
"3865",71.783325,76.09514
"3866",71.58556,76.108475
"3867",71.43664,76.1218
"3868",71.326775,76.13514
"3869",71.25109,76.14847
"3870",71.199814,76.161804
"3871",71.16319,76.17513
"3872",71.133896,76.18847
"3873",71.10216,76.2018
"3874",71.05333,76.21513
"3875",70.977646,76.22846
"3876",70.88243,76.2418
"3877",70.77013,76.25513
"3878",70.65293,76.26846
"3879",70.54307,76.28179
"3880",70.45518,76.29513
"3881",70.40391,76.30846
"3882",70.39414,76.32179
"3883",70.42588,76.33512
"3884",70.49912,76.34846
"3885",70.606544,76.361786
"3886",70.74082,76.37512
"3887",70.8922,76.38845
"3888",71.05089,76.40179
"3889",71.20714,76.415115
"3890",71.34875,76.42845
"3891",71.46349,76.44179
"3892",71.551384,76.455124
"3893",71.60754,76.46846
"3894",71.65392,76.4818
"3895",71.73693,76.49513
"3896",71.97864,76.50847
"3897",72.59388,76.521805
"3898",73.85611,76.53514
"3899",75.98993,76.54848
"3900",79.063705,76.56181
"3901",82.916306,76.57515
"3902",87.15709,76.588486
"3903",91.266045,76.60182
"3904",94.75487,76.61516
"3905",97.29641,76.628494
"3906",98.78569,76.64183
"3907",99.3106,76.65517
"3908",99.090866,76.6685
"3909",98.38285,76.68184
"3910",97.40383,76.695175
"3911",96.307625,76.70851
"3912",95.15282,76.72185
"3913",93.93454,76.73518
"3914",92.611275,76.74852
"3915",91.15617,76.761856
"3916",89.6083,76.77519
"3917",88.06531,76.78853
"3918",86.66392,76.801865
"3919",85.52621,76.8152
"3920",84.72053,76.82854
"3921",84.23468,76.84187
"3922",83.97101,76.85521
"3923",83.79767,76.868546
"3924",83.58282,76.88188
"3925",83.228806,76.89522
"3926",82.686806,76.908554
"3927",81.9617,76.92189
"3928",81.094986,76.93523
"3929",80.130615,76.94856
"3930",79.12474,76.9619
"3931",78.13107,76.975235
"3932",77.18379,76.98857
"3933",76.30732,77.00191
"3934",75.51385,77.01524
"3935",74.82536,77.02858
"3936",74.232086,77.041916
"3937",73.72915,77.05525
"3938",73.30923,77.06859
"3939",72.972305,77.081924
"3940",72.70374,77.09526
"3941",72.50355,77.1086
"3942",72.35706,77.12193
"3943",72.256966,77.13527
"3944",72.19104,77.148605
"3945",72.149536,77.16194
"3946",72.12268,77.17528
"3947",72.10559,77.188614
"3948",72.0885,77.20195
"3949",72.061646,77.21529
"3950",72.025024,77.22862
"3951",71.96643,77.24196
"3952",71.89563,77.255295
"3953",71.81262,77.26863
"3954",71.72961,77.28197
"3955",71.658806,77.2953
"3956",71.6173,77.30864
"3957",71.60754,77.321976
"3958",71.63439,77.33531
"3959",71.68566,77.34865
"3960",71.75403,77.361984
"3961",71.83215,77.37532
"3962",71.90784,77.38866
"3963",71.98108,77.40199
"3964",72.044556,77.41533
"3965",72.09338,77.428665
"3966",72.13489,77.442
"3967",72.164185,77.45534
"3968",72.20813,77.46867
"3969",72.318,77.48201
"3970",72.63538,77.495346
"3971",73.37026,77.50868
"3972",74.77898,77.52202
"3973",77.04463,77.535355
"3974",80.17456,77.54869
"3975",83.95148,77.56203
"3976",87.955444,77.57536
"3977",91.68597,77.5887
"3978",94.7158,77.602036
"3979",96.80568,77.61537
"3980",97.918976,77.62871
"3981",98.18509,77.642044
"3982",97.8262,77.65538
"3983",97.07179,77.66872
"3984",96.11963,77.68205
"3985",95.08934,77.69539
"3986",94.01755,77.708725
"3987",92.90425,77.72206
"3988",91.7055,77.7354
"3989",90.40177,77.74873
"3990",89.02724,77.76207
"3991",87.674675,77.775406
"3992",86.45884,77.78874
"3993",85.48226,77.80208
"3994",84.79622,77.815414
"3995",84.37873,77.82875
"3996",84.14435,77.84209
"3997",83.97833,77.85542
"3998",83.76349,77.86876
"3999",83.424126,77.882095
"4000",82.92363,77.89543
"4001",82.266884,77.90877
"4002",81.48318,77.922104
"4003",80.61402,77.93544
"4004",79.70336,77.94878
"4005",78.79027,77.96211
"4006",77.90402,77.97545
"4007",77.069046,77.988785
"4008",76.30732,78.00212
"4009",75.62859,78.01546
"4010",75.037766,78.02879
"4011",74.53727,78.04213
"4012",74.12222,78.055466
"4013",73.78287,78.0688
"4014",73.51675,78.08214
"4015",73.31899,78.095474
"4016",73.17738,78.10881
"4017",73.08461,78.12215
"4018",73.02846,78.13548
"4019",72.99428,78.14882
"4020",72.972305,78.162155
"4021",72.95766,78.17549
"4022",72.94545,78.18883
"4023",72.94057,78.20216
"4024",72.94057,78.2155
"4025",72.935684,78.228836
"4026",72.92348,78.24217
"4027",72.90639,78.25551
"4028",72.87465,78.268845
"4029",72.833145,78.28218
"4030",72.78432,78.29552
"4031",72.73304,78.30885
"4032",72.68665,78.32219
"4033",72.6598,78.335526
"4034",72.65736,78.34886
"4035",72.68665,78.3622
"4036",72.742805,78.375534
"4037",72.82582,78.38887
"4038",72.921036,78.40221
"4039",73.01869,78.41554
"4040",73.18471,78.442215
"4041",73.23598,78.45555
"4042",73.270164,78.46889
"4043",73.29458,78.48222
"4044",73.340965,78.49556
"4045",73.48745,78.508896
"4046",73.91226,78.52223
"4047",74.87419,78.53557
"4048",76.627144,78.548904
"4049",79.29809,78.56224
"4050",82.82109,78.57558
"4051",86.87877,78.58891
"4052",90.982834,78.60225
"4053",94.61814,78.615585
"4054",97.4136,78.62892
"4055",99.19829,78.64226
"4056",100.02106,78.655594
"4057",100.052795,78.66893
"4058",99.54009,78.68227
"4059",98.702675,78.6956
"4060",97.71145,78.70894
"4061",96.66895,78.722275
"4062",95.60937,78.73561
"4063",94.51316,78.74895
"4064",93.34127,78.76228
"4065",92.06195,78.77562
"4066",90.69962,78.788956
"4067",89.32998,78.80229
"4068",88.05798,78.81563
"4069",86.99107,78.828964
"4070",86.20004,78.8423
"4071",85.6849,78.85564
"4072",85.3724,78.86897
"4073",85.14778,78.88231
"4074",84.89632,78.895645
"4075",84.52277,78.90898
"4076",83.9881,78.92232
"4077",83.28985,78.93565
"4078",82.4622,78.94899
"4079",81.54665,78.962326
"4080",80.58961,78.97566
"4081",79.62524,78.989
"4082",78.69016,79.002335
"4083",77.81125,79.01567
"4084",77.00557,79.02901
"4085",76.29023,79.04234
"4086",75.6701,79.05568
"4087",75.14519,79.069016
"4088",74.703285,79.08235
"4089",74.337074,79.09569
"4090",74.03433,79.109024
"4091",73.78775,79.12236
"4092",73.59487,79.1357
"4093",73.44839,79.14903
"4094",73.34341,79.16237
"4095",73.26528,79.175705
"4096",73.2018,79.18904
"4097",73.14076,79.20238
"4098",73.077286,79.21571
"4099",73.01625,79.22905
"4100",72.952774,79.242386
"4101",72.89174,79.25572
"4102",72.82582,79.26906
"4103",72.75258,79.282394
"4104",72.66712,79.29573
"4105",72.57679,79.30907
"4106",72.48646,79.3224
"4107",72.40589,79.33574
"4108",72.3473,79.349075
"4109",72.31312,79.36241
"4110",72.30579,79.37575
"4111",72.33265,79.389084
"4112",72.38392,79.40242
"4113",72.45716,79.41576
"4114",72.53773,79.42909
"4115",72.61829,79.44243
"4116",72.68665,79.455765
"4117",72.74525,79.4691
"4118",72.78676,79.48244
"4119",72.8185,79.49577
"4120",72.86,79.50911
"4121",72.94545,79.522446
"4122",73.18959,79.53578
"4123",73.8024,79.54912
"4124",75.04997,79.562454
"4125",77.154495,79.57579
"4126",80.17944,79.58913
"4127",83.963684,79.60246
"4128",88.11658,79.6158
"4129",92.12787,79.629135
"4130",95.52148,79.64247
"4131",97.99466,79.65581
"4132",99.459526,79.66914
"4133",100.00641,79.68248
"4134",99.842834,79.695816
"4135",99.20073,79.70915
"4136",98.29252,79.72249
"4137",97.26467,79.735825
"4138",96.197754,79.74916
"4139",95.10643,79.7625
"4140",93.96872,79.77583
"4141",92.74067,79.78917
"4142",91.41741,79.802505
"4143",90.03311,79.81584
"4144",88.67567,79.82918
"4145",87.45495,79.842514
"4146",86.47105,79.85585
"4147",85.76303,79.86919
"4148",85.30648,79.88252
"4149",85.013504,79.89586
"4150",84.771805,79.909195
"4151",84.47883,79.92253
"4152",84.06134,79.93587
"4153",83.49004,79.9492
"4154",82.76738,79.96254
"4155",81.9324,79.975876
"4156",81.01686,79.98921
"4157",80.06714,80.00255
"4158",79.11986,80.015884
"4159",78.20676,80.02922
"4160",77.34249,80.04256
"4161",76.55634,80.05589
"4162",75.860535,80.06923
"4163",75.24773,80.082565
"4164",74.720375,80.0959
"4165",74.27848,80.10924
"4166",73.90494,80.122574
"4167",73.59243,80.13591
"4168",73.33608,80.14925
"4169",73.126114,80.16258
"4170",72.95033,80.17592
"4171",72.80629,80.189255
"4172",72.67933,80.20259
"4173",72.567024,80.21593
"4174",72.47181,80.22926
"4175",72.38392,80.2426
"4176",72.30335,80.255936
"4177",72.232544,80.26927
"4178",72.1593,80.28261
"4179",72.08362,80.295944
"4180",72.00549,80.30928
"4181",71.92493,80.32262
"4182",71.84436,80.33595
"4183",71.766235,80.34929
"4184",71.69787,80.362625
"4185",71.641716,80.37596
"4186",71.605095,80.3893
"4187",71.59777,80.40263
"4188",71.6173,80.41597
"4189",71.656364,80.429306
"4190",71.70275,80.44264
"4191",71.7467,80.45598
"4192",71.776,80.469315
"4193",71.79065,80.48265
"4194",71.80286,80.49599
"4195",71.834595,80.50932
"4196",71.956665,80.52266
"4197",72.33997,80.535995
"4198",73.22621,80.54933
"4199",74.87663,80.56267
"4200",77.44747,80.576004
"4201",80.89235,80.58934
"4202",84.9305,80.60268
"4203",89.093155,80.61601
"4204",92.85542,80.62935
"4205",95.816895,80.642685
"4206",97.760284,80.65602
"4207",98.69535,80.66936
"4208",98.778366,80.68269
"4209",98.24368,80.69603
"4210",97.32571,80.709366
"4211",96.217285,80.7227
"4212",95.045395,80.73604
"4213",93.856415,80.749374
"4214",92.647896,80.76271
"4215",91.39788,80.77605
"4216",90.10147,80.78938
"4217",88.797745,80.80272
"4218",87.55749,80.816055
"4219",86.485695,80.82939
"4220",85.66537,80.84273
"4221",85.12337,80.856064
"4222",84.81331,80.8694
"4223",84.65461,80.88274
"4224",84.52766,80.89607
"4225",84.332344,80.90941
"4226",84.00275,80.922745
"4227",83.509575,80.93608
"4228",82.86015,80.94942
"4229",82.08377,80.96275
"4230",81.21706,80.97609
"4231",80.308846,80.989426
"4232",79.39086,81.00276
"4233",78.49485,81.0161
"4234",77.65499,81.029434
"4235",76.8835,81.04277
"4236",76.192566,81.05611
"4237",75.58465,81.06944
"4238",75.06462,81.08278
"4239",74.62516,81.096115
"4240",74.26627,81.10945
"4241",73.97574,81.12279
"4242",73.75113,81.13612
"4243",73.585106,81.14946
"4244",73.47036,81.162796
"4245",73.392235,81.17613
"4246",73.33364,81.18947
"4247",73.289696,81.202805
"4248",73.25063,81.21614
"4249",73.21156,81.22948
"4250",73.17738,81.24281
"4251",73.145645,81.25615
"4252",73.12123,81.269485
"4253",73.09926,81.28282
"4254",73.0724,81.29616
"4255",73.043106,81.309494
"4256",73.00893,81.32283
"4257",72.96742,81.33617
"4258",72.918594,81.3495
"4259",72.85756,81.36284
"4260",72.78432,81.376175
"4261",72.69642,81.38951
"4262",72.601204,81.40285
"4263",72.49622,81.41618
"4264",72.40101,81.42952
"4265",72.34486,81.442856
"4266",72.39124,81.45619
"4267",72.69886,81.46953
"4268",73.50698,81.482864
"4269",75.06706,81.4962
"4270",77.5256,81.50954
"4271",80.831314,81.52287
"4272",84.715645,81.53621
"4273",88.71717,81.549545
"4274",92.332954,81.56288
"4275",95.15282,81.57622
"4276",96.96681,81.589554
"4277",97.77249,81.60289
"4278",97.721214,81.61623
"4279",97.04494,81.62956
"4280",95.98047,81.6429
"4281",94.728004,81.656235
"4282",93.402306,81.66957
"4283",92.052185,81.68291
"4284",90.67765,81.69624
"4285",89.28603,81.70958
"4286",87.89929,81.722916
"4287",86.59556,81.73625
"4288",85.47494,81.74959
"4289",84.630196,81.762924
"4290",84.11017,81.77626
"4291",83.88068,81.7896
"4292",83.85138,81.80293
"4293",83.89044,81.81627
"4294",83.88312,81.829605
"4295",83.73174,81.84294
"4296",83.39483,81.85628
"4297",82.87236,81.86961
"4298",82.18387,81.88295
"4299",81.373314,81.896286
"4300",80.48463,81.90962
"4301",79.569084,81.92296
"4302",78.660866,81.936295
"4303",77.789276,81.94963
"4304",76.98604,81.96297
"4305",76.26826,81.9763
"4306",75.63592,81.98964
"4307",75.09392,82.002975
"4308",74.64469,82.01631
"4309",74.28092,82.02965
"4310",73.99283,82.042984
"4311",73.77554,82.05632
"4312",73.619286,82.06966
"4313",73.51675,82.08299
"4314",73.45083,82.09633
"4315",73.41421,82.109665
"4316",73.40444,82.123
"4317",73.42397,82.13634
"4318",73.460594,82.14967
"4319",73.514305,82.16301
"4320",73.582664,82.176346
"4321",73.65835,82.18968
"4322",73.72671,82.20302
"4323",73.78287,82.216354
"4324",73.81949,82.22969
"4325",73.82681,82.24303
"4326",73.797516,82.25636
"4327",73.73159,82.2697
"4328",73.633934,82.283035
"4329",73.51675,82.29637
"4330",73.39468,82.30971
"4331",73.31899,82.323044
"4332",73.409325,82.33638
"4333",73.865875,82.34972
"4334",74.949875,82.36305
"4335",76.86641,82.37639
"4336",79.68627,82.389725
"4337",83.25323,82.40306
"4338",87.203476,82.4164
"4339",91.04387,82.42973
"4340",94.295876,82.44307
"4341",96.637215,82.456406
"4342",97.94827,82.46974
"4343",98.30717,82.48308
"4344",97.899445,82.496414
"4345",96.97902,82.50975
"4346",95.77051,82.52309
"4347",94.432594,82.53642
"4348",93.04341,82.54976
"4349",91.62737,82.563095
"4350",90.179596,82.57643
"4351",88.72205,82.58977
"4352",87.31335,82.6031
"4353",86.04379,82.61644
"4354",85.02327,82.629776
"4355",84.31281,82.64311
"4356",83.914856,82.65645
"4357",83.75372,82.669785
"4358",83.71465,82.68312
"4359",83.665825,82.69646
"4360",83.50469,82.70979
"4361",83.17265,82.72313
"4362",82.64774,82.736465
"4363",81.94949,82.7498
"4364",81.1194,82.76314
"4365",80.20874,82.776474
"4366",79.26147,82.78981
"4367",78.32395,82.80315
"4368",77.4255,82.81648
"4369",76.592964,82.82982
"4370",75.841,82.843155
"4371",75.174484,82.85649
"4372",74.600746,82.86983
"4373",74.11734,82.88316
"4374",73.71938,82.8965
"4375",73.40444,82.909836
"4376",73.16518,82.92317
"4377",72.98451,82.93651
"4378",72.85512,82.949844
"4379",72.76967,82.96318
"4380",72.71595,82.97652
"4381",72.689095,82.98985
"4382",72.68177,83.00319
"4383",72.68665,83.016525
"4384",72.691536,83.02986
"4385",72.69886,83.0432
"4386",72.7013,83.05653
"4387",72.69886,83.06987
"4388",72.68665,83.083206
"4389",72.66956,83.09654
"4390",72.63294,83.10988
"4391",72.57923,83.123215
"4392",72.50111,83.13655
"4393",72.40101,83.14989
"4394",72.28138,83.16322
"4395",72.15686,83.17656
"4396",72.03967,83.189896
"4397",71.96155,83.20323
"4398",71.9884,83.21657
"4399",72.288704,83.229904
"4400",73.111465,83.24324
"4401",74.72526,83.25658
"4402",77.29122,83.26991
"4403",80.77516,83.28325
"4404",84.89143,83.296585
"4405",89.161514,83.30992
"4406",93.050735,83.32326
"4407",96.129395,83.33659
"4408",98.17044,83.34993
"4409",99.16899,83.363266
"4410",99.27398,83.3766
"4411",98.72953,83.38994
"4412",97.77249,83.403275
"4413",96.59815,83.41661
"4414",95.328606,83.42995
"4415",94.00778,83.44328
"4416",92.62348,83.45662
"4417",91.1635,83.469955
"4418",89.635155,83.48329
"4419",88.10925,83.49663
"4420",86.68345,83.509964
"4421",85.48226,83.5233
"4422",84.59113,83.53664
"4423",84.01984,83.54997
"4424",83.700005,83.56331
"4425",83.509575,83.576645
"4426",83.3167,83.58998
"4427",83.018845,83.60332
"4428",82.56718,83.61665
"4429",81.94217,83.62999
"4430",81.16579,83.643326
"4431",80.27711,83.65666
"4432",79.31518,83.67
"4433",78.32395,83.683334
"4434",77.34249,83.69667
"4435",76.40742,83.71001
"4436",75.545586,83.72334
"4437",74.76921,83.73668
"4438",74.08804,83.750015
"4439",73.50454,83.76335
"4440",73.02113,83.77669
"4441",72.62806,83.79002
"4442",72.32044,83.80336
"4443",72.08362,83.816696
"4444",71.91028,83.83003
"4445",71.776,83.84337
"4446",71.68322,83.856705
"4447",71.622185,83.87004
"4448",71.59045,83.88338
"4449",71.57336,83.89671
"4450",71.56603,83.91005
"4451",71.55627,83.923386
"4452",71.536736,83.93672
"4453",71.49767,83.95006
"4454",71.44396,83.963394
"4455",71.380486,83.97673
"4456",71.31945,83.99007
"4457",71.255974,84.0034
"4458",71.202255,84.01674
"4459",71.165634,84.030075
"4460",71.1461,84.04341
"4461",71.148544,84.05675
"4462",71.165634,84.07008
"4463",71.19737,84.08342
"4464",71.23155,84.096756
"4465",71.26818,84.11009
"4466",71.29992,84.12343
"4467",71.32189,84.136765
"4468",71.33654,84.1501
"4469",71.360954,84.16344
"4470",71.42443,84.17677
"4471",71.624626,84.19011
"4472",72.164185,84.203445
"4473",73.31655,84.21678
"4474",75.34783,84.23012
"4475",78.38499,84.243454
"4476",82.340126,84.25679
"4477",86.86168,84.27013
"4478",91.41497,84.28346
"4479",95.45312,84.2968
"4480",98.563515,84.310135
"4481",100.558174,84.32347
"4482",101.4786,84.33681
"4483",101.522545,84.35014
"4484",100.946365,84.36348
"4485",99.9942,84.376816
"4486",98.85405,84.39015
"4487",97.63821,84.40349
"4488",96.375984,84.416824
"4489",95.04784,84.43016
"4490",93.62203,84.4435
"4491",92.09125,84.45683
"4492",90.50919,84.47017
"4493",88.98085,84.483505
"4494",87.62829,84.49684
"4495",86.54917,84.51018
"4496",85.78012,84.52351
"4497",85.26986,84.53685
"4498",84.910965,84.550186
"4499",84.56916,84.56352
"4500",84.14679,84.57686
"4501",83.57061,84.590195
"4502",82.82597,84.60353
"4503",81.92508,84.61687
"4504",80.907,84.6302
"4505",79.818115,84.64354
"4506",78.709694,84.656876
"4507",77.61593,84.67021
"4508",76.578316,84.68355
"4509",75.61883,84.696884
"4510",74.75456,84.71022
"4511",73.99527,84.72356
"4512",73.34341,84.73689
"4513",72.79164,84.75023
"4514",72.33997,84.763565
"4515",71.97864,84.7769
"4516",71.69787,84.79024
"4517",71.48058,84.80357
"4518",71.31945,84.81691
"4519",71.202255,84.830246
"4520",71.116806,84.84358
"4521",71.05333,84.85692
"4522",71.0045,84.870255
"4523",70.96788,84.88359
"4524",70.93614,84.89693
"4525",70.9044,84.91026
"4526",70.86778,84.9236
"4527",70.82384,84.936935
"4528",70.77257,84.95027
"4529",70.70664,84.96361
"4530",70.63584,84.976944
"4531",70.56016,84.99028
"4532",70.486916,85.00362
"4533",70.421,85.01695
"4534",70.37217,85.03029
"4535",70.33799,85.043625
"4536",70.33311,85.05696
"4537",70.35996,85.0703
"4538",70.43076,85.08363
"4539",70.53574,85.09697
"4540",70.67246,85.110306
"4541",70.82628,85.12364
"4542",70.977646,85.13698
"4543",71.12657,85.150314
"4544",71.26086,85.16365
"4545",71.380486,85.17699
"4546",71.4757,85.19032
"4547",71.553825,85.20366
"4548",71.62951,85.216995
"4549",71.783325,85.23033
"4550",72.1886,85.24367
