"","ppg","time"
"1",100.28718,64.97134
"2",99.47173,64.98467
"3",98.08743,64.99801
"4",96.40772,65.01134
"5",94.63523,65.024666
"6",92.88472,65.038
"7",91.192795,65.05134
"8",89.566795,65.06467
"9",88.01404,65.077995
"10",86.58335,65.09133
"11",85.3431,65.10467
"12",84.3885,65.118
"13",83.76837,65.131325
"14",83.48028,65.14466
"15",83.44366,65.158
"16",83.53887,65.171326
"17",83.6292,65.184654
"18",83.597466,65.19799
"19",83.372856,65.21133
"20",82.930954,65.224655
"21",82.286415,65.23798
"22",81.480736,65.25132
"23",80.570076,65.264656
"24",79.605705,65.277985
"25",78.63645,65.29131
"26",77.696495,65.30465
"27",76.822464,65.317986
"28",76.02655,65.331314
"29",75.318535,65.34464
"30",74.71305,65.35798
"31",74.21011,65.371315
"32",73.79996,65.38464
"33",73.477684,65.39797
"34",73.23842,65.41131
"35",73.06264,65.424644
"36",72.94301,65.43797
"37",72.87221,65.4513
"38",72.83559,65.46464
"39",72.833145,65.477974
"40",72.84779,65.4913
"41",72.87953,65.50463
"42",72.90883,65.51797
"43",72.935684,65.5313
"44",72.94545,65.54463
"45",72.94301,65.55796
"46",72.935684,65.5713
"47",72.92836,65.58463
"48",72.92348,65.59796
"49",72.91615,65.61129
"50",72.90883,65.624626
"51",72.89662,65.63796
"52",72.87221,65.65129
"53",72.82826,65.66462
"54",72.76723,65.677956
"55",72.689095,65.69129
"56",72.59632,65.70462
"57",72.49622,65.71795
"58",72.413216,65.731285
"59",72.36927,65.74462
"60",72.4181,65.75795
"61",72.706184,65.77128
"62",73.480125,65.784615
"63",75.01335,65.79795
"64",77.51827,65.81128
"65",81.00954,65.82461
"66",85.24788,65.837944
"67",89.75235,65.85128
"68",93.9321,65.86461
"69",97.26467,65.87794
"70",99.439995,65.89127
"71",100.39216,65.90461
"72",100.25788,65.91794
"73",99.29595,65.93127
"74",97.80667,65.9446
"75",96.05615,65.95794
"76",94.22507,65.97127
"77",92.420845,65.9846
"78",90.68253,65.99793
"79",89.022354,66.01127
"80",87.45739,66.0246
"81",86.03891,66.037926
"82",84.85481,66.05126
"83",83.980774,66.0646
"84",83.455864,66.07793
"85",83.24834,66.091255
"86",83.25811,66.10459
"87",83.35577,66.11793
"88",83.407036,66.131256
"89",83.30694,66.144585
"90",82.99931,66.15792
"91",82.47196,66.17126
"92",81.75174,66.184586
"93",80.8777,66.197914
"94",79.906006,66.21125
"95",78.88304,66.22459
"96",77.857635,66.237915
"97",76.87129,66.25124
"98",75.95087,66.26458
"99",75.123215,66.277916
"100",74.40055,66.291245
"101",73.79263,66.30457
"102",73.29214,66.31791
"103",72.89662,66.331245
"104",72.59144,66.344574
"105",72.36683,66.3579
"106",72.20813,66.37124
"107",72.10071,66.384575
"108",72.03967,66.3979
"109",72.0177,66.41123
"110",72.027466,66.42457
"111",72.061646,66.437904
"112",72.112915,66.45123
"113",72.17151,66.46456
"114",72.2301,66.4779
"115",72.28138,66.491234
"116",72.318,66.50456
"117",72.34974,66.51789
"118",72.37415,66.53123
"119",72.396126,66.54456
"120",72.42542,66.55789
"121",72.46204,66.57122
"122",72.50355,66.58456
"123",72.54505,66.59789
"124",72.57679,66.61122
"125",72.59144,66.62455
"126",72.57923,66.637886
"127",72.54017,66.65122
"128",72.481575,66.66455
"129",72.410774,66.67788
"130",72.35218,66.691216
"131",72.33753,66.70455
"132",72.444954,66.71788
"133",72.85756,66.73121
"134",73.85367,66.744545
"135",75.73113,66.75788
"136",78.660866,66.77121
"137",82.59647,66.78454
"138",87.201035,66.797874
"139",91.930115,66.81121
"140",96.15869,66.82454
"141",99.39361,66.83787
"142",101.36385,66.851204
"143",102.066986,66.86454
"144",101.67391,66.87787
"145",100.47761,66.8912
"146",98.78081,66.90453
"147",96.852066,66.91787
"148",94.872055,66.9312
"149",92.95064,66.94453
"150",91.11955,66.95786
"151",89.39834,66.9712
"152",87.816284,66.98453
"153",86.434425,66.997856
"154",85.330894,67.01119
"155",84.57404,67.02453
"156",84.190735,67.03786
"157",84.12482,67.051186
"158",84.266426,67.06452
"159",84.48127,67.07786
"160",84.630196,67.09119
"161",84.613106,67.104515
"162",84.37629,67.11785
"163",83.912415,67.13119
"164",83.24101,67.144516
"165",82.406044,67.157845
"166",81.461205,67.17118
"167",80.46021,67.18452
"168",79.447014,67.197845
"169",78.46311,67.211174
"170",77.5378,67.22451
"171",76.68818,67.23785
"172",75.931335,67.251175
"173",75.26971,67.2645
"174",74.70573,67.27784
"175",74.24185,67.291176
"176",73.87564,67.304504
"177",73.602196,67.31783
"178",73.41909,67.33117
"179",73.31411,67.344505
"180",73.28481,67.357834
"181",73.31899,67.37116
"182",73.40688,67.3845
"183",73.53628,67.397835
"184",73.69009,67.41116
"185",73.846344,67.42449
"186",73.98306,67.43783
"187",74.075836,67.451164
"188",74.107574,67.46449
"189",74.06851,67.47782
"190",73.96109,67.49116
"191",73.795074,67.50449
"192",73.57778,67.51782
"193",73.33364,67.53115
"194",73.08217,67.54449
"195",72.850235,67.55782
"196",72.674446,67.57115
"197",72.620735,67.58448
"198",72.850235,67.59782
"199",73.585106,67.61115
"200",75.089035,67.62448
"201",77.53292,67.63781
"202",80.90456,67.651146
"203",84.95003,67.66448
"204",89.22499,67.67781
"205",93.17525,67.69114
"206",96.327156,67.704475
"207",98.39506,67.71781
"208",99.30816,67.73114
"209",99.173874,67.74447
"210",98.2095,67.757805
"211",96.671394,67.77114
"212",94.79149,67.78447
"213",92.74067,67.7978
"214",90.62882,67.811134
"215",88.534065,67.82447
"216",86.53452,67.8378
"217",84.72297,67.85113
"218",83.21416,67.86446
"219",82.11307,67.8778
"220",81.47585,67.89113
"221",81.287865,67.90446
"222",81.45144,67.91779
"223",81.8201,67.93113
"224",82.213165,67.94446
"225",82.496376,67.95779
"226",82.564735,67.97112
"227",82.37919,67.98446
"228",81.93729,67.99779
"229",81.27322,68.011116
"230",80.44312,68.02445
"231",79.50317,68.03779
"232",78.51682,68.05112
"233",77.5378,68.064445
"234",76.610054,68.07778
"235",75.76044,68.09112
"236",75.01091,68.10445
"237",74.36149,68.117775
"238",73.81949,68.13111
"239",73.375145,68.14445
"240",73.023575,68.157776
"241",72.76967,68.171104
"242",72.603645,68.18444
"243",72.5304,68.19778
"244",72.54261,68.211105
"245",72.61829,68.224434
"246",72.73304,68.23777
"247",72.84535,68.25111
"248",72.918594,68.264435
"249",72.92592,68.27776
"250",72.84535,68.2911
"251",72.68665,68.304436
"252",72.4596,68.317764
"253",72.1886,68.33109
"254",71.90784,68.34443
"255",71.656364,68.357765
"256",71.46349,68.37109
"257",71.40978,68.38442
"258",71.62707,68.39776
"259",72.31556,68.411095
"260",73.6852,68.42442
"261",75.860535,68.43775
"262",78.81224,68.45109
"263",82.30595,68.464424
"264",85.95346,68.47775
"265",89.29092,68.49108
"266",91.935,68.50442
"267",93.62936,68.51775
"268",94.310524,68.53108
"269",94.063934,68.54441
"270",93.06294,68.55775
"271",91.52239,68.57108
"272",89.63027,68.58441
"273",87.54284,68.59774
"274",85.38705,68.61108
"275",83.29229,68.62441
"276",81.40017,68.63774
"277",79.871826,68.65107
"278",78.82933,68.664406
"279",78.33616,68.67774
"280",78.35081,68.69107
"281",78.746315,68.7044
"282",79.33227,68.717735
"283",79.91089,68.73107
"284",80.325935,68.7444
"285",80.479744,68.75773
"286",80.3357,68.771065
"287",79.903564,68.7844
"288",79.22972,68.79773
"289",78.380104,68.81106
"290",77.418175,68.824394
"291",76.40009,68.83773
"292",75.38445,68.85106
"293",74.424965,68.86439
"294",73.56069,68.87772
"295",72.81117,68.89106
"296",72.17883,68.90439
"297",71.65392,68.91772
"298",71.22423,68.93105
"299",70.870224,68.94439
"300",70.58701,68.95772
"301",70.36973,68.97105
"302",70.21591,68.98438
"303",70.11337,68.99772
"304",70.03525,69.01105
"305",69.97177,69.024376
"306",69.91562,69.03771
"307",69.86679,69.05105
"308",69.82529,69.06438
"309",69.79599,69.077705
"310",69.78378,69.09104
"311",69.78134,69.10438
"312",69.788666,69.11771
"313",69.84238,69.131035
"314",70.00595,69.14437
"315",70.40147,69.15771
"316",71.16319,69.171036
"317",72.40345,69.184364
"318",74.14908,69.1977
"319",76.317085,69.21104
"320",78.69016,69.224365
"321",80.99489,69.23769
"322",82.950485,69.25103
"323",84.34211,69.264366
"324",85.04768,69.277695
"325",85.05257,69.29102
"326",84.43244,69.30436
"327",83.29229,69.317696
"328",81.76639,69.331024
"329",80.00122,69.34435
"330",78.17258,69.35769
"331",76.44892,69.371025
"332",75.01335,69.38435
"333",74.019684,69.39768
"334",73.565575,69.41102
"335",73.63882,69.424355
"336",74.13443,69.43768
"337",74.89128,69.45101
"338",75.72869,69.46435
"339",76.47578,69.477684
"340",77.03487,69.49101
"341",77.35714,69.50434
"342",77.44747,69.51768
"343",77.33517,69.53101
"344",77.06172,69.54434
"345",76.67841,69.55767
"346",76.243835,69.57101
"347",75.80438,69.58434
"348",75.39422,69.59767
"349",75.035324,69.611
"350",74.73991,69.62434
"351",74.50797,69.63767
"352",74.31754,69.651
"353",74.16861,69.66433
"354",74.05386,69.677666
"355",73.968414,69.691
"356",73.90494,69.70433
"357",73.85855,69.71766
"358",73.814606,69.730995
"359",73.76578,69.74433
"360",73.69985,69.75766
"361",73.62173,69.77099
"362",73.52895,69.784325
"363",73.443504,69.79766
"364",73.375145,69.81099
"365",73.3312,69.82432
"366",73.31167,69.837654
"367",73.34341,69.85099
"368",73.46548,69.86432
"369",73.74868,69.87765
"370",74.27604,69.89098
"371",75.106125,69.90432
"372",76.241394,69.91765
"373",77.60128,69.93098
"374",79.04173,69.94431
"375",80.38453,69.95765
"376",81.449,69.97098
"377",82.108185,69.98431
"378",82.30595,69.99764
"379",82.03494,70.01098
"380",81.341576,70.02431
"381",80.32105,70.037636
"382",79.093,70.05097
"383",77.803925,70.06431
"384",76.60273,70.07764
"385",75.63592,70.090965
"386",75.01335,70.1043
"387",74.78874,70.11764
"388",74.95964,70.13097
"389",75.46258,70.144295
"390",76.18524,70.15763
"391",76.98848,70.17097
"392",77.75021,70.184296
"393",78.365456,70.197624
"394",78.77562,70.21096
"395",78.96605,70.2243
"396",78.96361,70.237625
"397",78.80492,70.25095
"398",78.538795,70.26429
"399",78.21408,70.277626
"400",77.86252,70.290955
"401",77.51827,70.30428
"402",77.19844,70.31762
"403",76.92256,70.330956
"404",76.6955,70.344284
"405",76.52705,70.35761
"406",76.4123,70.37095
"407",76.34638,70.384285
"408",76.314644,70.39761
"409",76.3122,70.41094
"410",76.32929,70.42428
"411",76.36103,70.437614
"412",76.40009,70.45094
"413",76.4416,70.46427
"414",76.4831,70.47761
"415",76.524605,70.490944
"416",76.56367,70.50427
"417",76.60273,70.5176
"418",76.64912,70.53094
"419",76.71259,70.54427
"420",76.81514,70.5576
"421",77.01289,70.57093
"422",77.38155,70.58427
"423",77.99924,70.5976
"424",78.9099,70.61093
"425",80.10376,70.62426
"426",81.480736,70.637596
"427",82.86748,70.65093
"428",84.07599,70.66426
"429",84.945145,70.67759
"430",85.37728,70.690926
"431",85.35775,70.70426
"432",84.928055,70.71759
"433",84.16632,70.73092
"434",83.15312,70.744255
"435",81.97879,70.75759
"436",80.7483,70.77092
"437",79.59594,70.78425
"438",78.643776,70.797585
"439",77.99924,70.81092
"440",77.733116,70.82425
"441",77.84543,70.83758
"442",78.28245,70.850914
"443",78.94408,70.86425
"444",79.71313,70.87758
"445",80.46998,70.89091
"446",81.11452,70.90424
"447",81.57839,70.91758
"448",81.84207,70.93091
"449",81.91287,70.94424
"450",81.829865,70.95757
"451",81.62966,70.97091
"452",81.3489,70.98424
"453",81.02663,70.99757
"454",80.69459,71.0109
"455",80.36988,71.02424
"456",80.07446,71.03757
"457",79.818115,71.050896
"458",79.60082,71.06423
"459",79.4226,71.07757
"460",79.276115,71.0909
"461",79.15648,71.104225
"462",79.06859,71.11756
"463",79.009995,71.1309
"464",78.975815,71.144226
"465",78.96605,71.157555
"466",78.975815,71.17089
"467",78.992905,71.18423
"468",79.01488,71.197556
"469",79.03441,71.210884
"470",79.05638,71.22422
"471",79.07591,71.23756
"472",79.09544,71.250885
"473",79.13695,71.26421
"474",79.24925,71.27755
"475",79.52514,71.290886
"476",80.062256,71.304214
"477",80.936295,71.31754
"478",82.15213,71.33088
"479",83.612114,71.344215
"480",85.13313,71.357544
"481",86.485695,71.37087
"482",87.47204,71.38421
"483",87.974976,71.397545
"484",87.96521,71.41087
"485",87.49889,71.4242
"486",86.66636,71.43754
"487",85.56283,71.450874
"488",84.281075,71.4642
"489",82.90898,71.47753
"490",81.54665,71.49087
"491",80.31617,71.5042
"492",79.34692,71.51753
"493",78.74143,71.53086
"494",78.54612,71.5442
"495",78.75365,71.55753
"496",79.290764,71.57086
"497",80.0354,71.58419
"498",80.85573,71.59753
"499",81.634544,71.61086
"500",82.27665,71.62419
"501",82.72343,71.63752
"502",82.95537,71.650856
"503",82.98955,71.66419
"504",82.86015,71.67752
"505",82.60868,71.69085
"506",82.28397,71.704185
"507",81.9202,71.71752
"508",81.54421,71.73085
"509",81.180435,71.74418
"510",80.84352,71.757515
"511",80.53834,71.77085
"512",80.272224,71.78418
"513",80.042725,71.79751
"514",79.85474,71.810844
"515",79.710686,71.82418
"516",79.60815,71.83751
"517",79.54467,71.85084
"518",79.51537,71.864174
"519",79.51049,71.87751
"520",79.520256,71.89084
"521",79.537346,71.90417
"522",79.551994,71.9175
"523",79.55688,71.93084
"524",79.551994,71.94417
"525",79.54223,71.9575
"526",79.53246,71.97083
"527",79.53979,71.98417
"528",79.59838,71.9975
"529",79.78882,72.010826
"530",80.233154,72.02416
"531",81.04616,72.0375
"532",82.286415,72.05083
"533",83.888,72.064156
"534",85.67269,72.07749
"535",87.3695,72.09083
"536",88.71961,72.10416
"537",89.52773,72.117485
"538",89.73769,72.13082
"539",89.38369,72.14416
"540",88.56336,72.157486
"541",87.396355,72.170815
"542",85.99985,72.18415
"543",84.47883,72.19749
"544",82.933395,72.210815
"545",81.478294,72.224144
"546",80.235596,72.23748
"547",79.3225,72.25082
"548",78.81712,72.264145
"549",78.74387,72.27747
"550",79.06615,72.29081
"551",79.68871,72.304146
"552",80.479744,72.317474
"553",81.307396,72.3308
"554",82.05936,72.34414
"555",82.650185,72.357475
"556",83.03349,72.370804
"557",83.194626,72.38413
"558",83.15312,72.39747
"559",82.948044,72.410805
"560",82.61845,72.42413
"561",82.213165,72.43746
"562",81.76639,72.4508
"563",81.31228,72.464134
"564",80.86305,72.47746
"565",80.44312,72.49079
"566",80.062256,72.50413
"567",79.73022,72.51746
"568",79.45678,72.53079
"569",79.24681,72.54412
"570",79.10277,72.55746
"571",79.02464,72.57079
"572",79.00267,72.58412
"573",79.02464,72.59745
"574",79.078354,72.61079
"575",79.14671,72.62412
"576",79.2224,72.63745
"577",79.28832,72.65078
"578",79.33959,72.664116
"579",79.37377,72.67745
"580",79.381096,72.69078
"581",79.36889,72.70411
"582",79.344475,72.717445
"583",79.3225,72.73078
"584",79.33471,72.74411
"585",79.46166,72.75744
"586",79.82788,72.770775
"587",80.570076,72.78411
"588",81.76883,72.79744
"589",83.387505,72.81077
"590",85.24788,72.824104
"591",87.08385,72.83744
"592",88.59754,72.85077
"593",89.56924,72.8641
"594",89.9086,72.87743
"595",89.64004,72.89077
"596",88.87587,72.9041
"597",87.74792,72.91743
"598",86.39048,72.93076
"599",84.91585,72.9441
"600",83.41924,72.95743
"601",81.99344,72.97076
"602",80.74586,72.98409
"603",79.781494,72.99743
"604",79.18089,73.01076
"605",78.9807,73.024086
"606",79.17357,73.03742
"607",79.67895,73.05076
"608",80.37965,73.06409
"609",81.14137,73.077415
"610",81.849396,73.09075
"611",82.408485,73.10409
"612",82.76738,73.11742
"613",82.91142,73.130745
"614",82.85283,73.14408
"615",82.62577,73.15742
"616",82.27665,73.170746
"617",81.849396,73.184074
"618",81.38552,73.19741
"619",80.91676,73.21075
"620",80.46998,73.224075
"621",80.059814,73.237404
"622",79.693596,73.25074
"623",79.37377,73.26408
"624",79.10521,73.277405
"625",78.890366,73.29073
"626",78.7219,73.30407
"627",78.59983,73.317406
"628",78.521706,73.330734
"629",78.48264,73.34406
"630",78.4802,73.3574
"631",78.51194,73.370735
"632",78.57786,73.38406
"633",78.66575,73.39739
"634",78.75853,73.41073
"635",78.84154,73.424065
"636",78.905014,73.43739
"637",78.93919,73.45072
"638",78.94408,73.46406
"639",78.91966,73.477394
"640",78.870834,73.49072
"641",78.79759,73.50405
"642",78.71702,73.51739
"643",78.660866,73.53072
"644",78.72434,73.54405
"645",79.063705,73.55738
"646",79.83765,73.57072
"647",81.14137,73.58405
"648",82.93828,73.59738
"649",85.03792,73.61071
"650",87.12779,73.62405
"651",88.87587,73.63738
"652",90.02579,73.65071
"653",90.477455,73.66404
"654",90.26261,73.677376
"655",89.50332,73.69071
"656",88.358284,73.70404
"657",86.97154,73.71737
"658",85.472496,73.730705
"659",83.963684,73.74404
"660",82.54032,73.75737
"661",81.290306,73.7707
"662",80.306404,73.784035
"663",79.656975,73.79737
"664",79.378654,73.8107
"665",79.466545,73.82403
"666",79.85962,73.837364
"667",80.45777,73.8507
"668",81.13161,73.86403
"669",81.76395,73.87736
"670",82.262,73.89069
"671",82.562294,73.90403
"672",82.64774,73.91736
"673",82.533,73.93069
"674",82.25712,73.94402
"675",81.8616,73.95736
"676",81.392845,73.97069
"677",80.88747,73.98402
"678",80.37965,73.99735
"679",79.88403,74.01069
"680",79.4226,74.02402
"681",79.012436,74.037346
"682",78.660866,74.05068
"683",78.37522,74.06402
"684",78.14816,74.07735
"685",77.979706,74.090675
"686",77.86496,74.10401
"687",77.7966,74.11735
"688",77.77463,74.13068
"689",77.7966,74.144005
"690",77.855194,74.15734
"691",77.943085,74.17068
"692",78.04074,74.184006
"693",78.14084,74.197334
"694",78.22873,74.21067
"695",78.28733,74.22401
"696",78.311745,74.237335
"697",78.30198,74.25066
"698",78.25559,74.264
"699",78.17502,74.277336
"700",78.07004,74.290665
"701",77.95529,74.30399
"702",77.84299,74.31733
"703",77.78195,74.330666
"704",77.88449,74.343994
"705",78.32151,74.35732
"706",79.24925,74.37066
"707",80.73609,74.383995
"708",82.70634,74.39732
"709",84.92317,74.41065
"710",87.05455,74.42399
"711",88.77089,74.437325
"712",89.850006,74.45065
"713",90.230865,74.46398
"714",89.97452,74.47732
"715",89.215225,74.490654
"716",88.111694,74.50398
"717",86.80797,74.51731
"718",85.42123,74.53065
"719",84.03937,74.54398
"720",82.73319,74.55731
"721",81.583275,74.57064
"722",80.67017,74.58398
"723",80.05249,74.59731
"724",79.77417,74.61064
"725",79.82788,74.62397
"726",80.16235,74.63731
"727",80.672615,74.65064
"728",81.24391,74.66397
"729",81.76395,74.6773
"730",82.142365,74.690636
"731",82.3328,74.70397
"732",82.31327,74.7173
"733",82.11063,74.73063
"734",81.761505,74.743965
"735",81.31472,74.7573
"736",80.81178,74.77063
"737",80.289314,74.78396
"738",79.77661,74.797295
"739",79.29565,74.81063
"740",78.86107,74.82396
"741",78.487526,74.83729
"742",78.17502,74.850624
"743",77.92111,74.86396
"744",77.72823,74.87729
"745",77.58419,74.89062
"746",77.486534,74.90395
"747",77.43038,74.91729
"748",77.41085,74.93062
"749",77.4255,74.94395
"750",77.471886,74.95728
"751",77.540245,74.97062
"752",77.625694,74.98395
"753",77.713585,74.99728
"754",77.79416,75.01061
"755",77.86252,75.02395
"756",77.90402,75.03728
"757",77.91135,75.050606
"758",77.87961,75.06394
"759",77.81125,75.07728
"760",77.713585,75.09061
"761",77.593956,75.103935
"762",77.46212,75.11727
"763",77.3254,75.13061
"764",77.19844,75.143936
"765",77.11299,75.157265
"766",77.17647,75.1706
"767",77.57198,75.18394
"768",78.4802,75.197266
"769",80.00366,75.210594
"770",82.091095,75.22393
"771",84.52033,75.23727
"772",86.939804,75.250595
"773",88.973526,75.26392
"774",90.34318,75.27726
"775",90.94377,75.290596
"776",90.829025,75.303925
"777",90.13809,75.31725
"778",89.05165,75.33059
"779",87.743034,75.343925
"780",86.35874,75.357254
"781",84.99153,75.37058
"782",83.72198,75.38392
"783",82.59647,75.397255
"784",81.67849,75.41058
"785",81.00954,75.42391
"786",80.635994,75.43725
"787",80.567635,75.450584
"788",80.77516,75.46391
"789",81.17799,75.47724
"790",81.67361,75.49058
"791",82.14725,75.503914
"792",82.50858,75.51724
"793",82.69657,75.53057
"794",82.68925,75.54391
"795",82.49882,75.55724
"796",82.15213,75.57057
"797",81.6907,75.5839
"798",81.15846,75.59724
"799",80.59449,75.61057
"800",80.0354,75.6239
"801",79.51049,75.63723
"802",79.029526,75.650566
"803",78.6096,75.6639
"804",78.24826,75.67723
"805",77.95285,75.69056
"806",77.71603,75.703896
"807",77.540245,75.71723
"808",77.418175,75.73056
"809",77.34005,75.74389
"810",77.30099,75.757225
"811",77.29366,75.77056
"812",77.31075,75.78389
"813",77.34005,75.79722
"814",77.37667,75.810555
"815",77.41573,75.82389
"816",77.44747,75.83722
"817",77.47433,75.85055
"818",77.49142,75.863884
"819",77.4963,75.87722
"820",77.47921,75.89055
"821",77.437706,75.90388
"822",77.37179,75.91721
"823",77.281456,75.93055
"824",77.16426,75.94388
"825",77.02998,75.95721
"826",76.88594,75.97054
"827",76.73945,75.98388
"828",76.60029,75.99721
"829",76.48554,76.01054
"830",76.45136,76.02387
"831",76.629585,76.03721
"832",77.21065,76.05054
"833",78.37766,76.063866
"834",80.20386,76.0772
"835",82.58671,76.09054
"836",85.24788,76.10387
"837",87.8114,76.117195
"838",89.898834,76.13053
"839",91.27093,76.14387
"840",91.85443,76.157196
"841",91.734795,76.170525
"842",91.06096,76.18386
"843",90.02579,76.1972
"844",88.800186,76.210526
"845",87.52575,76.223854
"846",86.2855,76.23719
"847",85.14046,76.25053
"848",84.1297,76.263855
"849",83.28741,76.27718
"850",82.65751,76.29052
"851",82.27665,76.303856
"852",82.15213,76.317184
"853",82.25712,76.33051
"854",82.53544,76.34385
"855",82.88945,76.357185
"856",83.22392,76.370514
"857",83.45342,76.38384
"858",83.52422,76.39718
"859",83.41924,76.410515
"860",83.14336,76.42384
"861",82.72343,76.43717
"862",82.2034,76.45051
"863",81.62478,76.463844
"864",81.02174,76.47717
"865",80.430916,76.4905
"866",79.869385,76.50384
"867",79.35668,76.51717
"868",78.89769,76.5305
"869",78.502174,76.54383
"870",78.16525,76.55717
"871",77.88693,76.5705
"872",77.65743,76.58383
"873",77.47677,76.59716
"874",77.33517,76.6105
"875",77.22774,76.62383
"876",77.15694,76.63716
"877",77.11055,76.65049
"878",77.07393,76.663826
"879",77.03731,76.67716
"880",76.98848,76.69049
"881",76.929886,76.70382
"882",76.8542,76.717155
"883",76.771194,76.73049
"884",76.67597,76.74382
"885",76.56855,76.75715
"886",76.453804,76.770485
"887",76.334175,76.78382
"888",76.21454,76.79715
"889",76.09491,76.81048
"890",75.98749,76.823814
"891",75.88495,76.83715
"892",75.79462,76.85048
"893",75.7116,76.86381
"894",75.63348,76.877144
"895",75.55535,76.89048
"896",75.4699,76.90381
"897",75.37469,76.91714
"898",75.27459,76.93047
"899",75.1989,76.94381
"900",75.24284,76.95714
"901",75.58953,76.97047
"902",76.470894,76.9838
"903",78.05783,76.99714
"904",80.37476,77.01047
"905",83.243454,77.023796
"906",86.31724,77.03713
"907",89.15419,77.05047
"908",91.393,77.0638
"909",92.83101,77.077126
"910",93.45602,77.09046
"911",93.382774,77.1038
"912",92.80171,77.11713
"913",91.90082,77.130455
"914",90.85588,77.14379
"915",89.79141,77.15713
"916",88.77821,77.170456
"917",87.8407,77.183784
"918",86.97887,77.19712
"919",86.18295,77.21046
"920",85.46517,77.223785
"921",84.857254,77.237114
"922",84.4007,77.25045
"923",84.137024,77.26379
"924",84.05646,77.277115
"925",84.11017,77.29044
"926",84.22247,77.30378
"927",84.298164,77.317116
"928",84.263985,77.330444
"929",84.07843,77.34377
"930",83.73174,77.35711
"931",83.23613,77.370445
"932",82.63065,77.38377
"933",81.951935,77.3971
"934",81.23903,77.41044
"935",80.52125,77.423775
"936",79.83032,77.4371
"937",79.183334,77.45043
"938",78.58518,77.46377
"939",78.048065,77.477104
"940",77.576866,77.49043
"941",77.16426,77.50376
"942",76.8127,77.5171
"943",76.51728,77.53043
"944",76.2707,77.54376
"945",76.06073,77.55709
"946",75.88739,77.57043
"947",75.733574,77.58376
"948",75.59441,77.59709
"949",75.46746,77.61042
"950",75.34539,77.62376
"951",75.21599,77.63709
"952",75.08171,77.65042
"953",74.93767,77.66375
"954",74.78874,77.677086
"955",74.634926,77.69042
"956",74.478676,77.70375
"957",74.32487,77.71708
"958",74.17105,77.730415
"959",74.01236,77.74375
"960",73.86099,77.75708
"961",73.71938,77.77041
"962",73.58755,77.783745
"963",73.4728,77.79708
"964",73.37759,77.81041
"965",73.29458,77.82374
"966",73.22133,77.837074
"967",73.15053,77.85041
"968",73.07973,77.86374
"969",73.00893,77.87707
"970",72.94057,77.8904
"971",72.87465,77.90374
"972",72.84535,77.91707
"973",72.94301,77.9304
"974",73.340965,77.94373
"975",74.27116,77.95707
"976",75.90692,77.9704
"977",78.2678,77.98373
"978",81.18288,77.99706
"979",84.315254,78.0104
"980",87.25231,78.02373
"981",89.652245,78.037056
"982",91.32708,78.05039
"983",92.26948,78.06373
"984",92.58198,78.07706
"985",92.42573,78.090385
"986",91.9765,78.10372
"987",91.38323,78.11706
"988",90.75334,78.13039
"989",90.142975,78.143715
"990",89.549706,78.15705
"991",88.94423,78.17039
"992",88.292366,78.183716
"993",87.57946,78.197044
"994",86.82994,78.21038
"995",86.10971,78.22372
"996",85.49691,78.237045
"997",85.06233,78.250374
"998",84.81575,78.26371
"999",84.72053,78.27705
"1000",84.69123,78.290375
"1001",84.63752,78.3037
"1002",84.473946,78.31704
"1003",84.15167,78.330376
"1004",83.67071,78.343704
"1005",83.055466,78.35703
"1006",82.340126,78.37037
"1007",81.57107,78.383705
"1008",80.78737,78.39703
"1009",80.01831,78.41036
"1010",79.27856,78.4237
"1011",78.58518,78.437035
"1012",77.94797,78.45036
"1013",77.37667,78.46369
"1014",76.87373,78.47703
"1015",76.439156,78.490364
"1016",76.06561,78.50369
"1017",75.73846,78.51702
"1018",75.45281,78.53036
"1019",75.20134,78.54369
"1020",74.966965,78.55702
"1021",74.75456,78.57035
"1022",74.564125,78.58369
"1023",74.37858,78.59702
"1024",74.20279,78.61035
"1025",74.03189,78.62368
"1026",73.863434,78.63702
"1027",73.69253,78.65035
"1028",73.52163,78.66368
"1029",73.34585,78.67701
"1030",73.17006,78.690346
"1031",72.99916,78.70368
"1032",72.82826,78.71701
"1033",72.66956,78.73034
"1034",72.52552,78.743675
"1035",72.393684,78.75701
"1036",72.28138,78.77034
"1037",72.183716,78.78367
"1038",72.10803,78.797005
"1039",72.05432,78.81034
"1040",72.02258,78.82367
"1041",72.01526,78.837
"1042",72.03723,78.850334
"1043",72.078735,78.86367
"1044",72.13245,78.877
"1045",72.19348,78.89033
"1046",72.24719,78.90366
"1047",72.28626,78.917
"1048",72.30335,78.93033
"1049",72.30335,78.94366
"1050",72.30335,78.95699
"1051",72.34974,78.97033
"1052",72.56458,78.98366
"1053",73.15053,78.99699
"1054",74.32731,79.01032
"1055",76.23163,79.02366
"1056",78.839096,79.03699
"1057",81.93973,79.050316
"1058",85.16731,79.06365
"1059",88.12146,79.07699
"1060",90.48722,79.09032
"1061",92.1181,79.103645
"1062",93.03609,79.11698
"1063",93.37301,79.13032
"1064",93.29244,79.14365
"1065",92.97505,79.156975
"1066",92.55268,79.17031
"1067",92.105896,79.18365
"1068",91.65667,79.196976
"1069",91.19035,79.210304
"1070",90.66056,79.22364
"1071",90.03067,79.23698
"1072",89.288475,79.250305
"1073",88.47547,79.26363
"1074",87.67223,79.27697
"1075",86.96666,79.290306
"1076",86.4271,79.303635
"1077",86.07797,79.31696
"1078",85.875336,79.3303
"1079",85.73617,79.343636
"1080",85.56771,79.356964
"1081",85.28695,79.37029
"1082",84.86214,79.38363
"1083",84.28596,79.396965
"1084",83.5877,79.41029
"1085",82.811325,79.42362
"1086",81.99832,79.43696
"1087",81.18288,79.450294
"1088",80.39185,79.46362
"1089",79.63744,79.47695
"1090",78.92943,79.49029
"1091",78.27512,79.503624
"1092",77.68429,79.51695
"1093",77.15938,79.53028
"1094",76.6955,79.54362
"1095",76.29023,79.55695
"1096",75.931335,79.57028
"1097",75.61639,79.58361
"1098",75.338066,79.59695
"1099",75.09148,79.61028
"1100",74.87175,79.62361
"1101",74.67155,79.63694
"1102",74.48356,79.650276
"1103",74.30045,79.66361
"1104",74.11978,79.67694
"1105",73.936676,79.69027
"1106",73.75113,79.703606
"1107",73.568016,79.71694
"1108",73.38491,79.73027
"1109",73.21156,79.7436
"1110",73.05043,79.756935
"1111",72.89906,79.77027
"1112",72.75502,79.7836
"1113",72.61829,79.79693
"1114",72.4889,79.810265
"1115",72.36927,79.8236
"1116",72.26429,79.83693
"1117",72.17639,79.85026
"1118",72.11047,79.863594
"1119",72.06653,79.87693
"1120",72.047,79.89026
"1121",72.04944,79.90359
"1122",72.08118,79.91692
"1123",72.13489,79.93026
"1124",72.21057,79.94359
"1125",72.30091,79.95692
"1126",72.393684,79.97025
"1127",72.481575,79.98359
"1128",72.552376,79.99692
"1129",72.601204,80.01025
"1130",72.6305,80.02358
"1131",72.64515,80.03692
"1132",72.66956,80.05025
"1133",72.77211,80.063576
"1134",73.091934,80.07691
"1135",73.82681,80.09025
"1136",75.18669,80.10358
"1137",77.279015,80.116905
"1138",80.045166,80.13024
"1139",83.243454,80.14358
"1140",86.50034,80.156906
"1141",89.410545,80.170235
"1142",91.69085,80.18357
"1143",93.21431,80.19691
"1144",94.02243,80.210236
"1145",94.259254,80.223564
"1146",94.11032,80.2369
"1147",93.75632,80.25024
"1148",93.32174,80.263565
"1149",92.86763,80.27689
"1150",92.4062,80.29023
"1151",91.90814,80.303566
"1152",91.3222,80.316895
"1153",90.61173,80.33022
"1154",89.78653,80.34356
"1155",88.90517,80.356895
"1156",88.0531,80.370224
"1157",87.327995,80.38355
"1158",86.785995,80.39689
"1159",86.434425,80.410225
"1160",86.21225,80.42355
"1161",86.029144,80.43688
"1162",85.79233,80.45022
"1163",85.43832,80.463554
"1164",84.93782,80.47688
"1165",84.30305,80.49021
"1166",83.5584,80.50355
"1167",82.7454,80.516884
"1168",81.898224,80.53021
"1169",81.04616,80.54354
"1170",80.218506,80.55688
"1171",79.43481,80.57021
"1172",78.709694,80.58354
"1173",78.05783,80.59687
"1174",77.47921,80.61021
"1175",76.97383,80.62354
"1176",76.53437,80.63687
"1177",76.15839,80.6502
"1178",75.83124,80.663536
"1179",75.53826,80.67687
"1180",75.27947,80.6902
"1181",75.04997,80.70353
"1182",74.84001,80.716866
"1183",74.652016,80.7302
"1184",74.48844,80.74353
"1185",74.33463,80.75686
"1186",74.1857,80.770195
"1187",74.03433,80.78353
"1188",73.87808,80.79686
"1189",73.70962,80.81019
"1190",73.53384,80.823524
"1191",73.35561,80.83686
"1192",73.17738,80.85019
"1193",73.00893,80.86352
"1194",72.850235,80.876854
"1195",72.708626,80.89019
"1196",72.57923,80.90352
"1197",72.46693,80.91685
"1198",72.36927,80.93018
"1199",72.29603,80.94352
"1200",72.24963,80.95685
"1201",72.232544,80.97018
"1202",72.24231,80.98351
"1203",72.28138,80.99685
"1204",72.342415,81.01018
"1205",72.413216,81.023506
"1206",72.48402,81.03684
"1207",72.54505,81.05018
"1208",72.586555,81.06351
"1209",72.61097,81.076836
"1210",72.62562,81.09017
"1211",72.64759,81.10351
"1212",72.708626,81.11684
"1213",72.884415,81.130165
"1214",73.323875,81.1435
"1215",74.21744,81.15684
"1216",75.733574,81.170166
"1217",77.93576,81.183495
"1218",80.723885,81.19683
"1219",83.8172,81.21017
"1220",86.83238,81.223495
"1221",89.40078,81.236824
"1222",91.27825,81.25016
"1223",92.39399,81.2635
"1224",92.8188,81.276825
"1225",92.72358,81.29015
"1226",92.29633,81.30349
"1227",91.70794,81.316826
"1228",91.06096,81.330154
"1229",90.41154,81.34348
"1230",89.762115,81.35682
"1231",89.08095,81.370155
"1232",88.32899,81.383484
"1233",87.49401,81.39681
"1234",86.60044,81.41015
"1235",85.714195,81.423485
"1236",84.91829,81.43681
"1237",84.2884,81.45014
"1238",83.85382,81.46348
"1239",83.59258,81.476814
"1240",83.43633,81.49014
"1241",83.29473,81.50347
"1242",83.08476,81.51681
"1243",82.75029,81.53014
"1244",82.266884,81.54347
"1245",81.651634,81.5568
"1246",80.936295,81.57014
"1247",80.16724,81.58347
"1248",79.378654,81.5968
"1249",78.59983,81.61013
"1250",77.85031,81.62347
"1251",77.14473,81.6368
"1252",76.490425,81.65013
"1253",75.897156,81.66346
"1254",75.369804,81.676796
"1255",74.90837,81.69013
"1256",74.512856,81.70346
"1257",74.178375,81.71679
"1258",73.90494,81.730125
"1259",73.6852,81.74346
"1260",73.51186,81.75679
"1261",73.37759,81.77012
"1262",73.272606,81.783455
"1263",73.19203,81.79679
"1264",73.12367,81.81012
"1265",73.06508,81.82345
"1266",73.00893,81.836784
"1267",72.94545,81.85012
"1268",72.87953,81.86345
"1269",72.80873,81.87678
"1270",72.72816,81.890114
"1271",72.64759,81.90345
"1272",72.57191,81.91678
"1273",72.51087,81.93011
"1274",72.46204,81.94344
"1275",72.427864,81.95678
"1276",72.40833,81.97011
"1277",72.39857,81.98344
"1278",72.396126,81.99677
"1279",72.40589,82.01011
"1280",72.42054,82.02344
"1281",72.43519,82.036766
"1282",72.44984,82.0501
"1283",72.45472,82.06344
"1284",72.45472,82.07677
"1285",72.45716,82.090096
"1286",72.49134,82.10343
"1287",72.6305,82.11677
"1288",73.03334,82.1301
"1289",73.90982,82.143425
"1290",75.45281,82.15676
"1291",77.74288,82.1701
"1292",80.68726,82.183426
"1293",84.000305,82.196754
"1294",87.28161,82.21009
"1295",90.125885,82.22343
"1296",92.245056,82.236755
"1297",93.52926,82.250084
"1298",94.03464,82.26342
"1299",93.92233,82.27676
"1300",93.40475,82.290085
"1301",92.67475,82.30341
"1302",91.87396,82.31675
"1303",91.087814,82.330086
"1304",90.33341,82.343414
"1305",89.583885,82.35674
"1306",88.797745,82.37008
"1307",87.953,82.383415
"1308",87.07652,82.39674
"1309",86.23178,82.41007
"1310",85.504234,82.42341
"1311",84.972,82.436745
"1312",84.67414,82.45007
"1313",84.57404,82.4634
"1314",84.59113,82.47674
"1315",84.61799,82.490074
"1316",84.54963,82.5034
"1317",84.32258,82.51673
"1318",83.90509,82.53007
"1319",83.3045,82.5434
"1320",82.562294,82.55673
"1321",81.7322,82.57006
"1322",80.867935,82.5834
"1323",80.008545,82.59673
"1324",79.18089,82.61006
"1325",78.4094,82.62339
"1326",77.70382,82.63673
"1327",77.08125,82.65006
"1328",76.53925,82.66339
"1329",76.07782,82.67672
"1330",75.69451,82.690056
"1331",75.369804,82.70339
"1332",75.09148,82.71672
"1333",74.85466,82.73005
"1334",74.65446,82.743385
"1335",74.48844,82.75672
"1336",74.354164,82.77005
"1337",74.24429,82.78338
"1338",74.161285,82.796715
"1339",74.09781,82.81005
"1340",74.05142,82.82338
"1341",74.00992,82.83671
"1342",73.970856,82.850044
"1343",73.92691,82.86338
"1344",73.8732,82.87671
"1345",73.797516,82.89004
"1346",73.69985,82.90337
"1347",73.582664,82.91671
"1348",73.445946,82.93004
"1349",73.29214,82.94337
"1350",73.131,82.9567
"1351",72.97719,82.97004
"1352",72.87465,82.98337
"1353",72.92592,82.9967
"1354",73.323875,83.01003
"1355",74.30045,83.02337
"1356",76.02655,83.0367
"1357",78.53147,83.050026
"1358",81.651634,83.06336
"1359",85.04768,83.0767
"1360",88.29969,83.09003
"1361",91.01701,83.103355
"1362",92.95552,83.11669
"1363",94.05417,83.13003
"1364",94.39353,83.14336
"1365",94.14694,83.156685
"1366",93.51949,83.17002
"1367",92.69428,83.18336
"1368",91.80316,83.196686
"1369",90.90959,83.210014
"1370",90.020905,83.22335
"1371",89.11757,83.23669
"1372",88.17273,83.250015
"1373",87.201035,83.26334
"1374",86.24643,83.27668
"1375",85.38705,83.290016
"1376",84.70344,83.303345
"1377",84.24689,83.31667
"1378",84.017395,83.33001
"1379",83.946594,83.343346
"1380",83.94415,83.35668
"1381",83.912415,83.37002
"1382",83.76837,83.383354
"1383",83.46319,83.39669
"1384",82.99443,83.41003
"1385",82.371864,83.42336
"1386",81.62722,83.4367
"1387",80.797134,83.450035
"1388",79.923096,83.46337
"1389",79.044174,83.47671
"1390",78.19211,83.49004
"1391",77.39376,83.50338
"1392",76.66865,83.516716
"1393",76.033875,83.53005
"1394",75.48211,83.54339
"1395",75.01579,83.556725
"1396",74.6276,83.57006
"1397",74.31266,83.5834
"1398",74.06119,83.59673
"1399",73.865875,83.61007
"1400",73.71938,83.623405
"1401",73.616844,83.63674
"1402",73.548485,83.65008
"1403",73.5021,83.663414
"1404",73.47036,83.67675
"1405",73.44839,83.69009
"1406",73.42153,83.70342
"1407",73.38491,83.71676
"1408",73.323875,83.730095
"1409",73.2433,83.74343
"1410",73.13344,83.75677
"1411",72.99672,83.7701
"1412",72.83803,83.78344
"1413",72.66956,83.796776
"1414",72.52796,83.81011
"1415",72.50355,83.82345
"1416",72.764786,83.836784
"1417",73.53628,83.85012
"1418",75.018234,83.86346
"1419",77.28634,83.87679
"1420",80.24536,83.89013
"1421",83.60723,83.903465
"1422",86.959335,83.9168
"1423",89.87686,83.93014
"1424",92.06195,83.943474
"1425",93.37789,83.95681
"1426",93.86862,83.970146
"1427",93.69039,83.98348
"1428",93.04585,83.99682
"1429",92.140076,84.010155
"1430",91.12688,84.02349
"1431",90.089264,84.03683
"1432",89.04677,84.05016
"1433",88.00183,84.0635
"1434",86.93736,84.076836
"1435",85.875336,84.09017
"1436",84.86946,84.10351
"1437",83.99786,84.116844
"1438",83.33868,84.13018
"1439",82.930954,84.14352
"1440",82.75517,84.15685
"1441",82.74052,84.17019
"1442",82.78203,84.183525
"1443",82.774704,84.19686
"1444",82.64042,84.2102
"1445",82.33524,84.22353
"1446",81.85672,84.23687
"1447",81.22682,84.250206
"1448",80.48951,84.26354
"1449",79.68627,84.27688
"1450",78.85863,84.290215
"1451",78.04318,84.30355
"1452",77.26681,84.31689
"1453",76.541695,84.33022
"1454",75.877625,84.34356
"1455",75.2868,84.356895
"1456",74.76433,84.37023
"1457",74.31022,84.38357
"1458",73.92447,84.396904
"1459",73.60708,84.41024
"1460",73.35073,84.42358
"1461",73.15541,84.43691
"1462",73.01869,84.45025
"1463",72.9308,84.463585
"1464",72.87953,84.47692
"1465",72.86488,84.49026
"1466",72.86244,84.50359
"1467",72.86,84.51693
"1468",72.84291,84.530266
"1469",72.80141,84.5436
"1470",72.73792,84.55694
"1471",72.654915,84.570274
"1472",72.552376,84.58361
"1473",72.44984,84.59695
"1474",72.35462,84.61028
"1475",72.31312,84.62362
"1476",72.430305,84.636955
"1477",72.89174,84.65029
"1478",73.90982,84.66363
"1479",75.63348,84.67696
"1480",78.07004,84.6903
"1481",81.04616,84.703636
"1482",84.22247,84.71697
"1483",87.1815,84.73031
"1484",89.57412,84.743645
"1485",91.17326,84.75698
"1486",91.93988,84.77032
"1487",91.95941,84.78365
"1488",91.41009,84.79699
"1489",90.48234,84.810326
"1490",89.35195,84.82366
"1491",88.13611,84.837
"1492",86.90318,84.850334
"1493",85.68246,84.86367
"1494",84.50324,84.87701
"1495",83.407036,84.89034
"1496",82.46464,84.90368
"1497",81.74441,84.917015
"1498",81.30984,84.93035
"1499",81.15602,84.94369
"1500",81.234146,84.95702
"1501",81.446556,84.97036
"1502",81.685814,84.983696
"1503",81.83963,84.99703
"1504",81.83963,85.01037
"1505",81.64675,85.023705
"1506",81.26345,85.03704
"1507",80.71412,85.05038
"1508",80.03784,85.06371
"1509",79.28344,85.07705
"1510",78.49973,85.090385
"1511",77.730675,85.10372
"1512",76.995804,85.11706
"1513",76.317085,85.130394
"1514",75.7116,85.14373
"1515",75.18425,85.15707
"1516",74.7277,85.1704
"1517",74.3444,85.18374
"1518",74.039215,85.197075
"1519",73.797516,85.21041
"1520",73.619286,85.22375
"1521",73.50698,85.23708
"1522",73.45083,85.25042
"1523",73.44106,85.263756
"1524",73.47036,85.27709
"1525",73.52651,85.29043
"1526",73.59243,85.303764
"1527",73.651024,85.3171
"1528",73.687645,85.33044
"1529",73.69009,85.34377
"1530",73.65835,85.35711
"1531",73.58999,85.370445
"1532",73.497215,85.38378
"1533",73.38979,85.39712
"1534",73.270164,85.41045
"1535",73.17494,85.42379
"1536",73.1725,85.437126
"1537",73.40444,85.45046
"1538",74.07828,85.4638
"1539",75.38445,85.477135
"1540",77.40841,85.49047
"1541",80.06958,85.50381
"1542",83.09209,85.51714
"1543",86.09506,85.53048
"1544",88.673225,85.543816
"1545",90.53849,85.55715
"1546",91.56634,85.57049
"1547",91.78851,85.583824
"1548",91.33929,85.59716
"1549",90.406654,85.6105
"1550",89.17372,85.62383
"1551",87.782104,85.63717
"1552",86.34409,85.650505
"1553",84.9305,85.66384
"1554",83.60723,85.67718
"1555",82.43778,85.69051
"1556",81.50515,85.70385
"1557",80.87526,85.717186
"1558",80.57496,85.73052
"1559",80.58228,85.74386
"1560",80.82887,85.757195
"1561",81.20241,85.77053
"1562",81.583275,85.78387
"1563",81.866486,85.7972
"1564",81.98367,85.81054
"1565",81.90555,85.823875
"1566",81.63943,85.83721
"1567",81.20241,85.85055
"1568",80.63355,85.863884
"1569",79.971924,85.87722
"1570",79.26879,85.89056
"1571",78.551,85.90389
"1572",77.85275,85.91723
"1573",77.19356,85.930565
"1574",76.592964,85.9439
"1575",76.05585,85.95724
"1576",75.579765,85.97057
"1577",75.17937,85.98391
"1578",74.84978,85.997246
"1579",74.59586,86.01058
"1580",74.41276,86.02392
"1581",74.29313,86.037254
"1582",74.232086,86.05059
"1583",74.21988,86.06393
"1584",74.249176,86.07726
"1585",74.3151,86.0906
"1586",74.40055,86.103935
"1587",74.493324,86.11727
"1588",74.57389,86.13061
"1589",74.6276,86.14394
"1590",74.63737,86.15728
"1591",74.598305,86.170616
"1592",74.52262,86.18395
"1593",74.42008,86.19729
"1594",74.29557,86.210625
"1595",74.16373,86.22396
"1596",74.0441,86.2373
"1597",73.987946,86.25063
"1598",74.124664,86.26397
"1599",74.63981,86.277306
"1600",75.736015,86.29064
"1601",77.52804,86.30398
"1602",79.98169,86.317314
"1603",82.86992,86.33065
"1604",85.83139,86.34399
"1605",88.465706,86.35732
"1606",90.44572,86.37066
"1607",91.612724,86.383995
"1608",91.95209,86.39733
"1609",91.5761,86.41067
"1610",90.65324,86.424
"1611",89.36416,86.43734
"1612",87.86511,86.450676
"1613",86.28306,86.46401
"1614",84.72053,86.47735
"1615",83.267876,86.490685
"1616",82.01541,86.50402
"1617",81.04372,86.51736
"1618",80.40894,86.53069
"1619",80.147705,86.54403
"1620",80.22583,86.557365
"1621",80.56031,86.5707
"1622",81.04372,86.58404
"1623",81.55154,86.597374
"1624",81.971466,86.61071
"1625",82.22781,86.62405
"1626",82.28153,86.63738
"1627",82.127716,86.65072
"1628",81.78836,86.664055
"1629",81.29763,86.67739
"1630",80.69947,86.69073
"1631",80.04028,86.70406
"1632",79.361565,86.7174
"1633",78.69016,86.730736
"1634",78.05051,86.74407
"1635",77.45724,86.75741
"1636",76.91768,86.770744
"1637",76.44404,86.78408
"1638",76.036316,86.79742
"1639",75.699394,86.81075
"1640",75.43084,86.82409
"1641",75.23308,86.837425
"1642",75.0988,86.85076
"1643",75.01579,86.8641
"1644",74.97917,86.87743
"1645",74.98161,86.89077
"1646",75.01335,86.904106
"1647",75.0695,86.91744
"1648",75.14519,86.93078
"1649",75.23308,86.944115
"1650",75.318535,86.95745
"1651",75.39178,86.97079
"1652",75.440605,86.98412
"1653",75.46014,86.99746
"1654",75.43816,87.010796
"1655",75.37957,87.02413
"1656",75.28924,87.03747
"1657",75.176926,87.050804
"1658",75.04265,87.06414
"1659",74.91081,87.07748
"1660",74.8156,87.09081
"1661",74.85954,87.10415
"1662",75.228195,87.117485
"1663",76.13641,87.13082
"1664",77.75021,87.14416
"1665",80.08667,87.15749
"1666",82.984665,87.17083
"1667",86.0975,87.184166
"1668",88.99794,87.1975
"1669",91.30755,87.21084
"1670",92.79195,87.224174
"1671",93.3901,87.23751
"1672",93.18257,87.25085
"1673",92.33051,87.26418
"1674",91.02678,87.27752
"1675",89.44961,87.290855
"1676",87.745476,87.30419
"1677",86.03647,87.31753
"1678",84.420235,87.330864
"1679",82.98711,87.3442
"1680",81.829865,87.35754
"1681",81.024185,87.37087
"1682",80.59937,87.38421
"1683",80.55787,87.397545
"1684",80.8362,87.41088
"1685",81.32937,87.42422
"1686",81.90799,87.43755
"1687",82.44755,87.45089
"1688",82.845505,87.464226
"1689",83.0457,87.47756
"1690",83.01396,87.4909
"1691",82.760056,87.504234
"1692",82.32304,87.51757
"1693",81.74197,87.53091
"1694",81.06081,87.54424
"1695",80.323494,87.55758
"1696",79.57397,87.570915
"1697",78.84154,87.58425
"1698",78.14572,87.59759
"1699",77.51583,87.61092
"1700",76.96651,87.62426
"1701",76.49775,87.637596
"1702",76.10956,87.65093
"1703",75.79462,87.66427
"1704",75.55047,87.677605
"1705",75.36736,87.69094
"1706",75.24284,87.70428
"1707",75.174484,87.71761
"1708",75.15495,87.73095
"1709",75.174484,87.744286
"1710",75.22087,87.75762
"1711",75.28191,87.77096
"1712",75.352715,87.784294
"1713",75.43084,87.79763
"1714",75.50164,87.81097
"1715",75.56512,87.8243
"1716",75.60906,87.83764
"1717",75.62859,87.850975
"1718",75.61639,87.86431
"1719",75.56756,87.87765
"1720",75.48211,87.89098
"1721",75.36492,87.90432
"1722",75.22087,87.917656
"1723",75.06706,87.93099
"1724",74.93034,87.94433
"1725",74.88396,87.957664
"1726",75.08171,87.971
"1727",75.736015,87.98434
"1728",77.05684,87.99767
"1729",79.149155,88.01101
"1730",81.9324,88.024345
"1731",85.13313,88.03768
"1732",88.343636,88.05102
"1733",91.12932,88.064354
"1734",93.170364,88.07769
"1735",94.310524,88.09103
"1736",94.56199,88.10436
"1737",94.046844,88.1177
"1738",92.9482,88.131035
"1739",91.46136,88.14437
"1740",89.76456,88.15771
"1741",87.989624,88.17104
"1742",86.24399,88.18438
"1743",84.62287,88.197716
"1744",83.21904,88.21105
"1745",82.11795,88.22439
"1746",81.392845,88.237724
"1747",81.07057,88.25106
"1748",81.13161,88.2644
"1749",81.495384,88.27773
"1750",82.037384,88.29107
"1751",82.62333,88.304405
"1752",83.13603,88.31774
"1753",83.49004,88.33108
"1754",83.6292,88.34441
"1755",83.54131,88.35775
"1756",83.23613,88.371086
"1757",82.75273,88.38442
"1758",82.13016,88.39776
"1759",81.42214,88.411095
"1760",80.67017,88.42443
"1761",79.91333,88.43777
"1762",79.17113,88.4511
"1763",78.470436,88.46444
"1764",77.83078,88.477776
"1765",77.25948,88.49111
"1766",76.76875,88.50445
"1767",76.36103,88.517784
"1768",76.03876,88.53112
"1769",75.79706,88.54446
"1770",75.62371,88.55779
"1771",75.51385,88.57113
"1772",75.4699,88.584465
"1773",75.47723,88.5978
"1774",75.528496,88.61114
"1775",75.613945,88.62447
"1776",75.72625,88.63781
"1777",75.84589,88.651146
"1778",75.95575,88.66448
"1779",76.0412,88.67782
"1780",76.087585,88.691154
"1781",76.09003,88.70449
"1782",76.04608,88.71783
"1783",75.96063,88.73116
"1784",75.841,88.7445
"1785",75.69451,88.757835
"1786",75.528496,88.77117
"1787",75.3576,88.78451
"1788",75.22087,88.797844
"1789",75.21355,88.81118
"1790",75.51873,88.82452
"1791",76.368355,88.83785
"1792",77.95285,88.85119
"1793",80.32838,88.864525
"1794",83.36309,88.87786
"1795",86.729836,88.8912
"1796",89.98917,88.90453
"1797",92.70893,88.91787
"1798",94.605934,88.931206
"1799",95.56298,88.94454
"1800",95.6289,88.95788
"1801",94.95506,88.971214
"1802",93.7441,88.98455
"1803",92.18402,88.99789
"1804",90.440834,89.01122
"1805",88.64393,89.02456
"1806",86.8983,89.037895
"1807",85.3016,89.05123
"1808",83.94415,89.06457
"1809",82.91142,89.0779
"1810",82.25712,89.09124
"1811",82.003204,89.104576
"1812",82.10574,89.11791
"1813",82.47196,89.13125
"1814",82.97734,89.144585
"1815",83.49004,89.15792
"1816",83.89288,89.17126
"1817",84.102844,89.18459
"1818",84.088196,89.19793
"1819",83.84894,89.211266
"1820",83.407036,89.2246
"1821",82.794235,89.23794
"1822",82.0618,89.251274
"1823",81.25613,89.26461
"1824",80.413826,89.27795
"1825",79.57641,89.29128
"1826",78.77562,89.30462
"1827",78.04074,89.317955
"1828",77.37911,89.33129
"1829",76.79805,89.34463
"1830",76.30488,89.35796
"1831",75.90204,89.3713
"1832",75.577324,89.384636
"1833",75.33074,89.39797
"1834",75.159836,89.41131
"1835",75.0573,89.424644
"1836",75.01091,89.43798
"1837",74.9987,89.45132
"1838",75.018234,89.46465
"1839",75.04997,89.47799
"1840",75.09148,89.491325
"1841",75.1281,89.50466
"1842",75.16716,89.518
"1843",75.19646,89.531334
"1844",75.208664,89.54467
"1845",75.191574,89.55801
"1846",75.14519,89.57134
"1847",75.06462,89.58468
"1848",74.95476,89.598015
"1849",74.82048,89.61135
"1850",74.669106,89.62469
"1851",74.50797,89.63802
"1852",74.35905,89.65136
"1853",74.28336,89.664696
"1854",74.43229,89.67803
"1855",75.035324,89.69137
"1856",76.334175,89.704704
"1857",78.470436,89.71804
"1858",81.40505,89.73138
"1859",84.89876,89.74471
"1860",88.53895,89.75805
"1861",91.844666,89.771385
"1862",94.432594,89.78472
"1863",96.07568,89.79806
"1864",96.72755,89.81139
"1865",96.480965,89.82473
"1866",95.519035,89.838066
"1867",94.063934,89.8514
"1868",92.32075,89.86474
"1869",90.45548,89.878075
"1870",88.59022,89.89141
"1871",86.8275,89.90475
"1872",85.25765,89.91808
"1873",83.963684,89.93142
"1874",83.02617,89.944756
"1875",82.49149,89.95809
"1876",82.35966,89.97143
"1877",82.55985,89.984764
"1878",82.97734,89.9981
"1879",83.48028,90.01144
"1880",83.931946,90.02477
"1881",84.224915,90.03811
"1882",84.300606,90.051445
"1883",84.137024,90.06478
"1884",83.73907,90.07812
"1885",83.13603,90.09145
"1886",82.38163,90.10479
"1887",81.52224,90.118126
"1888",80.60914,90.13146
"1889",79.68139,90.1448
"1890",78.78294,90.158134
"1891",77.945526,90.17147
"1892",77.18135,90.18481
"1893",76.50507,90.19814
"1894",75.92401,90.21148
"1895",75.43328,90.224815
"1896",75.03044,90.23815
"1897",74.71061,90.25149
"1898",74.47135,90.264824
"1899",74.30045,90.27816
"1900",74.1857,90.2915
"1901",74.1149,90.30483
"1902",74.075836,90.31817
"1903",74.05875,90.331505
"1904",74.05386,90.34484
"1905",74.056305,90.35818
"1906",74.05875,90.37151
"1907",74.06119,90.38485
"1908",74.06119,90.398186
"1909",74.06363,90.41152
"1910",74.06607,90.42486
"1911",74.07095,90.438194
"1912",74.06363,90.45153
"1913",74.03677,90.46487
"1914",73.97818,90.4782
"1915",73.89273,90.49154
"1916",73.76578,90.504875
"1917",73.61196,90.51821
"1918",73.43618,90.53155
"1919",73.28237,90.54488
"1920",73.25063,90.55822
"1921",73.548485,90.571556
"1922",74.43961,90.58489
"1923",76.16327,90.59823
"1924",78.802475,90.611565
"1925",82.22049,90.6249
"1926",86.06821,90.63824
"1927",89.864655,90.65157
"1928",93.119095,90.66491
"1929",95.49706,90.678246
"1930",96.83742,90.69158
"1931",97.17677,90.70492
"1932",96.64942,90.718254
"1933",95.467766,90.73159
"1934",93.85397,90.74493
"1935",92.000916,90.75826
"1936",90.06241,90.7716
"1937",88.1532,90.784935
"1938",86.380714,90.79827
"1939",84.842606,90.81161
"1940",83.63409,90.82494
"1941",82.81865,90.83828
"1942",82.43046,90.851616
"1943",82.43778,90.86495
"1944",82.7454,90.87829
"1945",83.22148,90.891624
"1946",83.72442,90.90496
"1947",84.122375,90.9183
"1948",84.32502,90.93163
"1949",84.28596,90.94497
"1950",83.99298,90.958305
"1951",83.47051,90.97164
"1952",82.757614,90.98498
"1953",81.90555,90.998314
"1954",80.96803,91.01165
"1955",79.98901,91.02499
"1956",79.01488,91.03832
"1957",78.07492,91.05166
"1958",77.20332,91.064995
"1959",76.41474,91.07833
"1960",75.716484,91.09167
"1961",75.123215,91.105
"1962",74.634926,91.11834
"1963",74.246735,91.131676
"1964",73.95865,91.14501
"1965",73.75845,91.15835
"1966",73.64126,91.171684
"1967",73.58755,91.18502
"1968",73.57778,91.19836
"1969",73.59487,91.21169
"1970",73.62661,91.22503
"1971",73.653465,91.238365
"1972",73.67544,91.2517
"1973",73.6852,91.26504
"1974",73.6852,91.27837
"1975",73.6852,91.29171
"1976",73.687645,91.305046
"1977",73.69741,91.31838
"1978",73.71206,91.33172
"1979",73.721825,91.345055
"1980",73.721825,91.35839
"1981",73.70718,91.37173
"1982",73.66323,91.38506
"1983",73.58999,91.3984
"1984",73.48745,91.411736
"1985",73.36294,91.42507
"1986",73.22621,91.43841
"1987",73.126114,91.451744
"1988",73.18715,91.46508
"1989",73.62417,91.47842
"1990",74.703285,91.49175
"1991",76.65888,91.50509
"1992",79.554436,91.518425
"1993",83.23369,91.53176
"1994",87.33288,91.5451
"1995",91.336845,91.55843
"1996",94.74998,91.57177
"1997",97.2256,91.585106
"1998",98.614784,91.59844
"1999",98.94194,91.61178
"2000",98.37064,91.625114
"2001",97.13283,91.63845
"2002",95.467766,91.65179
"2003",93.58053,91.66512
"2004",91.629814,91.67846
"2005",89.73037,91.691795
"2006",87.97742,91.70513
"2007",86.451515,91.71847
"2008",85.23323,91.731804
"2009",84.37873,91.74514
"2010",83.912415,91.75848
"2011",83.80255,91.77181
"2012",83.963684,91.78515
"2013",84.27619,91.798485
"2014",84.61555,91.81182
"2015",84.86214,91.82516
"2016",84.93782,91.83849
"2017",84.79866,91.85183
"2018",84.43488,91.865166
"2019",83.8587,91.8785
"2020",83.104294,91.89184
"2021",82.22293,91.905174
"2022",81.25613,91.91851
"2023",80.255135,91.93185
"2024",79.25414,91.94518
"2025",78.28245,91.95852
"2026",77.36935,91.971855
"2027",76.53437,91.98519
"2028",75.78241,91.99853
"2029",75.13054,92.01186
"2030",74.581215,92.0252
"2031",74.13199,92.038536
"2032",73.777985,92.05187
"2033",73.514305,92.06521
"2034",73.33364,92.078545
"2035",73.22621,92.09188
"2036",73.179825,92.10522
"2037",73.17006,92.11855
"2038",73.18471,92.13189
"2039",73.19203,92.145226
"2040",73.179825,92.15856
"2041",73.1432,92.1719
"2042",73.08705,92.185234
"2043",73.01625,92.19857
"2044",72.94789,92.21191
"2045",72.8893,92.22524
"2046",72.84535,92.23858
"2047",72.81117,92.251915
"2048",72.77455,92.26525
"2049",72.73304,92.27859
"2050",72.67689,92.29192
"2051",72.601204,92.30526
"2052",72.50843,92.318596
"2053",72.396126,92.33193
"2054",72.26673,92.34527
"2055",72.147095,92.358604
"2056",72.10315,92.37194
"2057",72.31068,92.38528
"2058",73.05287,92.39861
"2059",74.62272,92.41195
"2060",77.222855,92.425285
"2061",80.85817,92.43862
"2062",85.28695,92.45196
"2063",90.03555,92.465294
"2064",94.52537,92.47863
"2065",98.26322,92.49197
"2066",100.929276,92.5053
"2067",102.41856,92.51864
"2068",102.81163,92.531975
"2069",102.3209,92.54531
"2070",101.2198,92.55865
"2071",99.75983,92.57198
"2072",98.14114,92.58532
"2073",96.48585,92.598656
"2074",94.854965,92.61199
"2075",93.27535,92.62533
"2076",91.77142,92.638664
"2077",90.38712,92.652
"2078",89.18837,92.66534
"2079",88.24109,92.67867
"2080",87.57458,92.69201
"2081",87.183945,92.705345
"2082",87.00328,92.71868
"2083",86.93248,92.73202
"2084",86.854355,92.74535
"2085",86.66636,92.75869
"2086",86.295265,92.772026
"2087",85.70687,92.78536
"2088",84.910965,92.7987
"2089",83.93927,92.812035
"2090",82.84062,92.82537
"2091",81.668724,92.83871
"2092",80.46998,92.85204
"2093",79.293205,92.86538
"2094",78.17258,92.878716
"2095",77.134964,92.89205
"2096",76.190125,92.90539
"2097",75.352715,92.918724
"2098",74.62516,92.93206
"2099",73.99771,92.9454
"2100",73.4728,92.95873
"2101",73.04799,92.97207
"2102",72.71595,92.985405
"2103",72.464485,92.99874
"2104",72.27894,93.01208
"2105",72.147095,93.02541
"2106",72.05188,93.03875
"2107",71.96887,93.052086
"2108",71.888306,93.06542
"2109",71.80774,93.07876
"2110",71.724724,93.092094
"2111",71.63439,93.10543
"2112",71.54162,93.11877
"2113",71.45129,93.1321
"2114",71.36828,93.14544
"2115",71.28283,93.158775
"2116",71.19493,93.17211
"2117",71.09483,93.18545
"2118",70.98009,93.198784
"2119",70.84093,93.21212
"2120",70.677345,93.22546
"2121",70.49424,93.23879
"2122",70.30381,93.25213
"2123",70.1207,93.265465
"2124",69.993744,93.2788
"2125",70.04013,93.29214
"2126",70.504005,93.30547
"2127",71.692986,93.31881
"2128",73.88052,93.332146
"2129",77.196,93.34548
"2130",81.52224,93.35882
"2131",86.46616,93.372154
"2132",91.46136,93.38549
"2133",95.93164,93.39883
"2134",99.44244,93.41216
"2135",101.78134,93.4255
"2136",102.95323,93.438835
"2137",103.131454,93.45217
"2138",102.57725,93.46551
"2139",101.556725,93.47884
"2140",100.28718,93.49218
"2141",98.915085,93.505516
"2142",97.50393,93.51885
"2143",96.05615,93.53219
"2144",94.55222,93.545525
"2145",92.9897,93.55886
"2146",91.424736,93.5722
"2147",89.94766,93.58553
"2148",88.673225,93.59887
"2149",87.691765,93.612206
"2150",87.02525,93.62554
"2151",86.61509,93.63888
"2152",86.34165,93.652214
"2153",86.065765,93.66555
"2154",85.67269,93.67889
"2155",85.08675,93.69222
"2156",84.27863,93.70556
"2157",83.2752,93.718895
"2158",82.127716,93.73223
"2159",80.88747,93.74557
"2160",79.603264,93.7589
"2161",78.328835,93.77224
"2162",77.0959,93.785576
"2163",75.931335,93.79891
"2164",74.8571,93.81225
"2165",73.89517,93.825584
"2166",73.05531,93.83892
"2167",72.33997,93.85226
"2168",71.75159,93.86559
"2169",71.28283,93.87893
"2170",70.91661,93.892265
"2171",70.640724,93.9056
"2172",70.435646,93.91894
"2173",70.28184,93.932274
"2174",70.16464,93.94561
"2175",70.07431,93.95895
"2176",69.99863,93.97228
"2177",69.93271,93.98562
"2178",69.86923,93.998955
"2179",69.80087,94.01229
"2180",69.72518,94.02563
"2181",69.64706,94.03896
"2182",69.56161,94.0523
"2183",69.47616,94.065636
"2184",69.385826,94.07897
"2185",69.30038,94.09231
"2186",69.224686,94.105644
"2187",69.15877,94.11898
"2188",69.1075,94.13232
"2189",69.0782,94.14565
"2190",69.07576,94.15899
"2191",69.09041,94.172325
"2192",69.11238,94.18566
"2193",69.13435,94.199
"2194",69.15144,94.21233
"2195",69.16365,94.22567
"2196",69.18074,94.239006
"2197",69.23201,94.25234
"2198",69.40536,94.26568
"2199",69.891205,94.279015
"2200",70.98009,94.29235
"2201",72.98207,94.30569
"2202",76.09979,94.31902
"2203",80.29664,94.33236
"2204",85.26009,94.345695
"2205",90.44816,94.35903
"2206",95.24803,94.37237
"2207",99.159225,94.385704
"2208",101.908295,94.39904
"2209",103.46105,94.41238
"2210",103.98352,94.42571
"2211",103.72961,94.43905
"2212",102.97276,94.452385
"2213",101.94003,94.46572
"2214",100.77791,94.47906
"2215",99.544975,94.49239
"2216",98.23392,94.50573
"2217",96.81056,94.519066
"2218",95.257805,94.5324
"2219",93.60738,94.54574
"2220",91.964294,94.559074
"2221",90.46281,94.57241
"2222",89.22987,94.58575
"2223",88.326546,94.59908
"2224",87.7235,94.61242
"2225",87.31579,94.625755
"2226",86.95201,94.63909
"2227",86.49546,94.65243
"2228",85.855804,94.665764
"2229",84.996414,94.6791
"2230",83.93439,94.69244
"2231",82.7161,94.70577
"2232",81.40261,94.71911
"2233",80.05493,94.732445
"2234",78.729225,94.74578
"2235",77.46456,94.75912
"2236",76.297554,94.77245
"2237",75.24284,94.78579
"2238",74.31266,94.799126
"2239",73.50942,94.81246
"2240",72.833145,94.8258
"2241",72.271614,94.839134
"2242",71.80774,94.85247
"2243",71.42443,94.86581
"2244",71.11192,94.87914
"2245",70.86778,94.89248
"2246",70.68711,94.905815
"2247",70.55772,94.91915
"2248",70.467384,94.93249
"2249",70.39414,94.94582
"2250",70.32334,94.95916
"2251",70.23544,94.972496
"2252",70.12558,94.98583
"2253",69.993744,94.99917
"2254",69.84238,95.012505
"2255",69.67391,95.02584
"2256",69.49813,95.03918
"2257",69.32479,95.05251
"2258",69.15877,95.06585
"2259",69.017166,95.079185
"2260",68.912186,95.09252
"2261",68.84627,95.10586
"2262",68.82185,95.119194
"2263",68.83406,95.13253
"2264",68.878006,95.14587
"2265",68.93172,95.1592
"2266",68.98543,95.17254
"2267",69.02693,95.185875
"2268",69.05623,95.19921
"2269",69.07332,95.21255
"2270",69.09285,95.22588
"2271",69.136795,95.23922
"2272",69.23445,95.252556
"2273",69.45663,95.26589
"2274",69.96689,95.27923
"2275",71.009384,95.292564
"2276",72.850235,95.3059
"2277",75.682304,95.31924
"2278",79.49828,95.33257
"2279",84.03204,95.34591
"2280",88.80995,95.359245
"2281",93.28268,95.37258
"2282",96.96681,95.38592
"2283",99.596245,95.399254
"2284",101.12947,95.41259
"2285",101.695885,95.42593
"2286",101.52987,95.43926
"2287",100.88045,95.4526
"2288",99.94049,95.465935
"2289",98.83696,95.47927
"2290",97.63088,95.49261
"2291",96.31251,95.50594
"2292",94.854965,95.51928
"2293",93.263145,95.532616
"2294",91.595634,95.54595
"2295",89.97208,95.55929
"2296",88.52918,95.572624
"2297",87.38415,95.58596
"2298",86.571144,95.5993
"2299",86.04135,95.61263
"2300",85.67025,95.62597
"2301",85.30892,95.639305
"2302",84.83284,95.65264
"2303",84.16388,95.66598
"2304",83.29229,95.67931
"2305",82.24246,95.69265
"2306",81.06569,95.705986
"2307",79.82056,95.71932
"2308",78.56809,95.73266
"2309",77.3547,95.745995
"2310",76.21454,95.75933
"2311",75.16472,95.77267
"2312",74.22476,95.786
"2313",73.39468,95.79934
"2314",72.672005,95.812675
"2315",72.05188,95.82601
"2316",71.52941,95.83935
"2317",71.09972,95.852684
"2318",70.75304,95.86602
"2319",70.47959,95.87936
"2320",70.26719,95.89269
"2321",70.101166,95.90603
"2322",69.97421,95.919365
"2323",69.87167,95.9327
"2324",69.786224,95.94604
"2325",69.70565,95.95937
"2326",69.6202,95.97271
"2327",69.51766,95.986046
"2328",69.39803,95.99938
"2329",69.24666,96.01272
"2330",69.07576,96.026054
"2331",68.88777,96.03939
"2332",68.69489,96.05273
"2333",68.50202,96.06606
"2334",68.316475,96.0794
"2335",68.140686,96.092735
"2336",67.98688,96.10607
"2337",67.859924,96.11941
"2338",67.77203,96.132744
"2339",67.73296,96.14608
"2340",67.74517,96.15942
"2341",67.80377,96.17275
"2342",67.90143,96.18609
"2343",68.018616,96.199425
"2344",68.138245,96.21276
"2345",68.243225,96.2261
"2346",68.3238,96.23943
"2347",68.37751,96.25277
"2348",68.40925,96.266106
"2349",68.43122,96.27944
"2350",68.472725,96.29278
"2351",68.58991,96.306114
"2352",68.91463,96.31945
"2353",69.67635,96.33279
"2354",71.150986,96.34612
"2355",73.568016,96.35946
"2356",76.98848,96.372795
"2357",81.2195,96.38613
"2358",85.82895,96.39947
"2359",90.27238,96.4128
"2360",94.03464,96.42614
"2361",96.78371,96.439476
"2362",98.41215,96.45281
"2363",99.02251,96.46615
"2364",98.83208,96.479485
"2365",98.0972,96.49282
"2366",97.05226,96.50616
"2367",95.86572,96.51949
"2368",94.6157,96.53283
"2369",93.31686,96.546165
"2370",91.95209,96.5595
"2371",90.50187,96.57284
"2372",89.00038,96.586174
"2373",87.535515,96.59951
"2374",86.236664,96.61285
"2375",85.21126,96.62618
"2376",84.51301,96.63952
"2377",84.119934,96.652855
"2378",83.92462,96.66619
"2379",83.790344,96.67953
"2380",83.58282,96.69286
"2381",83.211716,96.7062
"2382",82.633095,96.719536
"2383",81.85184,96.73287
"2384",80.907,96.74621
"2385",79.83765,96.759544
"2386",78.70237,96.77288
"2387",77.55489,96.78622
"2388",76.436714,96.79955
"2389",75.386894,96.81289
"2390",74.42741,96.826225
"2391",73.57046,96.83956
"2392",72.82338,96.8529
"2393",72.18616,96.866234
"2394",71.658806,96.87957
"2395",71.23155,96.89291
"2396",70.89952,96.90624
"2397",70.65537,96.91958
"2398",70.484474,96.932915
"2399",70.37461,96.94625
"2400",70.311134,96.95959
"2401",70.279396,96.97292
"2402",70.26963,96.98626
"2403",70.26475,96.999596
"2404",70.26231,97.01293
"2405",70.25498,97.02627
"2406",70.23544,97.039604
"2407",70.20859,97.05294
"2408",70.17197,97.06628
"2409",70.12558,97.07961
"2410",70.081635,97.09295
"2411",70.04257,97.106285
"2412",70.00839,97.11962
"2413",69.979095,97.13296
"2414",69.95224,97.14629
"2415",69.93759,97.15963
"2416",69.94003,97.172966
"2417",69.95468,97.1863
"2418",69.98642,97.19964
"2419",70.02548,97.212975
"2420",70.064545,97.22631
"2421",70.0914,97.23965
"2422",70.10849,97.25298
"2423",70.132904,97.26632
"2424",70.20859,97.279655
"2425",70.43809,97.29299
"2426",71.028915,97.30633
"2427",72.26673,97.319664
"2428",74.4152,97.333
"2429",77.608604,97.34634
"2430",81.73464,97.35967
"2431",86.43931,97.37301
"2432",91.18059,97.386345
"2433",95.396965,97.39968
"2434",98.668495,97.41302
"2435",100.80232,97.42635
"2436",101.820404,97.43969
"2437",101.92294,97.453026
"2438",101.37362,97.46636
"2439",100.438545,97.4797
"2440",99.320366,97.493034
"2441",98.14114,97.50637
"2442",96.935074,97.51971
"2443",95.6704,97.53304
"2444",94.29832,97.54638
"2445",92.80904,97.559715
"2446",91.26116,97.57305
"2447",89.76456,97.58639
"2448",88.4535,97.599724
"2449",87.43786,97.61306
"2450",86.751816,97.626396
"2451",86.34409,97.63973
"2452",86.0975,97.65307
"2453",85.86801,97.666405
"2454",85.538414,97.67974
"2455",85.030594,97.69308
"2456",84.32014,97.70641
"2457",83.42657,97.71975
"2458",82.408485,97.733086
"2459",81.322044,97.74642
"2460",80.22583,97.75976
"2461",79.151596,97.773094
"2462",78.10666,97.78643
"2463",77.09102,97.79977
"2464",76.10712,97.8131
"2465",75.16716,97.82644
"2466",74.28336,97.839775
"2467",73.48745,97.85311
"2468",72.80629,97.86645
"2469",72.24963,97.87978
"2470",71.79797,97.89312
"2471",71.43908,97.906456
"2472",71.15587,97.91979
"2473",70.941025,97.93313
"2474",70.77501,97.946465
"2475",70.6627,97.9598
"2476",70.59678,97.97314
"2477",70.572365,97.98647
"2478",70.57725,97.99981
"2479",70.59678,98.013145
"2480",70.61875,98.02648
"2481",70.640724,98.03982
"2482",70.65293,98.053154
"2483",70.65537,98.06649
"2484",70.65049,98.07983
"2485",70.65049,98.09316
"2486",70.6627,98.1065
"2487",70.70176,98.119835
"2488",70.77745,98.13317
"2489",70.89708,98.14651
"2490",71.06798,98.15984
"2491",71.292595,98.17318
"2492",71.58312,98.186516
"2493",71.96399,98.19985
"2494",72.50355,98.21319
"2495",73.37026,98.226524
"2496",74.83757,98.23986
"2497",77.21797,98.2532
"2498",80.723885,98.26653
"2499",85.33822,98.27987
"2500",90.74845,98.293205
"2501",96.39063,98.30654
"2502",101.59579,98.31988
"2503",105.795074,98.33321
"2504",108.663765,98.34655
"2505",110.14816,98.359886
"2506",110.416725,98.37322
"2507",109.76486,98.38656
"2508",108.507515,98.399895
"2509",106.91081,98.41323
"2510",105.16518,98.42657
"2511",103.36584,98.4399
"2512",101.52987,98.45324
"2513",99.63531,98.466576
"2514",97.66262,98.47991
"2515",95.63622,98.49325
"2516",93.63424,98.506584
"2517",91.776306,98.51992
"2518",90.1918,98.53326
"2519",88.96132,98.54659
"2520",88.09216,98.55993
"2521",87.49157,98.573265
"2522",87.02525,98.5866
"2523",86.54185,98.59994
"2524",85.93149,98.61327
"2525",85.12825,98.62661
"2526",84.1297,98.639946
"2527",82.97246,98.65328
"2528",81.705345,98.66662
"2529",80.37965,98.679955
"2530",79.046616,98.69329
"2531",77.752655,98.70663
"2532",76.51972,98.71996
"2533",75.38201,98.7333
"2534",74.34928,98.746635
"2535",73.428856,98.75997
"2536",72.62562,98.77331
"2537",71.9469,98.786644
"2538",71.38781,98.79998
"2539",70.94591,98.81332
"2540",70.608986,98.82665
"2541",70.3502,98.83999
"2542",70.14267,98.853325
"2543",69.95224,98.86666
"2544",69.76669,98.88
"2545",69.58846,98.89333
"2546",69.42733,98.90667
"2547",69.29305,98.920006
"2548",69.19783,98.93334
"2549",69.13435,98.94668
"2550",69.085526,98.960014
"2551",69.0367,98.97335
"2552",68.9659,98.98669
"2553",68.86336,99.00002
"2554",68.716866,99.01336
"2555",68.54597,99.026695
"2556",68.35798,99.04003
"2557",68.1651,99.05337
"2558",67.981995,99.0667
"2559",67.81598,99.08004
"2560",67.67681,99.093376
"2561",67.62066,99.10671
"2562",67.82086,99.12005
"2563",68.55573,99.133385
"2564",70.14511,99.14672
"2565",72.82094,99.16006
"2566",76.59052,99.17339
"2567",81.17311,99.18673
"2568",86.03647,99.200066
"2569",90.55314,99.2134
"2570",94.19089,99.22674
"2571",96.65186,99.240074
"2572",97.90433,99.25341
"2573",98.12161,99.26675
"2574",97.59426,99.28008
"2575",96.620125,99.29342
"2576",95.431145,99.306755
"2577",94.15915,99.32009
"2578",92.86763,99.33343
"2579",91.53704,99.34676
"2580",90.13809,99.3601
"2581",88.66834,99.373436
"2582",87.1693,99.38677
"2583",85.72396,99.40011
"2584",84.456856,99.413445
"2585",83.46807,99.42678
"2586",82.80644,99.44012
"2587",82.44755,99.45345
"2588",82.30106,99.46679
"2589",82.22781,99.480125
"2590",82.08621,99.49346
"2591",81.76883,99.5068
"2592",81.22682,99.520134
"2593",80.462654,99.53347
"2594",79.53246,99.54681
"2595",78.5095,99.56014
"2596",77.46456,99.57348
"2597",76.45136,99.586815
"2598",75.48943,99.60015
"2599",74.59586,99.61349
"2600",73.77066,99.62682
"2601",73.023575,99.64016
"2602",72.36439,99.653496
"2603",71.81018,99.66683
"2604",71.35851,99.68017
"2605",71.011826,99.693504
"2606",70.75792,99.70684
"2607",70.57725,99.72018
"2608",70.45518,99.73351
"2609",70.36973,99.74685
"2610",70.313576,99.760185
"2611",70.28184,99.77352
"2612",70.28184,99.78686
"2613",70.311134,99.80019
"2614",70.381935,99.81353
"2615",70.486916,99.826866
"2616",70.61387,99.8402
"2617",70.728615,99.85354
"2618",70.81163,99.866875
"2619",70.836044,99.88021
"2620",70.79942,99.89355
"2621",70.7042,99.90688
"2622",70.572365,99.92022
"2623",70.421,99.933556
"2624",70.27207,99.94689
"2625",70.132904,99.96023
"2626",70.03769,99.973564
"2627",70.08652,99.9869
"2628",70.49912,100.00024
"2629",71.57336,100.01357
"2630",73.59243,100.02691
"2631",76.697945,100.040245
"2632",80.762955,100.05358
"2633",85.38705,100.06692
"2634",89.99161,100.08025
"2635",93.98093,100.09359
"2636",96.9131,100.106926
"2637",98.600136,100.12026
"2638",99.090866,100.1336
"2639",98.617226,100.146935
"2640",97.48684,100.16027
"2641",95.99512,100.17361
"2642",94.36912,100.18694
"2643",92.7309,100.20028
"2644",91.104904,100.213615
"2645",89.47646,100.22695
"2646",87.835815,100.24029
"2647",86.22934,100.253624
"2648",84.749825,100.26696
"2649",83.52422,100.2803
"2650",82.650185,100.29363
"2651",82.15457,100.30697
"2652",81.97391,100.320305
"2653",81.97391,100.33364
"2654",82.005646,100.34698
"2655",81.92264,100.36031
"2656",81.63943,100.37365
"2657",81.109634,100.386986
"2658",80.343025,100.40032
"2659",79.378654,100.41366
"2660",78.28489,100.426994
"2661",77.12764,100.44033
"2662",75.97772,100.45367
"2663",74.88884,100.467
"2664",73.89517,100.48034
"2665",73.00893,100.493675
"2666",72.2301,100.50701
"2667",71.551384,100.52035
"2668",70.963,100.53368
"2669",70.467384,100.54702
"2670",70.05966,100.560356
"2671",69.73495,100.57369
"2672",69.48348,100.58703
"2673",69.295494,100.600365
"2674",69.15633,100.6137
"2675",69.05867,100.62704
"2676",68.997635,100.64037
"2677",68.97322,100.65371
"2678",68.980545,100.667046
"2679",69.01228,100.68038
"2680",69.048904,100.69372
"2681",69.07332,100.707054
"2682",69.06355,100.72039
"2683",69.01961,100.73373
"2684",68.943924,100.74706
"2685",68.84871,100.7604
"2686",68.755936,100.773735
"2687",68.66071,100.78707
"2688",68.55329,100.80041
"2689",68.42634,100.81374
"2690",68.282295,100.82708
"2691",68.138245,100.840416
"2692",68.04791,100.85375
"2693",68.1358,100.86709
"2694",68.62653,100.880424
"2695",69.80087,100.89376
"2696",71.91516,100.9071
"2697",75.07439,100.92043
"2698",79.149155,100.93377
"2699",83.74883,100.947105
"2700",88.3119,100.96044
"2701",92.27436,100.97378
"2702",95.218735,100.987114
"2703",96.954605,101.00045
"2704",97.51858,101.01379
"2705",97.10597,101.02712
"2706",95.98291,101.04046
"2707",94.41062,101.053795
"2708",92.60883,101.06713
"2709",90.72404,101.08047
"2710",88.849014,101.0938
"2711",87.04234,101.10714
"2712",85.36996,101.120476
"2713",83.912415,101.13381
"2714",82.75029,101.14715
"2715",81.94949,101.160484
"2716",81.53933,101.17382
"2717",81.48318,101.18716
"2718",81.68093,101.20049
"2719",81.99832,101.21383
"2720",82.29618,101.227165
"2721",82.44022,101.2405
"2722",82.34989,101.25384
"2723",81.99588,101.26717
"2724",81.40017,101.28051
"2725",80.618904,101.293846
"2726",79.72289,101.30718
"2727",78.785385,101.32052
"2728",77.86008,101.333855
"2729",76.978714,101.34719
"2730",76.16083,101.36053
"2731",75.41375,101.37386
"2732",74.737465,101.3872
"2733",74.13443,101.400536
"2734",73.60708,101.41387
"2735",73.16518,101.42721
"2736",72.82338,101.440544
"2737",72.59144,101.45388
"2738",72.46937,101.46722
"2739",72.444954,101.48055
"2740",72.49134,101.49389
"2741",72.57923,101.507225
"2742",72.68421,101.52056
"2743",72.78432,101.5339
"2744",72.867325,101.54723
"2745",72.94057,101.56057
"2746",73.006485,101.573906
"2747",73.06996,101.58724
"2748",73.13832,101.60058
"2749",73.20424,101.613914
"2750",73.26284,101.62725
"2751",73.3019,101.64059
"2752",73.323875,101.65392
"2753",73.32876,101.66726
"2754",73.33364,101.680595
"2755",73.33608,101.69393
"2756",73.340965,101.70727
"2757",73.34585,101.720604
"2758",73.340965,101.73394
"2759",73.323875,101.74728
"2760",73.289696,101.76061
"2761",73.272606,101.77395
"2762",73.375145,101.787285
"2763",73.80972,101.80062
"2764",74.87419,101.81396
"2765",76.85664,101.82729
"2766",79.886475,101.84063
"2767",83.85382,101.853966
"2768",88.37049,101.8673
"2769",92.87007,101.88064
"2770",96.761734,101.893974
"2771",99.613335,101.90731
"2772",101.22713,101.92065
"2773",101.63241,101.93398
"2774",101.02693,101.94732
"2775",99.67925,101.960655
"2776",97.86038,101.97399
"2777",95.79736,101.98733
"2778",93.644005,102.00066
"2779",91.51751,102.014
"2780",89.498436,102.027336
"2781",87.67956,102.04067
"2782",86.136566,102.05401
"2783",84.95735,102.067345
"2784",84.17853,102.08068
"2785",83.80011,102.09402
"2786",83.74883,102.10735
"2787",83.9173,102.12069
"2788",84.173645,102.134026
"2789",84.39826,102.14736
"2790",84.49348,102.1607
"2791",84.40559,102.174034
"2792",84.11017,102.18737
"2793",83.612114,102.20071
"2794",82.93828,102.21404
"2795",82.11795,102.22738
"2796",81.197525,102.240715
"2797",80.216064,102.25405
"2798",79.21019,102.26739
"2799",78.21652,102.28072
"2800",77.27413,102.29406
"2801",76.402534,102.307396
"2802",75.613945,102.32073
"2803",74.915695,102.33407
"2804",74.319984,102.347404
"2805",73.829254,102.36074
"2806",73.443504,102.37408
"2807",73.16518,102.38741
"2808",72.901505,102.414085
"2809",72.87221,102.42742
"2810",72.87953,102.44076
"2811",72.90883,102.454094
"2812",72.95033,102.46743
"2813",72.99672,102.48077
"2814",73.05287,102.4941
"2815",73.111465,102.50744
"2816",73.162735,102.520775
"2817",73.20424,102.53411
"2818",73.23598,102.54745
"2819",73.25796,102.56078
"2820",73.270164,102.57412
"2821",73.27993,102.587456
"2822",73.27749,102.60079
"2823",73.255516,102.61413
"2824",73.2018,102.627464
"2825",73.111465,102.6408
"2826",72.98695,102.65414
"2827",72.850235,102.66747
"2828",72.71595,102.68081
"2829",72.603645,102.694145
"2830",72.52308,102.70748
"2831",72.52308,102.72082
"2832",72.725716,102.73415
"2833",73.375145,102.74749
"2834",74.76189,102.760826
"2835",77.134964,102.77416
"2836",80.54566,102.7875
"2837",84.788895,102.800835
"2838",89.40566,102.81417
"2839",93.802704,102.82751
"2840",97.43069,102.84084
"2841",99.9234,102.85418
"2842",101.153885,102.867516
"2843",101.21004,102.88085
"2844",100.30427,102.89419
"2845",98.719765,102.907524
"2846",96.722664,102.92086
"2847",94.52537,102.9342
"2848",92.281685,102.94753
"2849",90.10391,102.96087
"2850",88.06531,102.974205
"2851",86.24643,102.98754
"2852",84.73029,103.00088
"2853",83.597466,103.01421
"2854",82.90654,103.02755
"2855",82.65751,103.040886
"2856",82.774704,103.05422
"2857",83.12138,103.06756
"2858",83.53643,103.080894
"2859",83.87091,103.09423
"2860",84.017395,103.10757
"2861",83.91974,103.1209
"2862",83.563286,103.13424
"2863",82.97246,103.147575
"2864",82.178986,103.16091
"2865",81.231705,103.17425
"2866",80.18921,103.187584
"2867",79.10521,103.20092
"2868",78.030975,103.21426
"2869",77.00557,103.22759
"2870",76.06073,103.24093
"2871",75.208664,103.254265
"2872",74.461586,103.2676
"2873",73.81949,103.28094
"2874",73.29214,103.29427
"2875",72.884415,103.30761
"2876",72.59876,103.320946
"2877",72.430305,103.33428
"2878",72.361946,103.34762
"2879",72.36683,103.360954
"2880",72.413216,103.37429
"2881",72.481575,103.38763
"2882",72.549934,103.40096
"2883",72.61585,103.4143
"2884",72.68177,103.427635
"2885",72.740364,103.44097
"2886",72.796524,103.45431
"2887",72.84535,103.46764
"2888",72.886856,103.48098
"2889",72.91127,103.494316
"2890",72.921036,103.50765
"2891",72.91615,103.52099
"2892",72.903946,103.534325
"2893",72.88197,103.54766
"2894",72.84779,103.561
"2895",72.80629,103.57433
"2896",72.75014,103.58767
"2897",72.672005,103.601006
"2898",72.57679,103.61434
"2899",72.46937,103.62768
"2900",72.376595,103.641014
"2901",72.361946,103.65435
"2902",72.59144,103.66769
"2903",73.32632,103.68102
"2904",74.8571,103.69436
"2905",77.38888,103.707695
"2906",80.93141,103.72103
"2907",85.25277,103.73437
"2908",89.881744,103.7477
"2909",94.2446,103.76104
"2910",97.81644,103.774376
"2911",100.26765,103.78771
"2912",101.48348,103.80105
"2913",101.54696,103.814384
"2914",100.66804,103.82772
"2915",99.12016,103.84106
"2916",97.164566,103.85439
"2917",95.02098,103.86773
"2918",92.83589,103.881065
"2919",90.70695,103.8944
"2920",88.71717,103.90774
"2921",86.94957,103.921074
"2922",85.489586,103.93441
"2923",84.42756,103.94775
"2924",83.8172,103.96108
"2925",83.65118,103.97442
"2926",83.85138,103.987755
"2927",84.281075,104.00109
"2928",84.78157,104.01443
"2929",85.20393,104.02776
"2930",85.43343,104.0411
"2931",85.40414,104.054436
"2932",85.10628,104.06777
"2933",84.55695,104.08111
"2934",83.792786,104.094444
"2935",82.86748,104.10778
"2936",81.829865,104.12112
"2937",80.72877,104.13445
"2938",79.61059,104.14779
"2939",78.52659,104.161125
"2940",77.52071,104.17446
"2941",76.61494,104.1878
"2942",75.82147,104.20113
"2943",75.15007,104.21447
"2944",74.598305,104.227806
"2945",74.15396,104.24114
"2946",73.812164,104.25448
"2947",73.56313,104.267815
"2948",73.39956,104.28115
"2949",73.30923,104.29449
"2950",73.27749,104.30782
"2951",73.29458,104.32116
"2952",73.34829,104.334496
"2953",73.41665,104.34783
"2954",73.48745,104.36117
"2955",73.5436,104.374504
"2956",73.585106,104.38784
"2957",73.60464,104.40118
"2958",73.61196,104.41451
"2959",73.60952,104.42785
"2960",73.602196,104.441185
"2961",73.58022,104.45452
"2962",73.53872,104.46786
"2963",73.47036,104.48119
"2964",73.36782,104.49453
"2965",73.24086,104.507866
"2966",73.091934,104.5212
"2967",72.92592,104.53454
"2968",72.75746,104.547874
"2969",72.601204,104.56121
"2970",72.481575,104.57455
"2971",72.50111,104.58788
"2972",72.85756,104.60122
"2973",73.8439,104.614555
"2974",75.7409,104.62789
"2975",78.70481,104.64123
"2976",82.65995,104.654564
"2977",87.257195,104.6679
"2978",91.949646,104.68124
"2979",96.146484,104.69457
"2980",99.37652,104.70791
"2981",101.39315,104.721245
"2982",102.17685,104.73458
"2983",101.86923,104.74792
"2984",100.70954,104.76125
"2985",98.951706,104.77459
"2986",96.83498,104.787926
"2987",94.537575,104.80126
"2988",92.20599,104.8146
"2989",89.9501,104.827934
"2990",87.87488,104.84127
"2991",86.080414,104.85461
"2992",84.66926,104.86794
"2993",83.71221,104.88128
"2994",83.23369,104.894615
"2995",83.18974,104.90795
"2996",83.48516,104.92129
"2997",83.9588,104.93462
"2998",84.454414,104.94796
"2999",84.83772,104.961296
"3000",85.0013,104.97463
"3001",84.88899,104.98797
"3002",84.491035,105.001305
"3003",83.83185,105.01464
"3004",82.96513,105.02798
"3005",81.94705,105.04131
"3006",80.84352,105.05465
"3007",79.710686,105.067986
"3008",78.59739,105.08132
"3009",77.53536,105.09466
"3010",76.55634,105.107994
"3011",75.667656,105.12133
"3012",74.881516,105.13467
"3013",74.20767,105.148
"3014",73.64614,105.16134
"3015",73.19447,105.174675
"3016",72.85268,105.18801
"3017",72.61341,105.20135
"3018",72.464485,105.21468
"3019",72.40101,105.22802
"3020",72.40101,105.241356
"3021",72.447395,105.25469
"3022",72.52064,105.26803
"3023",72.59876,105.281364
"3024",72.66224,105.2947
"3025",72.71351,105.30804
"3026",72.75258,105.32137
"3027",72.779434,105.33471
"3028",72.80385,105.348045
"3029",72.8185,105.36138
"3030",72.82338,105.37472
"3031",72.81117,105.388054
"3032",72.77455,105.40139
"3033",72.706184,105.41473
"3034",72.61097,105.42806
"3035",72.48646,105.4414
"3036",72.34486,105.454735
"3037",72.1886,105.46807
"3038",72.02991,105.48141
"3039",71.905396,105.49474
"3040",71.92493,105.50808
"3041",72.31312,105.521416
"3042",73.392235,105.53475
"3043",75.44549,105.54809
"3044",78.60227,105.561424
"3045",82.74052,105.57476
"3046",87.4696,105.5881
"3047",92.22064,105.60143
"3048",96.4004,105.61477
"3049",99.56451,105.628105
"3050",101.49569,105.64144
"3051",102.18906,105.65478
"3052",101.79599,105.66811
"3053",100.55573,105.68145
"3054",98.739296,105.694786
"3055",96.5835,105.70812
"3056",94.278786,105.72146
"3057",91.95941,105.734795
"3058",89.73769,105.74813
"3059",87.711296,105.76147
"3060",85.980316,105.7748
"3061",84.63508,105.78814
"3062",83.73907,105.801476
"3063",83.30938,105.81481
"3064",83.28741,105.82815
"3065",83.560844,105.841484
"3066",83.983215,105.85482
"3067",84.4007,105.86816
"3068",84.68879,105.88149
"3069",84.76448,105.89483
"3070",84.58625,105.908165
"3071",84.14923,105.9215
"3072",83.47051,105.93484
"3073",82.6038,105.94817
"3074",81.600365,105.96151
"3075",80.516365,105.974846
"3076",79.40795,105.98818
"3077",78.314186,106.00152
"3078",77.27413,106.014854
"3079",76.30976,106.02819
"3080",75.43816,106.04153
"3081",74.67399,106.05486
"3082",74.02457,106.0682
"3083",73.48989,106.081535
"3084",73.06508,106.09487
"3085",72.74525,106.10821
"3086",72.518196,106.121544
"3087",72.376595,106.13488
"3088",72.31068,106.14822
"3089",72.31068,106.16155
"3090",72.361946,106.17489
"3091",72.45716,106.188225
"3092",72.584114,106.20156
"3093",72.73792,106.2149
"3094",72.91127,106.22823
"3095",73.09926,106.24157
"3096",73.29702,106.254906
"3097",73.497215,106.26824
"3098",73.68276,106.28158
"3099",73.83902,106.294914
"3100",73.944,106.30825
"3101",73.97818,106.32159
"3102",73.93179,106.33492
"3103",73.80972,106.34826
"3104",73.62417,106.361595
"3105",73.38491,106.37493
"3106",73.12367,106.38827
"3107",72.87221,106.4016
"3108",72.69886,106.41494
"3109",72.764786,106.428276
"3110",73.338524,106.44161
"3111",74.73502,106.45495
"3112",77.19356,106.468285
"3113",80.73609,106.48162
"3114",85.12581,106.49496
"3115",89.89395,106.50829
"3116",94.43992,106.52163
"3117",98.21927,106.534966
"3118",100.88045,106.5483
"3119",102.30137,106.56164
"3120",102.55283,106.574974
"3121",101.83017,106.58831
"3122",100.37751,106.60165
"3123",98.460976,106.61498
"3124",96.29542,106.62832
"3125",94.03952,106.641655
"3126",91.81293,106.65499
"3127",89.71084,106.66833
"3128",87.818726,106.68166
"3129",86.23178,106.695
"3130",85.01839,106.708336
"3131",84.23224,106.72167
"3132",83.85626,106.73501
"3133",83.826965,106.748344
"3134",84.03204,106.76168
"3135",84.34455,106.77502
"3136",84.627754,106.78835
"3137",84.77669,106.80169
"3138",84.715645,106.815025
"3139",84.41291,106.82836
"3140",83.86359,106.8417
"3141",83.10185,106.855034
"3142",82.17166,106.86837
"3143",81.129166,106.88171
"3144",80.03052,106.89504
"3145",78.91722,106.90838
"3146",77.83078,106.921715
"3147",76.805374,106.93505
"3148",75.8703,106.94839
"3149",75.037766,106.96172
"3150",74.319984,106.97506
"3151",73.72915,106.988396
"3152",73.2604,107.00173
"3153",72.89906,107.01507
"3154",72.63294,107.028404
"3155",72.447395,107.04174
"3156",72.32777,107.05508
"3157",72.25941,107.06841
"3158",72.2301,107.08175
"3159",72.22278,107.095085
"3160",72.234985,107.10842
"3161",72.25941,107.12176
"3162",72.29847,107.13509
"3163",72.35706,107.14843
"3164",72.430305,107.161766
"3165",72.51331,107.1751
"3166",72.586555,107.18844
"3167",72.63294,107.201775
"3168",72.63538,107.21511
"3169",72.59388,107.22845
"3170",72.50111,107.24178
"3171",72.36439,107.25512
"3172",72.19104,107.268456
"3173",71.99573,107.28179
"3174",71.79309,107.29513
"3175",71.656364,107.308464
"3176",71.73937,107.3218
"3177",72.33265,107.33514
"3178",73.75845,107.34847
"3179",76.27314,107.36181
"3180",79.923096,107.375145
"3181",84.488594,107.38848
"3182",89.495995,107.40182
"3183",94.34226,107.41515
"3184",98.460976,107.42849
"3185",101.48348,107.441826
"3186",103.26086,107.45516
"3187",103.84192,107.4685
"3188",103.42931,107.481834
"3189",102.28184,107.49517
"3190",100.665596,107.50851
"3191",98.795456,107.52184
"3192",96.83742,107.53518
"3193",94.86961,107.548515
"3194",92.95308,107.56185
"3195",91.12688,107.57519
"3196",89.45205,107.588524
"3197",87.99939,107.60186
"3198",86.84459,107.6152
"3199",86.03647,107.62853
"3200",85.56283,107.64187
"3201",85.36996,107.655205
"3202",85.33822,107.66854
"3203",85.347984,107.68188
"3204",85.28695,107.69521
"3205",85.06966,107.70855
"3206",84.644844,107.721886
"3207",84.00763,107.73522
"3208",83.16777,107.74856
"3209",82.16434,107.761894
"3210",81.03639,107.77523
"3211",79.84009,107.78857
"3212",78.626686,107.8019
"3213",77.44259,107.81524
"3214",76.32685,107.828575
"3215",75.30389,107.84191
"3216",74.39567,107.85525
"3217",73.60708,107.86858
"3218",72.935684,107.88192
"3219",72.379036,107.895256
"3220",71.93713,107.90859
"3221",71.59533,107.92193
"3222",71.343864,107.935265
"3223",71.16319,107.9486
"3224",71.046005,107.96194
"3225",70.97032,107.97527
"3226",70.9337,107.98861
"3227",70.923935,108.001945
"3228",70.93858,108.01528
"3229",70.975204,108.02862
"3230",71.02403,108.041954
"3231",71.07774,108.05529
"3232",71.12169,108.06863
"3233",71.148544,108.08196
"3234",71.13878,108.0953
"3235",71.08995,108.108635
"3236",70.98741,108.12197
"3237",70.838486,108.13531
"3238",70.64561,108.14864
"3239",70.42832,108.16198
"3240",70.223236,108.175316
"3241",70.14511,108.18865
"3242",70.41123,108.20199
"3243",71.34142,108.215324
"3244",73.248184,108.22866
"3245",76.3122,108.242
"3246",80.465096,108.25533
"3247",85.36263,108.26867
"3248",90.4506,108.282005
"3249",95.113754,108.29534
"3250",98.85893,108.30868
"3251",101.417564,108.322014
"3252",102.750595,108.33535
"3253",102.99718,108.34869
"3254",102.39658,108.36202
"3255",101.224686,108.37536
"3256",99.72564,108.388695
"3257",98.07767,108.40203
"3258",96.38575,108.41537
"3259",94.68162,108.4287
"3260",92.97749,108.44204
"3261",91.28802,108.455376
"3262",89.66201,108.46871
"3263",88.17761,108.48205
"3264",86.93736,108.495384
"3265",86.014496,108.50872
"3266",85.41146,108.52206
"3267",85.067215,108.53539
"3268",84.87923,108.54873
"3269",84.71076,108.562065
"3270",84.45197,108.5754
"3271",84.02228,108.58874
"3272",83.39483,108.60207
"3273",82.57694,108.61541
"3274",81.58816,108.628746
"3275",80.46998,108.64208
"3276",79.273674,108.65542
"3277",78.05051,108.668755
"3278",76.841995,108.68209
"3279",75.68963,108.69543
"3280",74.62516,108.70876
"3281",73.66567,108.7221
"3282",72.81117,108.735435
"3283",72.06897,108.74877
"3284",71.43908,108.76211
"3285",70.92149,108.775444
"3286",70.51377,108.78878
"3287",70.203705,108.80212
"3288",69.98398,108.81545
"3289",69.84482,108.82879
"3290",69.76181,108.842125
"3291",69.72518,108.85546
"3292",69.72518,108.8688
"3293",69.754486,108.88213
"3294",69.80087,108.89547
"3295",69.857025,108.908806
"3296",69.9205,108.92214
"3297",69.979095,108.93548
"3298",70.02548,108.948814
"3299",70.0499,108.96215
"3300",70.04013,108.97549
"3301",69.9913,108.98882
"3302",69.891205,109.00216
"3303",69.73983,109.015495
"3304",69.55428,109.02883
"3305",69.35409,109.04217
"3306",69.18562,109.055504
"3307",69.11238,109.06884
"3308",69.28817,109.08218
"3309",69.97421,109.09551
"3310",71.4757,109.10885
"3311",74.039215,109.122185
"3312",77.72579,109.13552
"3313",82.340126,109.14886
"3314",87.41833,109.16219
"3315",92.350044,109.17553
"3316",96.566414,109.188866
"3317",99.684135,109.2022
"3318",101.56405,109.21554
"3319",102.28916,109.228874
"3320",102.084076,109.24221
"3321",101.21492,109.25555
"3322",99.94537,109.26888
"3323",98.4683,109.28222
"3324",96.90822,109.295555
"3325",95.30175,109.30889
"3326",93.65133,109.32223
"3327",91.95453,109.33556
"3328",90.245514,109.3489
"3329",88.602425,109.362236
"3330",87.14,109.37557
"3331",85.97055,109.38891
"3332",85.15755,109.402245
"3333",84.67902,109.41558
"3334",84.43488,109.42892
"3335",84.2884,109.44225
"3336",84.09552,109.45559
"3337",83.74883,109.468925
"3338",83.1873,109.48226
"3339",82.406044,109.4956
"3340",81.43435,109.508934
"3341",80.325935,109.52227
"3342",79.14183,109.53561
"3343",77.93576,109.54894
"3344",76.75166,109.56228
"3345",75.62859,109.575615
"3346",74.59098,109.58895
"3347",73.64858,109.60229
"3348",72.80873,109.61562
"3349",72.07385,109.62896
"3350",71.44396,109.642296
"3351",70.906845,109.65563
"3352",70.469826,109.66897
"3353",70.12802,109.682304
"3354",69.879,109.69564
"3355",69.715416,109.70898
"3356",69.627525,109.72231
"3357",69.60311,109.73565
"3358",69.61776,109.748985
"3359",69.65438,109.76232
"3360",69.698326,109.77566
"3361",69.73739,109.788994
"3362",69.76669,109.80233
"3363",69.78134,109.81567
"3364",69.78134,109.829
"3365",69.76669,109.84234
"3366",69.730064,109.855675
"3367",69.66659,109.86901
"3368",69.56405,109.88235
"3369",69.41512,109.89568
"3370",69.22713,109.90902
"3371",69.00252,109.922356
"3372",68.76082,109.93569
"3373",68.53376,109.94903
"3374",68.37751,109.962364
"3375",68.38972,109.9757
"3376",68.76326,109.98904
"3377",69.7789,110.00237
"3378",71.72961,110.01571
"3379",74.78386,110.029045
"3380",78.890366,110.04238
"3381",83.73174,110.05572
"3382",88.77089,110.06905
"3383",93.40475,110.08239
"3384",97.13039,110.095726
"3385",99.67437,110.10906
"3386",100.99275,110.1224
"3387",101.239334,110.135735
"3388",100.66071,110.14907
"3389",99.53521,110.16241
"3390",98.09964,110.17574
"3391",96.517586,110.18908
"3392",94.86473,110.202415
"3393",93.172806,110.21575
"3394",91.44671,110.22909
"3395",89.71816,110.242424
"3396",88.05066,110.25576
"3397",86.554054,110.2691
"3398",85.33578,110.28243
"3399",84.46418,110.29577
"3400",83.931946,110.309105
"3401",83.65606,110.32244
"3402",83.49737,110.33578
"3403",83.31426,110.34911
"3404",82.99199,110.36245
"3405",82.46464,110.375786
"3406",81.72732,110.38912
"3407",80.80934,110.40246
"3408",79.74731,110.415794
"3409",78.59739,110.42913
"3410",77.40353,110.44247
"3411",76.2121,110.4558
"3412",75.06218,110.46914
"3413",73.98306,110.482475
"3414",72.99916,110.49581
"3415",72.12024,110.50915
"3416",71.34875,110.522484
"3417",70.68711,110.53582
"3418",70.135345,110.54916
"3419",69.69344,110.56249
"3420",69.35897,110.57583
"3421",69.12215,110.589165
"3422",68.96834,110.6025
"3423",68.892654,110.61584
"3424",68.878006,110.62917
"3425",68.909744,110.64251
"3426",68.97322,110.655846
"3427",69.05379,110.66918
"3428",69.136795,110.68252
"3429",69.21248,110.695854
"3430",69.278404,110.70919
"3431",69.33944,110.72253
"3432",69.38827,110.73586
"3433",69.42977,110.7492
"3434",69.454185,110.762535
"3435",69.451744,110.77587
"3436",69.41512,110.78921
"3437",69.34188,110.80254
"3438",69.22957,110.81588
"3439",69.09041,110.829216
"3440",68.94148,110.84255
"3441",68.79744,110.85589
"3442",68.69489,110.869225
"3443",68.680244,110.88256
"3444",68.88289,110.8959
"3445",69.542076,110.90923
"3446",70.98009,110.92257
"3447",73.480125,110.935905
"3448",77.152054,110.94924
"3449",81.84207,110.96258
"3450",87.098495,110.975914
"3451",92.30366,110.98925
"3452",96.83009,111.00259
"3453",100.226135,111.01592
"3454",102.30869,111.02926
"3455",103.131454,111.042595
"3456",102.9044,111.05593
"3457",101.91562,111.06927
"3458",100.45319,111.0826
"3459",98.75395,111.09594
"3460",96.96925,111.109276
"3461",95.16014,111.12261
"3462",93.33883,111.13595
"3463",91.5053,111.149284
"3464",89.69131,111.16262
"3465",87.96277,111.17596
"3466",86.4271,111.18929
"3467",85.19661,111.20263
"3468",84.3299,111.215965
"3469",83.81232,111.2293
"3470",83.55108,111.24264
"3471",83.41436,111.255974
"3472",83.25811,111.26931
"3473",82.96513,111.282646
"3474",82.46464,111.29598
"3475",81.739525,111.30932
"3476",80.80934,111.322655
"3477",79.725334,111.33599
"3478",78.538795,111.34933
"3479",77.298546,111.36266
"3480",76.05829,111.376
"3481",74.85222,111.389336
"3482",73.71694,111.40267
"3483",72.67689,111.41601
"3484",71.7467,111.429344
"3485",70.94347,111.44268
"3486",70.26719,111.45602
"3487",69.70809,111.46935
"3488",69.263756,111.48269
"3489",68.91951,111.496025
"3490",68.663155,111.50936
"3491",68.49958,111.5227
"3492",68.42634,111.53603
"3493",68.42878,111.54937
"3494",68.49714,111.562706
"3495",68.61677,111.57604
"3496",68.76326,111.58938
"3497",68.91707,111.602715
"3498",69.06355,111.61605
"3499",69.20271,111.62939
"3500",69.32967,111.64272
"3501",69.44198,111.65606
"3502",69.53475,111.669395
"3503",69.60311,111.68273
"3504",69.63241,111.69607
"3505",69.61288,111.709404
"3506",69.539635,111.72274
"3507",69.41512,111.73608
"3508",69.24666,111.74941
"3509",69.05867,111.76275
"3510",68.875565,111.776085
"3511",68.75838,111.78942
"3512",68.85603,111.80276
"3513",69.46395,111.81609
"3514",70.95323,111.82943
"3515",73.64858,111.842766
"3516",77.6672,111.8561
"3517",82.81621,111.86944
"3518",88.58289,111.882774
"3519",94.26902,111.89611
"3520",99.193405,111.90945
"3521",102.88243,111.92278
"3522",105.13588,111.93612
"3523",106.019684,111.949455
"3524",105.77066,111.96279
"3525",104.7013,111.97613
"3526",103.12657,111.98946
"3527",101.30282,112.0028
"3528",99.40093,112.016136
"3529",97.49416,112.02947
"3530",95.58495,112.04281
"3531",93.663536,112.056145
"3532",91.74456,112.06948
"3533",89.89151,112.08282
"3534",88.224,112.09615
"3535",86.86168,112.10949
"3536",85.889984,112.122826
"3537",85.29916,112.13616
"3538",85.00862,112.1495
"3539",84.874344,112.162834
"3540",84.732735,112.17617
"3541",84.44953,112.18951
"3542",83.95392,112.20284
"3543",83.21904,112.21618
"3544",82.25712,112.229515
"3545",81.12428,112.24285
"3546",79.871826,112.25619
"3547",78.555885,112.26952
"3548",77.225296,112.28286
"3549",75.92645,112.296196
"3550",74.69108,112.30953
"3551",73.55337,112.32287
"3552",72.535286,112.336205
"3553",71.65392,112.34954
"3554",70.90929,112.36288
"3555",70.294044,112.37621
"3556",69.79843,112.38955
"3557",69.41512,112.402885
"3558",69.12947,112.41622
"3559",68.9366,112.42956
"3560",68.824295,112.442894
"3561",68.787674,112.45623
"3562",68.80965,112.46957
"3563",68.87312,112.4829
"3564",68.96834,112.49624
"3565",69.08797,112.509575
"3566",69.21248,112.52291
"3567",69.33456,112.53625
"3568",69.43954,112.54958
"3569",69.505455,112.56292
"3570",69.51522,112.576256
"3571",69.46151,112.58959
"3572",69.33456,112.60293
"3573",69.153885,112.616264
"3574",68.9366,112.6296
"3575",68.71198,112.64294
"3576",68.54597,112.65627
"3577",68.58503,112.66961
"3578",69.11726,112.682945
"3579",70.518654,112.69628
"3580",73.126114,112.70962
"3581",77.066605,112.72295
"3582",82.14725,112.73629
"3583",87.85779,112.749626
"3584",93.49996,112.76296
"3585",98.37797,112.7763
"3586",102.01572,112.789635
"3587",104.217896,112.80297
"3588",105.05043,112.81631
"3589",104.74525,112.82964
"3590",103.61486,112.84298
"3591",101.96933,112.856316
"3592",100.067444,112.86965
"3593",98.072784,112.88299
"3594",96.061035,112.896324
"3595",94.03708,112.90966
"3596",92.00824,112.923
"3597",89.99893,112.93633
"3598",88.097046,112.94967
"3599",86.417336,112.963005
"3600",85.09407,112.97634
"3601",84.19806,112.98968
"3602",83.71221,113.00301
"3603",83.53399,113.01635
"3604",83.50225,113.029686
"3605",83.455864,113.04302
"3606",83.245895,113.05636
"3607",82.79668,113.069695
"3608",82.08133,113.08303
"3609",81.12184,113.09637
"3610",79.96704,113.1097
"3611",78.67063,113.12304
"3612",77.296104,113.136375
"3613",75.90204,113.14971
"3614",74.54459,113.16305
"3615",73.26772,113.176384
"3616",72.11047,113.18972
"3617",71.097275,113.20306
"3618",70.240326,113.21639
"3619",69.53475,113.22973
"3620",68.9781,113.243065
"3621",68.560616,113.2564
"3622",68.279854,113.26974
"3623",68.11627,113.28307
"3624",68.05524,113.29641
"3625",68.08209,113.309746
"3626",68.174866,113.32308
"3627",68.32136,113.33642
"3628",68.49714,113.349754
"3629",68.697334,113.36309
"3630",68.9073,113.37643
"3631",69.1075,113.38976
"3632",69.27108,113.4031
"3633",69.38094,113.416435
"3634",69.417564,113.42977
"3635",69.37606,113.44311
"3636",69.25887,113.45644
"3637",69.07576,113.46978
"3638",68.84383,113.483116
"3639",68.594795,113.49645
"3640",68.3946,113.50979
"3641",68.40925,113.523125
"3642",68.943924,113.53646
"3643",70.399025,113.5498
"3644",73.10414,113.56313
"3645",77.16914,113.57647
"3646",82.36942,113.589806
"3647",88.162964,113.60314
"3648",93.822235,113.61648
"3649",98.66117,113.629814
"3650",102.21103,113.64315
"3651",104.29847,113.65649
"3652",105.00404,113.66982
"3653",104.57191,113.68316
"3654",103.312126,113.696495
"3655",101.539635,113.70983
"3656",99.50591,113.72317
"3657",97.3843,113.7365
"3658",95.25048,113.74984
"3659",93.13374,113.763176
"3660",91.056076,113.77651
"3661",89.0663,113.78985
"3662",87.26208,113.803185
"3663",85.75815,113.81652
"3664",84.65705,113.82986
"3665",83.97833,113.84319
"3666",83.67315,113.85653
"3667",83.612114,113.869865
"3668",83.6292,113.8832
"3669",83.57061,113.89654
"3670",83.33135,113.909874
"3671",82.83818,113.92321
"3672",82.08621,113.93655
"3673",81.10475,113.94988
"3674",79.94751,113.96322
"3675",78.67307,113.976555
"3676",77.34249,113.98989
"3677",76.01434,114.00323
"3678",74.73014,114.01656
"3679",73.52163,114.0299
"3680",72.42054,114.043236
"3681",71.448845,114.05657
"3682",70.608986,114.06991
"3683",69.91318,114.083244
"3684",69.35165,114.09658
"3685",68.91707,114.10992
"3686",68.59968,114.12325
"3687",68.3946,114.13659
"3688",68.28962,114.149925
"3689",68.27741,114.16326
"3690",68.34089,114.1766
"3691",68.472725,114.18993
"3692",68.65095,114.20327
"3693",68.858475,114.216606
"3694",69.07576,114.22994
"3695",69.27596,114.24328
"3696",69.42977,114.256615
"3697",69.51522,114.26995
"3698",69.52499,114.28329
"3699",69.454185,114.29662
"3700",69.31747,114.30996
"3701",69.136795,114.323296
"3702",68.93904,114.33663
"3703",68.770584,114.34997
"3704",68.74616,114.363304
"3705",69.10994,114.37664
"3706",70.20126,114.38998
"3707",72.36439,114.40331
"3708",75.772644,114.41665
"3709",80.323494,114.429985
"3710",85.59945,114.44332
"3711",90.96086,114.45666
"3712",95.729,114.46999
"3713",99.386284,114.48333
"3714",101.678795,114.496666
"3715",102.59922,114.51
"3716",102.34043,114.52334
"3717",101.18318,114.536674
"3718",99.42779,114.55001
"3719",97.32571,114.56335
"3720",95.062485,114.57668
"3721",92.752884,114.59002
"3722",90.460365,114.603355
"3723",88.26307,114.61669
"3724",86.24643,114.63003
"3725",84.52766,114.643364
"3726",83.21416,114.6567
"3727",82.36942,114.67004
"3728",81.98123,114.68337
"3729",81.95682,114.69671
"3730",82.142365,114.710045
"3731",82.36942,114.72338
"3732",82.48661,114.73672
"3733",82.388954,114.75005
"3734",82.022736,114.76339
"3735",81.38308,114.776726
"3736",80.50172,114.79006
"3737",79.432365,114.8034
"3738",78.23361,114.816734
"3739",76.978714,114.83007
"3740",75.72381,114.84341
"3741",74.52262,114.85674
"3742",73.411766,114.87008
"3743",72.4181,114.883415
"3744",71.55627,114.89675
"3745",70.838486,114.91009
"3746",70.26719,114.92342
"3747",69.83505,114.93676
"3748",69.52987,114.950096
"3749",69.337,114.96343
"3750",69.239334,114.97677
"3751",69.224686,114.990105
"3752",69.27352,115.00344
"3753",69.37606,115.01678
"3754",69.522545,115.03011
"3755",69.698326,115.04345
"3756",69.89609,115.056786
"3757",70.10605,115.07012
"3758",70.30869,115.08346
"3759",70.47959,115.096794
"3760",70.59678,115.11013
"3761",70.640724,115.12347
"3762",70.6041,115.1368
"3763",70.4918,115.15014
"3764",70.313576,115.163475
"3765",70.08896,115.17681
"3766",69.84238,115.19015
"3767",69.61532,115.20348
"3768",69.505455,115.21682
"3769",69.72518,115.230156
"3770",70.59922,115.24349
"3771",72.45716,115.25683
"3772",75.50408,115.270164
"3773",79.68383,115.2835
"3774",84.63996,115.29684
"3775",89.77432,115.31017
"3776",94.415504,115.32351
"3777",98.02396,115.336845
"3778",100.31403,115.35018
"3779",101.25155,115.36352
"3780",100.98787,115.376854
"3781",99.7818,115.39019
"3782",97.91409,115.40353
"3783",95.641106,115.41686
"3784",93.1606,115.4302
"3785",90.61906,115.443535
"3786",88.145874,115.45687
"3787",85.858246,115.47021
"3788",83.88556,115.48354
"3789",82.34501,115.49688
"3790",81.322044,115.510216
"3791",80.8362,115.52355
"3792",80.82399,115.53689
"3793",81.15114,115.550224
"3794",81.64675,115.56356
"3795",82.1326,115.5769
"3796",82.45731,115.59023
"3797",82.53788,115.60357
"3798",82.32548,115.616905
"3799",81.83719,115.63024
"3800",81.09987,115.64358
"3801",80.177,115.65691
"3802",79.1223,115.67025
"3803",77.996796,115.683586
"3804",76.84932,115.69692
"3805",75.72625,115.71026
"3806",74.669106,115.723595
"3807",73.704735,115.73693
"3808",72.850235,115.75027
"3809",72.12512,115.7636
"3810",71.52941,115.77694
"3811",71.06065,115.790276
"3812",70.71641,115.80361
"3813",70.486916,115.81695
"3814",70.364845,115.830284
"3815",70.33799,115.84362
"3816",70.37949,115.85696
"3817",70.47959,115.87029
"3818",70.623634,115.88363
"3819",70.79942,115.896965
"3820",70.992294,115.9103
"3821",71.19493,115.92364
"3822",71.395134,115.93697
"3823",71.570915,115.95031
"3824",71.70519,115.963646
"3825",71.783325,115.97698
"3826",71.79309,115.99032
"3827",71.72961,116.003654
"3828",71.59533,116.01699
"3829",71.40734,116.03033
"3830",71.18028,116.04366
"3831",70.941025,116.057
"3832",70.73594,116.070335
"3833",70.674904,116.08367
"3834",70.98009,116.09701
"3835",71.96155,116.110344
"3836",73.92935,116.12368
"3837",77.02998,116.13702
"3838",81.146255,116.15035
"3839",85.88266,116.16369
"3840",90.650795,116.177025
"3841",94.82323,116.19036
"3842",97.94095,116.2037
"3843",99.77692,116.21703
"3844",100.34089,116.23037
"3845",99.78912,116.243706
"3846",98.37064,116.25704
"3847",96.33204,116.27038
"3848",93.9028,116.283714
"3849",91.268486,116.29705
"3850",88.59022,116.31039
"3851",86.00961,116.32372
"3852",83.682915,116.33706
"3853",81.76639,116.350395
"3854",80.39185,116.36373
"3855",79.635,116.37707
"3856",79.48608,116.3904
"3857",79.835205,116.40374
"3858",80.50416,116.417076
"3859",81.290306,116.43041
"3860",82.003204,116.44375
"3861",82.5037,116.457085
"3862",82.718544,116.47042
"3863",82.62089,116.48376
"3864",82.22537,116.49709
"3865",81.57595,116.51043
"3866",80.723885,116.523766
"3867",79.727776,116.5371
"3868",78.6511,116.55044
"3869",77.55489,116.563774
"3870",76.490425,116.57711
"3871",75.48943,116.59045
"3872",74.57877,116.60378
"3873",73.78287,116.61712
"3874",73.10414,116.630455
"3875",72.549934,116.64379
"3876",72.12024,116.65713
"3877",71.8053,116.67046
"3878",71.59777,116.6838
"3879",71.48058,116.697136
"3880",71.44396,116.71047
"3881",71.4757,116.72381
"3882",71.56115,116.737144
"3883",71.690544,116.75048
"3884",71.854126,116.76382
"3885",72.047,116.77715
"3886",72.25941,116.79049
"3887",72.481575,116.803825
"3888",72.691536,116.81716
"3889",72.86488,116.8305
"3890",72.98207,116.843834
"3891",73.0309,116.85717
"3892",72.99916,116.87051
"3893",72.89906,116.88384
"3894",72.740364,116.89718
"3895",72.53773,116.910515
"3896",72.30335,116.92385
"3897",72.07141,116.93719
"3898",71.90051,116.95052
"3899",71.96399,116.96386
"3900",72.54505,116.977196
"3901",73.98062,116.99053
"3902",76.51728,117.00387
"3903",80.17456,117.017204
"3904",84.67414,117.03054
"3905",89.481346,117.04388
"3906",93.95163,117.05721
"3907",97.52834,117.07055
"3908",99.877014,117.083885
"3909",100.909744,117.09722
"3910",100.74372,117.11056
"3911",99.60357,117.12389
"3912",97.740746,117.13723
"3913",95.39941,117.150566
"3914",92.78462,117.1639
"3915",90.05997,117.17724
"3916",87.37438,117.190575
"3917",84.876785,117.20391
"3918",82.71122,117.21725
"3919",81.01686,117.23058
"3920",79.91333,117.24392
"3921",79.44213,117.257256
"3922",79.55688,117.27059
"3923",80.11841,117.28393
"3924",80.936295,117.297264
"3925",81.81033,117.3106
"3926",82.55741,117.32394
"3927",83.055466,117.33727
"3928",83.250786,117.35061
"3929",83.13603,117.363945
"3930",82.72831,117.37728
"3931",82.08621,117.39062
"3932",81.25124,117.40395
"3933",80.289314,117.41729
"3934",79.24925,117.430626
"3935",78.187225,117.44396
"3936",77.14717,117.4573
"3937",76.16815,117.470634
"3938",75.27703,117.48397
"3939",74.48356,117.49731
"3940",73.8024,117.51064
"3941",73.22865,117.52398
"3942",72.76723,117.537315
"3943",72.41566,117.55065
"3944",72.181274,117.56399
"3945",72.05188,117.577324
"3946",72.02014,117.59066
"3947",72.06897,117.604
"3948",72.183716,117.61733
"3949",72.34974,117.63067
"3950",72.5597,117.644005
"3951",72.80629,117.65734
"3952",73.0724,117.67068
"3953",73.33608,117.68401
"3954",73.57046,117.69735
"3955",73.75357,117.710686
"3956",73.863434,117.72402
"3957",73.89517,117.73736
"3958",73.85123,117.750694
"3959",73.738914,117.76403
"3960",73.568016,117.77737
"3961",73.35561,117.7907
"3962",73.128555,117.80404
"3963",72.94545,117.817375
"3964",72.95766,117.83071
"3965",73.43618,117.84405
"3966",74.71305,117.85738
"3967",77.04707,117.87072
"3968",80.48951,117.884056
"3969",84.80354,117.89739
"3970",89.49111,117.91073
"3971",93.9321,117.924065
"3972",97.5552,117.9374
"3973",100.01373,117.95074
"3974",101.19783,117.96407
"3975",101.19783,117.97741
"3976",100.21637,117.990746
"3977",98.492714,118.00408
"3978",96.26124,118.01742
"3979",93.71725,118.030754
"3980",91.0219,118.04409
"3981",88.31434,118.05743
"3982",85.73617,118.07076
"3983",83.43633,118.0841
"3984",81.566185,118.097435
"3985",80.257576,118.11077
"3986",79.59106,118.12411
"3987",79.56176,118.13744
"3988",80.059814,118.15078
"3989",80.90944,118.164116
"3990",81.89578,118.17745
"3991",82.81621,118.19079
"3992",83.51934,118.204124
"3993",83.9173,118.21746
"3994",83.9881,118.2308
"3995",83.74395,118.24413
"3996",83.22148,118.25747
"3997",82.47929,118.270805
"3998",81.57107,118.28414
"3999",80.56275,118.29748
"4000",79.51049,118.310814
"4001",78.46067,118.32415
"4002",77.454796,118.33749
"4003",76.52216,118.35082
"4004",75.67498,118.36416
"4005",74.93034,118.377495
"4006",74.30045,118.39083
"4007",73.78531,118.40417
"4008",73.38735,118.4175
"4009",73.09926,118.43084
"4010",72.92348,118.444176
"4011",72.84291,118.45751
"4012",72.85268,118.47085
"4013",72.938126,118.484184
"4014",73.09682,118.49752
"4015",73.30923,118.51086
"4016",73.565575,118.52419
"4017",73.8439,118.53753
"4018",74.11978,118.550865
"4019",74.36149,118.5642
"4020",74.55192,118.57754
"4021",74.67399,118.59087
"4022",74.71305,118.60421
"4023",74.67155,118.617546
"4024",74.55924,118.63088
"4025",74.390785,118.64422
"4026",74.18082,118.657555
"4027",73.96109,118.67089
"4028",73.81705,118.68423
"4029",73.92691,118.69756
"4030",74.59098,118.7109
"4031",76.14618,118.724236
"4032",78.81224,118.73757
"4033",82.55253,118.75091
"4034",87.05211,118.764244
"4035",91.76166,118.77758
"4036",96.043945,118.79092
"4037",99.38384,118.80425
"4038",101.49813,118.81759
"4039",102.345314,118.830925
"4040",102.05478,118.84426
"4041",100.841385,118.8576
"4042",98.95659,118.87093
"4043",96.61768,118.88427
"4044",94.02243,118.897606
"4045",91.33196,118.91094
"4046",88.69276,118.92428
"4047",86.25132,118.937614
"4048",84.156555,118.95095
"4049",82.545204,118.96429
"4050",81.5198,118.97762
"4051",81.10231,118.99096
"4052",81.24147,119.004295
"4053",81.80057,119.01763
"4054",82.59403,119.03097
"4055",83.42657,119.044304
"4056",84.1297,119.05764
"4057",84.58869,119.07098
"4058",84.749825,119.08431
"4059",84.60334,119.09765
"4060",84.17853,119.110985
"4061",83.51934,119.12432
"4062",82.68192,119.13766
"4063",81.722435,119.15099
"4064",80.69215,119.16433
"4065",79.63744,119.177666
"4066",78.59739,119.191
"4067",77.60372,119.20434
"4068",76.6833,119.217674
"4069",75.85565,119.23101
"4070",75.1281,119.24435
"4071",74.512856,119.25768
"4072",74.01236,119.27102
"4073",73.62905,119.284355
"4074",73.3605,119.29769
"4075",73.2018,119.31103
"4076",73.14809,119.32436
"4077",73.18959,119.3377
"4078",73.30923,119.351036
"4079",73.49233,119.36437
"4080",73.71694,119.37771
"4081",73.95865,119.391045
"4082",74.18326,119.40438
"4083",74.36881,119.41772
"4084",74.48844,119.43105
"4085",74.529945,119.44439
"4086",74.49088,119.457726
"4087",74.37858,119.47106
"4088",74.21011,119.4844
"4089",74.005035,119.497734
"4090",73.8024,119.51107
"4091",73.70962,119.52441
"4092",73.94888,119.53774
"4093",74.827805,119.55108
"4094",76.63691,119.564415
"4095",79.517815,119.57775
"4096",83.35821,119.59109
"4097",87.77478,119.60442
"4098",92.208435,119.61776
"4099",96.08057,119.631096
"4100",98.968796,119.64443
"4101",100.66071,119.65777
"4102",101.16609,119.671104
"4103",100.628975,119.68444
"4104",99.25933,119.69778
"4105",97.286644,119.71111
"4106",94.91844,119.72445
"4107",92.332954,119.737785
"4108",89.68398,119.75112
"4109",87.113144,119.76446
"4110",84.771805,119.777794
"4111",82.80888,119.79113
"4112",81.35134,119.80447
"4113",80.48707,119.8178
"4114",80.22827,119.83114
"4115",80.49439,119.844475
"4116",81.126724,119.85781
"4117",81.92752,119.87115
"4118",82.701454,119.88448
"4119",83.29229,119.89782
"4120",83.60967,119.911156
"4121",83.62188,119.92449
"4122",83.34112,119.93783
"4123",82.79668,119.951164
"4124",82.039825,119.9645
"4125",81.126724,119.97784
"4126",80.113525,119.99117
"4127",79.044174,120.00451
"4128",77.97238,120.017845
"4129",76.93477,120.03118
"4130",75.96063,120.04452
"4131",75.0695,120.05785
"4132",74.2736,120.07119
"4133",73.585106,120.084526
"4134",73.01137,120.09786
"4135",72.55482,120.1112
"4136",72.22034,120.124535
"4137",72.01526,120.13787
"4138",71.93713,120.15121
"4139",71.9762,120.16454
"4140",72.1178,120.17788
"4141",72.33265,120.191216
"4142",72.589,120.20455
"4143",72.84779,120.21789
"4144",73.074844,120.231224
"4145",73.2433,120.24456
"4146",73.340965,120.2579
"4147",73.358055,120.27123
"4148",73.306786,120.28457
"4149",73.19447,120.297905
"4150",73.03822,120.31124
"4151",72.8893,120.32458
"4152",72.87465,120.33791
"4153",73.22865,120.35125
"4154",74.27848,120.364586
"4155",76.30732,120.37792
"4156",79.4226,120.39126
"4157",83.47295,120.404594
"4158",88.03601,120.41793
"4159",92.53559,120.43127
"4160",96.395515,120.4446
"4161",99.210495,120.45794
"4162",100.80232,120.471275
"4163",101.20027,120.48461
"4164",100.55329,120.49795
"4165",99.090866,120.511284
"4166",97.04738,120.52462
"4167",94.642555,120.53796
"4168",92.05463,120.55129
"4169",89.444725,120.56463
"4170",86.94957,120.577965
"4171",84.70588,120.5913
"4172",82.847946,120.60464
"4173",81.495384,120.61797
"4174",80.71412,120.63131
"4175",80.50172,120.644646
"4176",80.765396,120.65798
"4177",81.3489,120.67132
"4178",82.06912,120.684654
"4179",82.75273,120.69799
"4180",83.27276,120.71133
"4181",83.54864,120.72466
"4182",83.543755,120.738
"4183",83.25323,120.751335
"4184",82.703896,120.76467
"4185",81.92996,120.77801
"4186",80.990005,120.79134
"4187",79.94507,120.80468
"4188",78.84398,120.818016
"4189",77.74288,120.83135
"4190",76.67841,120.84469
"4191",75.68719,120.858025
"4192",74.78386,120.87136
"4193",73.987946,120.8847
"4194",73.306786,120.89803
"4195",72.74769,120.91137
"4196",72.318,120.924706
"4197",72.025024,120.93804
"4198",71.871216,120.95138
"4199",71.8468,120.964714
"4200",71.939575,120.97805
"4201",72.112915,120.99139
"4202",72.33265,121.00472
"4203",72.5597,121.01806
"4204",72.7599,121.031395
"4205",72.90639,121.04473
"4206",72.98451,121.05807
"4207",72.989395,121.0714
"4208",72.92348,121.08474
"4209",72.80629,121.098076
"4210",72.6598,121.11141
"4211",72.552376,121.12475
"4212",72.64271,121.138084
"4213",73.20424,121.15142
"4214",74.56168,121.16476
"4215",76.9543,121.17809
"4216",80.413826,121.19143
"4217",84.70344,121.204765
"4218",89.34951,121.2181
"4219",93.770966,121.23144
"4220",97.428246,121.244774
"4221",99.97467,121.25811
"4222",101.30282,121.27145
"4223",101.471275,121.28478
"4224",100.65339,121.29812
"4225",99.08354,121.311455
"4226",97.00099,121.32479
"4227",94.608376,121.33813
"4228",92.07172,121.35146
"4229",89.53994,121.3648
"4230",87.15709,121.378136
"4231",85.07942,121.39147
"4232",83.4461,121.40481
"4233",82.36698,121.418144
"4234",81.87381,121.43148
"4235",81.90555,121.44482
"4236",82.320595,121.45815
"4237",82.92607,121.47149
"4238",83.53399,121.484825
"4239",83.99298,121.49816
"4240",84.207825,121.5115
"4241",84.139465,121.52483
"4242",83.78058,121.53817
"4243",83.160446,121.551506
"4244",82.32548,121.56484
"4245",81.324486,121.57818
"4246",80.218506,121.591515
"4247",79.06615,121.60485
"4248",77.91623,121.61819
"4249",76.807816,121.63152
"4250",75.7702,121.64486
"4251",74.827805,121.658195
"4252",73.99039,121.67153
"4253",73.272606,121.68487
"4254",72.67689,121.698204
"4255",72.20569,121.71154
"4256",71.85901,121.72488
"4257",71.639275,121.73821
"4258",71.53918,121.75155
"4259",71.54894,121.764885
"4260",71.65148,121.77822
"4261",71.81506,121.79156
"4262",72.00061,121.80489
"4263",72.17151,121.81823
"4264",72.29847,121.831566
"4265",72.361946,121.8449
"4266",72.35218,121.85824
"4267",72.274055,121.871574
"4268",72.14221,121.88491
"4269",71.9762,121.89825
"4270",71.82239,121.91158
"4271",71.79309,121.92492
"4272",72.12512,121.938255
"4273",73.14809,121.95159
"4274",75.18181,121.96493
"4275",78.37034,121.978264
"4276",82.59647,121.9916
"4277",87.45495,122.00494
"4278",92.35493,122.01827
"4279",96.66895,122.03161
"4280",99.9234,122.044945
"4281",101.89365,122.05828
"4282",102.57725,122.07162
"4283",102.13046,122.08495
"4284",100.79744,122.09829
"4285",98.85161,122.111626
"4286",96.54688,122.12496
"4287",94.09079,122.1383
"4288",91.62249,122.151634
"4289",89.271385,122.16497
"4290",87.14732,122.17831
"4291",85.35287,122.19164
"4292",83.980774,122.20498
"4293",83.08232,122.218315
"4294",82.652626,122.23165
"4295",82.616005,122.24499
"4296",82.83818,122.25832
"4297",83.15312,122.27166
"4298",83.41192,122.284996
"4299",83.51202,122.29833
"4300",83.38018,122.31167
"4301",82.99199,122.325005
"4302",82.36454,122.33834
"4303",81.529564,122.35168
"4304",80.52857,122.36501
"4305",79.412834,122.37835
"4306",78.238495,122.391685
"4307",77.05684,122.40502
"4308",75.90204,122.41836
"4309",74.810715,122.431694
"4310",73.80972,122.44503
"4311",72.91615,122.45837
"4312",72.13733,122.4717
"4313",71.47814,122.48504
"4314",70.94835,122.498375
"4315",70.55283,122.51171
"4316",70.294044,122.52505
"4317",70.17197,122.53838
"4318",70.17685,122.55172
"4319",70.279396,122.565056
"4320",70.45518,122.57839
"4321",70.660255,122.59173
"4322",70.853134,122.605064
"4323",71.009384,122.6184
"4324",71.10948,122.63174
"4325",71.12901,122.64507
"4326",71.07042,122.65841
"4327",70.941025,122.671745
"4328",70.75548,122.68508
"4329",70.55772,122.69842
"4330",70.4918,122.711754
"4331",70.83116,122.72509
"4332",71.94202,122.73843
"4333",74.16617,122.75176
"4334",77.642784,122.7651
"4335",82.21805,122.778435
"4336",87.44274,122.79177
"4337",92.66743,122.80511
"4338",97.24269,122.81844
"4339",100.7071,122.83178
"4340",102.853134,122.845116
"4341",103.70519,122.85845
"4342",103.45373,122.87179
"4343",102.35752,122.885124
"4344",100.697334,122.89846
"4345",98.719765,122.9118
"4346",96.59327,122.92513
"4347",94.42039,122.93847
"4348",92.25727,122.951805
"4349",90.15762,122.96514
"4350",88.1947,122.97848
"4351",86.46616,122.99181
"4352",85.08186,123.00515
"4353",84.11017,123.018486
"4354",83.55108,123.03182
"4355",83.319145,123.04516
"4356",83.28008,123.058495
"4357",83.27764,123.07183
"4358",83.18242,123.08517
"4359",82.899216,123.0985
"4360",82.388954,123.11184
"4361",81.651634,123.125175
"4362",80.71412,123.13851
"4363",79.61791,123.15185
"4364",78.416725,123.165184
"4365",77.15938,123.17852
"4366",75.894714,123.19186
"4367",74.65934,123.20519
"4368",73.5021,123.21853
"4369",72.444954,123.231865
"4370",71.50988,123.2452
"4371",70.70908,123.25854
"4372",70.04013,123.27187
"4373",69.50057,123.28521
"4374",69.09041,123.298546
"4375",68.80232,123.31188
"4376",68.6363,123.32522
"4377",68.58259,123.338554
"4378",68.62165,123.35189
"4379",68.72663,123.36523
"4380",68.858475,123.37856
"4381",68.99519,123.3919
"4382",69.102615,123.405235
"4383",69.16121,123.41857
"4384",69.16365,123.43191
"4385",69.10994,123.445244
"4386",69.0074,123.45858
"4387",68.88533,123.47192
"4388",68.807205,123.48525
"4389",68.94881,123.49859
"4390",69.62264,123.511925
"4391",71.19737,123.52526
"4392",73.95621,123.5386
"4393",77.960175,123.55193
"4394",82.95537,123.56527
"4395",88.40711,123.578606
"4396",93.6318,123.59194
"4397",98.021515,123.60528
"4398",101.188065,123.618614
"4399",103.01671,123.63195
"4400",103.605095,123.64529
"4401",103.19249,123.65862
"4402",102.0621,123.67196
"4403",100.48737,123.685295
"4404",98.67582,123.69863
"4405",96.75441,123.71197
"4406",94.77196,123.7253
"4407",92.74311,123.73864
"4408",90.68986,123.751976
"4409",88.68055,123.76531
"4410",86.83238,123.77865
"4411",85.28207,123.791985
"4412",84.12726,123.80532
"4413",83.39971,123.81866
"4414",83.03349,123.83199
"4415",82.89189,123.84533
"4416",82.811325,123.858665
"4417",82.6453,123.872
"4418",82.28886,123.88534
"4419",81.70046,123.898674
"4420",80.87282,123.91201
"4421",79.84497,123.92535
"4422",78.66819,123.93868
"4423",77.40597,123.95202
"4424",76.112,123.965355
"4425",74.84001,123.97869
"4426",73.62905,123.99203
"4427",72.51331,124.00536
"4428",71.519646,124.0187
"4429",70.65537,124.032036
"4430",69.92294,124.04537
"4431",69.32235,124.05871
"4432",68.85359,124.072044
"4433",68.506905,124.08538
"4434",68.27741,124.09872
"4435",68.15289,124.11205
"4436",68.1236,124.12539
"4437",68.17975,124.138725
"4438",68.30915,124.15206
"4439",68.48493,124.1654
"4440",68.68513,124.178734
"4441",68.878006,124.19207
"4442",69.031815,124.20541
"4443",69.11482,124.21874
"4444",69.119705,124.23208
"4445",69.04402,124.245415
"4446",68.90242,124.25875
"4447",68.71931,124.27209
"4448",68.543526,124.28542
"4449",68.45075,124.29876
"4450",68.62653,124.312096
"4451",69.37606,124.32543
"4452",71.063095,124.33877
"4453",73.96109,124.352104
"4454",78.1091,124.36544
"4455",83.23613,124.37878
"4456",88.78554,124.39211
"4457",94.08591,124.40545
"4458",98.52689,124.418785
"4459",101.73983,124.43212
"4460",103.61974,124.44546
"4461",104.28138,124.45879
"4462",103.96399,124.47213
"4463",102.95567,124.485466
"4464",101.51766,124.4988
"4465",99.8526,124.51214
"4466",98.06302,124.525475
"4467",96.17822,124.53881
"4468",94.188446,124.55215
"4469",92.12543,124.56548
"4470",90.057526,124.57882
"4471",88.11902,124.592155
"4472",86.46372,124.60549
"4473",85.206375,124.61883
"4474",84.37385,124.632164
"4475",83.89044,124.6455
"4476",83.612114,124.65884
"4477",83.370415,124.67217
"4478",83.01396,124.68551
"4479",82.459755,124.698845
"4480",81.66628,124.71218
"4481",80.65797,124.72552
"4482",79.48119,124.73885
"4483",78.19943,124.75219
"4484",76.876175,124.765526
"4485",75.56756,124.77886
"4486",74.3151,124.7922
"4487",73.145645,124.805534
"4488",72.08118,124.81887
"4489",71.133896,124.83221
"4490",70.30869,124.84554
"4491",69.610435,124.85888
"4492",69.03914,124.872215
"4493",68.58747,124.88555
"4494",68.24078,124.89889
"4495",67.98688,124.912224
"4496",67.81598,124.92556
"4497",67.71587,124.938896
"4498",67.67193,124.95223
"4499",67.67193,124.96557
"4500",67.698784,124.978905
"4501",67.735405,124.99224
"4502",67.76959,125.00558
"4503",67.79401,125.01891
"4504",67.80621,125.03225
"4505",67.81354,125.045586
"4506",67.81842,125.05892
"4507",67.81354,125.07226
"4508",67.78912,125.085594
"4509",67.72808,125.09893
"4510",67.62554,125.11227
"4511",67.474174,125.1256
"4512",67.2813,125.13894
"4513",67.071335,125.152275
"4514",66.88579,125.16561
"4515",66.778366,125.17895
"4516",66.829636,125.19228
"4517",67.21294,125.20562
"4518",68.21393,125.218956
"4519",70.16464,125.23229
"4520",73.29946,125.24563
"4521",77.61349,125.258965
"4522",82.79668,125.2723
