"","ppg","time"
"1",76.23407,330.70282
"2",76.19501,330.71616
"3",76.16571,330.7295
"4",76.14862,330.74283
"5",76.14374,330.75616
"6",76.1413,330.7695
"7",76.138855,330.78284
"8",76.13397,330.79617
"9",76.11444,330.8095
"10",76.09003,330.82285
"11",76.06561,330.83618
"12",76.053406,330.84952
"13",76.0827,330.86285
"14",76.21942,330.8762
"15",76.58564,330.88953
"16",77.33761,330.90286
"17",78.59495,330.9162
"18",80.377205,330.92953
"19",82.55985,330.94287
"20",84.88655,330.9562
"21",87.030136,330.96954
"22",88.72694,330.98288
"23",89.82803,330.99622
"24",90.33097,331.00955
"25",90.32609,331.0229
"26",89.96475,331.03622
"27",89.38369,331.04956
"28",88.69276,331.0629
"29",87.96277,331.07623
"30",87.23277,331.08957
"31",86.51011,331.1029
"32",85.78989,331.11624
"33",85.08186,331.12958
"34",84.41291,331.1429
"35",83.824524,331.15625
"36",83.36065,331.1696
"37",83.055466,331.18292
"38",82.90898,331.19626
"39",82.879684,331.2096
"40",82.91875,331.22293
"41",82.96025,331.23627
"42",82.948044,331.2496
"43",82.85039,331.26294
"44",82.64774,331.27628
"45",82.34989,331.2896
"46",81.97635,331.30295
"47",81.55398,331.31628
"48",81.09743,331.32962
"49",80.63111,331.34296
"50",80.177,331.3563
"51",79.73998,331.36963
"52",79.3225,331.38297
"53",78.93919,331.3963
"54",78.590065,331.40964
"55",78.27268,331.42297
"56",77.98703,331.4363
"57",77.74044,331.44965
"58",77.5256,331.46298
"59",77.34249,331.47632
"60",77.188675,331.48965
"61",77.06172,331.503
"62",76.95186,331.51633
"63",76.859085,331.52966
"64",76.77608,331.543
"65",76.700386,331.55634
"66",76.627144,331.56967
"67",76.561226,331.583
"68",76.50019,331.59634
"69",76.4416,331.60968
"70",76.383,331.62302
"71",76.32929,331.63635
"72",76.27314,331.6497
"73",76.21454,331.66302
"74",76.15839,331.67636
"75",76.104675,331.6897
"76",76.05585,331.70303
"77",76.00946,331.71637
"78",75.97284,331.7297
"79",75.9411,331.74304
"80",75.90692,331.75638
"81",75.8703,331.7697
"82",75.83856,331.78305
"83",75.80682,331.7964
"84",75.78485,331.80972
"85",75.78485,331.82306
"86",75.84833,331.8364
"87",76.06561,331.84973
"88",76.58564,331.86307
"89",77.56466,331.8764
"90",79.08568,331.88974
"91",81.12428,331.90308
"92",83.49981,331.9164
"93",85.91196,331.92975
"94",88.04578,331.94308
"95",89.66445,331.95642
"96",90.65568,331.96976
"97",91.04631,331.9831
"98",90.948654,331.99643
"99",90.50675,332.00977
"100",89.85489,332.0231
"101",89.09804,332.03644
"102",88.289925,332.04977
"103",87.464714,332.0631
"104",86.63218,332.07645
"105",85.79965,332.08978
"106",84.99153,332.10312
"107",84.244446,332.11646
"108",83.60723,332.1298
"109",83.12871,332.14313
"110",82.82597,332.15646
"111",82.686806,332.1698
"112",82.669716,332.18314
"113",82.70634,332.19647
"114",82.74052,332.2098
"115",82.71366,332.22314
"116",82.58671,332.23648
"117",82.35233,332.24982
"118",82.01785,332.26315
"119",81.600365,332.2765
"120",81.126724,332.28983
"121",80.62623,332.30316
"122",80.11841,332.3165
"123",79.622795,332.32983
"124",79.14427,332.34317
"125",78.69993,332.3565
"126",78.294655,332.36984
"127",77.92844,332.38318
"128",77.59884,332.3965
"129",77.315636,332.40985
"130",77.066605,332.4232
"131",76.85176,332.43652
"132",76.663765,332.44986
"133",76.50263,332.4632
"134",76.36347,332.47653
"135",76.24628,332.48987
"136",76.1535,332.5032
"137",76.07538,332.51654
"138",76.01434,332.52988
"139",75.965515,332.5432
"140",75.92645,332.55655
"141",75.897156,332.5699
"142",75.877625,332.58322
"143",75.86786,332.59656
"144",75.86542,332.6099
"145",75.86542,332.62323
"146",75.862976,332.63657
"147",75.85077,332.6499
"148",75.83368,332.66324
"149",75.79462,332.67657
"150",75.73846,332.6899
"151",75.66277,332.70325
"152",75.58465,332.71658
"153",75.50408,332.72992
"154",75.44305,332.74326
"155",75.4284,332.7566
"156",75.543144,332.76993
"157",75.911804,332.78326
"158",76.697945,332.7966
"159",78.028534,332.80994
"160",79.93286,332.82327
"161",82.28886,332.8366
"162",84.84993,332.84995
"163",87.28405,332.86328
"164",89.29336,332.87662
"165",90.6923,332.88995
"166",91.4345,332.9033
"167",91.59075,332.91663
"168",91.28802,332.92996
"169",90.684975,332.9433
"170",89.90616,332.95663
"171",89.04433,332.96997
"172",88.15076,332.9833
"173",87.25231,332.99664
"174",86.3563,333.00998
"175",85.48226,333.02332
"176",84.65949,333.03665
"177",83.93439,333.05
"178",83.36309,333.06332
"179",82.9749,333.07666
"180",82.76982,333.09
"181",82.71122,333.10333
"182",82.738075,333.11667
"183",82.77959,333.13
"184",82.77226,333.14334
"185",82.669716,333.15668
"186",82.45731,333.17
"187",82.13504,333.18335
"188",81.71755,333.1967
"189",81.22926,333.21002
"190",80.69703,333.22336
"191",80.14038,333.2367
"192",79.58373,333.25003
"193",79.03929,333.26337
"194",78.52659,333.2767
"195",78.048065,333.29004
"196",77.61593,333.30338
"197",77.22774,333.3167
"198",76.8835,333.33005
"199",76.58808,333.34338
"200",76.34394,333.35672
"201",76.14374,333.37006
"202",75.982605,333.3834
"203",75.85077,333.39673
"204",75.75067,333.41006
"205",75.667656,333.4234
"206",75.60662,333.43674
"207",75.56756,333.45007
"208",75.54803,333.4634
"209",75.54803,333.47675
"210",75.55779,333.49008
"211",75.57,333.50342
"212",75.57488,333.51675
"213",75.56512,333.5301
"214",75.53338,333.54343
"215",75.47967,333.55676
"216",75.403984,333.5701
"217",75.31609,333.58344
"218",75.21843,333.59677
"219",75.11833,333.6101
"220",75.035324,333.62344
"221",74.99626,333.63678
"222",75.07439,333.65012
"223",75.39666,333.66345
"224",76.11932,333.6768
"225",77.38155,333.69012
"226",79.234604,333.70346
"227",81.59792,333.7168
"228",84.23956,333.73013
"229",86.83238,333.74347
"230",89.05409,333.7568
"231",90.68009,333.77014
"232",91.615166,333.78348
"233",91.895935,333.7968
"234",91.649345,333.81015
"235",91.03166,333.8235
"236",90.18936,333.83682
"237",89.22987,333.85016
"238",88.21423,333.8635
"239",87.17174,333.87683
"240",86.134125,333.89017
"241",85.13313,333.9035
"242",84.227356,333.91684
"243",83.47784,333.93018
"244",82.94072,333.9435
"245",82.633095,333.95685
"246",82.533,333.97018
"247",82.5745,333.98352
"248",82.67704,333.99686
"249",82.760056,334.0102
"250",82.757614,334.02353
"251",82.63554,334.03687
"252",82.38651,334.0502
"253",82.02518,334.06354
"254",81.56863,334.07687
"255",81.04372,334.0902
"256",80.48463,334.10355
"257",79.91089,334.11688
"258",79.34936,334.13022
"259",78.81712,334.14355
"260",78.32151,334.1569
"261",77.86984,334.17023
"262",77.467,334.18356
"263",77.10811,334.1969
"264",76.80049,334.21024
"265",76.541695,334.22357
"266",76.32929,334.2369
"267",76.16571,334.25024
"268",76.04608,334.26358
"269",75.96307,334.27692
"270",75.90936,334.29025
"271",75.8703,334.3036
"272",75.83612,334.31693
"273",75.78729,334.33026
"274",75.718925,334.3436
"275",75.62859,334.35693
"276",75.52117,334.37027
"277",75.3991,334.3836
"278",75.27947,334.39694
"279",75.18669,334.41028
"280",75.176926,334.4236
"281",75.34051,334.43695
"282",75.81171,334.4503
"283",76.732124,334.46362
"284",78.1799,334.47696
"285",80.130615,334.4903
"286",82.423134,334.50363
"287",84.78645,334.51697
"288",86.92027,334.5303
"289",88.58289,334.54364
"290",89.64004,334.55698
"291",90.08438,334.5703
"292",90.0087,334.58365
"293",89.547264,334.597
"294",88.8246,334.61032
"295",87.93591,334.62366
"296",86.942245,334.637
"297",85.88266,334.65033
"298",84.788895,334.66367
"299",83.70733,334.677
"300",82.69657,334.69034
"301",81.83475,334.70367
"302",81.17555,334.717
"303",80.75075,334.73035
"304",80.5359,334.74368
"305",80.465096,334.75702
"306",80.45777,334.77036
"307",80.4358,334.7837
"308",80.3357,334.79703
"309",80.128174,334.81036
"310",79.80835,334.8237
"311",79.38354,334.83704
"312",78.88548,334.85037
"313",78.33616,334.8637
"314",77.76242,334.87704
"315",77.188675,334.89038
"316",76.63447,334.90372
"317",76.10956,334.91705
"318",75.62615,334.9304
"319",75.18425,334.94373
"320",74.79118,334.95706
"321",74.442055,334.9704
"322",74.13687,334.98373
"323",73.87564,334.99707
"324",73.66323,335.0104
"325",73.49233,335.02374
"326",73.358055,335.03708
"327",73.25796,335.0504
"328",73.179825,335.06375
"329",73.11391,335.0771
"330",73.043106,335.09042
"331",72.96254,335.10376
"332",72.86977,335.1171
"333",72.76723,335.13043
"334",72.66224,335.14377
"335",72.56214,335.1571
"336",72.4889,335.17044
"337",72.48646,335.18378
"338",72.64759,335.1971
"339",73.111465,335.21045
"340",74.019684,335.2238
"341",75.44305,335.23712
"342",77.349815,335.25046
"343",79.56176,335.2638
"344",81.80545,335.27713
"345",83.78546,335.29047
"346",85.28207,335.3038
"347",86.20004,335.31714
"348",86.56626,335.33047
"349",86.49546,335.3438
"350",86.1268,335.35715
"351",85.58236,335.37048
"352",84.947586,335.38382
"353",84.27131,335.39716
"354",83.5584,335.4105
"355",82.80888,335.42383
"356",82.02762,335.43716
"357",81.248795,335.4505
"358",80.52125,335.46384
"359",79.91577,335.47717
"360",79.48852,335.4905
"361",79.259026,335.50385
"362",79.19066,335.51718
"363",79.22484,335.53052
"364",79.27123,335.54385
"365",79.26391,335.5572
"366",79.15404,335.57053
"367",78.93187,335.58386
"368",78.6096,335.5972
"369",78.21164,335.61053
"370",77.76242,335.62387
"371",77.29366,335.6372
"372",76.83223,335.65054
"373",76.39033,335.66388
"374",75.982605,335.67722
"375",75.60906,335.69055
"376",75.27703,335.7039
"377",74.986496,335.71722
"378",74.7277,335.73056
"379",74.50553,335.7439
"380",74.32487,335.75723
"381",74.17349,335.77057
"382",74.056305,335.7839
"383",73.9733,335.79724
"384",73.92447,335.81058
"385",73.90494,335.8239
"386",73.90738,335.83725
"387",73.92447,335.8506
"388",73.94888,335.86392
"389",73.970856,335.87726
"390",73.98306,335.8906
"391",73.97574,335.90393
"392",73.94888,335.91727
"393",73.90494,335.9306
"394",73.846344,335.94394
"395",73.79263,335.95728
"396",73.760895,335.9706
"397",73.78775,335.98395
"398",73.94156,335.99728
"399",74.3444,336.01062
"400",75.125656,336.02396
"401",76.37324,336.0373
"402",78.05783,336.05063
"403",80.04028,336.06396
"404",82.06912,336.0773
"405",83.87091,336.09064
"406",85.240555,336.10397
"407",86.099945,336.1173
"408",86.47837,336.13065
"409",86.48325,336.14398
"410",86.24643,336.15732
"411",85.87778,336.17065
"412",85.452965,336.184
"413",84.998856,336.19733
"414",84.51789,336.21066
"415",83.99298,336.224
"416",83.421684,336.23734
"417",82.82597,336.25067
"418",82.2449,336.264
"419",81.74929,336.27734
"420",81.38796,336.29068
"421",81.1902,336.30402
"422",81.13405,336.31735
"423",81.17311,336.3307
"424",81.234146,336.34402
"425",81.25613,336.35736
"426",81.1902,336.3707
"427",81.024185,336.38403
"428",80.762955,336.39737
"429",80.4358,336.4107
"430",80.05737,336.42404
"431",79.65942,336.43738
"432",79.26391,336.4507
"433",78.87816,336.46405
"434",78.519264,336.4774
"435",78.187225,336.49072
"436",77.89914,336.50406
"437",77.65011,336.5174
"438",77.437706,336.53073
"439",77.25948,336.54407
"440",77.1252,336.5574
"441",77.01778,336.57074
"442",76.93965,336.58408
"443",76.88594,336.5974
"444",76.85176,336.61075
"445",76.82735,336.62408
"446",76.8127,336.63742
"447",76.80293,336.65076
"448",76.80049,336.6641
"449",76.79561,336.67743
"450",76.78584,336.69077
"451",76.75899,336.7041
"452",76.71259,336.71744
"453",76.63203,336.73077
"454",76.51972,336.7441
"455",76.385445,336.75745
"456",76.24872,336.77078
"457",76.11932,336.78412
"458",76.01434,336.79745
"459",75.95087,336.8108
"460",75.96063,336.82413
"461",76.11444,336.83746
"462",76.52705,336.8508
"463",77.313194,336.86414
"464",78.53147,336.87747
"465",80.12573,336.8908
"466",81.92752,336.90414
"467",83.67803,336.91748
"468",85.135574,336.93082
"469",86.14145,336.94415
"470",86.661476,336.9575
"471",86.76158,336.97083
"472",86.57603,336.98416
"473",86.222015,336.9975
"474",85.78989,337.01083
"475",85.33822,337.02417
"476",84.876785,337.0375
"477",84.386055,337.05084
"478",83.861145,337.06418
"479",83.3045,337.0775
"480",82.738075,337.09085
"481",82.21805,337.1042
"482",81.81033,337.11752
"483",81.55886,337.13086
"484",81.47585,337.1442
"485",81.52712,337.15753
"486",81.64431,337.17087
"487",81.75906,337.1842
"488",81.80545,337.19754
"489",81.739525,337.21088
"490",81.55398,337.2242
"491",81.2781,337.23755
"492",80.938736,337.2509
"493",80.56519,337.26422
"494",80.184326,337.27756
"495",79.81323,337.2909
"496",79.47143,337.30423
"497",79.16136,337.31757
"498",78.8806,337.3309
"499",78.63889,337.34424
"500",78.42893,337.35757
"501",78.24826,337.3709
"502",78.08957,337.38425
"503",77.95285,337.39758
"504",77.840546,337.41092
"505",77.75754,337.42426
"506",77.69161,337.4376
"507",77.645226,337.45093
"508",77.61593,337.46426
"509",77.60128,337.4776
"510",77.591515,337.49094
"511",77.591515,337.50427
"512",77.593956,337.5176
"513",77.593956,337.53094
"514",77.58663,337.54428
"515",77.56222,337.55762
"516",77.523155,337.57095
"517",77.467,337.5843
"518",77.39376,337.59763
"519",77.30831,337.61096
"520",77.225296,337.6243
"521",77.14473,337.63763
"522",77.07637,337.65097
"523",77.02754,337.6643
"524",77.015335,337.67764
"525",77.083694,337.69098
"526",77.32296,337.7043
"527",77.85275,337.71765
"528",78.77562,337.731
"529",80.1062,337.74432
"530",81.75174,337.75766
"531",83.50469,337.771
"532",85.11604,337.78433
"533",86.36118,337.79767
"534",87.13512,337.811
"535",87.44274,337.82434
"536",87.38659,337.83768
"537",87.096054,337.851
"538",86.68589,337.86435
"539",86.236664,337.8777
"540",85.787445,337.89102
"541",85.330894,337.90436
"542",84.84749,337.9177
"543",84.32014,337.93103
"544",83.756165,337.94437
"545",83.1873,337.9577
"546",82.67216,337.97104
"547",82.27421,337.98438
"548",82.02762,337.9977
"549",81.93729,338.01105
"550",81.95926,338.02438
"551",82.02762,338.03772
"552",82.07156,338.05106
"553",82.037384,338.0644
"554",81.900665,338.07773
"555",81.668724,338.09106
"556",81.358665,338.1044
"557",81.004654,338.11774
"558",80.62867,338.13107
"559",80.255135,338.1444
"560",79.89136,338.15775
"561",79.54955,338.17108
"562",79.24193,338.18442
"563",78.97093,338.19775
"564",78.73411,338.2111
"565",78.536354,338.22443
"566",78.37034,338.23776
"567",78.22873,338.2511
"568",78.10422,338.26443
"569",77.99924,338.27777
"570",77.90158,338.2911
"571",77.81613,338.30444
"572",77.74288,338.31778
"573",77.68185,338.33112
"574",77.63058,338.34445
"575",77.57931,338.3578
"576",77.52804,338.37112
"577",77.47433,338.38446
"578",77.41329,338.3978
"579",77.349815,338.41113
"580",77.28878,338.42447
"581",77.23262,338.4378
"582",77.17891,338.45114
"583",77.134964,338.46448
"584",77.100784,338.4778
"585",77.07149,338.49115
"586",77.04219,338.5045
"587",77.01045,338.51782
"588",76.97383,338.53116
"589",76.927444,338.5445
"590",76.88106,338.55783
"591",76.83223,338.57117
"592",76.78584,338.5845
"593",76.754105,338.59784
"594",76.76387,338.61118
"595",76.876175,338.6245
"596",77.20332,338.63785
"597",77.87961,338.65118
"598",78.995346,338.66452
"599",80.54078,338.67786
"600",82.36942,338.6912
"601",84.244446,338.70453
"602",85.8851,338.71786
"603",87.081406,338.7312
"604",87.743034,338.74454
"605",87.91638,338.75787
"606",87.728386,338.7712
"607",87.325554,338.78455
"608",86.83238,338.79788
"609",86.32456,338.81122
"610",85.83383,338.82455
"611",85.35287,338.8379
"612",84.857254,338.85123
"613",84.32258,338.86456
"614",83.756165,338.8779
"615",83.18486,338.89124
"616",82.65507,338.90457
"617",82.22781,338.9179
"618",81.94705,338.93124
"619",81.8201,338.94458
"620",81.81033,338.95792
"621",81.85184,338.97125
"622",81.883575,338.9846
"623",81.84207,338.99792
"624",81.69802,339.01126
"625",81.45388,339.0246
"626",81.13161,339.03793
"627",80.75807,339.05127
"628",80.365,339.0646
"629",79.97681,339.07794
"630",79.605705,339.09128
"631",79.27123,339.1046
"632",78.97337,339.11795
"633",78.7219,339.1313
"634",78.50706,339.14462
"635",78.32639,339.15796
"636",78.17258,339.1713
"637",78.04562,339.18463
"638",77.93576,339.19797
"639",77.838104,339.2113
"640",77.75754,339.22464
"641",77.68917,339.23798
"642",77.62325,339.2513
"643",77.56222,339.26465
"644",77.50118,339.27798
"645",77.44503,339.29132
"646",77.39132,339.30466
"647",77.34005,339.318
"648",77.29122,339.33133
"649",77.242386,339.34467
"650",77.18623,339.358
"651",77.12764,339.37134
"652",77.07637,339.38467
"653",77.02754,339.398
"654",76.99092,339.41135
"655",76.96651,339.42468
"656",76.95186,339.43802
"657",76.93965,339.45135
"658",76.929886,339.4647
"659",76.91768,339.47803
"660",76.90303,339.49136
"661",76.876175,339.5047
"662",76.841995,339.51804
"663",76.805374,339.53137
"664",76.76387,339.5447
"665",76.72968,339.55804
"666",76.71259,339.57138
"667",76.749214,339.58472
"668",76.91768,339.59805
"669",77.35226,339.6114
"670",78.17502,339.62473
"671",79.4519,339.63806
"672",81.12428,339.6514
"673",83.001755,339.66473
"674",84.81087,339.67807
"675",86.295265,339.6914
"676",87.27184,339.70474
"677",87.711296,339.71808
"678",87.70641,339.7314
"679",87.40368,339.74475
"680",86.942245,339.7581
"681",86.434425,339.77142
"682",85.94125,339.78476
"683",85.472496,339.7981
"684",85.013504,339.81143
"685",84.53742,339.82477
"686",84.02472,339.8381
"687",83.47295,339.85144
"688",82.90898,339.86478
"689",82.388954,339.8781
"690",81.969025,339.89145
"691",81.69314,339.9048
"692",81.57839,339.91812
"693",81.57595,339.93146
"694",81.619896,339.9448
"695",81.64431,339.95813
"696",81.5906,339.97147
"697",81.43191,339.9848
"698",81.18288,339.99814
"699",80.86305,340.01147
"700",80.499275,340.0248
"701",80.11597,340.03815
"702",79.73998,340.05148
"703",79.381096,340.06482
"704",79.0515,340.07816
"705",78.75365,340.0915
"706",78.487526,340.10483
"707",78.25559,340.11816
"708",78.05539,340.1315
"709",77.88449,340.14484
"710",77.74532,340.15817
"711",77.63302,340.1715
"712",77.54269,340.18484
"713",77.467,340.19818
"714",77.40841,340.21152
"715",77.35714,340.22485
"716",77.31808,340.2382
"717",77.281456,340.25153
"718",77.24727,340.26486
"719",77.21309,340.2782
"720",77.18379,340.29153
"721",77.152054,340.30487
"722",77.12276,340.3182
"723",77.09834,340.33154
"724",77.07637,340.34488
"725",77.0544,340.35822
"726",77.02998,340.37155
"727",77.00313,340.3849
"728",76.97627,340.39822
"729",76.944534,340.41156
"730",76.91524,340.4249
"731",76.876175,340.43823
"732",76.83467,340.45157
"733",76.790726,340.4649
"734",76.74189,340.47824
"735",76.6955,340.49158
"736",76.67109,340.5049
"737",76.6955,340.51825
"738",76.84932,340.5316
"739",77.24727,340.54492
"740",78.011444,340.55826
"741",79.20775,340.5716
"742",80.77516,340.58493
"743",82.530556,340.59827
"744",84.210266,340.6116
"745",85.56527,340.62494
"746",86.42222,340.63828
"747",86.76402,340.6516
"748",86.68101,340.66495
"749",86.30503,340.67828
"750",85.77524,340.69162
"751",85.19661,340.70496
"752",84.63264,340.7183
"753",84.1004,340.73163
"754",83.59014,340.74496
"755",83.08232,340.7583
"756",82.55253,340.77164
"757",81.991,340.78497
"758",81.427025,340.7983
"759",80.91188,340.81165
"760",80.51148,340.82498
"761",80.26002,340.83832
"762",80.16968,340.85165
"763",80.198975,340.865
"764",80.28443,340.87833
"765",80.35767,340.89166
"766",80.365,340.905
"767",80.26978,340.91833
"768",80.08179,340.93167
"769",79.81323,340.945
"770",79.4934,340.95834
"771",79.149155,340.97168
"772",78.80736,340.98502
"773",78.48264,340.99835
"774",78.18234,341.0117
"775",77.91379,341.02502
"776",77.68429,341.03836
"777",77.486534,341.0517
"778",77.315636,341.06503
"779",77.17647,341.07837
"780",77.069046,341.0917
"781",76.98848,341.10504
"782",76.929886,341.11838
"783",76.89815,341.1317
"784",76.876175,341.14505
"785",76.86397,341.1584
"786",76.85664,341.17172
"787",76.86153,341.18506
"788",76.86885,341.1984
"789",76.88106,341.21173
"790",76.89815,341.22507
"791",76.925,341.2384
"792",76.94942,341.25174
"793",76.96895,341.26508
"794",76.98604,341.2784
"795",76.995804,341.29175
"796",76.995804,341.30508
"797",76.981155,341.31842
"798",76.95674,341.33176
"799",76.92256,341.3451
"800",76.87862,341.35843
"801",76.83223,341.37177
"802",76.788284,341.3851
"803",76.756546,341.39844
"804",76.754105,341.41177
"805",76.839554,341.4251
"806",77.11543,341.43845
"807",77.71847,341.45178
"808",78.74876,341.46512
"809",80.21118,341.47845
"810",81.986115,341.4918
"811",83.824524,341.50513
"812",85.44808,341.51846
"813",86.63218,341.5318
"814",87.2694,341.54514
"815",87.39391,341.55847
"816",87.13023,341.5718
"817",86.63706,341.58514
"818",86.046234,341.59848
"819",85.44808,341.61182
"820",84.88411,341.62515
"821",84.35432,341.6385
"822",83.844055,341.65182
"823",83.32403,341.66516
"824",82.78447,341.6785
"825",82.24002,341.69183
"826",81.7322,341.70517
"827",81.304955,341.7185
"828",81.00221,341.73184
"829",80.850845,341.74518
"830",80.82887,341.7585
"831",80.885025,341.77185
"832",80.96559,341.7852
"833",81.007095,341.79852
"834",80.970474,341.81186
"835",80.833755,341.8252
"836",80.61646,341.83853
"837",80.34058,341.85187
"838",80.025635,341.8652
"839",79.69604,341.87854
"840",79.36645,341.89188
"841",79.04906,341.9052
"842",78.75365,341.91855
"843",78.487526,341.9319
"844",78.260475,341.94522
"845",78.07492,341.95856
"846",77.91867,341.9719
"847",77.79416,341.98523
"848",77.69161,341.99857
"849",77.608604,342.0119
"850",77.540245,342.02524
"851",77.488976,342.03857
"852",77.452354,342.0519
"853",77.43282,342.06525
"854",77.420616,342.07858
"855",77.418175,342.09192
"856",77.42306,342.10526
"857",77.43038,342.1186
"858",77.44015,342.13193
"859",77.452354,342.14526
"860",77.46456,342.1586
"861",77.47433,342.17194
"862",77.47921,342.18527
"863",77.47921,342.1986
"864",77.467,342.21194
"865",77.44015,342.22528
"866",77.39864,342.23862
"867",77.34493,342.25195
"868",77.28634,342.2653
"869",77.23018,342.27863
"870",77.188675,342.29196
"871",77.18379,342.3053
"872",77.27413,342.31863
"873",77.56954,342.33197
"874",78.21408,342.3453
"875",79.29565,342.35864
"876",80.81178,342.37198
"877",82.62089,342.3853
"878",84.46174,342.39865
"879",86.04135,342.412
"880",87.14732,342.42532
"881",87.68444,342.43866
"882",87.70153,342.452
"883",87.34264,342.46533
"884",86.76402,342.47867
"885",86.10239,342.492
"886",85.45052,342.50534
"887",84.84505,342.51868
"888",84.2884,342.532
"889",83.756165,342.54535
"890",83.22392,342.5587
"891",82.684364,342.57202
"892",82.14725,342.58536
"893",81.64431,342.5987
"894",81.22926,342.61203
"895",80.936295,342.62537
"896",80.782486,342.6387
"897",80.7483,342.65204
"898",80.79225,342.66537
"899",80.848404,342.6787
"900",80.86549,342.69205
"901",80.80934,342.70538
"902",80.66529,342.71872
"903",80.44312,342.73206
"904",80.15991,342.7454
"905",79.84497,342.75873
"906",79.517815,342.77206
"907",79.19554,342.7854
"908",78.89281,342.79874
"909",78.61936,342.81207
"910",78.3679,342.8254
"911",78.14816,342.83875
"912",77.96506,342.85208
"913",77.81125,342.86542
"914",77.68429,342.87875
"915",77.58175,342.8921
"916",77.49874,342.90543
"917",77.42794,342.91876
"918",77.37179,342.9321
"919",77.330284,342.94543
"920",77.30587,342.95877
"921",77.296104,342.9721
"922",77.29122,342.98544
"923",77.296104,342.99878
"924",77.30099,343.01212
"925",77.30099,343.02545
"926",77.30099,343.0388
"927",77.296104,343.05212
"928",77.28634,343.06546
"929",77.26925,343.0788
"930",77.24483,343.09213
"931",77.208206,343.10547
"932",77.16182,343.1188
"933",77.10567,343.13214
"934",77.04463,343.14548
"935",76.981155,343.1588
"936",76.927444,343.17215
"937",76.91768,343.1855
"938",77.01045,343.19882
"939",77.330284,343.21216
"940",78.009,343.2255
"941",79.132065,343.23883
"942",80.67017,343.25217
"943",82.4622,343.2655
"944",84.23468,343.27884
"945",85.711754,343.29218
"946",86.68833,343.3055
"947",87.10582,343.31885
"948",87.0399,343.33218
"949",86.64439,343.34552
"950",86.07309,343.35886
"951",85.452965,343.3722
"952",84.86702,343.38553
"953",84.33723,343.39886
"954",83.861145,343.4122
"955",83.40948,343.42554
"956",82.95537,343.43887
"957",82.47929,343.4522
"958",81.991,343.46555
"959",81.529564,343.47888
"960",81.13893,343.49222
"961",80.86549,343.50555
"962",80.72144,343.5189
"963",80.69703,343.53223
"964",80.74586,343.54556
"965",80.814224,343.5589
"966",80.84108,343.57224
"967",80.797134,343.58557
"968",80.66773,343.5989
"969",80.45777,343.61224
"970",80.184326,343.62558
"971",79.87427,343.63892
"972",79.551994,343.65225
"973",79.22972,343.6656
"974",78.91722,343.67892
"975",78.62913,343.69226
"976",78.3679,343.7056
"977",78.1384,343.71893
"978",77.9382,343.73227
"979",77.769745,343.7456
"980",77.63058,343.75894
"981",77.51583,343.77228
"982",77.4255,343.7856
"983",77.35714,343.79895
"984",77.30587,343.8123
"985",77.261925,343.82562
"986",77.22774,343.83896
"987",77.20088,343.8523
"988",77.17647,343.86563
"989",77.15694,343.87897
"990",77.14229,343.8923
"991",77.13252,343.90564
"992",77.12764,343.91898
"993",77.13252,343.9323
"994",77.137405,343.94565
"995",77.137405,343.95898
"996",77.13008,343.97232
"997",77.10811,343.98566
"998",77.069046,343.999
"999",77.01778,344.01233
"1000",76.95918,344.02567
"1001",76.90059,344.039
"1002",76.85176,344.05234
"1003",76.83711,344.06567
"1004",76.927444,344.079
"1005",77.23506,344.09235
"1006",77.88937,344.10568
"1007",78.96605,344.11902
"1008",80.44068,344.13235
"1009",82.15701,344.1457
"1010",83.85626,344.15903
"1011",85.262535,344.17236
"1012",86.187836,344.1857
"1013",86.571144,344.19904
"1014",86.47349,344.21237
"1015",86.03891,344.2257
"1016",85.42367,344.23904
"1017",84.75716,344.25238
"1018",84.11261,344.26572
"1019",83.526665,344.27905
"1020",82.99687,344.2924
"1021",82.50126,344.30573
"1022",82.01785,344.31906
"1023",81.53445,344.3324
"1024",81.06569,344.34573
"1025",80.64576,344.35907
"1026",80.31129,344.3724
"1027",80.093994,344.38574
"1028",80.0061,344.39908
"1029",80.028076,344.4124
"1030",80.12085,344.42575
"1031",80.22339,344.4391
"1032",80.289314,344.45242
"1033",80.28199,344.46576
"1034",80.17944,344.4791
"1035",79.99878,344.49243
"1036",79.75952,344.50577
"1037",79.48608,344.5191
"1038",79.200424,344.53244
"1039",78.922104,344.54578
"1040",78.65354,344.5591
"1041",78.4094,344.57245
"1042",78.18967,344.5858
"1043",77.99924,344.59912
"1044",77.84543,344.61246
"1045",77.71603,344.6258
"1046",77.611046,344.63913
"1047",77.52071,344.65247
"1048",77.44747,344.6658
"1049",77.383995,344.67914
"1050",77.332726,344.69247
"1051",77.296104,344.7058
"1052",77.27413,344.71915
"1053",77.261925,344.73248
"1054",77.261925,344.74582
"1055",77.27169,344.75916
"1056",77.29122,344.7725
"1057",77.313194,344.78583
"1058",77.33761,344.79916
"1059",77.35226,344.8125
"1060",77.35226,344.82584
"1061",77.33517,344.83917
"1062",77.30587,344.8525
"1063",77.26925,344.86584
"1064",77.23018,344.87918
"1065",77.19112,344.89252
"1066",77.152054,344.90585
"1067",77.11299,344.9192
"1068",77.083694,344.93253
"1069",77.08858,344.94586
"1070",77.19844,344.9592
"1071",77.523155,344.97253
"1072",78.187225,344.98587
"1073",79.26147,344.9992
"1074",80.71168,345.01254
"1075",82.37675,345.02588
"1076",84.01007,345.0392
"1077",85.35531,345.05255
"1078",86.23178,345.0659
"1079",86.59556,345.07922
"1080",86.51011,345.09256
"1081",86.10971,345.1059
"1082",85.53353,345.11923
"1083",84.89876,345.13257
"1084",84.27619,345.1459
"1085",83.700005,345.15924
"1086",83.175095,345.17258
"1087",82.68192,345.1859
"1088",82.20584,345.19925
"1089",81.739525,345.2126
"1090",81.29275,345.22592
"1091",80.89235,345.23926
"1092",80.58228,345.2526
"1093",80.38941,345.26593
"1094",80.325935,345.27927
"1095",80.37232,345.2926
"1096",80.482185,345.30594
"1097",80.6067,345.31927
"1098",80.69459,345.3326
"1099",80.709236,345.34595
"1100",80.635994,345.35928
"1101",80.479744,345.37262
"1102",80.26002,345.38596
"1103",79.99878,345.3993
"1104",79.71801,345.41263
"1105",79.43725,345.42596
"1106",79.17357,345.4393
"1107",78.93187,345.45264
"1108",78.712135,345.46597
"1109",78.51682,345.4793
"1110",78.35081,345.49265
"1111",78.21652,345.50598
"1112",78.11154,345.51932
"1113",78.030975,345.53265
"1114",77.9675,345.546
"1115",77.91623,345.55933
"1116",77.872284,345.57266
"1117",77.83322,345.586
"1118",77.803925,345.59933
"1119",77.78439,345.61267
"1120",77.77951,345.626
"1121",77.78195,345.63934
"1122",77.79172,345.65268
"1123",77.803925,345.66602
"1124",77.81125,345.67935
"1125",77.81125,345.6927
"1126",77.803925,345.70602
"1127",77.78439,345.71936
"1128",77.752655,345.7327
"1129",77.713585,345.74603
"1130",77.66476,345.75937
"1131",77.611046,345.7727
"1132",77.5671,345.78604
"1133",77.55978,345.79938
"1134",77.65011,345.8127
"1135",77.945526,345.82605
"1136",78.56321,345.8394
"1137",79.58373,345.85272
"1138",80.9778,345.86606
"1139",82.60624,345.8794
"1140",84.2298,345.89273
"1141",85.59701,345.90607
"1142",86.51255,345.9194
"1143",86.91539,345.93274
"1144",86.85924,345.94608
"1145",86.46616,345.9594
"1146",85.87778,345.97275
"1147",85.2137,345.98608
"1148",84.55451,345.99942
"1149",83.946594,346.01276
"1150",83.387505,346.0261
"1151",82.87236,346.03943
"1152",82.38163,346.05276
"1153",81.91287,346.0661
"1154",81.46609,346.07944
"1155",81.075455,346.09277
"1156",80.780045,346.1061
"1157",80.601814,346.11945
"1158",80.54566,346.13278
"1159",80.59449,346.14612
"1160",80.70435,346.15945
"1161",80.82399,346.1728
"1162",80.90944,346.18613
"1163",80.92409,346.19946
"1164",80.85573,346.2128
"1165",80.709236,346.22614
"1166",80.499275,346.23947
"1167",80.24292,346.2528
"1168",79.95972,346.26614
"1169",79.66918,346.27948
"1170",79.39086,346.29282
"1171",79.13695,346.30615
"1172",78.91234,346.3195
"1173",78.71702,346.33282
"1174",78.553444,346.34616
"1175",78.41184,346.3595
"1176",78.29221,346.37283
"1177",78.19455,346.38617
"1178",78.11398,346.3995
"1179",78.048065,346.41284
"1180",77.98703,346.42618
"1181",77.93332,346.4395
"1182",77.891815,346.45285
"1183",77.86252,346.4662
"1184",77.84299,346.47952
"1185",77.838104,346.49286
"1186",77.838104,346.5062
"1187",77.84299,346.51953
"1188",77.84543,346.53287
"1189",77.838104,346.5462
"1190",77.823456,346.55954
"1191",77.79904,346.57288
"1192",77.769745,346.5862
"1193",77.73556,346.59955
"1194",77.70626,346.61288
"1195",77.68673,346.62622
"1196",77.69161,346.63956
"1197",77.77707,346.6529
"1198",78.04562,346.66623
"1199",78.61936,346.67957
"1200",79.58373,346.6929
"1201",80.93141,346.70624
"1202",82.54276,346.71957
"1203",84.190735,346.7329
"1204",85.61654,346.74625
"1205",86.61997,346.75958
"1206",87.11803,346.77292
"1207",87.13023,346.78625
"1208",86.77379,346.7996
"1209",86.18295,346.81293
"1210",85.48226,346.82626
"1211",84.76204,346.8396
"1212",84.07355,346.85294
"1213",83.43389,346.86627
"1214",82.83818,346.8796
"1215",82.27665,346.89294
"1216",81.74929,346.90628
"1217",81.26589,346.91962
"1218",80.85573,346.93295
"1219",80.5481,346.9463
"1220",80.365,346.95963
"1221",80.306404,346.97296
"1222",80.35523,346.9863
"1223",80.47242,346.99963
"1224",80.6067,347.01297
"1225",80.71168,347.0263
"1226",80.75075,347.03964
"1227",80.70435,347.05298
"1228",80.57252,347.0663
"1229",80.36988,347.07965
"1230",80.111084,347.093
"1231",79.823,347.10632
"1232",79.520256,347.11966
"1233",79.2224,347.133
"1234",78.93919,347.14633
"1235",78.68528,347.15967
"1236",78.46067,347.173
"1237",78.2678,347.18634
"1238",78.1091,347.19968
"1239",77.98215,347.213
"1240",77.87717,347.22635
"1241",77.79904,347.2397
"1242",77.733116,347.25302
"1243",77.68185,347.26636
"1244",77.64767,347.2797
"1245",77.62325,347.29303
"1246",77.608604,347.30637
"1247",77.60372,347.3197
"1248",77.60372,347.33304
"1249",77.611046,347.34637
"1250",77.61837,347.3597
"1251",77.62081,347.37305
"1252",77.61593,347.38638
"1253",77.591515,347.39972
"1254",77.55001,347.41306
"1255",77.49874,347.4264
"1256",77.44015,347.43973
"1257",77.38888,347.45306
"1258",77.35958,347.4664
"1259",77.39864,347.47974
"1260",77.58907,347.49307
"1261",78.05783,347.5064
"1262",78.905014,347.51974
"1263",80.15747,347.53308
"1264",81.72488,347.54642
"1265",83.404594,347.55975
"1266",84.94026,347.5731
"1267",86.0975,347.58643
"1268",86.74937,347.59976
"1269",86.890976,347.6131
"1270",86.61753,347.62643
"1271",86.065765,347.63977
"1272",85.36996,347.6531
"1273",84.63508,347.66644
"1274",83.91974,347.67978
"1275",83.25323,347.6931
"1276",82.633095,347.70645
"1277",82.05936,347.7198
"1278",81.529564,347.73312
"1279",81.06081,347.74646
"1280",80.66773,347.7598
"1281",80.37965,347.77313
"1282",80.21362,347.78647
"1283",80.16724,347.7998
"1284",80.218506,347.81314
"1285",80.32838,347.82648
"1286",80.45533,347.8398
"1287",80.550545,347.85315
"1288",80.58228,347.8665
"1289",80.5359,347.87982
"1290",80.411385,347.89316
"1291",80.22095,347.9065
"1292",79.98901,347.91983
"1293",79.727776,347.93317
"1294",79.45434,347.9465
"1295",79.183334,347.95984
"1296",78.924545,347.97318
"1297",78.68284,347.9865
"1298",78.470436,347.99985
"1299",78.28733,348.01318
"1300",78.12863,348.02652
"1301",77.994354,348.03986
"1302",77.87717,348.0532
"1303",77.78439,348.06653
"1304",77.71114,348.07986
"1305",77.662315,348.0932
"1306",77.63302,348.10654
"1307",77.61837,348.11987
"1308",77.61837,348.1332
"1309",77.62325,348.14655
"1310",77.63302,348.15988
"1311",77.6379,348.17322
"1312",77.63546,348.18655
"1313",77.62081,348.1999
"1314",77.58907,348.21323
"1315",77.54269,348.22656
"1316",77.486534,348.2399
"1317",77.43038,348.25323
"1318",77.37423,348.26657
"1319",77.34005,348.2799
"1320",77.37179,348.29324
"1321",77.55489,348.30658
"1322",77.996796,348.31992
"1323",78.80003,348.33325
"1324",79.98413,348.3466
"1325",81.47097,348.35992
"1326",83.072556,348.37326
"1327",84.55207,348.3866
"1328",85.6849,348.39993
"1329",86.34409,348.41327
"1330",86.51743,348.4266
"1331",86.28062,348.43994
"1332",85.76303,348.45328
"1333",85.08919,348.4666
"1334",84.36164,348.47995
"1335",83.63653,348.4933
"1336",82.94316,348.50662
"1337",82.2913,348.51996
"1338",81.688255,348.5333
"1339",81.13893,348.54663
"1340",80.65797,348.55997
"1341",80.274666,348.5733
"1342",80.008545,348.58664
"1343",79.869385,348.59998
"1344",79.85474,348.6133
"1345",79.9353,348.62665
"1346",80.06958,348.63998
"1347",80.201416,348.65332
"1348",80.291756,348.66666
"1349",80.31861,348.68
"1350",80.26734,348.69333
"1351",80.14282,348.70667
"1352",79.957275,348.72
"1353",79.727776,348.73334
"1354",79.4641,348.74667
"1355",79.185776,348.76
"1356",78.91722,348.77335
"1357",78.66819,348.78668
"1358",78.44846,348.80002
"1359",78.260475,348.81335
"1360",78.101776,348.8267
"1361",77.962616,348.84003
"1362",77.840546,348.85336
"1363",77.738,348.8667
"1364",77.65255,348.88004
"1365",77.58907,348.89337
"1366",77.54269,348.9067
"1367",77.51827,348.92004
"1368",77.506065,348.93338
"1369",77.506065,348.94672
"1370",77.51339,348.96005
"1371",77.523155,348.9734
"1372",77.540245,348.98672
"1373",77.557335,349.00006
"1374",77.5671,349.0134
"1375",77.56466,349.02673
"1376",77.54757,349.04007
"1377",77.51583,349.0534
"1378",77.471886,349.06674
"1379",77.42794,349.08008
"1380",77.39132,349.0934
"1381",77.38888,349.10675
"1382",77.486534,349.1201
"1383",77.789276,349.13342
"1384",78.40208,349.14676
"1385",79.395744,349.1601
"1386",80.75319,349.17343
"1387",82.33036,349.18677
"1388",83.90753,349.2001
"1389",85.243,349.21344
"1390",86.15854,349.22678
"1391",86.590675,349.2401
"1392",86.571144,349.25345
"1393",86.21225,349.26678
"1394",85.63851,349.28012
"1395",84.95735,349.29346
"1396",84.25178,349.3068
"1397",83.56817,349.32013
"1398",82.92119,349.33347
"1399",82.31815,349.3468
"1400",81.75662,349.36014
"1401",81.25124,349.37347
"1402",80.81911,349.3868
"1403",80.48951,349.40015
"1404",80.28443,349.41348
"1405",80.21362,349.42682
"1406",80.257576,349.44016
"1407",80.38209,349.4535
"1408",80.533455,349.46683
"1409",80.66285,349.48016
"1410",80.73853,349.4935
"1411",80.73365,349.50684
"1412",80.6482,349.52017
"1413",80.48951,349.5335
"1414",80.27711,349.54684
"1415",80.03296,349.56018
"1416",79.77173,349.57352
"1417",79.51049,349.58685
"1418",79.26147,349.6002
"1419",79.02464,349.61353
"1420",78.8098,349.62686
"1421",78.6218,349.6402
"1422",78.45823,349.65353
"1423",78.32395,349.66687
"1424",78.2092,349.6802
"1425",78.116425,349.69354
"1426",78.04318,349.70688
"1427",77.98703,349.7202
"1428",77.94064,349.73355
"1429",77.91379,349.7469
"1430",77.89426,349.76022
"1431",77.88449,349.77356
"1432",77.88205,349.7869
"1433",77.88205,349.80023
"1434",77.88449,349.81357
"1435",77.87717,349.8269
"1436",77.86008,349.84024
"1437",77.8259,349.85358
"1438",77.77707,349.8669
"1439",77.71603,349.88025
"1440",77.65255,349.8936
"1441",77.591515,349.90692
"1442",77.557335,349.92026
"1443",77.59884,349.9336
"1444",77.80881,349.94693
"1445",78.30442,349.96027
"1446",79.17357,349.9736
"1447",80.43336,349.98694
"1448",81.98367,350.00027
"1449",83.62676,350.0136
"1450",85.1136,350.02695
"1451",86.2269,350.04028
"1452",86.86168,350.05362
"1453",87.02037,350.06696
"1454",86.785995,350.0803
"1455",86.28794,350.09363
"1456",85.65316,350.10696
"1457",84.97688,350.1203
"1458",84.31281,350.13364
"1459",83.68047,350.14697
"1460",83.07988,350.1603
"1461",82.50858,350.17365
"1462",81.96414,350.18698
"1463",81.47097,350.20032
"1464",81.06081,350.21365
"1465",80.76784,350.227
"1466",80.604256,350.24033
"1467",80.56519,350.25366
"1468",80.621346,350.267
"1469",80.726326,350.28033
"1470",80.82887,350.29367
"1471",80.88258,350.307
"1472",80.87038,350.32034
"1473",80.77516,350.33368
"1474",80.604256,350.34702
"1475",80.37232,350.36035
"1476",80.10376,350.3737
"1477",79.81323,350.38702
"1478",79.517815,350.40036
"1479",79.22728,350.4137
"1480",78.94896,350.42703
"1481",78.69749,350.44037
"1482",78.47532,350.4537
"1483",78.28001,350.46704
"1484",78.116425,350.48038
"1485",77.979706,350.4937
"1486",77.86496,350.50705
"1487",77.7673,350.5204
"1488",77.68917,350.53372
"1489",77.628136,350.54706
"1490",77.576866,350.5604
"1491",77.5378,350.57373
"1492",77.50851,350.58707
"1493",77.49142,350.6004
"1494",77.48409,350.61374
"1495",77.488976,350.62708
"1496",77.49386,350.6404
"1497",77.488976,350.65375
"1498",77.469444,350.66708
"1499",77.43282,350.68042
"1500",77.38155,350.69376
"1501",77.315636,350.7071
"1502",77.242386,350.72043
"1503",77.17403,350.73376
"1504",77.12276,350.7471
"1505",77.11299,350.76044
"1506",77.23262,350.77377
"1507",77.5964,350.7871
"1508",78.30686,350.80045
"1509",79.42016,350.81378
"1510",80.88014,350.82712
"1511",82.51835,350.84045
"1512",84.102844,350.8538
"1513",85.39437,350.86713
"1514",86.236664,350.88046
"1515",86.59312,350.8938
"1516",86.52476,350.90714
"1517",86.14877,350.92047
"1518",85.592125,350.9338
"1519",84.962234,350.94714
"1520",84.32258,350.96048
"1521",83.71221,350.97382
"1522",83.13603,350.98715
"1523",82.58671,351.0005
"1524",82.05936,351.01382
"1525",81.566185,351.02716
"1526",81.12428,351.0405
"1527",80.762955,351.05383
"1528",80.516365,351.06717
"1529",80.39918,351.0805
"1530",80.394295,351.09384
"1531",80.465096,351.10718
"1532",80.567635,351.1205
"1533",80.65064,351.13385
"1534",80.6775,351.1472
"1535",80.62623,351.16052
"1536",80.50172,351.17386
"1537",80.306404,351.1872
"1538",80.05737,351.20053
"1539",79.77417,351.21387
"1540",79.47631,351.2272
"1541",79.17845,351.24054
"1542",78.89525,351.25388
"1543",78.63401,351.2672
"1544",78.40452,351.28055
"1545",78.20187,351.29388
"1546",78.028534,351.30722
"1547",77.88449,351.32056
"1548",77.76486,351.3339
"1549",77.6672,351.34723
"1550",77.58663,351.36057
"1551",77.51827,351.3739
"1552",77.46212,351.38724
"1553",77.41329,351.40057
"1554",77.37667,351.4139
"1555",77.3547,351.42725
"1556",77.34493,351.44058
"1557",77.34005,351.45392
"1558",77.33761,351.46725
"1559",77.33517,351.4806
"1560",77.330284,351.49393
"1561",77.313194,351.50726
"1562",77.28634,351.5206
"1563",77.24727,351.53394
"1564",77.20332,351.54727
"1565",77.14473,351.5606
"1566",77.086136,351.57394
"1567",77.0251,351.58728
"1568",76.97139,351.60062
"1569",76.95918,351.61395
"1570",77.07637,351.6273
"1571",77.44015,351.64062
"1572",78.16525,351.65396
"1573",79.30297,351.6673
"1574",80.80446,351.68063
"1575",82.5037,351.69397
"1576",84.16388,351.7073
"1577",85.55062,351.72064
"1578",86.50034,351.73398
"1579",86.96666,351.7473
"1580",86.99596,351.76065
"1581",86.70786,351.774
"1582",86.222015,351.78732
"1583",85.65316,351.80066
"1584",85.06966,351.814
"1585",84.505684,351.82733
"1586",83.96857,351.84067
"1587",83.45342,351.854
"1588",82.948044,351.86734
"1589",82.4622,351.88068
"1590",82.00809,351.894
"1591",81.62478,351.90735
"1592",81.3489,351.9207
"1593",81.18776,351.93402
"1594",81.146255,351.94736
"1595",81.1902,351.9607
"1596",81.26589,351.97403
"1597",81.32693,351.98737
"1598",81.33425,352.0007
"1599",81.26101,352.01404
"1600",81.10719,352.02737
"1601",80.885025,352.0407
"1602",80.61158,352.05405
"1603",80.308846,352.06738
"1604",79.991455,352.08072
"1605",79.676506,352.09406
"1606",79.37377,352.1074
"1607",79.093,352.12073
"1608",78.839096,352.13406
"1609",78.61692,352.1474
"1610",78.42161,352.16074
"1611",78.25315,352.17407
"1612",78.11154,352.1874
"1613",77.99191,352.20074
"1614",77.891815,352.21408
"1615",77.81125,352.22742
"1616",77.74532,352.24075
"1617",77.69405,352.2541
"1618",77.65743,352.26743
"1619",77.63058,352.28076
"1620",77.611046,352.2941
"1621",77.59884,352.30743
"1622",77.58907,352.32077
"1623",77.576866,352.3341
"1624",77.557335,352.34744
"1625",77.5378,352.36078
"1626",77.50851,352.3741
"1627",77.467,352.38745
"1628",77.41329,352.4008
"1629",77.349815,352.41412
"1630",77.27413,352.42746
"1631",77.19356,352.4408
"1632",77.117874,352.45413
"1633",77.07393,352.46747
"1634",77.120316,352.4808
"1635",77.36446,352.49414
"1636",77.92844,352.50748
"1637",78.90257,352.5208
"1638",80.28687,352.53415
"1639",81.97391,352.5475
"1640",83.75128,352.56082
"1641",85.36263,352.57416
"1642",86.60288,352.5875
"1643",87.37194,352.60083
"1644",87.66979,352.61417
"1645",87.59167,352.6275
"1646",87.259636,352.64084
"1647",86.79332,352.65417
"1648",86.27329,352.6675
"1649",85.750824,352.68085
"1650",85.23811,352.69418
"1651",84.73029,352.70752
"1652",84.207825,352.72086
"1653",83.67559,352.7342
"1654",83.14336,352.74753
"1655",82.64286,352.76086
"1656",82.22293,352.7742
"1657",81.917755,352.78754
"1658",81.74197,352.80087
"1659",81.68337,352.8142
"1660",81.7029,352.82755
"1661",81.74197,352.84088
"1662",81.75418,352.85422
"1663",81.69802,352.86755
"1664",81.56374,352.8809
"1665",81.3489,352.89423
"1666",81.06813,352.90756
"1667",80.740974,352.9209
"1668",80.38941,352.93423
"1669",80.028076,352.94757
"1670",79.676506,352.9609
"1671",79.34203,352.97424
"1672",79.03197,352.98758
"1673",78.74876,353.00092
"1674",78.49241,353.01425
"1675",78.2678,353.0276
"1676",78.07004,353.04092
"1677",77.891815,353.05426
"1678",77.730675,353.0676
"1679",77.58663,353.08093
"1680",77.45968,353.09427
"1681",77.34493,353.1076
"1682",77.24971,353.12094
"1683",77.16914,353.13428
"1684",77.10567,353.1476
"1685",77.049515,353.16095
"1686",77.00313,353.1743
"1687",76.96651,353.18762
"1688",76.93721,353.20096
"1689",76.90791,353.2143
"1690",76.87129,353.22763
"1691",76.82735,353.24097
"1692",76.77852,353.2543
"1693",76.717476,353.26764
"1694",76.64423,353.28098
"1695",76.56367,353.2943
"1696",76.48066,353.30765
"1697",76.40009,353.32098
"1698",76.34394,353.33432
"1699",76.37324,353.34766
"1700",76.58564,353.361
"1701",77.11055,353.37433
"1702",78.048065,353.38766
"1703",79.42504,353.401
"1704",81.15114,353.41434
"1705",83.03349,353.42767
"1706",84.81087,353.441
"1707",86.261086,353.45435
"1708",87.25231,353.46768
"1709",87.76013,353.48102
"1710",87.85535,353.49435
"1711",87.6527,353.5077
"1712",87.276726,353.52103
"1713",86.81773,353.53436
"1714",86.33189,353.5477
"1715",85.841156,353.56104
"1716",85.34066,353.57437
"1717",84.81819,353.5877
"1718",84.26154,353.60104
"1719",83.6878,353.61438
"1720",83.11894,353.62772
"1721",82.61112,353.64105
"1722",82.20828,353.6544
"1723",81.93973,353.66772
"1724",81.795685,353.68106
"1725",81.74441,353.6944
"1726",81.7322,353.70773
"1727",81.705345,353.72107
"1728",81.62722,353.7344
"1729",81.46853,353.74774
"1730",81.231705,353.76108
"1731",80.92897,353.7744
"1732",80.5774,353.78775
"1733",80.19409,353.8011
"1734",79.79614,353.81442
"1735",79.40307,353.82776
"1736",79.01976,353.8411
"1737",78.65354,353.85443
"1738",78.31663,353.86777
"1739",78.011444,353.8811
"1740",77.73556,353.89444
"1741",77.49142,353.90778
"1742",77.27169,353.9211
"1743",77.069046,353.93445
"1744",76.89082,353.94778
"1745",76.72968,353.96112
"1746",76.58564,353.97446
"1747",76.46113,353.9878
"1748",76.35371,354.00113
"1749",76.25605,354.01447
"1750",76.175476,354.0278
"1751",76.112,354.04114
"1752",76.06073,354.05447
"1753",76.019226,354.0678
"1754",75.982605,354.08115
"1755",75.945984,354.09448
"1756",75.897156,354.10782
"1757",75.83368,354.12115
"1758",75.76044,354.1345
"1759",75.682304,354.14783
"1760",75.59441,354.16116
"1761",75.511406,354.1745
"1762",75.46014,354.18784
"1763",75.48943,354.20117
"1764",75.70428,354.2145
"1765",76.22186,354.22784
"1766",77.14717,354.24118
"1767",78.51194,354.25452
"1768",80.233154,354.26785
"1769",82.11795,354.2812
"1770",83.92218,354.29453
"1771",85.41146,354.30786
"1772",86.44663,354.3212
"1773",86.99107,354.33453
"1774",87.10094,354.34787
"1775",86.89586,354.3612
"1776",86.49546,354.37454
"1777",85.994965,354.38788
"1778",85.452965,354.4012
"1779",84.89876,354.41455
"1780",84.3299,354.4279
"1781",83.73907,354.44122
"1782",83.12138,354.45456
"1783",82.50126,354.4679
"1784",81.917755,354.48123
"1785",81.42214,354.49457
"1786",81.0486,354.5079
"1787",80.82155,354.52124
"1788",80.723885,354.53458
"1789",80.706795,354.5479
"1790",80.72144,354.56125
"1791",80.71412,354.5746
"1792",80.6482,354.58792
"1793",80.49683,354.60126
"1794",80.26246,354.6146
"1795",79.95972,354.62793
"1796",79.60815,354.64127
"1797",79.22972,354.6546
"1798",78.84886,354.66794
"1799",78.47776,354.68127
"1800",78.12375,354.6946
"1801",77.79172,354.70795
"1802",77.49142,354.72128
"1803",77.222855,354.73462
"1804",76.98604,354.74796
"1805",76.78584,354.7613
"1806",76.61738,354.77463
"1807",76.47578,354.78796
"1808",76.35859,354.8013
"1809",76.265816,354.81464
"1810",76.19745,354.82797
"1811",76.14618,354.8413
"1812",76.11444,354.85464
"1813",76.09003,354.86798
"1814",76.06561,354.88132
"1815",76.036316,354.89465
"1816",76.00458,354.908
"1817",75.96307,354.92133
"1818",75.914246,354.93466
"1819",75.85809,354.948
"1820",75.79462,354.96133
"1821",75.72625,354.97467
"1822",75.66033,354.988
"1823",75.613945,355.00134
"1824",75.62615,355.01468
"1825",75.775085,355.028
"1826",76.17792,355.04135
"1827",76.93721,355.0547
"1828",78.11154,355.06802
"1829",79.656975,355.08136
"1830",81.42947,355.0947
"1831",83.19707,355.10803
"1832",84.73762,355.12137
"1833",85.86801,355.1347
"1834",86.522316,355.14804
"1835",86.727394,355.16138
"1836",86.58091,355.1747
"1837",86.19516,355.18805
"1838",85.677574,355.2014
"1839",85.101395,355.21472
"1840",84.5008,355.22806
"1841",83.88312,355.2414
"1842",83.250786,355.25473
"1843",82.62089,355.26807
"1844",82.01297,355.2814
"1845",81.480736,355.29474
"1846",81.06569,355.30807
"1847",80.799576,355.3214
"1848",80.6775,355.33475
"1849",80.672615,355.34808
"1850",80.73609,355.36142
"1851",80.81178,355.37476
"1852",80.848404,355.3881
"1853",80.816666,355.40143
"1854",80.69703,355.41476
"1855",80.49195,355.4281
"1856",80.216064,355.44144
"1857",79.89136,355.45477
"1858",79.54467,355.4681
"1859",79.18822,355.48145
"1860",78.84154,355.49478
"1861",78.5095,355.50812
"1862",78.19943,355.52145
"1863",77.91623,355.5348
"1864",77.65499,355.54813
"1865",77.420616,355.56146
"1866",77.21309,355.5748
"1867",77.032425,355.58813
"1868",76.8835,355.60147
"1869",76.773636,355.6148
"1870",76.700386,355.62814
"1871",76.65888,355.64148
"1872",76.64423,355.65482
"1873",76.64423,355.66815
"1874",76.65156,355.6815
"1875",76.65888,355.69482
"1876",76.65888,355.70816
"1877",76.64423,355.7215
"1878",76.60517,355.73483
"1879",76.54902,355.74817
"1880",76.47822,355.7615
"1881",76.402534,355.77484
"1882",76.32929,355.78818
"1883",76.27802,355.8015
"1884",76.29023,355.81485
"1885",76.44404,355.8282
"1886",76.8542,355.84152
"1887",77.62081,355.85486
"1888",78.79271,355.8682
"1889",80.31373,355.88153
"1890",82.03006,355.89487
"1891",83.717094,355.9082
"1892",85.14778,355.92154
"1893",86.16342,355.93488
"1894",86.70786,355.9482
"1895",86.81285,355.96155
"1896",86.57603,355.97488
"1897",86.10727,355.98822
"1898",85.523766,356.00156
"1899",84.893875,356.0149
"1900",84.25422,356.02823
"1901",83.60723,356.04156
"1902",82.967575,356.0549
"1903",82.34501,356.06824
"1904",81.77127,356.08157
"1905",81.28298,356.0949
"1906",80.921646,356.10825
"1907",80.709236,356.12158
"1908",80.63111,356.13492
"1909",80.65064,356.14825
"1910",80.72144,356.1616
"1911",80.78981,356.17493
"1912",80.80934,356.18826
"1913",80.75807,356.2016
"1914",80.618904,356.21494
"1915",80.396736,356.22827
"1916",80.10376,356.2416
"1917",79.766846,356.25494
"1918",79.40795,356.26828
"1919",79.044174,356.28162
"1920",78.695045,356.29495
"1921",78.37278,356.3083
"1922",78.07248,356.32162
"1923",77.80148,356.33496
"1924",77.56222,356.3483
"1925",77.349815,356.36163
"1926",77.16426,356.37497
"1927",77.01045,356.3883
"1928",76.8835,356.40164
"1929",76.77852,356.41498
"1930",76.69062,356.4283
"1931",76.6247,356.44165
"1932",76.57343,356.455
"1933",76.524605,356.46832
"1934",76.47822,356.48166
"1935",76.42939,356.495
"1936",76.3708,356.50833
"1937",76.30244,356.52167
"1938",76.22919,356.535
"1939",76.15839,356.54834
"1940",76.087585,356.56168
"1941",76.02655,356.575
"1942",75.99481,356.58835
"1943",76.03143,356.60168
"1944",76.22186,356.61502
"1945",76.66865,356.62836
"1946",77.46212,356.6417
"1947",78.61936,356.65503
"1948",80.076904,356.66837
"1949",81.668724,356.6817
"1950",83.175095,356.69504
"1951",84.39582,356.70837
"1952",85.20882,356.7217
"1953",85.575035,356.73505
"1954",85.55062,356.74838
"1955",85.23567,356.76172
"1956",84.735176,356.77505
"1957",84.13458,356.7884
"1958",83.49981,356.80173
"1959",82.85527,356.81506
"1960",82.213165,356.8284
"1961",81.57595,356.84174
"1962",80.972916,356.85507
"1963",80.43336,356.8684
"1964",79.99878,356.88174
"1965",79.708244,356.89508
"1966",79.57641,356.90842
"1967",79.57885,356.92175
"1968",79.67895,356.9351
"1969",79.81323,356.94843
"1970",79.92554,356.96176
"1971",79.97681,356.9751
"1972",79.94751,356.98843
"1973",79.82788,357.00177
"1974",79.62768,357.0151
"1975",79.36645,357.02844
"1976",79.063705,357.04178
"1977",78.74143,357.0551
"1978",78.416725,357.06845
"1979",78.11154,357.0818
"1980",77.82834,357.09512
"1981",77.574425,357.10846
"1982",77.35226,357.1218
"1983",77.15938,357.13513
"1984",76.99336,357.14847
"1985",76.85176,357.1618
"1986",76.73701,357.17514
"1987",76.63935,357.18848
"1988",76.56855,357.2018
"1989",76.51972,357.21515
"1990",76.49775,357.2285
"1991",76.490425,357.24182
"1992",76.49287,357.25516
"1993",76.49775,357.2685
"1994",76.49531,357.28183
"1995",76.48554,357.29517
"1996",76.46845,357.3085
"1997",76.439156,357.32184
"1998",76.39765,357.33517
"1999",76.34638,357.3485
"2000",76.29267,357.36185
"2001",76.243835,357.37518
"2002",76.21942,357.38852
"2003",76.25117,357.40186
"2004",76.402534,357.4152
"2005",76.773636,357.42853
"2006",77.45724,357.44186
"2007",78.50706,357.4552
"2008",79.88159,357.46854
"2009",81.444115,357.48187
"2010",82.97978,357.4952
"2011",84.27131,357.50854
"2012",85.15999,357.52188
"2013",85.59457,357.53522
"2014",85.609215,357.54855
"2015",85.31136,357.5619
"2016",84.808426,357.57523
"2017",84.20294,357.58856
"2018",83.563286,357.6019
"2019",82.92363,357.61523
"2020",82.29374,357.62857
"2021",81.6907,357.6419
"2022",81.12428,357.65524
"2023",80.62623,357.66858
"2024",80.22827,357.68192
"2025",79.957275,357.69525
"2026",79.82788,357.7086
"2027",79.835205,357.72192
"2028",79.93286,357.73526
"2029",80.07446,357.7486
"2030",80.21362,357.76193
"2031",80.30396,357.77527
"2032",80.31617,357.7886
"2033",80.24536,357.80194
"2034",80.09888,357.81528
"2035",79.886475,357.8286
"2036",79.62524,357.84195
"2037",79.33959,357.8553
"2038",79.044174,357.86862
"2039",78.75853,357.88196
"2040",78.49241,357.8953
"2041",78.25315,357.90863
"2042",78.0383,357.92197
"2043",77.855194,357.9353
"2044",77.70382,357.94864
"2045",77.57931,357.96198
"2046",77.48409,357.9753
"2047",77.41329,357.98865
"2048",77.35958,358.00198
"2049",77.32052,358.01532
"2050",77.29366,358.02866
"2051",77.279015,358.042
"2052",77.27413,358.05533
"2053",77.27413,358.06866
"2054",77.27169,358.082
"2055",77.25948,358.09534
"2056",77.22774,358.10867
"2057",77.17403,358.122
"2058",77.10567,358.13535
"2059",77.02754,358.14868
"2060",76.946976,358.16202
"2061",76.87373,358.17535
"2062",76.8127,358.1887
"2063",76.77608,358.20203
"2064",76.80293,358.21536
"2065",76.97627,358.2287
"2066",77.39376,358.24203
"2067",78.133514,358.25537
"2068",79.219955,358.2687
"2069",80.5774,358.28204
"2070",82.04227,358.29538
"2071",83.404594,358.30872
"2072",84.473946,358.32205
"2073",85.14046,358.3354
"2074",85.384605,358.34872
"2075",85.26498,358.36206
"2076",84.88411,358.3754
"2077",84.34699,358.38873
"2078",83.74151,358.40207
"2079",83.11406,358.4154
"2080",82.496376,358.42874
"2081",81.90311,358.44208
"2082",81.34402,358.4554
"2083",80.8362,358.46875
"2084",80.413826,358.4821
"2085",80.093994,358.49542
"2086",79.90112,358.50876
"2087",79.84009,358.5221
"2088",79.89136,358.53543
"2089",80.01099,358.54877
"2090",80.14526,358.5621
"2091",80.25025,358.57544
"2092",80.29664,358.58878
"2093",80.26978,358.6021
"2094",80.17212,358.61545
"2095",80.01587,358.62878
"2096",79.81323,358.64212
"2097",79.57641,358.65546
"2098",79.32494,358.6688
"2099",79.06615,358.68213
"2100",78.82201,358.69547
"2101",78.59983,358.7088
"2102",78.40452,358.72214
"2103",78.23605,358.73547
"2104",78.08957,358.7488
"2105",77.96994,358.76215
"2106",77.86984,358.77548
"2107",77.79172,358.78882
"2108",77.73556,358.80215
"2109",77.69894,358.8155
"2110",77.67452,358.82883
"2111",77.662315,358.84216
"2112",77.66476,358.8555
"2113",77.67696,358.86884
"2114",77.69894,358.88217
"2115",77.72823,358.8955
"2116",77.752655,358.90884
"2117",77.7673,358.92218
"2118",77.769745,358.93552
"2119",77.75754,358.94885
"2120",77.738,358.9622
"2121",77.71603,358.97552
"2122",77.696495,358.98886
"2123",77.69405,359.0022
"2124",77.74288,359.01553
"2125",77.92355,359.02887
"2126",78.34104,359.0422
"2127",79.08324,359.05554
"2128",80.181885,359.06888
"2129",81.56863,359.0822
"2130",83.08476,359.09555
"2131",84.51301,359.1089
"2132",85.645836,359.12222
"2133",86.363625,359.13556
"2134",86.641945,359.1489
"2135",86.54673,359.16223
"2136",86.17807,359.17557
"2137",85.64828,359.1889
"2138",85.04768,359.20224
"2139",84.43244,359.21558
"2140",83.83429,359.2289
"2141",83.25567,359.24225
"2142",82.703896,359.25558
"2143",82.18875,359.26892
"2144",81.73464,359.28226
"2145",81.36843,359.2956
"2146",81.12184,359.30893
"2147",81.004654,359.32227
"2148",81.007095,359.3356
"2149",81.092545,359.34894
"2150",81.214615,359.36227
"2151",81.324486,359.3756
"2152",81.375755,359.38895
"2153",81.35378,359.40228
"2154",81.253685,359.41562
"2155",81.08278,359.42896
"2156",80.86061,359.4423
"2157",80.6067,359.45563
"2158",80.33326,359.46896
"2159",80.05493,359.4823
"2160",79.781494,359.49564
"2161",79.5227,359.50897
"2162",79.28832,359.5223
"2163",79.080795,359.53564
"2164",78.90013,359.54898
"2165",78.74143,359.56232
"2166",78.60227,359.57565
"2167",78.485085,359.589
"2168",78.38743,359.60233
"2169",78.311745,359.61566
"2170",78.26292,359.629
"2171",78.23117,359.64233
"2172",78.20676,359.65567
"2173",78.187225,359.669
"2174",78.170135,359.68234
"2175",78.150604,359.69568
"2176",78.12863,359.709
"2177",78.099335,359.72235
"2178",78.06027,359.7357
"2179",78.011444,359.74902
"2180",77.95041,359.76236
"2181",77.89426,359.7757
"2182",77.857635,359.78903
"2183",77.891815,359.80237
"2184",78.07492,359.8157
"2185",78.5095,359.82904
"2186",79.26879,359.84238
"2187",80.36988,359.8557
"2188",81.72976,359.86905
"2189",83.18486,359.8824
"2190",84.52033,359.89572
"2191",85.555504,359.90906
"2192",86.18051,359.9224
"2193",86.39292,359.93573
"2194",86.258644,359.94907
"2195",85.87778,359.9624
"2196",85.36263,359.97574
"2197",84.788895,359.98907
"2198",84.20294,360.0024
"2199",83.6292,360.01575
"2200",83.070114,360.02908
"2201",82.530556,360.04242
"2202",82.01785,360.05576
"2203",81.5613,360.0691
"2204",81.1902,360.08243
"2205",80.938736,360.09576
"2206",80.814224,360.1091
"2207",80.80446,360.12244
"2208",80.867935,360.13577
"2209",80.96559,360.1491
"2210",81.04616,360.16245
"2211",81.07057,360.17578
"2212",81.02174,360.18912
"2213",80.902115,360.20245
"2214",80.71656,360.2158
"2215",80.482185,360.22913
"2216",80.218506,360.24246
"2217",79.940186,360.2558
"2218",79.66674,360.26913
"2219",79.40551,360.28247
"2220",79.166245,360.2958
"2221",78.94408,360.30914
"2222",78.74876,360.32248
"2223",78.57053,360.33582
"2224",78.41184,360.34915
"2225",78.277565,360.3625
"2226",78.167694,360.37582
"2227",78.0798,360.38916
"2228",78.01877,360.4025
"2229",77.97482,360.41583
"2230",77.94797,360.42917
"2231",77.92844,360.4425
"2232",77.91623,360.45584
"2233",77.89914,360.46918
"2234",77.874725,360.4825
"2235",77.840546,360.49585
"2236",77.79904,360.5092
"2237",77.747765,360.52252
"2238",77.69161,360.53586
"2239",77.64034,360.5492
"2240",77.60128,360.56253
"2241",77.59884,360.57587
"2242",77.68185,360.5892
"2243",77.943085,360.60254
"2244",78.4802,360.61588
"2245",79.35424,360.6292
"2246",80.55543,360.64255
"2247",81.97879,360.65588
"2248",83.43633,360.66922
"2249",84.70832,360.68256
"2250",85.63119,360.6959
"2251",86.13168,360.70923
"2252",86.22934,360.72256
"2253",86.00961,360.7359
"2254",85.58724,360.74924
"2255",85.06477,360.76257
"2256",84.505684,360.7759
"2257",83.949036,360.78925
"2258",83.404594,360.80258
"2259",82.865036,360.81592
"2260",82.33524,360.82925
"2261",81.83475,360.8426
"2262",81.392845,360.85593
"2263",81.04372,360.86926
"2264",80.82643,360.8826
"2265",80.743416,360.89594
"2266",80.77272,360.90927
"2267",80.867935,360.9226
"2268",80.97536,360.93594
"2269",81.03883,360.94928
"2270",81.02907,360.96262
"2271",80.938736,360.97595
"2272",80.77028,360.9893
"2273",80.54322,361.00262
"2274",80.27711,361.01596
"2275",79.991455,361.0293
"2276",79.70336,361.04263
"2277",79.42748,361.05597
"2278",79.17113,361.0693
"2279",78.93431,361.08264
"2280",78.72678,361.09598
"2281",78.538795,361.1093
"2282",78.37278,361.12265
"2283",78.22385,361.136
"2284",78.09445,361.14932
"2285",77.99191,361.16266
"2286",77.908905,361.176
"2287",77.85031,361.18933
"2288",77.81369,361.20267
"2289",77.79172,361.216
"2290",77.77463,361.22934
"2291",77.75998,361.24268
"2292",77.74288,361.256
"2293",77.713585,361.26935
"2294",77.67208,361.28268
"2295",77.625694,361.29602
"2296",77.574425,361.30936
"2297",77.5256,361.3227
"2298",77.488976,361.33603
"2299",77.488976,361.34937
"2300",77.58419,361.3627
"2301",77.86496,361.37604
"2302",78.42161,361.38937
"2303",79.31274,361.4027
"2304",80.51881,361.41605
"2305",81.917755,361.42938
"2306",83.32159,361.44272
"2307",84.53254,361.45605
"2308",85.39437,361.4694
"2309",85.841156,361.48273
"2310",85.90219,361.49606
"2311",85.66781,361.5094
"2312",85.243,361.52274
"2313",84.72053,361.53607
"2314",84.16388,361.5494
"2315",83.60235,361.56274
"2316",83.04326,361.57608
"2317",82.49149,361.58942
"2318",81.95926,361.60275
"2319",81.47097,361.6161
"2320",81.06325,361.62943
"2321",80.77028,361.64276
"2322",80.6067,361.6561
"2323",80.570076,361.66943
"2324",80.62623,361.68277
"2325",80.72144,361.6961
"2326",80.8069,361.70944
"2327",80.8362,361.72278
"2328",80.78737,361.7361
"2329",80.655525,361.74945
"2330",80.45289,361.7628
"2331",80.198975,361.77612
"2332",79.91577,361.78946
"2333",79.61547,361.8028
"2334",79.32006,361.81613
"2335",79.03685,361.82947
"2336",78.77806,361.8428
"2337",78.54368,361.85614
"2338",78.34104,361.86948
"2339",78.16525,361.8828
"2340",78.01877,361.89615
"2341",77.88937,361.9095
"2342",77.77707,361.92282
"2343",77.68429,361.93616
"2344",77.61837,361.9495
"2345",77.574425,361.96283
"2346",77.55001,361.97617
"2347",77.5378,361.9895
"2348",77.53292,362.00284
"2349",77.51583,362.01617
"2350",77.488976,362.0295
"2351",77.44991,362.04285
"2352",77.40353,362.05618
"2353",77.347374,362.06952
"2354",77.28634,362.08286
"2355",77.22774,362.0962
"2356",77.16914,362.10953
"2357",77.11299,362.1362
"2358",77.21309,362.14954
"2359",77.51339,362.16287
"2360",78.118866,362.1762
"2361",79.09544,362.18954
"2362",80.40894,362.20288
"2363",81.9324,362.21622
"2364",83.455864,362.22955
"2365",84.7596,362.2429
"2366",85.67513,362.25623
"2367",86.14633,362.26956
"2368",86.204926,362.2829
"2369",85.95346,362.29623
"2370",85.514,362.30957
"2371",84.98909,362.3229
"2372",84.44465,362.33624
"2373",83.90753,362.34958
"2374",83.37774,362.3629
"2375",82.847946,362.37625
"2376",82.31815,362.3896
"2377",81.80545,362.40292
"2378",81.34402,362.41626
"2379",80.987564,362.4296
"2380",80.765396,362.44293
"2381",80.67994,362.45627
"2382",80.709236,362.4696
"2383",80.80446,362.48294
"2384",80.902115,362.49628
"2385",80.953384,362.5096
"2386",80.92653,362.52295
"2387",80.80934,362.5363
"2388",80.6067,362.54962
"2389",80.33814,362.56296
"2390",80.028076,362.5763
"2391",79.69604,362.58963
"2392",79.36645,362.60297
"2393",79.05394,362.6163
"2394",78.765854,362.62964
"2395",78.50706,362.64297
"2396",78.28001,362.6563
"2397",78.082245,362.66965
"2398",77.91379,362.68298
"2399",77.769745,362.69632
"2400",77.65255,362.70966
"2401",77.55245,362.723
"2402",77.471886,362.73633
"2403",77.41085,362.74966
"2404",77.35958,362.763
"2405",77.32296,362.77634
"2406",77.30099,362.78967
"2407",77.28878,362.803
"2408",77.281456,362.81635
"2409",77.281456,362.82968
"2410",77.281456,362.84302
"2411",77.27413,362.85635
"2412",77.25704,362.8697
"2413",77.222855,362.88303
"2414",77.17647,362.89636
"2415",77.11543,362.9097
"2416",77.04219,362.92303
"2417",76.96651,362.93637
"2418",76.895706,362.9497
"2419",76.83467,362.96304
"2420",76.80293,362.97638
"2421",76.84932,362.98972
"2422",77.05684,363.00305
"2423",77.54513,363.0164
"2424",78.40696,363.02972
"2425",79.6643,363.04306
"2426",81.22682,363.0564
"2427",82.90166,363.06973
"2428",84.44709,363.08307
"2429",85.64828,363.0964
"2430",86.39048,363.10974
"2431",86.66392,363.12308
"2432",86.56138,363.1364
"2433",86.204926,363.14975
"2434",85.71664,363.1631
"2435",85.17952,363.17642
"2436",84.65217,363.18976
"2437",84.139465,363.2031
"2438",83.6292,363.21643
"2439",83.106735,363.22977
"2440",82.58427,363.2431
"2441",82.07889,363.25644
"2442",81.6321,363.26978
"2443",81.28542,363.2831
"2444",81.07301,363.29645
"2445",80.99489,363.30978
"2446",81.01442,363.32312
"2447",81.08034,363.33646
"2448",81.13405,363.3498
"2449",81.126724,363.36313
"2450",81.03151,363.37646
"2451",80.84596,363.3898
"2452",80.587166,363.40314
"2453",80.28199,363.41647
"2454",79.94751,363.4298
"2455",79.61303,363.44315
"2456",79.28832,363.45648
"2457",78.98314,363.46982
"2458",78.69993,363.48315
"2459",78.44602,363.4965
"2460",78.22385,363.50983
"2461",78.030975,363.52316
"2462",77.86008,363.5365
"2463",77.71603,363.54984
"2464",77.58907,363.56317
"2465",77.47677,363.5765
"2466",77.37911,363.58984
"2467",77.296104,363.60318
"2468",77.22774,363.61652
"2469",77.16914,363.62985
"2470",77.117874,363.6432
"2471",77.07149,363.65652
"2472",77.02266,363.66986
"2473",76.97383,363.6832
"2474",76.927444,363.69653
"2475",76.8835,363.70987
"2476",76.84688,363.7232
"2477",76.822464,363.73654
"2478",76.80293,363.74988
"2479",76.7834,363.7632
"2480",76.756546,363.77655
"2481",76.72236,363.7899
"2482",76.67841,363.80322
"2483",76.61982,363.81656
"2484",76.558784,363.8299
"2485",76.49775,363.84323
"2486",76.439156,363.85657
"2487",76.39277,363.8699
"2488",76.37568,363.88324
"2489",76.42939,363.89658
"2490",76.629585,363.9099
"2491",77.08858,363.92325
"2492",77.90646,363.93658
"2493",79.10277,363.94992
"2494",80.61158,363.96326
"2495",82.247345,363.9766
"2496",83.78302,363.98993
"2497",85.00374,364.00327
"2498",85.78012,364.0166
"2499",86.099945,364.02994
"2500",86.04379,364.04327
"2501",85.72884,364.0566
"2502",85.27718,364.06995
"2503",84.78157,364.08328
"2504",84.2884,364.09662
"2505",83.81232,364.10995
"2506",83.34356,364.1233
"2507",82.865036,364.13663
"2508",82.374306,364.14996
"2509",81.89578,364.1633
"2510",81.461205,364.17664
"2511",81.112076,364.18997
"2512",80.88747,364.2033
"2513",80.797134,364.21664
"2514",80.81911,364.22998
"2515",80.907,364.24332
"2516",80.99733,364.25665
"2517",81.03639,364.27
"2518",80.990005,364.28333
"2519",80.848404,364.29666
"2520",80.62379,364.31
"2521",80.34058,364.32333
"2522",80.025635,364.33667
"2523",79.69604,364.35
"2524",79.36645,364.36334
"2525",79.0515,364.37668
"2526",78.75853,364.39
"2527",78.49485,364.40335
"2528",78.25803,364.4167
"2529",78.05051,364.43002
"2530",77.86984,364.44336
"2531",77.71847,364.4567
"2532",77.58663,364.47003
"2533",77.47921,364.48337
"2534",77.38888,364.4967
"2535",77.313194,364.51004
"2536",77.25704,364.52338
"2537",77.21065,364.5367
"2538",77.1667,364.55005
"2539",77.120316,364.5634
"2540",77.07149,364.57672
"2541",77.01289,364.59006
"2542",76.9543,364.6034
"2543",76.90059,364.61673
"2544",76.85176,364.63007
"2545",76.805374,364.6434
"2546",76.76387,364.65674
"2547",76.72724,364.67007
"2548",76.69062,364.6834
"2549",76.66132,364.69675
"2550",76.63447,364.71008
"2551",76.612495,364.72342
"2552",76.592964,364.73676
"2553",76.58076,364.7501
"2554",76.56855,364.76343
"2555",76.56367,364.77676
"2556",76.558784,364.7901
"2557",76.5539,364.80344
"2558",76.54658,364.81677
"2559",76.54658,364.8301
"2560",76.54658,364.84344
"2561",76.55146,364.85678
"2562",76.575874,364.87012
"2563",76.66621,364.88345
"2564",76.910355,364.8968
"2565",77.418175,364.91013
"2566",78.28489,364.92346
"2567",79.52514,364.9368
"2568",81.05348,364.95013
"2569",82.67948,364.96347
"2570",84.1712,364.9768
"2571",85.333336,364.99014
"2572",86.05844,365.00348
"2573",86.33921,365.0168
"2574",86.26353,365.03015
"2575",85.94125,365.0435
"2576",85.49203,365.05682
"2577",85.0013,365.07016
"2578",84.52033,365.0835
"2579",84.06134,365.09683
"2580",83.61944,365.11017
"2581",83.177536,365.1235
"2582",82.735634,365.13684
"2583",82.30106,365.15018
"2584",81.90555,365.1635
"2585",81.59548,365.17685
"2586",81.39529,365.1902
"2587",81.3196,365.20352
"2588",81.34402,365.21686
"2589",81.43191,365.2302
"2590",81.52712,365.24353
"2591",81.583275,365.25687
"2592",81.56374,365.2702
"2593",81.461205,365.28354
"2594",81.2781,365.29688
"2595",81.024185,365.3102
"2596",80.726326,365.32355
"2597",80.40894,365.33688
"2598",80.08911,365.35022
"2599",79.77905,365.36356
"2600",79.48852,365.3769
"2601",79.22972,365.39023
"2602",78.995346,365.40356
"2603",78.785385,365.4169
"2604",78.59495,365.43024
"2605",78.42649,365.44357
"2606",78.277565,365.4569
"2607",78.14816,365.47025
"2608",78.04074,365.48358
"2609",77.95285,365.49692
"2610",77.87717,365.51025
"2611",77.81369,365.5236
"2612",77.75754,365.53693
"2613",77.70626,365.55026
"2614",77.65499,365.5636
"2615",77.608604,365.57693
"2616",77.56222,365.59027
"2617",77.51339,365.6036
"2618",77.46456,365.61694
"2619",77.41573,365.63028
"2620",77.366905,365.64362
"2621",77.32052,365.65695
"2622",77.281456,365.6703
"2623",77.2375,365.68362
"2624",77.20332,365.69696
"2625",77.17403,365.7103
"2626",77.14473,365.72363
"2627",77.11543,365.73697
"2628",77.09102,365.7503
"2629",77.066605,365.76364
"2630",77.04219,365.77698
"2631",77.01778,365.7903
"2632",76.995804,365.80365
"2633",76.97383,365.817
"2634",76.95674,365.83032
"2635",76.95674,365.84366
"2636",77.01778,365.857
"2637",77.21553,365.87033
"2638",77.662315,365.88367
"2639",78.44114,365.897
"2640",79.58129,365.91034
"2641",81.01686,365.92368
"2642",82.58915,365.937
"2643",84.08087,365.95035
"2644",85.296715,365.96368
"2645",86.11215,365.97702
"2646",86.50034,365.99036
"2647",86.51011,366.0037
"2648",86.25132,366.01703
"2649",85.82651,366.03036
"2650",85.32845,366.0437
"2651",84.81331,366.05704
"2652",84.32014,366.07037
"2653",83.844055,366.0837
"2654",83.38262,366.09705
"2655",82.92851,366.11038
"2656",82.49149,366.12372
"2657",82.10086,366.13705
"2658",81.78348,366.1504
"2659",81.57351,366.16373
"2660",81.478294,366.17706
"2661",81.478294,366.1904
"2662",81.53933,366.20374
"2663",81.61501,366.21707
"2664",81.6614,366.2304
"2665",81.654076,366.24374
"2666",81.57839,366.25708
"2667",81.42947,366.27042
"2668",81.214615,366.28375
"2669",80.95094,366.2971
"2670",80.65797,366.31042
"2671",80.34791,366.32376
"2672",80.04028,366.3371
"2673",79.73998,366.35043
"2674",79.46166,366.36377
"2675",79.20531,366.3771
"2676",78.975815,366.39044
"2677",78.77318,366.40378
"2678",78.59739,366.4171
"2679",78.44114,366.43045
"2680",78.30442,366.4438
"2681",78.18234,366.45712
"2682",78.07492,366.47046
"2683",77.979706,366.4838
"2684",77.90158,366.49713
"2685",77.83566,366.51047
"2686",77.77463,366.5238
"2687",77.72091,366.53714
"2688",77.67452,366.55048
"2689",77.63546,366.5638
"2690",77.59884,366.57715
"2691",77.57198,366.59048
"2692",77.55001,366.60382
"2693",77.53048,366.61716
"2694",77.51095,366.6305
"2695",77.48165,366.64383
"2696",77.44015,366.65717
"2697",77.38888,366.6705
"2698",77.3254,366.68384
"2699",77.25704,366.69717
"2700",77.18623,366.7105
"2701",77.11543,366.72385
"2702",77.051956,366.73718
"2703",77.01045,366.75052
"2704",77.03975,366.76385
"2705",77.21553,366.7772
"2706",77.65499,366.79053
"2707",78.44358,366.80386
"2708",79.605705,366.8172
"2709",81.07301,366.83054
"2710",82.684364,366.84387
"2711",84.227356,366.8572
"2712",85.49935,366.87054
"2713",86.380714,366.88388
"2714",86.84459,366.89722
"2715",86.93248,366.91055
"2716",86.73472,366.9239
"2717",86.3563,366.93723
"2718",85.88022,366.95056
"2719",85.365074,366.9639
"2720",84.83772,366.97723
"2721",84.315254,366.99057
"2722",83.79523,367.0039
"2723",83.27764,367.01724
"2724",82.77959,367.03058
"2725",82.3328,367.0439
"2726",81.9617,367.05725
"2727",81.70046,367.0706
"2728",81.5613,367.08392
"2729",81.53445,367.09726
"2730",81.58083,367.1106
"2731",81.654076,367.12393
"2732",81.70779,367.13727
"2733",81.69802,367.1506
"2734",81.60769,367.16394
"2735",81.43679,367.17728
"2736",81.197525,367.1906
"2737",80.91432,367.20395
"2738",80.59937,367.2173
"2739",80.26734,367.23062
"2740",79.92554,367.24396
"2741",79.59106,367.2573
"2742",79.26635,367.27063
"2743",78.96361,367.28397
"2744",78.68284,367.2973
"2745",78.43137,367.31064
"2746",78.20676,367.32397
"2747",78.009,367.3373
"2748",77.83078,367.35065
"2749",77.67696,367.36398
"2750",77.540245,367.37732
"2751",77.41573,367.39066
"2752",77.30099,367.404
"2753",77.205765,367.41733
"2754",77.12764,367.43066
"2755",77.066605,367.444
"2756",77.03487,367.45734
"2757",77.03975,367.47067
"2758",77.07881,367.484
"2759",77.14961,367.49734
"2760",77.24727,367.51068
"2761",77.347374,367.52402
"2762",77.43282,367.53735
"2763",77.488976,367.5507
"2764",77.506065,367.56403
"2765",77.488976,367.57736
"2766",77.44747,367.5907
"2767",77.40841,367.60403
"2768",77.41573,367.61737
"2769",77.55245,367.6307
"2770",77.92355,367.64404
"2771",78.63645,367.65738
"2772",79.727776,367.67072
"2773",81.15846,367.68405
"2774",82.78203,367.6974
"2775",84.39338,367.71072
"2776",85.77768,367.72406
"2777",86.783554,367.7374
"2778",87.35241,367.75073
"2779",87.51598,367.76407
"2780",87.35973,367.7774
"2781",86.98863,367.79074
"2782",86.4979,367.80408
"2783",85.95834,367.8174
"2784",85.40414,367.83075
"2785",84.842606,367.8441
"2786",84.27863,367.85742
"2787",83.70733,367.87076
"2788",83.14336,367.8841
"2789",82.61845,367.89743
"2790",82.16678,367.91077
"2791",81.81766,367.9241
"2792",81.5906,367.93744
"2793",81.47341,367.95078
"2794",81.43679,367.9641
"2795",81.43679,367.97745
"2796",81.427025,367.99078
"2797",81.37087,368.00412
"2798",81.253685,368.01746
"2799",81.06569,368.0308
"2800",80.80934,368.04413
"2801",80.5066,368.05746
"2802",80.17212,368.0708
"2803",79.82544,368.08414
"2804",79.47875,368.09747
"2805",79.14427,368.1108
"2806",78.82689,368.12415
"2807",78.52659,368.13748
"2808",78.25315,368.15082
"2809",78.00412,368.16415
"2810",77.786835,368.1775
"2811",77.593956,368.19083
"2812",77.42794,368.20416
"2813",77.279015,368.2175
"2814",77.14961,368.23083
"2815",77.03487,368.24417
"2816",76.944534,368.2575
"2817",76.87373,368.27084
"2818",76.81758,368.28418
"2819",76.76875,368.29752
"2820",76.72236,368.31085
"2821",76.67109,368.3242
"2822",76.612495,368.33752
"2823",76.544136,368.35086
"2824",76.473335,368.3642
"2825",76.402534,368.37753
"2826",76.334175,368.39087
"2827",76.28535,368.4042
"2828",76.297554,368.41754
"2829",76.44404,368.43088
"2830",76.824905,368.4442
"2831",77.5256,368.45755
"2832",78.58518,368.4709
"2833",79.95239,368.48422
"2834",81.48318,368.49756
"2835",82.97246,368.5109
"2836",84.22247,368.52423
"2837",85.09407,368.53757
"2838",85.5433,368.5509
"2839",85.60677,368.56424
"2840",85.37728,368.57758
"2841",84.962234,368.5909
"2842",84.44953,368.60425
"2843",83.897766,368.61758
"2844",83.33868,368.63092
"2845",82.78203,368.64426
"2846",82.22293,368.6576
"2847",81.668724,368.67093
"2848",81.13893,368.68427
"2849",80.66529,368.6976
"2850",80.289314,368.71094
"2851",80.0354,368.72427
"2852",79.91089,368.7376
"2853",79.89868,368.75095
"2854",79.95239,368.76428
"2855",80.025635,368.77762
"2856",80.08179,368.79095
"2857",80.08423,368.8043
"2858",80.01099,368.81763
"2859",79.85718,368.83096
"2860",79.635,368.8443
"2861",79.35668,368.85764
"2862",79.0515,368.87097
"2863",78.73655,368.8843
"2864",78.43137,368.89764
"2865",78.14572,368.91098
"2866",77.88693,368.92432
"2867",77.65743,368.93765
"2868",77.454796,368.951
"2869",77.281456,368.96432
"2870",77.134964,368.97766
"2871",77.015335,368.991
"2872",76.91768,369.00433
"2873",76.84444,369.01767
"2874",76.79317,369.031
"2875",76.756546,369.04434
"2876",76.72724,369.05768
"2877",76.70527,369.071
"2878",76.68574,369.08435
"2879",76.66621,369.0977
"2880",76.63935,369.11102
"2881",76.60517,369.12436
"2882",76.56611,369.1377
"2883",76.524605,369.15103
"2884",76.490425,369.16437
"2885",76.490425,369.1777
"2886",76.57343,369.19104
"2887",76.81758,369.20438
"2888",77.32296,369.2177
"2889",78.15549,369.23105
"2890",79.32006,369.2444
"2891",80.72144,369.25772
"2892",82.20096,369.27106
"2893",83.55108,369.2844
"2894",84.6009,369.29773
"2895",85.25765,369.31107
"2896",85.51888,369.3244
"2897",85.45052,369.33774
"2898",85.14778,369.35107
"2899",84.715645,369.3644
"2900",84.2298,369.37775
"2901",83.7293,369.39108
"2902",83.23125,369.40442
"2903",82.73319,369.41776
"2904",82.230255,369.4311
"2905",81.73708,369.44443
"2906",81.28054,369.45776
"2907",80.89967,369.4711
"2908",80.63111,369.48444
"2909",80.48707,369.49777
"2910",80.45289,369.5111
"2911",80.50172,369.52444
"2912",80.57496,369.53778
"2913",80.62867,369.55112
"2914",80.62379,369.56445
"2915",80.54322,369.5778
"2916",80.38697,369.59113
"2917",80.15991,369.60446
"2918",79.88403,369.6178
"2919",79.58129,369.63113
"2920",79.273674,369.64447
"2921",78.96849,369.6578
"2922",78.68528,369.67114
"2923",78.433815,369.68448
"2924",78.2092,369.6978
"2925",78.009,369.71115
"2926",77.83566,369.7245
"2927",77.68185,369.73782
"2928",77.55001,369.75116
"2929",77.437706,369.7645
"2930",77.349815,369.77783
"2931",77.2839,369.79117
"2932",77.239944,369.8045
"2933",77.21309,369.81784
"2934",77.20088,369.83118
"2935",77.188675,369.8445
"2936",77.1667,369.85785
"2937",77.13008,369.8712
"2938",77.083694,369.88452
"2939",77.0251,369.89786
"2940",76.96651,369.9112
"2941",76.910355,369.92453
"2942",76.86641,369.93787
"2943",76.859085,369.9512
"2944",76.9543,369.96454
"2945",77.23262,369.97787
"2946",77.789276,369.9912
"2947",78.68284,370.00455
"2948",79.89868,370.01788
"2949",81.324486,370.03122
"2950",82.78447,370.04456
"2951",84.071106,370.0579
"2952",85.033035,370.07123
"2953",85.59945,370.08456
"2954",85.78989,370.0979
"2955",85.677574,370.11124
"2956",85.36996,370.12457
"2957",84.95979,370.1379
"2958",84.51789,370.15125
"2959",84.071106,370.16458
"2960",83.631645,370.17792
"2961",83.18242,370.19125
"2962",82.72343,370.2046
"2963",82.25468,370.21793
"2964",81.80789,370.23126
"2965",81.41726,370.2446
"2966",81.126724,370.25793
"2967",80.955826,370.27127
"2968",80.89967,370.2846
"2969",80.91432,370.29794
"2970",80.95827,370.31128
"2971",80.9778,370.32462
"2972",80.94362,370.33795
"2973",80.833755,370.3513
"2974",80.65064,370.36462
"2975",80.413826,370.37796
"2976",80.13794,370.3913
"2977",79.84009,370.40463
"2978",79.537346,370.41797
"2979",79.24925,370.4313
"2980",78.975815,370.44464
"2981",78.729225,370.45798
"2982",78.5095,370.4713
"2983",78.314186,370.48465
"2984",78.1384,370.498
"2985",77.98703,370.51132
"2986",77.855194,370.52466
"2987",77.74288,370.538
"2988",77.65255,370.55133
"2989",77.57931,370.56467
"2990",77.5256,370.578
"2991",77.488976,370.59134
"2992",77.467,370.60468
"2993",77.45724,370.618
"2994",77.44991,370.63135
"2995",77.44259,370.64468
"2996",77.42306,370.65802
"2997",77.39132,370.67136
"2998",77.347374,370.6847
"2999",77.28878,370.69803
"3000",77.222855,370.71136
"3001",77.16426,370.7247
"3002",77.11299,370.73804
"3003",77.09346,370.75137
"3004",77.1667,370.7647
"3005",77.420616,370.77805
"3006",77.95529,370.79138
"3007",78.84154,370.80472
"3008",80.07202,370.81805
"3009",81.532005,370.8314
"3010",83.03349,370.84473
"3011",84.36408,370.85806
"3012",85.35775,370.8714
"3013",85.943695,370.88474
"3014",86.13901,370.89807
"3015",86.03403,370.9114
"3016",85.73617,370.92474
"3017",85.3431,370.93808
"3018",84.91341,370.95142
"3019",84.488594,370.96475
"3020",84.06622,370.9781
"3021",83.631645,370.99142
"3022",83.17021,371.00476
"3023",82.69169,371.0181
"3024",82.210724,371.03143
"3025",81.77615,371.04477
"3026",81.42947,371.0581
"3027",81.20973,371.07144
"3028",81.112076,371.08478
"3029",81.109634,371.0981
"3030",81.1487,371.11145
"3031",81.17555,371.1248
"3032",81.146255,371.13812
"3033",81.041275,371.15146
"3034",80.85329,371.1648
"3035",80.604256,371.17813
"3036",80.31129,371.19147
"3037",79.99634,371.2048
"3038",79.676506,371.21814
"3039",79.36889,371.23148
"3040",79.078354,371.2448
"3041",78.81712,371.25815
"3042",78.5803,371.27148
"3043",78.37278,371.28482
"3044",78.19211,371.29816
"3045",78.03586,371.3115
"3046",77.89426,371.32483
"3047",77.769745,371.33817
"3048",77.662315,371.3515
"3049",77.574425,371.36484
"3050",77.503624,371.37817
"3051",77.452354,371.3915
"3052",77.41085,371.40485
"3053",77.38155,371.41818
"3054",77.35714,371.43152
"3055",77.33517,371.44485
"3056",77.313194,371.4582
"3057",77.29366,371.47153
"3058",77.26925,371.48486
"3059",77.2375,371.4982
"3060",77.19844,371.51154
"3061",77.15694,371.52487
"3062",77.10811,371.5382
"3063",77.051956,371.55154
"3064",76.99092,371.56488
"3065",76.927444,371.57822
"3066",76.86885,371.59155
"3067",76.82979,371.6049
"3068",76.85664,371.61823
"3069",77.0251,371.63156
"3070",77.44015,371.6449
"3071",78.19455,371.65823
"3072",79.3225,371.67157
"3073",80.76051,371.6849
"3074",82.34501,371.69824
"3075",83.85138,371.71158
"3076",85.0721,371.7249
"3077",85.889984,371.73825
"3078",86.28306,371.7516
"3079",86.31968,371.76492
"3080",86.10971,371.77826
"3081",85.767914,371.7916
"3082",85.3724,371.80493
"3083",84.972,371.81827
"3084",84.578926,371.8316
"3085",84.18097,371.84494
"3086",83.75372,371.85828
"3087",83.29473,371.8716
"3088",82.811325,371.88495
"3089",82.3328,371.8983
"3090",81.91043,371.91162
"3091",81.5906,371.92496
"3092",81.392845,371.9383
"3093",81.31228,371.95163
"3094",81.31472,371.96497
"3095",81.341576,371.9783
"3096",81.341576,371.99164
"3097",81.2781,372.00497
"3098",81.13893,372.0183
"3099",80.93141,372.03165
"3100",80.66529,372.04498
"3101",80.36256,372.05832
"3102",80.045166,372.07166
"3103",79.72289,372.085
"3104",79.415276,372.09833
"3105",79.12718,372.11166
"3106",78.86595,372.125
"3107",78.63157,372.13834
"3108",78.41917,372.15167
"3109",78.22873,372.165
"3110",78.06027,372.17834
"3111",77.91623,372.19168
"3112",77.7966,372.20502
"3113",77.69405,372.21835
"3114",77.60616,372.2317
"3115",77.53292,372.24503
"3116",77.467,372.25836
"3117",77.40597,372.2717
"3118",77.349815,372.28503
"3119",77.30099,372.29837
"3120",77.25948,372.3117
"3121",77.22041,372.32504
"3122",77.17891,372.33838
"3123",77.13985,372.3517
"3124",77.103226,372.36505
"3125",77.069046,372.3784
"3126",77.03731,372.39172
"3127",77.00801,372.40506
"3128",76.97627,372.4184
"3129",76.94209,372.43173
"3130",76.89815,372.44507
"3131",76.85176,372.4584
"3132",76.805374,372.47174
"3133",76.75899,372.48508
"3134",76.715034,372.4984
"3135",76.6833,372.51175
"3136",76.67353,372.5251
"3137",76.72968,372.53842
"3138",76.93721,372.55176
"3139",77.40353,372.5651
"3140",78.221405,372.57843
"3141",79.415276,372.59177
"3142",80.89967,372.6051
"3143",82.493935,372.61844
"3144",83.97589,372.63177
"3145",85.14534,372.6451
"3146",85.892426,372.65845
"3147",86.222015,372.67178
"3148",86.21469,372.68512
"3149",85.9852,372.69846
"3150",85.63607,372.7118
"3151",85.25033,372.72513
"3152",84.86458,372.73846
"3153",84.488594,372.7518
"3154",84.10773,372.76514
"3155",83.70977,372.77847
"3156",83.27276,372.7918
"3157",82.80888,372.80515
"3158",82.34501,372.81848
"3159",81.92996,372.83182
"3160",81.602806,372.84515
"3161",81.39529,372.8585
"3162",81.29763,372.87183
"3163",81.2781,372.88516
"3164",81.28542,372.8985
"3165",81.27566,372.91183
"3166",81.20729,372.92517
"3167",81.07301,372.9385
"3168",80.86549,372.95184
"3169",80.6067,372.96518
"3170",80.308846,372.97852
"3171",79.991455,372.99185
"3172",79.66918,373.0052
"3173",79.361565,373.01852
"3174",79.07347,373.03186
"3175",78.81224,373.0452
"3176",78.5803,373.05853
"3177",78.37278,373.07187
"3178",78.19211,373.0852
"3179",78.03586,373.09854
"3180",77.90158,373.11188
"3181",77.78439,373.1252
"3182",77.68185,373.13855
"3183",77.593956,373.1519
"3184",77.51339,373.16522
"3185",77.44015,373.17856
"3186",77.37667,373.1919
"3187",77.32784,373.20523
"3188",77.281456,373.21857
"3189",77.2375,373.2319
"3190",77.188675,373.24524
"3191",77.137405,373.25858
"3192",77.083694,373.2719
"3193",77.02998,373.28525
"3194",76.97627,373.29858
"3195",76.927444,373.31192
"3196",76.87862,373.32526
"3197",76.83711,373.3386
"3198",76.80293,373.35193
"3199",76.77852,373.36526
"3200",76.76387,373.3786
"3201",76.754105,373.39194
"3202",76.74677,373.40527
"3203",76.734566,373.4186
"3204",76.72236,373.43195
"3205",76.70527,373.44528
"3206",76.68818,373.45862
"3207",76.67353,373.47195
"3208",76.65888,373.4853
"3209",76.65156,373.49863
"3210",76.66865,373.51196
"3211",76.76387,373.5253
"3212",77.02754,373.53864
"3213",77.57198,373.55197
"3214",78.47288,373.5653
"3215",79.7351,373.57864
"3216",81.25124,373.59198
"3217",82.82597,373.60532
"3218",84.23712,373.61865
"3219",85.31136,373.632
"3220",85.96323,373.64532
"3221",86.20737,373.65866
"3222",86.14145,373.672
"3223",85.872894,373.68533
"3224",85.50179,373.69867
"3225",85.101395,373.712
"3226",84.71076,373.72534
"3227",84.34211,373.73868
"3228",83.97589,373.752
"3229",83.595024,373.76535
"3230",83.17998,373.7787
"3231",82.73319,373.79202
"3232",82.286415,373.80536
"3233",81.88602,373.8187
"3234",81.57351,373.83203
"3235",81.375755,373.84537
"3236",81.290306,373.8587
"3237",81.28054,373.87204
"3238",81.30007,373.88538
"3239",81.29763,373.8987
"3240",81.24391,373.91205
"3241",81.1194,373.92538
"3242",80.92409,373.93872
"3243",80.67506,373.95206
"3244",80.38941,373.9654
"3245",80.08423,373.97873
"3246",79.77661,373.99207
"3247",79.48119,374.0054
"3248",79.20775,374.01874
"3249",78.96605,374.03207
"3250",78.75609,374.0454
"3251",78.56809,374.05875
"3252",78.397194,374.07208
"3253",78.24094,374.08542
"3254",78.10666,374.09875
"3255",77.98703,374.1121
"3256",77.88449,374.12543
"3257",77.7966,374.13876
"3258",77.72091,374.1521
"3259",77.65255,374.16544
"3260",77.58907,374.17877
"3261",77.53292,374.1921
"3262",77.48409,374.20544
"3263",77.437706,374.21878
"3264",77.39376,374.23212
"3265",77.349815,374.24545
"3266",77.30343,374.2588
"3267",77.25704,374.27213
"3268",77.21065,374.28546
"3269",77.1667,374.2988
"3270",77.13252,374.31213
"3271",77.103226,374.32547
"3272",77.083694,374.3388
"3273",77.07149,374.35214
"3274",77.05928,374.36548
"3275",77.049515,374.3788
"3276",77.03731,374.39215
"3277",77.02022,374.4055
"3278",76.998245,374.41882
"3279",76.97383,374.43216
"3280",76.9543,374.4455
"3281",76.93965,374.45883
"3282",76.93721,374.47217
"3283",76.97139,374.4855
"3284",77.0959,374.49884
"3285",77.40353,374.51218
"3286",77.99924,374.5255
"3287",78.94652,374.53885
"3288",80.22339,374.5522
"3289",81.722435,374.56552
"3290",83.23857,374.57886
"3291",84.55695,374.5922
"3292",85.523766,374.60553
"3293",86.07065,374.61887
"3294",86.23178,374.6322
"3295",86.10239,374.64554
"3296",85.79721,374.65887
"3297",85.41146,374.6722
"3298",85.013504,374.68555
"3299",84.627754,374.69888
"3300",84.2591,374.71222
"3301",83.88556,374.72556
"3302",83.49004,374.7389
"3303",83.06523,374.75223
"3304",82.61845,374.76556
"3305",82.18631,374.7789
"3306",81.80789,374.79224
"3307",81.52712,374.80557
"3308",81.36355,374.8189
"3309",81.307396,374.83224
"3310",81.3196,374.84558
"3311",81.35378,374.85892
"3312",81.36355,374.87225
"3313",81.31228,374.8856
"3314",81.1902,374.89893
"3315",80.99489,374.91226
"3316",80.75075,374.9256
"3317",80.46754,374.93893
"3318",80.16724,374.95227
"3319",79.86694,374.9656
"3320",79.57885,374.97894
"3321",79.310295,374.99228
"3322",79.06859,375.0056
"3323",78.856186,375.01895
"3324",78.67063,375.0323
"3325",78.51194,375.04562
"3326",78.37278,375.05896
"3327",78.25071,375.0723
"3328",78.14328,375.08563
"3329",78.04562,375.09897
"3330",77.962616,375.1123
"3331",77.88937,375.12564
"3332",77.82834,375.13898
"3333",77.77463,375.1523
"3334",77.72823,375.16565
"3335",77.68673,375.179
"3336",77.65255,375.19232
"3337",77.62081,375.20566
"3338",77.593956,375.219
"3339",77.56466,375.23233
"3340",77.53048,375.24567
"3341",77.488976,375.259
"3342",77.452354,375.27234
"3343",77.41329,375.28568
"3344",77.383995,375.299
"3345",77.366905,375.31235
"3346",77.3547,375.32568
"3347",77.33761,375.33902
"3348",77.32296,375.35236
"3349",77.30587,375.3657
"3350",77.281456,375.37903
"3351",77.25704,375.39236
"3352",77.23506,375.4057
"3353",77.21553,375.41904
"3354",77.205765,375.43237
"3355",77.21309,375.4457
"3356",77.2839,375.45905
"3357",77.4963,375.47238
"3358",77.95773,375.48572
"3359",78.75609,375.49905
"3360",79.920654,375.5124
"3361",81.3782,375.52573
"3362",82.96513,375.53906
"3363",84.4593,375.5524
"3364",85.660484,375.56573
"3365",86.44907,375.57907
"3366",86.81529,375.5924
"3367",86.81285,375.60574
"3368",86.55894,375.61908
"3369",86.16342,375.63242
"3370",85.71664,375.64575
"3371",85.26986,375.6591
"3372",84.84505,375.67242
"3373",84.43488,375.68576
"3374",84.02228,375.6991
"3375",83.5877,375.71243
"3376",83.13359,375.72577
"3377",82.67216,375.7391
"3378",82.247345,375.75244
"3379",81.898224,375.76578
"3380",81.654076,375.7791
"3381",81.52224,375.79245
"3382",81.48318,375.8058
"3383",81.50271,375.81912
"3384",81.52712,375.83246
"3385",81.5198,375.8458
"3386",81.449,375.85913
"3387",81.307396,375.87247
"3388",81.094986,375.8858
"3389",80.8362,375.89914
"3390",80.5481,375.91248
"3391",80.24292,375.9258
"3392",79.940186,375.93915
"3393",79.64965,375.95248
"3394",79.37133,375.96582
"3395",79.11253,375.97916
"3396",78.88304,375.9925
"3397",78.677956,376.00583
"3398",78.49729,376.01917
"3399",78.34104,376.0325
"3400",78.2092,376.04584
"3401",78.09689,376.05917
"3402",77.996796,376.0725
"3403",77.908905,376.08585
"3404",77.83566,376.09918
"3405",77.77219,376.11252
"3406",77.71847,376.12585
"3407",77.67696,376.1392
"3408",77.63546,376.15253
"3409",77.58907,376.16586
"3410",77.54269,376.1792
"3411",77.4963,376.19254
"3412",77.452354,376.20587
"3413",77.41329,376.2192
"3414",77.383995,376.23254
"3415",77.35958,376.24588
"3416",77.33761,376.25922
"3417",77.315636,376.27255
"3418",77.29122,376.2859
"3419",77.26681,376.29922
"3420",77.239944,376.31256
"3421",77.208206,376.3259
"3422",77.17403,376.33923
"3423",77.137405,376.35257
"3424",77.100784,376.3659
"3425",77.066605,376.37924
"3426",77.0544,376.39258
"3427",77.117874,376.4059
"3428",77.34249,376.41925
"3429",77.840546,376.4326
"3430",78.69749,376.44592
"3431",79.923096,376.45926
"3432",81.43923,376.4726
"3433",83.072556,376.48593
"3434",84.59846,376.49927
"3435",85.821625,376.5126
"3436",86.62974,376.52594
"3437",87.00572,376.53928
"3438",87.01305,376.5526
"3439",86.7567,376.56595
"3440",86.346535,376.57928
"3441",85.87778,376.59262
"3442",85.40414,376.60596
"3443",84.95247,376.6193
"3444",84.51545,376.63263
"3445",84.08331,376.64597
"3446",83.631645,376.6593
"3447",83.16533,376.67264
"3448",82.69657,376.68597
"3449",82.26444,376.6993
"3450",81.90555,376.71265
"3451",81.64675,376.72598
"3452",81.50271,376.73932
"3453",81.449,376.75266
"3454",81.449,376.766
"3455",81.46609,376.77933
"3456",81.45632,376.79266
"3457",81.392845,376.806
"3458",81.26101,376.81934
"3459",81.06325,376.83267
"3460",80.8069,376.846
"3461",80.51392,376.85934
"3462",80.19653,376.87268
"3463",79.87915,376.88602
"3464",79.571526,376.89935
"3465",79.28588,376.9127
"3466",79.0222,376.92603
"3467",78.785385,376.93936
"3468",78.57542,376.9527
"3469",78.38499,376.96603
"3470",78.21408,376.97937
"3471",78.05783,376.9927
"3472",77.91379,377.00604
"3473",77.789276,377.01938
"3474",77.679405,377.0327
"3475",77.58907,377.04605
"3476",77.51339,377.0594
"3477",77.452354,377.07272
"3478",77.39864,377.08606
"3479",77.35226,377.0994
"3480",77.31075,377.11273
"3481",77.27169,377.12607
"3482",77.2375,377.1394
"3483",77.20088,377.15274
"3484",77.1667,377.16608
"3485",77.12764,377.1794
"3486",77.09346,377.19275
"3487",77.06416,377.2061
"3488",77.04463,377.21942
"3489",77.02754,377.23276
"3490",77.00801,377.2461
"3491",76.978714,377.25943
"3492",76.93965,377.27277
"3493",76.89082,377.2861
"3494",76.84444,377.29944
"3495",76.80293,377.31277
"3496",76.788284,377.3261
"3497",76.83711,377.33945
"3498",77.03975,377.35278
"3499",77.50118,377.36612
"3500",78.32395,377.37946
"3501",79.537346,377.3928
"3502",81.08278,377.40613
"3503",82.79668,377.41946
"3504",84.4593,377.4328
"3505",85.855804,377.44614
"3506",86.84459,377.45947
"3507",87.38415,377.4728
"3508",87.51354,377.48615
"3509",87.33288,377.49948
"3510",86.95201,377.51282
"3511",86.468605,377.52615
"3512",85.95346,377.5395
"3513",85.44076,377.55283
"3514",84.93782,377.56616
"3515",84.44465,377.5795
"3516",83.946594,377.59283
"3517",83.44366,377.60617
"3518",82.948044,377.6195
"3519",82.49149,377.63284
"3520",82.10574,377.64618
"3521",81.82254,377.65952
"3522",81.651634,377.67285
"3523",81.57351,377.6862
"3524",81.55398,377.69952
"3525",81.55398,377.71286
"3526",81.53689,377.7262
"3527",81.47585,377.73953
"3528",81.356224,377.75287
"3529",81.17067,377.7662
"3530",80.92897,377.77954
"3531",80.64332,377.79288
"3532",80.325935,377.8062
"3533",79.99634,377.81955
"3534",79.67162,377.8329
"3535",79.35668,377.84622
"3536",79.05882,377.85956
"3537",78.78294,377.8729
"3538",78.52659,377.88623
"3539",78.29221,377.89957
"3540",78.0798,377.9129
"3541",77.89426,377.92624
"3542",77.733116,377.93958
"3543",77.59884,377.9529
"3544",77.48165,377.96625
"3545",77.37179,377.97958
"3546",77.27169,377.99292
"3547",77.18135,378.00626
"3548",77.100784,378.0196
"3549",77.032425,378.03293
"3550",76.978714,378.04626
"3551",76.93721,378.0596
"3552",76.912796,378.07294
"3553",76.893265,378.08627
"3554",76.88106,378.0996
"3555",76.86885,378.11295
"3556",76.8542,378.12628
"3557",76.824905,378.13962
"3558",76.7834,378.15295
"3559",76.732124,378.1663
"3560",76.67597,378.17963
"3561",76.61494,378.19296
"3562",76.561226,378.2063
"3563",76.53193,378.21964
"3564",76.578316,378.23297
"3565",76.79805,378.2463
"3566",77.298546,378.25964
"3567",78.17258,378.27298
"3568",79.447014,378.28632
"3569",81.041275,378.29965
"3570",82.78935,378.313
"3571",84.46906,378.32632
"3572",85.87778,378.33966
"3573",86.87633,378.353
"3574",87.430534,378.36633
"3575",87.57946,378.37967
"3576",87.411,378.393
"3577",87.03502,378.40634
"3578",86.54429,378.41968
"3579",86.00961,378.433
"3580",85.46273,378.44635
"3581",84.91829,378.4597
"3582",84.37141,378.47302
"3583",83.81964,378.48636
"3584",83.267876,378.4997
"3585",82.738075,378.51303
"3586",82.26444,378.52637
"3587",81.881134,378.5397
"3588",81.61257,378.55304
"3589",81.45388,378.56638
"3590",81.38796,378.5797
"3591",81.37087,378.59305
"3592",81.36355,378.60638
"3593",81.33669,378.61972
"3594",81.26345,378.63306
"3595",81.129166,378.6464
"3596",80.93385,378.65973
"3597",80.68482,378.67307
"3598",80.38697,378.6864
"3599",80.059814,378.69974
"3600",79.71313,378.71307
"3601",79.36645,378.7264
"3602",79.03441,378.73975
"3603",78.7219,378.75308
"3604",78.433815,378.76642
"3605",78.17258,378.77975
"3606",77.9382,378.7931
"3607",77.72091,378.80643
"3608",77.523155,378.81976
"3609",77.34493,378.8331
"3610",77.18623,378.84644
"3611",77.04463,378.85977
"3612",76.925,378.8731
"3613",76.822464,378.88644
"3614",76.74189,378.89978
"3615",76.67841,378.91312
"3616",76.627144,378.92645
"3617",76.58808,378.9398
"3618",76.56367,378.95312
"3619",76.54658,378.96646
"3620",76.52949,378.9798
"3621",76.507515,378.99313
"3622",76.48066,379.00647
"3623",76.4416,379.0198
"3624",76.39033,379.03314
"3625",76.32929,379.04648
"3626",76.2707,379.0598
"3627",76.226746,379.07315
"3628",76.23895,379.0865
"3629",76.39521,379.09982
"3630",76.807816,379.11316
"3631",77.58419,379.1265
"3632",78.77318,379.13983
"3633",80.33082,379.15317
"3634",82.108185,379.1665
"3635",83.90021,379.17984
"3636",85.47982,379.19318
"3637",86.68345,379.2065
"3638",87.44274,379.21985
"3639",87.767456,379.2332
"3640",87.7235,379.24652
"3641",87.41833,379.25986
"3642",86.94469,379.2732
"3643",86.3856,379.28653
"3644",85.79233,379.29987
"3645",85.189285,379.3132
"3646",84.58137,379.32654
"3647",83.97345,379.33987
"3648",83.36553,379.3532
"3649",82.77959,379.36655
"3650",82.24002,379.37988
"3651",81.78592,379.39322
"3652",81.449,379.40656
"3653",81.234146,379.4199
"3654",81.12184,379.43323
"3655",81.0901,379.44656
"3656",81.092545,379.4599
"3657",81.08278,379.47324
"3658",81.02907,379.48657
"3659",80.91676,379.4999
"3660",80.73121,379.51324
"3661",80.479744,379.52658
"3662",80.177,379.53992
"3663",79.84009,379.55325
"3664",79.483635,379.5666
"3665",79.12474,379.57993
"3666",78.77318,379.59326
"3667",78.4387,379.6066
"3668",78.12131,379.61993
"3669",77.83078,379.63327
"3670",77.5671,379.6466
"3671",77.330284,379.65994
"3672",77.120316,379.67328
"3673",76.93965,379.6866
"3674",76.77852,379.69995
"3675",76.63691,379.7133
"3676",76.51484,379.72662
"3677",76.4123,379.73996
"3678",76.32929,379.7533
"3679",76.2707,379.76663
"3680",76.23407,379.77997
"3681",76.209656,379.7933
"3682",76.19501,379.80664
"3683",76.18524,379.81998
"3684",76.173035,379.8333
"3685",76.15106,379.84665
"3686",76.11444,379.86
"3687",76.06561,379.87332
"3688",76.00458,379.88666
"3689",75.9411,379.9
"3690",75.897156,379.91333
"3691",75.92645,379.92667
"3692",76.12421,379.94
"3693",76.60761,379.95334
"3694",77.47677,379.96667
"3695",78.76341,379.98
"3696",80.413826,379.99335
"3697",82.262,380.00668
"3698",84.08087,380.02002
"3699",85.65804,380.03336
"3700",86.83971,380.0467
"3701",87.56481,380.06003
"3702",87.84314,380.07336
"3703",87.75525,380.0867
"3704",87.40612,380.10004
"3705",86.89342,380.11337
"3706",86.29771,380.1267
"3707",85.66781,380.14005
"3708",85.033035,380.15338
"3709",84.39582,380.16672
"3710",83.76105,380.18005
"3711",83.140915,380.1934
"3712",82.55741,380.20673
"3713",82.04227,380.22006
"3714",81.62478,380.2334
"3715",81.322044,380.24673
"3716",81.13161,380.26007
"3717",81.03639,380.2734
"3718",80.99489,380.28674
"3719",80.972916,380.30008
"3720",80.92897,380.31342
"3721",80.84108,380.32675
"3722",80.69459,380.3401
"3723",80.48707,380.35342
"3724",80.22583,380.36676
"3725",79.92798,380.3801
"3726",79.59838,380.39343
"3727",79.25414,380.40677
"3728",78.90257,380.4201
"3729",78.55833,380.43344
"3730",78.23361,380.44678
"3731",77.93088,380.4601
"3732",77.65743,380.47345
"3733",77.41085,380.4868
"3734",77.19112,380.50012
"3735",76.995804,380.51346
"3736",76.822464,380.5268
"3737",76.67353,380.54013
"3738",76.544136,380.55347
"3739",76.43427,380.5668
"3740",76.34394,380.58014
"3741",76.27558,380.59348
"3742",76.224304,380.6068
"3743",76.18524,380.62015
"3744",76.155945,380.63348
"3745",76.12665,380.64682
"3746",76.09247,380.66016
"3747",76.04852,380.6735
"3748",75.99481,380.68683
"3749",75.93622,380.70016
"3750",75.87518,380.7135
"3751",75.83856,380.72684
"3752",75.894714,380.74017
"3753",76.13153,380.7535
"3754",76.67109,380.76685
"3755",77.60372,380.78018
"3756",78.958725,380.79352
"3757",80.65308,380.80685
"3758",82.51835,380.8202
"3759",84.32502,380.83353
"3760",85.858246,380.84686
"3761",86.976425,380.8602
"3762",87.62829,380.87354
"3763",87.8407,380.88687
"3764",87.70397,380.9002
"3765",87.32067,380.91354
"3766",86.79576,380.92688
"3767",86.19516,380.94022
"3768",85.56039,380.95355
"3769",84.91585,380.9669
"3770",84.26154,380.98022
"3771",83.60967,380.99356
"3772",82.9749,381.0069
"3773",82.391396,381.02023
"3774",81.89334,381.03357
"3775",81.514915,381.0469
"3776",81.26345,381.06024
"3777",81.13405,381.07358
"3778",81.092545,381.0869
"3779",81.092545,381.10025
"3780",81.08766,381.1136
"3781",81.041275,381.12692
"3782",80.92653,381.14026
"3783",80.743416,381.1536
"3784",80.49195,381.16693
"3785",80.19409,381.18027
"3786",79.85962,381.1936
"3787",79.50805,381.20694
"3788",79.151596,381.22028
"3789",78.80003,381.2336
"3790",78.45823,381.24695
"3791",78.12863,381.26028
"3792",77.8259,381.27362
"3793",77.55245,381.28696
"3794",77.30831,381.3003
"3795",77.0959,381.31363
"3796",76.912796,381.32697
"3797",76.75899,381.3403
"3798",76.627144,381.35364
"3799",76.52216,381.36697
"3800",76.44404,381.3803
"3801",76.37812,381.39365
"3802",76.32441,381.40698
"3803",76.27314,381.42032
"3804",76.21942,381.43365
"3805",76.16571,381.447
"3806",76.10956,381.46033
"3807",76.06073,381.47366
"3808",76.019226,381.487
"3809",75.999695,381.50034
"3810",76.04608,381.51367
"3811",76.25361,381.527
"3812",76.72724,381.54034
"3813",77.56954,381.55368
"3814",78.82201,381.56702
"3815",80.44068,381.58035
"3816",82.27177,381.5937
"3817",84.09796,381.60703
"3818",85.70443,381.62036
"3819",86.93248,381.6337
"3820",87.711296,381.64703
"3821",88.04578,381.66037
"3822",88.01404,381.6737
"3823",87.711296,381.68704
"3824",87.23277,381.70038
"3825",86.65415,381.7137
"3826",86.031586,381.72705
"3827",85.37972,381.7404
"3828",84.70832,381.75372
"3829",84.0296,381.76706
"3830",83.36065,381.7804
"3831",82.73319,381.79373
"3832",82.19119,381.80707
"3833",81.77127,381.8204
"3834",81.4905,381.83374
"3835",81.32693,381.84708
"3836",81.253685,381.8604
"3837",81.22438,381.87375
"3838",81.19264,381.8871
"3839",81.11452,381.90042
"3840",80.98024,381.91376
"3841",80.780045,381.9271
"3842",80.51148,381.94043
"3843",80.18921,381.95377
"3844",79.83032,381.9671
"3845",79.447014,381.98044
"3846",79.05882,381.99377
"3847",78.677956,382.0071
"3848",78.311745,382.02045
"3849",77.96994,382.03378
"3850",77.65255,382.04712
"3851",77.35714,382.06046
"3852",77.086136,382.0738
"3853",76.84932,382.08713
"3854",76.63935,382.10046
"3855",76.45869,382.1138
"3856",76.30732,382.12714
"3857",76.18524,382.14047
"3858",76.085144,382.1538
"3859",76.0119,382.16714
"3860",75.95575,382.18048
"3861",75.91669,382.19382
"3862",75.894714,382.20715
"3863",75.8703,382.2205
"3864",75.83856,382.23383
"3865",75.79706,382.24716
"3866",75.74578,382.2605
"3867",75.68963,382.27383
"3868",75.63348,382.28717
"3869",75.60174,382.3005
"3870",75.64324,382.31384
"3871",75.862976,382.32718
"3872",76.38056,382.3405
"3873",77.30587,382.35385
"3874",78.68772,382.3672
"3875",80.46998,382.38052
"3876",82.4744,382.39386
"3877",84.46906,382.4072
"3878",86.21225,382.42053
"3879",87.53796,382.43387
"3880",88.360725,382.4472
"3881",88.71229,382.46054
"3882",88.67811,382.47388
"3883",88.36805,382.4872
"3884",87.88953,382.50055
"3885",87.325554,382.5139
"3886",86.71519,382.52722
"3887",86.07309,382.54056
"3888",85.401695,382.5539
"3889",84.70832,382.56723
"3890",84.01007,382.58057
"3891",83.34112,382.5939
"3892",82.75517,382.60724
"3893",82.28397,382.62057
"3894",81.951935,382.6339
"3895",81.74685,382.64725
"3896",81.63943,382.66058
"3897",81.57595,382.67392
"3898",81.50759,382.68726
"3899",81.39529,382.7006
"3900",81.2195,382.71393
"3901",80.97536,382.72726
"3902",80.66285,382.7406
"3903",80.30152,382.75394
"3904",79.903564,382.76727
"3905",79.48608,382.7806
"3906",79.061264,382.79395
"3907",78.64622,382.80728
"3908",78.25071,382.82062
"3909",77.88205,382.83395
"3910",77.54269,382.8473
"3911",77.23018,382.86063
"3912",76.944534,382.87396
"3913",76.6833,382.8873
"3914",76.44648,382.90063
"3915",76.23651,382.91397
"3916",76.05585,382.9273
"3917",75.90692,382.94064
"3918",75.792175,382.95398
"3919",75.70428,382.96732
"3920",75.6408,382.98065
"3921",75.59441,382.994
"3922",75.56756,383.00732
"3923",75.54803,383.02066
"3924",75.53338,383.034
"3925",75.51629,383.04733
"3926",75.48455,383.06067
"3927",75.440605,383.074
"3928",75.38201,383.08734
"3929",75.31365,383.10068
"3930",75.2404,383.114
"3931",75.174484,383.12735
"3932",75.140305,383.1407
"3933",75.20622,383.15402
"3934",75.48943,383.16736
"3935",76.12665,383.1807
"3936",77.22041,383.19403
"3937",78.78783,383.20737
"3938",80.73853,383.2207
"3939",82.86748,383.23404
"3940",84.928055,383.24738
"3941",86.676125,383.2607
"3942",87.96033,383.27405
"3943",88.73426,383.28738
"3944",89.039444,383.30072
"3945",88.971085,383.31406
"3946",88.639046,383.3274
"3947",88.145874,383.34073
"3948",87.56481,383.35406
"3949",86.9276,383.3674
"3950",86.25132,383.38074
"3951",85.53597,383.39407
"3952",84.79622,383.4074
"3953",84.0589,383.42075
"3954",83.370415,383.43408
"3955",82.777145,383.44742
"3956",82.320595,383.46075
"3957",82.00809,383.4741
"3958",81.82498,383.48743
"3959",81.7322,383.50076
"3960",81.671165,383.5141
"3961",81.59548,383.52744
"3962",81.46853,383.54077
"3963",81.26345,383.5541
"3964",80.98024,383.56744
"3965",80.62867,383.58078
"3966",80.22095,383.59412
"3967",79.77905,383.60745
"3968",79.32494,383.6208
"3969",78.87572,383.63412
"3970",78.44358,383.64746
"3971",78.04074,383.6608
"3972",77.6672,383.67413
"3973",77.3254,383.68747
"3974",77.00801,383.7008
"3975",76.71992,383.71414
"3976",76.456245,383.72748
"3977",76.21942,383.7408
"3978",76.0119,383.75415
"3979",75.841,383.7675
"3980",75.70428,383.78082
"3981",75.596855,383.79416
"3982",75.51873,383.8075
"3983",75.46258,383.82083
"3984",75.42596,383.83417
"3985",75.40154,383.8475
"3986",75.38201,383.86084
"3987",75.36248,383.87418
"3988",75.338066,383.8875
"3989",75.301445,383.90085
"3990",75.25262,383.91418
"3991",75.194016,383.92752
"3992",75.1281,383.94086
"3993",75.06462,383.9542
"3994",75.01091,383.96753
"3995",75.001144,383.98087
"3996",75.11589,383.9942
"3997",75.46746,384.00754
"3998",76.190125,384.02087
"3999",77.37667,384.0342
"4000",79.029526,384.04755
"4001",81.03639,384.06088
"4002",83.18974,384.07422
"4003",85.23323,384.08755
"4004",86.939804,384.1009
"4005",88.17517,384.11423
"4006",88.89784,384.12756
"4007",89.163956,384.1409
"4008",89.0663,384.15424
"4009",88.72938,384.16757
"4010",88.24109,384.1809
"4011",87.66979,384.19424
"4012",87.04234,384.20758
"4013",86.36851,384.22092
"4014",85.65072,384.23425
"4015",84.910965,384.2476
"4016",84.173645,384.26093
"4017",83.49004,384.27426
"4018",82.90898,384.2876
"4019",82.47196,384.30093
"4020",82.176544,384.31427
"4021",82.005646,384.3276
"4022",81.91287,384.34094
"4023",81.84207,384.35428
"4024",81.74197,384.3676
"4025",81.58572,384.38095
"4026",81.35378,384.3943
"4027",81.041275,384.40762
"4028",80.66529,384.42096
"4029",80.235596,384.4343
"4030",79.77417,384.44763
"4031",79.30297,384.46097
"4032",78.83421,384.4743
"4033",78.38987,384.48764
"4034",77.977264,384.50098
"4035",77.593956,384.5143
"4036",77.242386,384.52765
"4037",76.925,384.541
"4038",76.63935,384.55432
"4039",76.38056,384.56766
"4040",76.1535,384.581
"4041",75.95575,384.59433
"4042",75.789734,384.60767
"4043",75.650566,384.621
"4044",75.543144,384.63434
"4045",75.4699,384.64767
"4046",75.421074,384.661
"4047",75.39178,384.67435
"4048",75.37469,384.68768
"4049",75.3576,384.70102
"4050",75.33074,384.71436
"4051",75.29412,384.7277
"4052",75.2404,384.74103
"4053",75.174484,384.75436
"4054",75.09636,384.7677
"4055",75.01091,384.78104
"4056",74.92546,384.79437
"4057",74.86687,384.8077
"4058",74.88884,384.82104
"4059",75.10124,384.83438
"4060",75.62371,384.84772
"4061",76.578316,384.86105
"4062",78.00656,384.8744
"4063",79.85718,384.88773
"4064",81.96658,384.90106
"4065",84.1004,384.9144
"4066",86.02182,384.92773
"4067",87.54528,384.94107
"4068",88.57801,384.9544
"4069",89.12245,384.96774
"4070",89.254295,384.98108
"4071",89.07118,384.99442
"4072",88.68543,385.00775
"4073",88.17761,385.0211
"4074",87.59167,385.03442
"4075",86.94713,385.04776
"4076",86.24155,385.0611
"4077",85.48226,385.07443
"4078",84.698555,385.08777
"4079",83.93927,385.1011
"4080",83.26299,385.11444
"4081",82.718544,385.12778
"4082",82.3328,385.1411
"4083",82.091095,385.15445
"4084",81.95438,385.1678
"4085",81.866486,385.18112
"4086",81.77615,385.19446
"4087",81.63943,385.2078
"4088",81.42947,385.22113
"4089",81.13893,385.23447
"4090",80.7776,385.2478
"4091",80.35523,385.26114
"4092",79.89136,385.27448
"4093",79.41039,385.2878
"4094",78.924545,385.30115
"4095",78.45335,385.31448
"4096",78.00656,385.32782
"4097",77.58907,385.34116
"4098",77.208206,385.3545
"4099",76.86397,385.36783
"4100",76.5539,385.38116
"4101",76.27314,385.3945
"4102",76.02655,385.40784
"4103",75.80682,385.42117
"4104",75.613945,385.4345
"4105",75.45037,385.44785
"4106",75.31365,385.46118
"4107",75.20622,385.47452
"4108",75.1281,385.48785
"4109",75.07439,385.5012
"4110",75.04753,385.51453
"4111",75.037766,385.52786
"4112",75.02556,385.5412
"4113",75.00847,385.55453
"4114",74.98161,385.56787
"4115",74.93767,385.5812
"4116",74.879074,385.59454
"4117",74.810715,385.60788
"4118",74.73014,385.62122
"4119",74.64469,385.63455
"4120",74.56901,385.6479
"4121",74.52262,385.66122
"4122",74.57145,385.67456
"4123",74.81804,385.6879
"4124",75.39422,385.70123
"4125",76.419624,385.71457
"4126",77.943085,385.7279
"4127",79.90112,385.74124
"4128",82.11795,385.75458
"4129",84.33967,385.7679
"4130",86.312355,385.78125
"4131",87.850464,385.7946
"4132",88.87587,385.80792
"4133",89.39834,385.82126
"4134",89.50576,385.8346
"4135",89.30801,385.84793
"4136",88.91493,385.86127
"4137",88.39979,385.8746
"4138",87.80652,385.88794
"4139",87.15221,385.90128
"4140",86.43931,385.9146
"4141",85.66537,385.92795
"4142",84.859695,385.94128
"4143",84.06378,385.95462
"4144",83.336235,385.96796
"4145",82.73075,385.9813
"4146",82.286415,385.99463
"4147",82.00076,386.00797
"4148",81.83475,386.0213
"4149",81.739525,386.03464
"4150",81.64675,386.04797
"4151",81.51003,386.0613
"4152",81.30007,386.07465
"4153",81.007095,386.08798
"4154",80.63355,386.10132
"4155",80.19653,386.11465
"4156",79.72045,386.128
"4157",79.2224,386.14133
"4158",78.72434,386.15466
"4159",78.24338,386.168
"4160",77.786835,386.18134
"4161",77.36202,386.19467
"4162",76.97139,386.208
"4163",76.61494,386.22134
"4164",76.29023,386.23468
"4165",75.999695,386.24802
"4166",75.74334,386.26135
"4167",75.51873,386.2747
"4168",75.32586,386.28802
"4169",75.16228,386.30136
"4170",75.03044,386.3147
"4171",74.92058,386.32803
"4172",74.83269,386.34137
"4173",74.76433,386.3547
"4174",74.71061,386.36804
"4175",74.669106,386.38138
"4176",74.63737,386.3947
"4177",74.617836,386.40805
"4178",74.60563,386.4214
"4179",74.600746,386.43472
"4180",74.598305,386.44806
"4181",74.59342,386.4614
"4182",74.57633,386.47473
"4183",74.547035,386.48807
"4184",74.49821,386.5014
"4185",74.43961,386.51474
"4186",74.36881,386.52808
"4187",74.302895,386.5414
"4188",74.26139,386.55475
"4189",74.29801,386.56808
"4190",74.50797,386.58142
"4191",75.028,386.59476
"4192",75.98993,386.6081
"4193",77.46456,386.62143
"4194",79.41039,386.63477
"4195",81.671165,386.6481
"4196",83.99054,386.66144
"4197",86.10483,386.67477
"4198",87.80408,386.6881
"4199",88.98085,386.70145
"4200",89.63271,386.71478
"4201",89.8378,386.72812
"4202",89.71084,386.74146
"4203",89.36904,386.7548
"4204",88.89296,386.76813
"4205",88.33387,386.78146
"4206",87.711296,386.7948
"4207",87.02281,386.80814
"4208",86.26841,386.82147
"4209",85.46761,386.8348
"4210",84.65705,386.84814
"4211",83.89044,386.86148
"4212",83.23125,386.87482
"4213",82.718544,386.88815
"4214",82.35966,386.9015
"4215",82.1326,386.91483
"4216",81.99344,386.92816
"4217",81.88846,386.9415
"4218",81.761505,386.95483
"4219",81.57107,386.96817
"4220",81.304955,386.9815
"4221",80.955826,386.99484
"4222",80.5359,387.00818
"4223",80.059814,387.0215
"4224",79.55688,387.03485
"4225",79.04173,387.0482
"4226",78.538795,387.06152
"4227",78.06027,387.07486
"4228",77.61349,387.0882
"4229",77.205765,387.10153
"4230",76.83223,387.11487
"4231",76.49287,387.1282
"4232",76.18524,387.14154
"4233",75.911804,387.15488
"4234",75.66277,387.1682
"4235",75.44305,387.18155
"4236",75.25994,387.1949
"4237",75.106125,387.20822
"4238",74.97917,387.22156
"4239",74.87419,387.2349
"4240",74.7863,387.24823
"4241",74.71061,387.26157
"4242",74.64225,387.2749
"4243",74.5861,387.28824
"4244",74.53727,387.30157
"4245",74.50309,387.3149
"4246",74.48112,387.32825
"4247",74.47135,387.34158
"4248",74.46647,387.35492
"4249",74.46647,387.36826
"4250",74.46403,387.3816
"4251",74.44938,387.39493
"4252",74.42252,387.40826
"4253",74.38834,387.4216
"4254",74.3444,387.43494
"4255",74.29557,387.44827
"4256",74.251625,387.4616
"4257",74.229645,387.47495
"4258",74.26383,387.48828
"4259",74.444496,387.50162
"4260",74.89372,387.51495
"4261",75.73846,387.5283
"4262",77.06416,387.54163
"4263",78.85863,387.55496
"4264",81.00221,387.5683
"4265",83.26299,387.58163
"4266",85.38705,387.59497
"4267",87.15465,387.6083
"4268",88.43641,387.62164
"4269",89.20058,387.63498
"4270",89.50332,387.64832
"4271",89.45205,387.66165
"4272",89.15907,387.675
"4273",88.71717,387.68832
"4274",88.19226,387.70166
"4275",87.60876,387.715
"4276",86.96666,387.72833
"4277",86.26841,387.74167
"4278",85.523766,387.755
"4279",84.75716,387.76834
"4280",84.01984,387.78168
"4281",83.36797,387.795
"4282",82.84306,387.80835
"4283",82.4622,387.8217
"4284",82.21805,387.83502
"4285",82.0618,387.84836
"4286",81.94461,387.8617
"4287",81.81766,387.87503
"4288",81.64187,387.88837
"4289",81.392845,387.9017
"4290",81.07057,387.91504
"4291",80.68238,387.92838
"4292",80.25025,387.9417
"4293",79.783936,387.95505
"4294",79.310295,387.96838
"4295",78.84154,387.98172
"4296",78.39231,387.99506
"4297",77.9675,388.0084
"4298",77.57198,388.02173
"4299",77.21065,388.03506
"4300",76.88106,388.0484
"4301",76.58808,388.06174
"4302",76.32685,388.07507
"4303",76.102234,388.0884
"4304",75.914246,388.10175
"4305",75.755554,388.11508
"4306",75.62127,388.12842
"4307",75.508965,388.14175
"4308",75.41375,388.1551
"4309",75.33318,388.16843
"4310",75.264824,388.18176
"4311",75.211105,388.1951
"4312",75.16716,388.20844
"4313",75.13298,388.22177
"4314",75.10124,388.2351
"4315",75.07683,388.24844
"4316",75.0573,388.26178
"4317",75.04265,388.27512
"4318",75.03044,388.28845
"4319",75.01335,388.3018
"4320",74.98894,388.31512
"4321",74.95476,388.32846
"4322",74.915695,388.3418
"4323",74.87419,388.35513
"4324",74.83757,388.36847
"4325",74.810715,388.3818
"4326",74.82536,388.39514
"4327",74.94499,388.40848
"4328",75.27947,388.4218
"4329",75.95575,388.43515
"4330",77.07881,388.4485
"4331",78.66819,388.46182
"4332",80.638435,388.47516
"4333",82.80156,388.4885
"4334",84.92073,388.50183
"4335",86.76158,388.51517
"4336",88.16785,388.5285
"4337",89.07851,388.54184
"4338",89.51797,388.55518
"4339",89.57656,388.5685
"4340",89.35439,388.58185
"4341",88.95155,388.59518
"4342",88.446175,388.60852
"4343",87.87244,388.62186
"4344",87.2401,388.6352
"4345",86.55161,388.64853
"4346",85.8143,388.66187
"4347",85.04524,388.6752
"4348",84.281075,388.68854
"4349",83.577934,388.70187
"4350",82.99199,388.7152
"4351",82.55009,388.72855
"4352",82.262,388.74188
"4353",82.09842,388.75522
"4354",82.01297,388.76855
"4355",81.94705,388.7819
"4356",81.849396,388.79523
"4357",81.6907,388.80856
"4358",81.446556,388.8219
"4359",81.12184,388.83524
"4360",80.73365,388.84857
"4361",80.29908,388.8619
"4362",79.835205,388.87524
"4363",79.361565,388.88858
"4364",78.89525,388.90192
"4365",78.450905,388.91525
"4366",78.0383,388.9286
"4367",77.659874,388.94193
"4368",77.32052,388.95526
"4369",77.01045,388.9686
"4370",76.72968,388.98193
"4371",76.473335,388.99527
"4372",76.25117,389.0086
"4373",76.05585,389.02194
"4374",75.89227,389.03528
"4375",75.76288,389.0486
"4376",75.65545,389.06195
"4377",75.57244,389.0753
"4378",75.50652,389.08862
"4379",75.46502,389.10196
"4380",75.43572,389.1153
"4381",75.41863,389.12863
"4382",75.41131,389.14197
"4383",75.41131,389.1553
"4384",75.40887,389.16864
"4385",75.40887,389.18198
"4386",75.403984,389.1953
"4387",75.39422,389.20865
"4388",75.37469,389.222
"4389",75.34539,389.23532
"4390",75.30389,389.24866
"4391",75.25994,389.262
"4392",75.208664,389.27533
"4393",75.16472,389.28867
"4394",75.157394,389.302
"4395",75.267265,389.31534
"4396",75.60662,389.32867
"4397",76.299995,389.342
"4398",77.454796,389.35535
"4399",79.08568,389.36868
"4400",81.109634,389.38202
"4401",83.32647,389.39536
"4402",85.47982,389.4087
"4403",87.33532,389.42203
"4404",88.73426,389.43536
"4405",89.62051,389.4487
"4406",90.02579,389.46204
"4407",90.04532,389.47537
"4408",89.78897,389.4887
"4409",89.36416,389.50204
"4410",88.83681,389.51538
"4411",88.25086,389.52872
"4412",87.61364,389.54205
"4413",86.93004,389.5554
"4414",86.19272,389.56873
"4415",85.42367,389.58206
"4416",84.65949,389.5954
"4417",83.966125,389.60873
"4418",83.39239,389.62207
"4419",82.967575,389.6354
"4420",82.686806,389.64874
"4421",82.51835,389.66208
"4422",82.41825,389.6754
"4423",82.33036,389.68875
"4424",82.213165,389.7021
"4425",82.037384,389.71542
"4426",81.7908,389.72876
"4427",81.46853,389.7421
"4428",81.077896,389.75543
"4429",80.638435,389.76877
"4430",80.16968,389.7821
"4431",79.68627,389.79544
"4432",79.20531,389.80878
"4433",78.74387,389.8221
"4434",78.311745,389.83545
"4435",77.91379,389.8488
"4436",77.55001,389.86212
"4437",77.22774,389.87546
"4438",76.93477,389.8888
"4439",76.67353,389.90213
"4440",76.436714,389.91547
"4441",76.22919,389.9288
"4442",76.050964,389.94214
"4443",75.90204,389.95547
"4444",75.775085,389.9688
"4445",75.67254,389.98215
"4446",75.59197,389.99548
"4447",75.526054,390.00882
"4448",75.474785,390.02216
"4449",75.440605,390.0355
"4450",75.41863,390.04883
"4451",75.406425,390.06216
"4452",75.3991,390.0755
"4453",75.389336,390.08884
"4454",75.37713,390.10217
"4455",75.36248,390.1155
"4456",75.34295,390.12885
"4457",75.31609,390.14218
"4458",75.28191,390.15552
"4459",75.23308,390.16885
"4460",75.174484,390.1822
"4461",75.11101,390.19553
"4462",75.0573,390.20886
"4463",75.03288,390.2222
"4464",75.0988,390.23553
"4465",75.355156,390.24887
"4466",75.93622,390.2622
"4467",76.961624,390.27554
"4468",78.487526,390.28888
"4469",80.46021,390.30222
"4470",82.7161,390.31555
"4471",85.00374,390.3289
"4472",87.0692,390.34222
"4473",88.71961,390.35556
"4474",89.85245,390.3689
"4475",90.47257,390.38223
"4476",90.65324,390.39557
"4477",90.50187,390.4089
"4478",90.125885,390.42224
"4479",89.62051,390.43558
"4480",89.03212,390.4489
"4481",88.39002,390.46225
"4482",87.68932,390.4756
"4483",86.93492,390.48892
"4484",86.134125,390.50226
"4485",85.32601,390.5156
"4486",84.55695,390.52893
"4487",83.88312,390.54227
"4488",83.353325,390.5556
"4489",82.984665,390.56894
"4490",82.74784,390.58228
"4491",82.61112,390.5956
"4492",82.52079,390.60895
"4493",82.41581,390.62228
"4494",82.262,390.63562
"4495",82.03494,390.64896
"4496",81.72732,390.6623
"4497",81.339134,390.67563
"4498",80.88991,390.68896
"4499",80.39918,390.7023
"4500",79.88403,390.71564
"4501",79.36889,390.72897
"4502",78.870834,390.7423
"4503",78.40452,390.75565
"4504",77.96994,390.76898
"4505",77.574425,390.78232
"4506",77.21309,390.79565
"4507",76.89082,390.809
"4508",76.60273,390.82233
"4509",76.34638,390.83566
"4510",76.12665,390.849
"4511",75.9411,390.86234
"4512",75.77753,390.87567
"4513",75.6408,390.889
"4514",75.528496,390.90234
"4515",75.44549,390.91568
"4516",75.38445,390.92902
