"","ppg","time"
"1",78.67063,40.78877
"2",78.71702,40.802097
"3",78.73899,40.815434
"4",78.70481,40.82877
"5",78.60227,40.842106
"6",78.42405,40.855442
"7",78.17502,40.86877
"8",77.86496,40.882107
"9",77.50851,40.895443
"10",77.11543,40.90877
"11",76.697945,40.922108
"12",76.27558,40.935444
"13",75.8703,40.94878
"14",75.4992,40.962116
"15",75.16716,40.975445
"16",74.88884,40.98878
"17",74.65934,41.002117
"18",74.46891,41.015446
"19",74.3151,41.02878
"20",74.19302,41.042118
"21",74.09537,41.055454
"22",74.019684,41.06879
"23",73.95865,41.08212
"24",73.92935,41.095455
"25",73.99771,41.10879
"26",74.30045,41.12212
"27",75.02556,41.135456
"28",76.334175,41.148792
"29",78.27024,41.16213
"30",80.73609,41.175465
"31",83.475395,41.188793
"32",86.16098,41.20213
"33",88.46815,41.215466
"34",90.16983,41.228794
"35",91.17082,41.24213
"36",91.48089,41.255466
"37",91.192795,41.268803
"38",90.443275,41.28214
"39",89.38613,41.295467
"40",88.16785,41.308804
"41",86.8983,41.32214
"42",85.63607,41.33547
"43",84.41779,41.348804
"44",83.2752,41.36214
"45",82.23514,41.375477
"46",81.33669,41.388813
"47",80.62379,41.40214
"48",80.13306,41.415478
"49",79.8645,41.428814
"50",79.79614,41.442142
"51",79.869385,41.45548
"52",80.01343,41.468815
"53",80.15991,41.48215
"54",80.24536,41.495487
"55",80.23071,41.508816
"56",80.096436,41.522152
"57",79.85474,41.53549
"58",79.52514,41.548817
"59",79.13451,41.562153
"60",78.70725,41.57549
"61",78.26292,41.588825
"62",77.821014,41.60216
"63",77.39132,41.61549
"64",76.998245,41.628826
"65",76.63691,41.642162
"66",76.30976,41.65549
"67",76.00702,41.668827
"68",75.71404,41.682163
"69",75.4284,41.6955
"70",75.157394,41.708836
"71",74.94743,41.722164
"72",74.898605,41.7355
"73",75.18181,41.748837
"74",75.98505,41.762165
"75",77.42794,41.7755
"76",79.500725,41.788837
"77",82.0325,41.802174
"78",84.72541,41.81551
"79",87.22789,41.82884
"80",89.2372,41.842175
"81",90.582436,41.85551
"82",91.21721,41.86884
"83",91.19035,41.882175
"84",90.62394,41.89551
"85",89.669334,41.908848
"86",88.47791,41.922184
"87",87.17662,41.935513
"88",85.84604,41.94885
"89",84.53986,41.962185
"90",83.29229,41.975513
"91",82.1326,41.98885
"92",81.10231,42.002186
"93",80.255135,42.015522
"94",79.62768,42.02886
"95",79.234604,42.042187
"96",79.06615,42.055523
"97",79.07347,42.06886
"98",79.18822,42.082188
"99",79.344475,42.095524
"100",79.47143,42.10886
"101",79.51537,42.122196
"102",79.43969,42.135532
"103",79.23216,42.14886
"104",78.907455,42.162197
"105",78.487526,42.175533
"106",78.00656,42.18886
"107",77.49874,42.202198
"108",76.99092,42.215534
"109",76.50019,42.22887
"110",76.03876,42.242207
"111",75.60418,42.255535
"112",75.20134,42.26887
"113",74.83269,42.282207
"114",74.49821,42.295536
"115",74.212555,42.308872
"116",74.03189,42.32221
"117",74.0856,42.335545
"118",74.57145,42.34888
"119",75.69207,42.36221
"120",77.54513,42.375546
"121",80.08179,42.38888
"122",83.070114,42.40221
"123",86.134125,42.415546
"124",88.86366,42.428883
"125",90.95598,42.44222
"126",92.26215,42.455555
"127",92.76753,42.468884
"128",92.56489,42.48222
"129",91.83734,42.495556
"130",90.76555,42.508884
"131",89.51064,42.52222
"132",88.19714,42.535557
"133",86.8983,42.548893
"134",85.64828,42.56223
"135",84.44709,42.575558
"136",83.28741,42.588894
"137",82.178986,42.60223
"138",81.180435,42.61556
"139",80.35767,42.628895
"140",79.766846,42.64223
"141",79.42748,42.655567
"142",79.31518,42.668903
"143",79.34936,42.68223
"144",79.43725,42.695568
"145",79.49584,42.708904
"146",79.47631,42.722233
"147",79.35912,42.73557
"148",79.132065,42.748905
"149",78.802475,42.76224
"150",78.399635,42.775578
"151",77.945526,42.788906
"152",77.46456,42.802242
"153",76.97139,42.81558
"154",76.490425,42.828907
"155",76.02411,42.842243
"156",75.58221,42.85558
"157",75.17204,42.868916
"158",74.79851,42.88225
"159",74.459145,42.89558
"160",74.1857,42.908916
"161",74.08316,42.922253
"162",74.32731,42.93558
"163",75.125656,42.948917
"164",76.6247,42.962254
"165",78.81712,42.97559
"166",81.52712,42.988926
"167",84.42756,43.002254
"168",87.14244,43.01559
"169",89.342186,43.028927
"170",90.83147,43.042255
"171",91.54925,43.05559
"172",91.55657,43.068928
"173",90.98039,43.082264
"174",89.99405,43.0956
"175",88.76601,43.10893
"176",87.4403,43.122265
"177",86.11215,43.1356
"178",84.842606,43.14893
"179",83.63409,43.162266
"180",82.48905,43.175602
"181",81.41482,43.18894
"182",80.45289,43.202274
"183",79.639885,43.215603
"184",79.012436,43.22894
"185",78.57542,43.242275
"186",78.311745,43.255604
"187",78.167694,43.26894
"188",78.082245,43.282276
"189",78.00656,43.295612
"190",77.89914,43.30895
"191",77.72579,43.322277
"192",77.467,43.335613
"193",77.11543,43.34895
"194",76.67597,43.362278
"195",76.16571,43.375614
"196",75.62859,43.38895
"197",75.10368,43.402287
"198",74.60563,43.415623
"199",74.12955,43.42895
"200",73.67544,43.442287
"201",73.23598,43.455624
"202",72.813614,43.468952
"203",72.43275,43.48229
"204",72.130005,43.495625
"205",71.92981,43.50896
"206",71.88098,43.522297
"207",72.10071,43.535625
"208",72.77699,43.54896
"209",74.10025,43.562298
"210",76.175476,43.575626
"211",78.9514,43.588963
"212",82.18387,43.6023
"213",85.487144,43.615635
"214",88.44373,43.628963
"215",90.72648,43.642292
"216",92.16693,43.65563
"217",92.76021,43.668964
"218",92.60639,43.682293
"219",91.88861,43.69562
"220",90.79729,43.708958
"221",89.5082,43.722294
"222",88.145874,43.735622
"223",86.785995,43.74895
"224",85.46273,43.762287
"225",84.19318,43.775623
"226",82.99931,43.78895
"227",81.91531,43.80228
"228",80.98024,43.815617
"229",80.235596,43.828953
"230",79.70336,43.84228
"231",79.378654,43.85561
"232",79.22972,43.868946
"233",79.19554,43.882282
"234",79.21019,43.89561
"235",79.1931,43.90894
"236",79.08812,43.922276
"237",78.86595,43.93561
"238",78.519264,43.94894
"239",78.065155,43.96227
"240",77.5256,43.975605
"241",76.927444,43.98894
"242",76.30244,44.00227
"243",75.67742,44.0156
"244",75.07927,44.028934
"245",74.527504,44.04227
"246",74.03677,44.0556
"247",73.599754,44.068928
"248",73.214005,44.082264
"249",72.87465,44.0956
"250",72.589,44.10893
"251",72.36439,44.122257
"252",72.24963,44.135593
"253",72.36683,44.14893
"254",72.91127,44.16226
"255",74.073395,44.175587
"256",75.96796,44.188923
"257",78.54368,44.20226
"258",81.57351,44.215588
"259",84.68879,44.228916
"260",87.47692,44.242252
"261",89.618065,44.25559
"262",90.95354,44.268917
"263",91.458916,44.282246
"264",91.23186,44.29558
"265",90.4506,44.308918
"266",89.30801,44.322247
"267",87.97742,44.335575
"268",86.588234,44.34891
"269",85.21858,44.362247
"270",83.90753,44.375576
"271",82.667274,44.388905
"272",81.5198,44.40224
"273",80.50416,44.415577
"274",79.65942,44.428905
"275",79.0222,44.442234
"276",78.607155,44.45557
"277",78.40208,44.468906
"278",78.36057,44.482235
"279",78.41428,44.495564
"280",78.48997,44.5089
"281",78.519264,44.522236
"282",78.450905,44.535564
"283",78.260475,44.548893
"284",77.94797,44.56223
"285",77.53048,44.575565
"286",77.02998,44.588894
"287",76.48798,44.602222
"288",75.93622,44.61556
"289",75.3991,44.628895
"290",74.90349,44.642223
"291",74.461586,44.655552
"292",74.07828,44.668888
"293",73.75113,44.682224
"294",73.4728,44.695553
"295",73.231094,44.70888
"296",73.023575,44.722218
"297",72.84291,44.735554
"298",72.69642,44.748882
"299",72.62806,44.76221
"300",72.762344,44.775547
"301",73.287254,44.788883
"302",74.41032,44.80221
"303",76.25361,44.81554
"304",78.7805,44.828876
"305",81.77371,44.842213
"306",84.874344,44.85554
"307",87.66735,44.86887
"308",89.82315,44.882206
"309",91.15373,44.895542
"310",91.63714,44.90887
"311",91.3637,44.9222
"312",90.511635,44.935535
"313",89.28603,44.94887
"314",87.87244,44.9622
"315",86.41001,44.97553
"316",84.979324,44.988865
"317",83.614555,45.0022
"318",82.34745,45.01553
"319",81.20241,45.02886
"320",80.22339,45.042194
"321",79.45922,45.05553
"322",78.94896,45.06886
"323",78.69016,45.082188
"324",78.64866,45.095524
"325",78.75609,45.10886
"326",78.93187,45.12219
"327",79.093,45.135517
"328",79.166245,45.148853
"329",79.11009,45.16219
"330",78.905014,45.175518
"331",78.56321,45.188847
"332",78.11154,45.202183
"333",77.58907,45.21552
"334",77.03731,45.228848
"335",76.48554,45.242176
"336",75.95575,45.255512
"337",75.46502,45.26885
"338",75.01579,45.282177
"339",74.61051,45.295506
"340",74.249176,45.30884
"341",73.92447,45.322178
"342",73.636375,45.335506
"343",73.38735,45.348835
"344",73.20668,45.36217
"345",73.17006,45.375507
"346",73.43862,45.388836
"347",74.20767,45.402164
"348",75.63348,45.4155
"349",77.7551,45.428837
"350",80.4358,45.442165
"351",83.37774,45.455494
"352",86.20004,45.46883
"353",88.53895,45.482166
"354",90.14542,45.495495
"355",90.94133,45.508823
"356",90.965744,45.52216
"357",90.35294,45.535496
"358",89.29336,45.548824
"359",87.96033,45.562153
"360",86.4979,45.57549
"361",84.998856,45.588825
"362",83.51934,45.602154
"363",82.10086,45.615482
"364",80.797134,45.62882
"365",79.674065,45.642155
"366",78.79515,45.655483
"367",78.21164,45.66881
"368",77.93576,45.682148
"369",77.925995,45.695484
"370",78.1091,45.708813
"371",78.38987,45.72214
"372",78.66819,45.735477
"373",78.853745,45.748814
"374",78.89769,45.762142
"375",78.77318,45.77547
"376",78.485085,45.788807
"377",78.065155,45.802143
"378",77.55489,45.81547
"379",76.99092,45.8288
"380",76.40986,45.842136
"381",75.83856,45.855473
"382",75.299,45.8688
"383",74.79851,45.88213
"384",74.34684,45.895466
"385",73.95621,45.908802
"386",73.62173,45.92213
"387",73.37026,45.93546
"388",73.27505,45.948795
"389",73.48989,45.96213
"390",74.21988,45.97546
"391",75.64324,45.98879
"392",77.806366,46.002125
"393",80.584724,46.01546
"394",83.685356,46.02879
"395",86.70786,46.042118
"396",89.25918,46.055454
"397",91.073166,46.06879
"398",92.03754,46.08212
"399",92.191345,46.095448
"400",91.66888,46.108784
"401",90.66056,46.12212
"402",89.359276,46.13545
"403",87.92615,46.148777
"404",86.45884,46.162113
"405",85.013504,46.17545
"406",83.62188,46.188778
"407",82.31327,46.202106
"408",81.12428,46.215443
"409",80.11597,46.22878
"410",79.33959,46.242107
"411",78.839096,46.255436
"412",78.60471,46.268772
"413",78.59983,46.28211
"414",78.74143,46.295437
"415",78.93187,46.308765
"416",79.080795,46.3221
"417",79.114975,46.335438
"418",78.99046,46.348766
"419",78.70481,46.362095
"420",78.28245,46.37543
"421",77.752655,46.388767
"422",77.14961,46.402096
"423",76.51728,46.415424
"424",75.88251,46.42876
"425",75.267265,46.442097
"426",74.69108,46.455425
"427",74.175934,46.468754
"428",73.741356,46.48209
"429",73.43862,46.495426
"430",73.38735,46.508755
"431",73.777985,46.522083
"432",74.80095,46.53542
"433",76.57099,46.548756
"434",79.05394,46.562084
"435",82.022736,46.575413
"436",85.10628,46.58875
"437",87.89441,46.602085
"438",90.04776,46.615414
"439",91.39056,46.628742
"440",91.91058,46.64208
"441",91.717705,46.655415
"442",90.985275,46.668743
"443",89.91348,46.68207
"444",88.66834,46.695408
"445",87.36462,46.708744
"446",86.05844,46.722073
"447",84.76692,46.7354
"448",83.4876,46.748737
"449",82.24002,46.762074
"450",81.06569,46.775402
"451",80.03052,46.78873
"452",79.19798,46.802067
"453",78.61692,46.815403
"454",78.28489,46.82873
"455",78.16281,46.84206
"456",78.17258,46.855396
"457",78.21408,46.868732
"458",78.21164,46.88206
"459",78.101776,46.89539
"460",77.86008,46.908726
"461",77.488976,46.922062
"462",77.00801,46.93539
"463",76.44404,46.94872
"464",75.8288,46.962055
"465",75.191574,46.97539
"466",74.55192,46.98872
"467",73.94156,47.00205
"468",73.38003,47.015385
"469",72.884415,47.02872
"470",72.49622,47.04205
"471",72.31068,47.055378
"472",72.48402,47.068714
"473",73.22865,47.08205
"474",74.71549,47.09538
"475",76.9836,47.108707
"476",79.886475,47.122044
"477",83.09697,47.13538
"478",86.1976,47.14871
"479",88.7831,47.162037
"480",90.59464,47.175373
"481",91.55901,47.18871
"482",91.747,47.202038
"483",91.317314,47.215366
"484",90.48478,47.228703
"485",89.43008,47.24204
"486",88.28504,47.255367
"487",87.115585,47.268696
"488",85.93637,47.282032
"489",84.73029,47.29537
"490",83.49493,47.308697
"491",82.247345,47.322025
"492",81.04616,47.33536
"493",79.9646,47.348698
"494",79.07591,47.362026
"495",78.42649,47.375355
"496",78.013885,47.38869
"497",77.7966,47.402027
"498",77.69894,47.415356
"499",77.63058,47.428684
"500",77.51827,47.44202
"501",77.30099,47.455357
"502",76.96651,47.468685
"503",76.51484,47.482014
"504",75.96796,47.49535
"505",75.36736,47.508686
"506",74.74723,47.522015
"507",74.13931,47.535343
"508",73.568016,47.54868
"509",73.05287,47.562016
"510",72.59388,47.575344
"511",72.1886,47.588673
"512",71.837036,47.60201
"513",71.54162,47.615345
"514",71.312126,47.628674
"515",71.185165,47.642002
"516",71.27306,47.65534
"517",71.763794,47.668674
"518",72.87221,47.682003
"519",74.74967,47.69533
"520",77.39132,47.708668
"521",80.59693,47.722004
"522",83.99054,47.735332
"523",87.12779,47.74866
"524",89.637596,47.761997
"525",91.319756,47.775333
"526",92.157166,47.788662
"527",92.27436,47.80199
"528",91.86664,47.815327
"529",91.13664,47.828663
"530",90.252846,47.84199
"531",89.31045,47.85532
"532",88.33875,47.868656
"533",87.325554,47.881992
"534",86.2269,47.89532
"535",85.01839,47.90865
"536",83.71221,47.921986
"537",82.374306,47.93532
"538",81.10719,47.94865
"539",80.008545,47.96198
"540",79.14427,47.975315
"541",78.538795,47.98865
"542",78.16037,48.00198
"543",77.94064,48.01531
"544",77.78439,48.028645
"545",77.61837,48.04198
"546",77.37423,48.05531
"547",77.02266,48.068638
"548",76.558784,48.081974
"549",76.00214,48.09531
"550",75.38201,48.10864
"551",74.737465,48.121967
"552",74.09781,48.135303
"553",73.48745,48.14864
"554",72.93324,48.16197
"555",72.45228,48.175297
"556",71.72961,48.20197
"557",71.49279,48.215298
"558",71.329216,48.228626
"559",71.22179,48.241962
"560",71.15831,48.2553
"561",71.133896,48.268627
"562",71.133896,48.281956
"563",71.16075,48.29529
"564",71.22179,48.308628
"565",71.3048,48.321957
"566",71.40734,48.335285
"567",71.52209,48.34862
"568",71.64416,48.361958
"569",71.763794,48.375286
"570",71.871216,48.388615
"571",71.96399,48.40195
"572",72.03723,48.415287
"573",72.08362,48.428616
"574",72.112915,48.441944
"575",72.16907,48.45528
"576",72.35462,48.468616
"577",72.87709,48.481945
"578",73.99283,48.495274
"579",75.90204,48.50861
"580",78.641335,48.521946
"581",82.037384,48.535275
"582",85.72396,48.548603
"583",89.2372,48.56194
"584",92.16205,48.575275
"585",94.25193,48.588604
"586",95.45556,48.601933
"587",95.88037,48.61527
"588",95.71191,48.628605
"589",95.16258,48.641933
"590",94.41062,48.655262
"591",93.58541,48.6686
"592",92.7309,48.681934
"593",91.827576,48.695263
"594",90.81926,48.70859
"595",89.654686,48.721928
"596",88.32166,48.735264
"597",86.86412,48.748592
"598",85.37484,48.76192
"599",83.97101,48.775257
"600",82.75517,48.788593
"601",81.78592,48.80192
"602",81.06325,48.81525
"603",80.54566,48.828587
"604",80.15991,48.841923
"605",79.83032,48.85525
"606",79.48852,48.86858
"607",79.080795,48.881916
"608",78.58762,48.895252
"609",78.00656,48.90858
"610",77.3547,48.92191
"611",76.654,48.935246
"612",75.93622,48.94858
"613",75.23308,48.96191
"614",74.57145,48.97524
"615",73.970856,48.988575
"616",73.443504,49.00191
"617",72.99916,49.01524
"618",72.637825,49.02857
"619",72.35218,49.041904
"620",72.14221,49.05524
"621",71.990845,49.06857
"622",71.888306,49.081898
"623",71.82239,49.095234
"624",71.78088,49.10857
"625",71.76135,49.1219
"626",71.75647,49.135227
"627",71.77112,49.148563
"628",71.80286,49.1619
"629",71.851685,49.17523
"630",71.91028,49.188557
"631",71.97131,49.201893
"632",72.02258,49.21523
"633",72.061646,49.228558
"634",72.08606,49.241886
"635",72.0885,49.255222
"636",72.076294,49.26856
"637",72.05432,49.281887
"638",72.042114,49.295216
"639",72.09094,49.30855
"640",72.32777,49.321888
"641",72.95033,49.335217
"642",74.161285,49.348545
"643",76.09247,49.36188
"644",78.712135,49.375217
"645",81.81033,49.388546
"646",85.02571,49.401875
"647",87.96765,49.41521
"648",90.30656,49.428547
"649",91.878845,49.441875
"650",92.679634,49.455204
"651",92.82124,49.46854
"652",92.477,49.481876
"653",91.8349,49.495205
"654",91.04875,49.508533
"655",90.22354,49.52187
"656",89.391014,49.535206
"657",88.53651,49.548534
"658",87.60876,49.561863
"659",86.5687,49.5752
"660",85.40902,49.588535
"661",84.16632,49.601864
"662",82.916306,49.615192
"663",81.75662,49.62853
"664",80.77516,49.641865
"665",80.01099,49.655193
"666",79.466545,49.66852
"667",79.097885,49.681858
"668",78.839096,49.695194
"669",78.61448,49.708523
"670",78.363014,49.72185
"671",78.04074,49.735188
"672",77.63302,49.748524
"673",77.13985,49.761852
"674",76.58564,49.77518
"675",75.98993,49.788517
"676",75.386894,49.801853
"677",74.80095,49.81518
"678",74.25651,49.82851
"679",73.77554,49.841846
"680",73.3605,49.855183
"681",73.01869,49.86851
"682",72.75258,49.88184
"683",72.5597,49.895176
"684",72.42542,49.908512
"685",72.3473,49.92184
"686",72.31556,49.93517
"687",72.318,49.948505
"688",72.34486,49.96184
"689",72.393684,49.97517
"690",72.46693,49.9885
"691",72.55726,50.001835
"692",72.65736,50.01517
"693",72.764786,50.0285
"694",72.86977,50.04183
"695",72.96254,50.055164
"696",73.03578,50.0685
"697",73.08705,50.08183
"698",73.11635,50.095158
"699",73.126114,50.108494
"700",73.11879,50.12183
"701",73.1017,50.13516
"702",73.1017,50.148487
"703",73.199356,50.161823
"704",73.53628,50.17516
"705",74.3151,50.188488
"706",75.716484,50.201817
"707",77.803925,50.215153
"708",80.4773,50.22849
"709",83.4876,50.241817
"710",86.46616,50.255146
"711",89.05165,50.268482
"712",90.97795,50.28182
"713",92.140076,50.295147
"714",92.56489,50.308475
"715",92.369576,50.32181
"716",91.737236,50.335148
"717",90.851,50.348476
"718",89.87442,50.361805
"719",88.89784,50.37514
"720",87.96277,50.388477
"721",87.05455,50.401806
"722",86.14145,50.415134
"723",85.19417,50.42847
"724",84.22003,50.441807
"725",83.25567,50.455135
"726",82.36698,50.468464
"727",81.617455,50.4818
"728",81.04372,50.495136
"729",80.66041,50.508465
"730",80.4358,50.521793
"731",80.31373,50.53513
"732",80.22827,50.548466
"733",80.11597,50.561794
"734",79.923096,50.575123
"735",79.62524,50.58846
"736",79.23216,50.601795
"737",78.75609,50.615124
"738",78.22629,50.628452
"739",77.67208,50.64179
"740",77.117874,50.655125
"741",76.5832,50.668453
"742",76.087585,50.68178
"743",75.6408,50.695118
"744",75.25262,50.708454
"745",74.92546,50.721783
"746",74.66178,50.73511
"747",74.459145,50.748447
"748",74.31754,50.761784
"749",74.2272,50.775112
"750",74.18326,50.78844
"751",74.18082,50.801777
"752",74.215,50.815113
"753",74.2736,50.82844
"754",74.34928,50.84177
"755",74.42741,50.855106
"756",74.49821,50.868443
"757",74.55192,50.88177
"758",74.581215,50.8951
"759",74.581215,50.908436
"760",74.5568,50.921772
"761",74.51774,50.9351
"762",74.47379,50.94843
"763",74.47379,50.961765
"764",74.634926,50.9751
"765",75.13054,50.98843
"766",76.155945,51.00176
"767",77.8259,51.015095
"768",80.130615,51.02843
"769",82.88457,51.04176
"770",85.770355,51.055088
"771",88.411995,51.068424
"772",90.50675,51.08176
"773",91.87396,51.09509
"774",92.48432,51.108418
"775",92.41352,51.121754
"776",91.81781,51.13509
"777",90.87541,51.14842
"778",89.762115,51.161747
"779",88.604866,51.175083
"780",87.484245,51.18842
"781",86.417336,51.201748
"782",85.40902,51.215076
"783",84.439766,51.228413
"784",83.509575,51.24175
"785",82.650185,51.255077
"786",81.91043,51.268406
"787",81.32937,51.281742
"788",80.92653,51.29508
"789",80.69703,51.308407
"790",80.59937,51.321735
"791",80.57984,51.33507
"792",80.5774,51.348408
"793",80.52857,51.361736
"794",80.394295,51.375065
"795",80.15503,51.3884
"796",79.80835,51.401737
"797",79.36889,51.415066
"798",78.85863,51.428394
"799",78.3093,51.44173
"800",77.747765,51.455067
"801",77.20088,51.468395
"802",76.68818,51.481724
"803",76.226746,51.49506
"804",75.826355,51.508396
"805",75.48211,51.521725
"806",75.1989,51.535053
"807",74.97185,51.54839
"808",74.80095,51.561726
"809",74.67643,51.575054
"810",74.59586,51.588383
"811",74.5568,51.60172
"812",74.55436,51.615055
"813",74.57877,51.628384
"814",74.62272,51.641712
"815",74.68131,51.65505
"816",74.737465,51.668385
"817",74.776535,51.681713
"818",74.79607,51.69504
"819",74.793625,51.708378
"820",74.77898,51.721714
"821",74.776535,51.735043
"822",74.881516,51.74837
"823",75.25994,51.761707
"824",76.10956,51.775043
"825",77.591515,51.788372
"826",79.73754,51.8017
"827",82.42069,51.815037
"828",85.350426,51.828373
"829",88.15808,51.8417
"830",90.48722,51.85503
"831",92.1181,51.868366
"832",92.9604,51.881702
"833",93.050735,51.89503
"834",92.51362,51.90836
"835",91.52239,51.921696
"836",90.26261,51.93503
"837",88.8954,51.94836
"838",87.53063,51.96169
"839",86.23178,51.975025
"840",85.02571,51.98836
"841",83.9173,52.00169
"842",82.91875,52.01502
"843",82.04959,52.028355
"844",81.3489,52.04169
"845",80.84596,52.05502
"846",80.552986,52.068348
"847",80.45289,52.081684
"848",80.499275,52.09502
"849",80.62623,52.10835
"850",80.75563,52.121677
"851",80.816666,52.135014
"852",80.762955,52.14835
"853",80.57252,52.16168
"854",80.24292,52.175007
"855",79.798584,52.188343
"856",79.27856,52.20168
"857",78.712135,52.215008
"858",78.12619,52.228336
"859",77.54513,52.241673
"860",76.99092,52.25501
"861",76.4831,52.268337
"862",76.03143,52.281666
"863",75.64324,52.295002
"864",75.3283,52.30834
"865",75.07927,52.321667
"866",74.88396,52.334995
"867",74.73502,52.34833
"868",74.634926,52.361668
"869",74.57389,52.374996
"870",74.55192,52.388325
"871",74.55192,52.40166
"872",74.56168,52.414997
"873",74.57145,52.428326
"874",74.564125,52.441654
"875",74.54215,52.45499
"876",74.54459,52.468327
"877",74.67399,52.481655
"878",75.11101,52.494984
"879",76.06317,52.50832
"880",77.67696,52.521656
"881",79.94751,52.534985
"882",82.70878,52.548313
"883",85.64828,52.56165
"884",88.38026,52.574986
"885",90.582436,52.588314
"886",92.04974,52.601643
"887",92.716255,52.61498
"888",92.65034,52.628315
"889",91.9765,52.641644
"890",90.87053,52.654972
"891",89.51797,52.66831
"892",88.06531,52.681644
"893",86.61021,52.694973
"894",85.21126,52.7083
"895",83.895325,52.721638
"896",82.686806,52.734974
"897",81.619896,52.748302
"898",80.73853,52.76163
"899",80.08667,52.774967
"900",79.691154,52.788303
"901",79.54223,52.801632
"902",79.60082,52.81496
"903",79.801025,52.828297
"904",80.059814,52.841633
"905",80.2942,52.85496
"906",80.445564,52.86829
"907",80.465096,52.881626
"908",80.33326,52.894962
"909",80.05005,52.90829
"910",79.64721,52.92162
"911",79.14671,52.934956
"912",78.58762,52.94829
"913",78.00412,52.96162
"914",77.42794,52.97495
"915",76.88106,52.988285
"916",76.383,53.00162
"917",75.94354,53.01495
"918",75.562675,53.02828
"919",75.23552,53.041615
"920",74.95964,53.05495
"921",74.7277,53.06828
"922",74.53971,53.081608
"923",74.37858,53.094944
"924",74.246735,53.10828
"925",74.144196,53.12161
"926",74.092926,53.134937
"927",74.18814,53.148273
"928",74.61295,53.16161
"929",75.58709,53.17494
"930",77.25948,53.188267
"931",79.65453,53.201603
"932",82.60624,53.21494
"933",85.78256,53.228268
"934",88.780655,53.241596
"935",91.23918,53.254932
"936",92.92622,53.26827
"937",93.76364,53.281597
"938",93.79782,53.294926
"939",93.15816,53.30826
"940",92.03021,53.321598
"941",90.60197,53.334927
"942",89.041885,53.348255
"943",87.467155,53.36159
"944",85.95346,53.374928
"945",84.5301,53.388256
"946",83.22148,53.401585
"947",82.04471,53.41492
"948",81.03639,53.428257
"949",80.235596,53.441586
"950",79.67162,53.454914
"951",79.34692,53.46825
"952",79.24193,53.481586
"953",79.30297,53.494915
"954",79.45922,53.508244
"955",79.635,53.52158
"956",79.75952,53.534916
"957",79.77173,53.548244
"958",79.65209,53.561573
"959",79.39086,53.57491
"960",79.00267,53.588245
"961",78.519264,53.601574
"962",77.97238,53.614902
"963",77.38888,53.62824
"964",76.80293,53.641575
"965",76.23163,53.654903
"966",75.69207,53.668232
"967",75.1989,53.68157
"968",74.75212,53.694904
"969",74.34196,53.708233
"970",73.96353,53.72156
"971",73.63149,53.734898
"972",73.38491,53.748234
"973",73.35073,53.761562
"974",73.73159,53.77489
"975",74.75212,53.788227
"976",76.544136,53.801563
"977",79.080795,53.81489
"978",82.15457,53.82822
"979",85.399254,53.841557
"980",88.39246,53.854893
"981",90.78508,53.86822
"982",92.37934,53.88155
"983",93.12154,53.894886
"984",93.084915,53.908222
"985",92.4184,53.92155
"986",91.31243,53.93488
"987",89.9501,53.948215
"988",88.480354,53.96155
"989",87.00084,53.97488
"990",85.57259,53.98821
"991",84.21271,54.001545
"992",82.93828,54.01488
"993",81.78104,54.02821
"994",80.780045,54.04154
"995",79.97925,54.054874
"996",79.41039,54.06821
"997",79.07347,54.08154
"998",78.92943,54.094868
"999",78.91722,54.108204
"1000",78.958725,54.12154
"1001",78.99046,54.13487
"1002",78.9514,54.148197
"1003",78.802475,54.161533
"1004",78.52659,54.17487
"1005",78.12863,54.188198
"1006",77.625694,54.201527
"1007",77.06416,54.214863
"1008",76.48066,54.2282
"1009",75.911804,54.241528
"1010",75.38201,54.254856
"1011",74.898605,54.268192
"1012",74.45182,54.28153
"1013",74.03433,54.294857
"1014",73.6437,54.308186
"1015",73.3019,54.32152
"1016",73.06508,54.334858
"1017",73.077286,54.348186
"1018",73.55093,54.361515
"1019",74.68864,54.37485
"1020",76.59052,54.388187
"1021",79.1931,54.401516
"1022",82.2449,54.414845
"1023",85.365074,54.42818
"1024",88.13855,54.441517
"1025",90.252846,54.454845
"1026",91.53948,54.468174
"1027",91.98871,54.48151
"1028",91.69573,54.494846
"1029",90.83391,54.508175
"1030",89.58877,54.521503
"1031",88.14099,54.53484
"1032",86.63218,54.548176
"1033",85.1429,54.561504
"1034",83.72198,54.574833
"1035",82.39872,54.58817
"1036",81.19508,54.601505
"1037",80.15747,54.614834
"1038",79.33227,54.628162
"1039",78.75365,54.6415
"1040",78.433815,54.654835
"1041",78.348366,54.668163
"1042",78.43137,54.68149
"1043",78.59983,54.694828
"1044",78.77318,54.708164
"1045",78.88304,54.721493
"1046",78.87816,54.73482
"1047",78.74143,54.748158
"1048",78.470436,54.761494
"1049",78.0798,54.774822
"1050",77.60128,54.78815
"1051",77.06172,54.801487
"1052",76.48554,54.814823
"1053",75.90204,54.82815
"1054",75.33074,54.84148
"1055",74.78386,54.854816
"1056",74.28336,54.868153
"1057",73.85367,54.88148
"1058",73.548485,54.89481
"1059",73.49966,54.908146
"1060",73.89761,54.921482
"1061",74.94011,54.93481
"1062",76.7248,54.94814
"1063",79.1931,54.961475
"1064",82.10574,54.97481
"1065",85.08919,54.98814
"1066",87.73327,55.00147
"1067",89.71572,55.014805
"1068",90.87541,55.02814
"1069",91.205,55.04147
"1070",90.809494,55.0548
"1071",89.85977,55.068134
"1072",88.56336,55.08147
"1073",87.09117,55.0948
"1074",85.56771,55.108128
"1075",84.07355,55.121464
"1076",82.64774,55.1348
"1077",81.33425,55.14813
"1078",80.16968,55.161457
"1079",79.20531,55.174793
"1080",78.49729,55.18813
"1081",78.0676,55.201458
"1082",77.90646,55.214787
"1083",77.962616,55.228123
"1084",78.15793,55.24146
"1085",78.399635,55.254787
"1086",78.59495,55.268116
"1087",78.68284,55.281452
"1088",78.62913,55.29479
"1089",78.42649,55.308117
"1090",78.08713,55.321445
"1091",77.642784,55.33478
"1092",77.13252,55.348118
"1093",76.575874,55.361446
"1094",76.00702,55.374775
"1095",75.44793,55.38811
"1096",74.91814,55.401447
"1097",74.43229,55.414776
"1098",74.00992,55.428104
"1099",73.69985,55.44144
"1100",73.63149,55.454777
"1101",73.99527,55.468105
"1102",74.984055,55.481434
"1103",76.71992,55.49477
"1104",79.14671,55.508106
"1105",82.037384,55.521435
"1106",85.015945,55.534763
"1107",87.67223,55.5481
"1108",89.67422,55.561436
"1109",90.84856,55.574764
"1110",91.18791,55.588093
"1111",90.80217,55.60143
"1112",89.87442,55.614765
"1113",88.59998,55.628094
"1114",87.15465,55.641422
"1115",85.65072,55.65476
"1116",84.15167,55.668095
"1117",82.703896,55.681423
"1118",81.34402,55.69475
"1119",80.12329,55.708088
"1120",79.11009,55.721424
"1121",78.36057,55.734753
"1122",77.908905,55.74808
"1123",77.74044,55.761417
"1124",77.79172,55.774754
"1125",77.97238,55.788082
"1126",78.187225,55.80141
"1127",78.345924,55.814747
"1128",78.38743,55.828083
"1129",78.28733,55.84141
"1130",78.04318,55.85474
"1131",77.67696,55.868076
"1132",77.225296,55.881413
"1133",76.72968,55.89474
"1134",76.22919,55.90807
"1135",75.75311,55.921406
"1136",75.318535,55.934742
"1137",74.91814,55.94807
"1138",74.53727,55.9614
"1139",74.175934,55.974735
"1140",73.8732,55.98807
"1141",73.74624,56.0014
"1142",73.985504,56.01473
"1143",74.810715,56.028065
"1144",76.35371,56.0414
"1145",78.59495,56.05473
"1146",81.33181,56.068058
"1147",84.21515,56.081394
"1148",86.82506,56.09473
"1149",88.82216,56.10806
"1150",90.037994,56.121387
"1151",90.443275,56.134724
"1152",90.1503,56.14806
"1153",89.34951,56.16139
"1154",88.23865,56.174717
"1155",86.96422,56.188053
"1156",85.63119,56.20139
"1157",84.29572,56.214718
"1158",82.98711,56.228046
"1159",81.73708,56.241383
"1160",80.58961,56.25472
"1161",79.605705,56.268047
"1162",78.84154,56.281376
"1163",78.331276,56.294712
"1164",78.065155,56.30805
"1165",78.00168,56.321377
"1166",78.0676,56.334705
"1167",78.170135,56.34804
"1168",78.23361,56.361378
"1169",78.18967,56.374706
"1170",78.00656,56.388035
"1171",77.66964,56.40137
"1172",77.208206,56.414707
"1173",76.65644,56.428036
"1174",76.053406,56.441364
"1175",75.44793,56.4547
"1176",74.861984,56.468037
"1177",74.31022,56.481365
"1178",73.79263,56.494694
"1179",73.306786,56.50803
"1180",72.86244,56.521366
"1181",72.481575,56.534695
"1182",72.24231,56.548023
"1183",72.288704,56.56136
"1184",72.81117,56.574696
"1185",73.98062,56.588024
"1186",75.860535,56.601353
"1187",78.34104,56.61469
"1188",81.163345,56.628025
"1189",83.95148,56.641354
"1190",86.33677,56.654682
"1191",88.05798,56.66802
"1192",89.01015,56.681355
"1193",89.2372,56.694683
"1194",88.87587,56.70801
"1195",88.114136,56.721348
"1196",87.12047,56.734684
"1197",86.031586,56.748013
"1198",84.91829,56.76134
"1199",83.809875,56.774677
"1200",82.7161,56.788013
"1201",81.64919,56.801342
"1202",80.64576,56.81467
"1203",79.7522,56.828007
"1204",79.01976,56.841343
"1205",78.485085,56.85467
"1206",78.150604,56.868
"1207",77.98947,56.881336
"1208",77.943085,56.894672
"1209",77.95041,56.908
"1210",77.93576,56.92133
"1211",77.85275,56.934666
"1212",77.67208,56.948
"1213",77.38644,56.96133
"1214",77.00557,56.97466
"1215",76.55634,56.987995
"1216",76.068054,57.00133
"1217",75.56756,57.01466
"1218",75.071945,57.02799
"1219",74.60563,57.041325
"1220",74.175934,57.05466
"1221",73.79019,57.06799
"1222",73.45327,57.081318
"1223",73.16029,57.094654
"1224",72.92348,57.10799
"1225",72.764786,57.12132
"1226",72.764786,57.134647
"1227",73.08461,57.147984
"1228",73.90738,57.16132
"1229",75.37957,57.17465
"1230",77.51339,57.187977
"1231",80.15747,57.201313
"1232",83.00908,57.21465
"1233",85.68978,57.227978
"1234",87.85535,57.241306
"1235",89.30312,57.254642
"1236",89.986725,57.26798
"1237",89.98428,57.281307
"1238",89.46426,57.294636
"1239",88.61219,57.307972
"1240",87.603874,57.32131
"1241",86.54673,57.334637
"1242",85.49203,57.347965
"1243",84.44465,57.3613
"1244",83.39727,57.374638
"1245",82.354774,57.387966
"1246",81.34646,57.401295
"1247",80.42359,57.41463
"1248",79.64721,57.427967
"1249",79.05394,57.441296
"1250",78.65598,57.454624
"1251",78.43626,57.46796
"1252",78.34104,57.481297
"1253",78.30198,57.494625
"1254",78.24582,57.507954
"1255",78.13107,57.52129
"1256",77.91867,57.534626
"1257",77.60372,57.547955
"1258",77.20088,57.561283
"1259",76.732124,57.57462
"1260",76.224304,57.587955
"1261",75.701836,57.601284
"1262",75.191574,57.614613
"1263",74.72282,57.62795
"1264",74.31022,57.641285
"1265",73.968414,57.654613
"1266",73.69985,57.667942
"1267",73.49966,57.68128
"1268",73.35317,57.694614
"1269",73.24574,57.707943
"1270",73.16518,57.72127
"1271",73.094376,57.734608
"1272",73.03578,57.747944
"1273",72.99672,57.761272
"1274",73.006485,57.7746
"1275",73.162735,57.787937
"1276",73.62417,57.801273
"1277",74.5861,57.8146
"1278",76.1828,57.82793
"1279",78.42405,57.841267
"1280",81.143814,57.854603
"1281",84.03693,57.86793
"1282",86.72007,57.88126
"1283",88.868546,57.894596
"1284",90.28947,57.907932
"1285",90.96086,57.92126
"1286",90.97063,57.93459
"1287",90.494545,57.947926
"1288",89.71084,57.96126
"1289",88.77821,57.97459
"1290",87.80408,57.98792
"1291",86.82506,58.001255
"1292",85.83627,58.01459
"1293",84.82063,58.02792
"1294",83.773254,58.04125
"1295",82.72343,58.054585
"1296",81.72488,58.06792
"1297",80.850845,58.08125
"1298",80.15503,58.094578
"1299",79.66674,58.107914
"1300",79.364006,58.12125
"1301",79.200424,58.13458
"1302",79.10765,58.147907
"1303",79.01976,58.161243
"1304",78.87816,58.17458
"1305",78.643776,58.18791
"1306",78.30686,58.201237
"1307",77.874725,58.214573
"1308",77.36935,58.22791
"1309",76.822464,58.241238
"1310",76.263374,58.254566
"1311",75.71404,58.267902
"1312",75.19646,58.28124
"1313",74.73014,58.294567
"1314",74.32487,58.307896
"1315",73.99527,58.32123
"1316",73.738914,58.334568
"1317",73.55581,58.347897
"1318",73.43374,58.361225
"1319",73.36538,58.37456
"1320",73.3312,58.387897
"1321",73.32632,58.401226
"1322",73.33608,58.414555
"1323",73.35317,58.42789
"1324",73.36294,58.441227
"1325",73.36538,58.454556
"1326",73.36782,58.467884
"1327",73.42153,58.48122
"1328",73.64858,58.494556
"1329",74.24185,58.507885
"1330",75.37957,58.521214
"1331",77.1667,58.53455
"1332",79.54711,58.547886
"1333",82.28886,58.561214
"1334",85.04768,58.574543
"1335",87.467155,58.58788
"1336",89.271385,58.601215
"1337",90.34074,58.614544
"1338",90.69962,58.627872
"1339",90.460365,58.64121
"1340",89.79385,58.654545
"1341",88.87343,58.667873
"1342",87.84314,58.681202
"1343",86.803085,58.69454
"1344",85.787445,58.707874
"1345",84.79378,58.721203
"1346",83.81476,58.73453
"1347",82.85771,58.747868
"1348",81.95438,58.761204
"1349",81.15602,58.774532
"1350",80.52125,58.78786
"1351",80.076904,58.801197
"1352",79.815674,58.814533
"1353",79.69848,58.82786
"1354",79.66918,58.84119
"1355",79.65453,58.854527
"1356",79.586174,58.867863
"1357",79.412834,58.88119
"1358",79.10765,58.89452
"1359",78.66819,58.907856
"1360",78.11398,58.921192
"1361",77.49142,58.93452
"1362",76.85664,58.94785
"1363",76.243835,58.961185
"1364",75.68963,58.97452
"1365",75.21355,58.98785
"1366",74.82292,59.00118
"1367",74.510414,59.014515
"1368",74.27604,59.02785
"1369",74.11246,59.04118
"1370",74.00992,59.05451
"1371",73.95865,59.067844
"1372",73.951324,59.08118
"1373",73.968414,59.09451
"1374",73.99039,59.107838
"1375",74.005035,59.121174
"1376",74.00015,59.13451
"1377",73.98306,59.14784
"1378",73.97818,59.161167
"1379",74.06607,59.174503
"1380",74.390785,59.18784
"1381",75.13298,59.201168
"1382",76.44404,59.214497
"1383",78.365456,59.227833
"1384",80.78737,59.24117
"1385",83.44366,59.254498
"1386",85.99008,59.267826
"1387",88.09216,59.281162
"1388",89.530174,59.2945
"1389",90.228424,59.307827
"1390",90.245514,59.321156
"1391",89.71572,59.33449
"1392",88.80995,59.347828
"1393",87.70641,59.361156
"1394",86.54429,59.374485
"1395",85.401695,59.38782
"1396",84.298164,59.401157
"1397",83.23857,59.414486
"1398",82.22293,59.427814
"1399",81.26345,59.44115
"1400",80.40894,59.454487
"1401",79.72045,59.467815
"1402",79.23949,59.481144
"1403",78.9807,59.49448
"1404",78.907455,59.507816
"1405",78.95628,59.521145
"1406",79.04906,59.534473
"1407",79.10765,59.54781
"1408",79.07347,59.561146
"1409",78.91234,59.574474
"1410",78.61692,59.587803
"1411",78.2092,59.60114
"1412",77.71603,59.614475
"1413",77.16914,59.627804
"1414",76.612495,59.641132
"1415",76.07782,59.65447
"1416",75.59197,59.667805
"1417",75.16228,59.681133
"1418",74.80583,59.69446
"1419",74.5153,59.707798
"1420",74.29069,59.721134
"1421",74.1149,59.734463
"1422",73.98062,59.74779
"1423",73.87564,59.761127
"1424",73.78775,59.774464
"1425",73.71694,59.787792
"1426",73.66567,59.80112
"1427",73.66323,59.814457
"1428",73.78775,59.827793
"1429",74.18814,59.84112
"1430",75.04753,59.85445
"1431",76.5124,59.867786
"1432",78.60471,59.881123
"1433",81.20485,59.89445
"1434",84.03204,59.90778
"1435",86.72495,59.921116
"1436",88.94667,59.934452
"1437",90.47013,59.94778
"1438",91.21965,59.96111
"1439",91.246506,59.974445
"1440",90.69474,59.98778
"1441",89.74746,60.00111
"1442",88.59022,60.01444
"1443",87.36462,60.027775
"1444",86.1561,60.04111
"1445",84.99397,60.05444
"1446",83.88068,60.06777
"1447",82.81377,60.081104
"1448",81.80057,60.09444
"1449",80.87526,60.10777
"1450",80.08911,60.121098
"1451",79.483635,60.134434
"1452",79.080795,60.14777
"1453",78.86351,60.1611
"1454",78.79271,60.174427
"1455",78.80492,60.187763
"1456",78.82689,60.2011
"1457",78.802475,60.214428
"1458",78.68528,60.227757
"1459",78.45335,60.241093
"1460",78.10666,60.25443
"1461",77.65743,60.267757
"1462",77.134964,60.281086
"1463",76.57099,60.294422
"1464",75.99481,60.30776
"1465",75.44305,60.321087
"1466",74.94255,60.334415
"1467",74.50797,60.34775
"1468",74.141754,60.361088
"1469",73.85123,60.374416
"1470",73.62173,60.387745
"1471",73.443504,60.40108
"1472",73.30923,60.414417
"1473",73.20912,60.427746
"1474",73.128555,60.441074
"1475",73.06508,60.45441
"1476",73.02846,60.467747
"1477",73.06264,60.481075
"1478",73.28481,60.494404
"1479",73.89273,60.50774
"1480",75.09392,60.521076
"1481",77.02022,60.534405
"1482",79.63744,60.547733
"1483",82.72831,60.56107
"1484",85.924164,60.574406
"1485",88.81972,60.587734
"1486",91.08049,60.601063
"1487",92.525826,60.6144
"1488",93.138626,60.627735
"1489",93.00923,60.641064
"1490",92.30366,60.654392
"1491",91.21965,60.66773
"1492",89.9379,60.681065
"1493",88.61219,60.694393
"1494",87.327995,60.70772
"1495",86.10727,60.721058
"1496",84.94026,60.734394
"1497",83.80499,60.747723
"1498",82.703896,60.76105
"1499",81.6614,60.774387
"1500",80.740974,60.787724
"1501",79.9939,60.801052
"1502",79.45678,60.81438
"1503",79.12474,60.827717
"1504",78.96605,60.841053
"1505",78.905014,60.85438
"1506",78.873276,60.86771
"1507",78.80492,60.881046
"1508",78.660866,60.894382
"1509",78.4094,60.90771
"1510",78.05539,60.92104
"1511",77.61593,60.934376
"1512",77.117874,60.947712
"1513",76.592964,60.96104
"1514",76.070496,60.97437
"1515",75.57244,60.987705
"1516",75.123215,61.00104
"1517",74.73014,61.01437
"1518",74.40055,61.0277
"1519",74.12955,61.041035
"1520",73.9147,61.05437
"1521",73.7438,61.0677
"1522",73.61196,61.081028
"1523",73.50942,61.094364
"1524",73.443504,61.1077
"1525",73.43374,61.12103
"1526",73.531395,61.134357
"1527",73.87564,61.147694
"1528",74.65446,61.16103
"1529",76.05585,61.17436
"1530",78.16037,61.187687
"1531",80.90456,61.201023
"1532",84.034485,61.21436
"1533",87.17174,61.227688
"1534",89.91348,61.241016
"1535",91.95209,61.254353
"1536",93.13374,61.26769
"1537",93.45602,61.281017
"1538",93.033646,61.294346
"1539",92.0473,61.307682
"1540",90.704506,61.32102
"1541",89.18593,61.334347
"1542",87.623405,61.347675
"1543",86.09506,61.36101
"1544",84.627754,61.374348
"1545",83.23125,61.387676
"1546",81.92264,61.401005
"1547",80.73365,61.41434
"1548",79.71313,61.427677
"1549",78.91234,61.441006
"1550",78.36057,61.454334
"1551",78.05783,61.46767
"1552",77.95529,61.481007
"1553",77.98459,61.494335
"1554",78.06271,61.507664
"1555",78.11154,61.521
"1556",78.07004,61.534336
"1557",77.91379,61.547665
"1558",77.6379,61.560993
"1559",77.2546,61.57433
"1560",76.788284,61.587666
"1561",76.26826,61.600994
"1562",75.72381,61.614323
"1563",75.18425,61.62766
"1564",74.669106,61.640995
"1565",74.20035,61.654324
"1566",73.79263,61.667652
"1567",73.443504,61.68099
"1568",73.14809,61.694324
"1569",72.89906,61.707653
"1570",72.68665,61.72098
"1571",72.50599,61.734318
"1572",72.37415,61.747654
"1573",72.34974,61.760983
"1574",72.569466,61.77431
"1575",73.248184,61.787647
"1576",74.581215,61.800983
"1577",76.66865,61.814312
"1578",79.429924,61.82764
"1579",82.61112,61.840977
"1580",85.804535,61.854313
"1581",88.59754,61.86764
"1582",90.663,61.88097
"1583",91.842224,61.894306
"1584",92.137634,61.907642
"1585",91.65911,61.92097
"1586",90.60441,61.9343
"1587",89.181046,61.947636
"1588",87.57946,61.96097
"1589",85.93393,61.9743
"1590",84.32502,61.98763
"1591",82.79912,62.000965
"1592",81.38308,62.0143
"1593",80.12085,62.02763
"1594",79.06615,62.04096
"1595",78.28245,62.054295
"1596",77.7966,62.06763
"1597",77.611046,62.08096
"1598",77.67696,62.094288
"1599",77.92355,62.107624
"1600",78.24094,62.12096
"1601",78.54124,62.13429
"1602",78.74143,62.147617
"1603",78.79027,62.160954
"1604",78.66819,62.17429
"1605",78.39231,62.18762
"1606",77.98703,62.200947
"1607",77.49142,62.214283
"1608",76.94209,62.22762
"1609",76.37324,62.240948
"1610",75.81171,62.254276
"1611",75.28191,62.267612
"1612",74.79851,62.28095
"1613",74.371254,62.294277
"1614",73.99527,62.307606
"1615",73.66567,62.320942
"1616",73.38003,62.33428
"1617",73.15053,62.347607
"1618",73.05531,62.360935
"1619",73.270164,62.37427
"1620",74.02457,62.387608
"1621",75.51629,62.400936
"1622",77.80881,62.414265
"1623",80.77516,62.4276
"1624",84.09552,62.440937
"1625",87.33288,62.454266
"1626",90.06241,62.467594
"1627",91.99115,62.48093
"1628",92.997025,62.494267
"1629",93.10445,62.507595
"1630",92.455025,62.520924
"1631",91.24162,62.53426
"1632",89.68154,62.547596
"1633",87.955444,62.560925
"1634",86.20004,62.574253
"1635",84.49592,62.58759
"1636",82.90166,62.600925
"1637",81.449,62.614254
"1638",80.19409,62.627583
"1639",79.17845,62.64092
"1640",78.44846,62.654255
"1641",78.02609,62.667583
"1642",77.88937,62.680912
"1643",77.98703,62.69425
"1644",78.23361,62.707584
"1645",78.536354,62.720913
"1646",78.80736,62.73424
"1647",78.97093,62.747578
"1648",78.98314,62.760914
"1649",78.82445,62.774242
"1650",78.5095,62.78757
"1651",78.0676,62.800907
"1652",77.5378,62.814243
"1653",76.964066,62.82757
"1654",76.38056,62.8409
"1655",75.81171,62.854237
"1656",75.27215,62.867573
"1657",74.76677,62.8809
"1658",74.302895,62.89423
"1659",73.88052,62.907566
"1660",73.51919,62.920902
"1661",73.272606,62.93423
"1662",73.304344,62.94756
"1663",73.83902,62.960896
"1664",75.11833,62.97423
"1665",77.2546,62.98756
"1666",80.177,63.00089
"1667",83.597466,63.014225
"1668",87.081406,63.02756
"1669",90.15518,63.04089
"1670",92.455025,63.05422
"1671",93.80026,63.067554
"1672",94.188446,63.08089
"1673",93.729454,63.09422
"1674",92.6186,63.107548
"1675",91.08049,63.120884
"1676",89.322655,63.13422
"1677",87.50378,63.14755
"1678",85.7264,63.160877
"1679",84.04181,63.174213
"1680",82.48661,63.18755
"1681",81.08278,63.20088
"1682",79.87427,63.214207
"1683",78.905014,63.227543
"1684",78.21408,63.24088
"1685",77.81125,63.254208
"1686",77.66964,63.267536
"1687",77.72091,63.280872
"1688",77.87961,63.29421
"1689",78.065155,63.307537
"1690",78.19455,63.320866
"1691",78.21164,63.3342
"1692",78.08469,63.347538
"1693",77.806366,63.360867
"1694",77.39376,63.374195
"1695",76.87862,63.38753
"1696",76.30244,63.400867
"1697",75.70428,63.414196
"1698",75.11101,63.427525
"1699",74.53483,63.44086
"1700",73.985504,63.454197
"1701",73.4728,63.467525
"1702",73.00404,63.480854
"1703",72.58167,63.49419
"1704",72.23987,63.507526
"1705",72.06653,63.520855
"1706",72.254524,63.534184
"1707",73.06264,63.54752
"1708",74.71549,63.560856
"1709",77.27657,63.574184
"1710",80.59449,63.587513
"1711",84.317696,63.60085
"1712",87.94812,63.614185
"1713",91.0219,63.627514
"1714",93.21431,63.640842
"1715",94.4033,63.65418
"1716",94.625465,63.667515
"1717",94.03464,63.680843
"1718",92.83345,63.69417
"1719",91.24895,63.707508
"1720",89.481346,63.720844
"1721",87.67712,63.734173
"1722",85.91196,63.7475
"1723",84.23712,63.760838
"1724",82.67948,63.774174
"1725",81.26589,63.787502
"1726",80.0354,63.80083
"1727",79.03685,63.814167
"1728",78.30686,63.827503
"1729",77.857635,63.84083
"1730",77.65743,63.85416
"1731",77.65011,63.867496
"1732",77.7551,63.880833
"1733",77.89426,63.89416
"1734",77.98703,63.90749
"1735",77.97482,63.920826
"1736",77.8259,63.934162
"1737",77.54513,63.94749
"1738",77.14229,63.96082
"1739",76.63935,63.974155
"1740",76.07294,63.98749
"1741",75.4699,64.000824
"1742",74.85466,64.014145
"1743",74.25407,64.02748
"1744",73.69009,64.04082
"1745",73.16762,64.05415
"1746",72.69398,64.067474
"1747",72.28138,64.08081
"1748",71.96399,64.09415
"1749",71.871216,64.10748
"1750",72.22766,64.120804
"1751",73.29458,64.13414
"1752",75.24773,64.14748
"1753",78.07248,64.16081
"1754",81.54421,64.17413
"1755",85.23323,64.18747
"1756",88.636604,64.200806
"1757",91.32952,64.21414
"1758",93.07271,64.22746
"1759",93.81735,64.2408
"1760",93.66598,64.254135
"1761",92.806595,64.26747
"1762",91.458916,64.28079
"1763",89.830475,64.29413
"1764",88.08484,64.307465
"1765",86.33433,64.3208
"1766",84.630196,64.33412
"1767",83.00908,64.34746
"1768",81.512474,64.360794
"1769",80.184326,64.37413
"1770",79.07591,64.38745
"1771",78.238495,64.40079
"1772",77.69161,64.41412
"1773",77.41573,64.42746
"1774",77.35958,64.44078
"1775",77.44503,64.45412
"1776",77.58419,64.46745
"1777",77.69161,64.48079
"1778",77.70138,64.49411
"1779",77.58175,64.50745
"1780",77.31808,64.52078
"1781",76.92012,64.53412
"1782",76.419624,64.54744
"1783",75.85077,64.560776
"1784",75.24284,64.57411
"1785",74.62272,64.58745
"1786",74.019684,64.60077
"1787",73.44839,64.614105
"1788",72.92348,64.62744
"1789",72.45228,64.64078
"1790",72.03723,64.6541
"1791",71.68322,64.667435
"1792",71.448845,64.68077
"1793",71.47326,64.69411
"1794",71.993286,64.70743
"1795",73.255516,64.720764
"1796",75.403984,64.7341
"1797",78.38743,64.74744
"1798",81.92996,64.76076
"1799",85.575035,64.77409
"1800",88.83681,64.78743
"1801",91.319756,64.800766
"1802",92.823685,64.81409
"1803",93.32906,64.82742
"1804",92.96529,64.84076
"1805",91.930115,64.854095
"1806",90.44572,64.86742
"1807",88.72205,64.88075
"1808",86.91051,64.89409
"1809",85.10872,64.907425
"1810",83.3753,64.920746
"1811",81.74929,64.93408
"1812",80.28199,64.94742
"1813",79.044174,64.960754
"1814",78.09201,64.974075
"1815",77.471886,64.98741
"1816",77.18379,65.00075
"1817",77.17647,65.014084
"1818",77.36202,65.027405
"1819",77.6379,65.04074
"1820",77.89914,65.05408
"1821",78.06271,65.06741
"1822",78.07736,65.080734
"1823",77.92355,65.09407
"1824",77.61349,65.10741
"1825",77.171585,65.12074
"1826",76.64179,65.13406
"1827",76.05829,65.1474
"1828",75.45281,65.160736
"1829",74.85222,65.17407
"1830",74.27848,65.18739
"1831",73.74624,65.20073
"1832",73.26284,65.214066
"1833",72.82826,65.2274
"1834",72.43763,65.24072
"1835",72.10803,65.25406
"1836",71.871216,65.267395
"1837",71.84924,65.28073
"1838",72.25941,65.29405
"1839",73.35073,65.30739
"1840",75.29656,65.320724
"1841",78.09445,65.33406
"1842",81.52224,65.34738
"1843",85.172195,65.36072
"1844",88.54139,65.374054
"1845",91.192795,65.38739
"1846",92.88228,65.40071
"1847",93.55123,65.41405
"1848",93.29244,65.42738
"1849",92.29389,65.44072
"1850",90.792404,65.45404
"1851",89.01015,65.46738
"1852",87.113144,65.48071
"1853",85.2137,65.49405
"1854",83.387505,65.50737
"1855",81.69314,65.520706
"1856",80.18921,65.53404
"1857",78.941635,65.54738
"1858",78.011444,65.5607
"1859",77.435265,65.574036
"1860",77.19844,65.58737
"1861",77.24971,65.60071
"1862",77.49386,65.61403
"1863",77.81857,65.627365
"1864",78.11398,65.6407
"1865",78.30198,65.65404
"1866",78.31663,65.66736
"1867",78.150604,65.680695
"1868",77.81857,65.69403
"1869",77.3547,65.70737
"1870",76.805374,65.72069
"1871",76.207214,65.734024
"1872",75.59441,65.74736
"1873",74.986496,65.7607
"1874",74.40543,65.77402
"1875",73.87076,65.78735
"1876",73.38491,65.80069
"1877",72.95033,65.814026
"1878",72.57191,65.82735
"1879",72.274055,65.84068
"1880",72.13489,65.85402
"1881",72.33265,65.867355
"1882",73.11635,65.88068
"1883",74.70084,65.89401
"1884",77.152054,65.90735
"1885",80.33326,65.920685
"1886",83.90753,65.934006
"1887",87.39147,65.94734
"1888",90.31632,65.96068
"1889",92.36225,65.974014
"1890",93.399864,65.987335
"1891",93.47311,66.00067
"1892",92.73823,66.01401
"1893",91.422295,66.02734
"1894",89.75235,66.040665
"1895",87.90906,66.054
"1896",86.02426,66.06734
"1897",84.18341,66.08067
"1898",82.442665,66.093994
"1899",80.86549,66.10733
"1900",79.517815,66.12067
"1901",78.467995,66.134
"1902",77.75998,66.14732
"1903",77.39864,66.16066
"1904",77.34493,66.173996
"1905",77.51339,66.18733
"1906",77.789276,66.20065
"1907",78.07248,66.21399
"1908",78.26292,66.227325
"1909",78.3093,66.24066
"1910",78.17502,66.25398
"1911",77.874725,66.26732
"1912",77.43282,66.280655
"1913",76.893265,66.29399
"1914",76.29511,66.30731
"1915",75.67986,66.32065
"1916",75.0695,66.333984
"1917",74.486,66.34732
"1918",73.94888,66.36064
"1919",73.463036,66.37398
"1920",73.03334,66.387314
"1921",72.65736,66.40065
"1922",72.3473,66.41397
"1923",72.147095,66.42731
"1924",72.1886,66.44064
"1925",72.708626,66.45398
"1926",73.970856,66.4673
"1927",76.13153,66.48064
"1928",79.149155,66.49397
"1929",82.75029,66.50731
"1930",86.485695,66.52063
"1931",89.83292,66.533966
"1932",92.38178,66.5473
"1933",93.91989,66.56064
"1934",94.42283,66.57396
"1935",94.01755,66.587296
"1936",92.92134,66.60063
"1937",91.371025,66.61397
"1938",89.59121,66.62729
"1939",87.743034,66.640625
"1940",85.926605,66.65396
"1941",84.19318,66.6673
"1942",82.5745,66.68062
"1943",81.112076,66.693954
"1944",79.85474,66.70729
"1945",78.853745,66.72063
"1946",78.15549,66.73395
"1947",77.76242,66.747284
"1948",77.6379,66.76062
"1949",77.69894,66.77396
"1950",77.86008,66.78728
"1951",78.02121,66.80061
"1952",78.10666,66.81395
"1953",78.06027,66.827286
"1954",77.85275,66.84061
"1955",77.49386,66.85394
"1956",77.00069,66.86728
"1957",76.4123,66.880615
"1958",75.7702,66.893936
"1959",75.11101,66.90727
"1960",74.46891,66.92061
"1961",73.863434,66.933945
"1962",73.306786,66.947266
"1963",72.80385,66.9606
"1964",72.35706,66.97394
"1965",71.973755,66.987274
"1966",71.68566,67.000595
"1967",71.58556,67.01393
"1968",71.885864,67.02727
"1969",72.83559,67.0406
"1970",74.63737,67.053925
"1971",77.332726,67.06726
"1972",80.73365,67.0806
"1973",84.454414,67.09393
"1974",87.989624,67.107254
"1975",90.87541,67.12059
"1976",92.826126,67.13393
"1977",93.75632,67.14726
"1978",93.74166,67.16058
"1979",92.97017,67.17392
"1980",91.67864,67.187256
"1981",90.091705,67.20059
"1982",88.38514,67.21391
"1983",86.676125,67.22725
"1984",85.015945,67.240585
"1985",83.424126,67.25392
"1986",81.9324,67.26724
"1987",80.5774,67.28058
"1988",79.42016,67.293915
"1989",78.52659,67.30725
"1990",77.925995,67.32057
"1991",77.611046,67.33391
"1992",77.52804,67.347244
"1993",77.58663,67.36058
"1994",77.70138,67.3739
"1995",77.789276,67.38724
"1996",77.77707,67.40057
"1997",77.628136,67.41391
"1998",77.330284,67.42723
"1999",76.90059,67.44057
"2000",76.36103,67.4539
"2001",75.74578,67.46724
"2002",75.0988,67.48056
"2003",74.44694,67.4939
"2004",73.82193,67.50723
"2005",73.24574,67.52057
"2006",72.72816,67.53389
"2007",72.2765,67.547226
"2008",71.888306,67.56056
"2009",71.5758,67.5739
"2010",71.38293,67.58722
"2011",71.45129,67.600555
"2012",72.00549,67.61389
"2013",73.29946,67.62723
"2014",75.47723,67.64055
"2015",78.49241,67.653885
"2016",82.08133,67.66722
"2017",85.787445,67.68056
"2018",89.112686,67.69388
"2019",91.646904,67.707214
"2020",93.18257,67.72055
"2021",93.70504,67.73389
"2022",93.35836,67.74721
"2023",92.350044,67.760544
"2024",90.91936,67.77388
"2025",89.27871,67.78722
"2026",87.57702,67.80054
"2027",85.889984,67.81387
"2028",84.263985,67.82721
"2029",82.72343,67.840546
"2030",81.30251,67.85387
"2031",80.05005,67.8672
"2032",79.03929,67.88054
"2033",78.32151,67.893875
"2034",77.90402,67.907196
"2035",77.75754,67.92053
"2036",77.806366,67.93387
"2037",77.95285,67.947205
"2038",78.099335,67.960526
"2039",78.16525,67.97386
"2040",78.10666,67.9872
"2041",77.891815,68.000534
"2042",77.53048,68.013855
"2043",77.049515,68.02719
"2044",76.48066,68.04053
"2045",75.862976,68.05386
"2046",75.23308,68.067184
"2047",74.617836,68.08052
"2048",74.04166,68.09386
"2049",73.51675,68.10719
"2050",73.04799,68.120514
"2051",72.63538,68.13385
"2052",72.28382,68.14719
"2053",72.00305,68.16052
"2054",71.851685,68.17384
"2055",71.94934,68.18718
"2056",72.50843,68.200516
"2057",73.75601,68.21385
"2058",75.83368,68.22717
"2059",78.70237,68.24051
"2060",82.11307,68.253845
"2061",85.63851,68.26718
"2062",88.80263,68.2805
"2063",91.20256,68.29384
"2064",92.63325,68.307175
"2065",93.08003,68.32051
"2066",92.67231,68.33383
"2067",91.62493,68.34717
"2068",90.16739,68.360504
"2069",88.51209,68.37384
"2070",86.78844,68.38716
"2071",85.07942,68.4005
"2072",83.42901,68.41383
"2073",81.883575,68.42717
"2074",80.479744,68.44049
"2075",79.273674,68.45383
"2076",78.328835,68.46716
"2077",77.68673,68.4805
"2078",77.33517,68.49382
"2079",77.23262,68.50716
"2080",77.30099,68.52049
"2081",77.44747,68.53383
"2082",77.576866,68.54715
"2083",77.625694,68.560486
"2084",77.55245,68.57382
"2085",77.34249,68.58716
"2086",77.015335,68.60048
"2087",76.60517,68.613815
"2088",76.16083,68.62715
"2089",75.72869,68.64049
"2090",75.35027,68.65381
"2091",75.04265,68.667145
"2092",74.79851,68.68048
"2093",74.62028,68.69382
"2094",74.49821,68.70714
"2095",74.40543,68.720474
"2096",74.32731,68.73381
"2097",74.28092,68.74715
"2098",74.33219,68.76047
"2099",74.5861,68.7738
"2100",75.22331,68.78714
"2101",76.42939,68.800476
"2102",78.28245,68.8138
"2103",80.70191,68.82713
"2104",83.44854,68.84047
"2105",86.19028,68.853806
"2106",88.57557,68.86713
"2107",90.32365,68.88046
"2108",91.302666,68.8938
"2109",91.52239,68.907135
"2110",91.09758,68.920456
"2111",90.1918,68.93379
"2112",88.96864,68.94713
"2113",87.56237,68.960464
"2114",86.046234,68.973785
"2115",84.471504,68.98712
"2116",82.882126,69.00046
"2117",81.32937,69.013794
"2118",79.886475,69.027115
"2119",78.643776,69.04045
"2120",77.67696,69.05379
"2121",77.02754,69.06712
"2122",76.6833,69.080444
"2123",76.592964,69.09378
"2124",76.67353,69.10712
"2125",76.81514,69.12045
"2126",76.925,69.13377
"2127",76.93477,69.14711
"2128",76.81026,69.160446
"2129",76.55146,69.17378
"2130",76.17792,69.1871
"2131",75.72869,69.20044
"2132",75.23064,69.213776
"2133",74.71549,69.22711
"2134",74.21011,69.24043
"2135",73.72671,69.25377
"2136",73.270164,69.267105
"2137",72.84291,69.28044
"2138",72.444954,69.29376
"2139",72.09338,69.3071
"2140",71.81018,69.320435
"2141",71.66369,69.33377
"2142",71.79309,69.34709
"2143",72.37171,69.36043
"2144",73.53872,69.373764
"2145",75.34539,69.3871
"2146",77.696495,69.40042
"2147",80.35523,69.41376
"2148",82.99443,69.42709
"2149",85.279625,69.44043
"2150",86.97398,69.45375
"2151",87.96521,69.46709
"2152",88.272835,69.48042
"2153",87.992065,69.49376
"2154",87.274284,69.50708
"2155",86.28062,69.52042
"2156",85.14046,69.53375
"2157",83.929504,69.54709
"2158",82.69413,69.56041
"2159",81.461205,69.573746
"2160",80.26734,69.58708
"2161",79.168686,69.60042
"2162",78.22873,69.61374
"2163",77.503624,69.627075
"2164",77.03487,69.64041
"2165",76.8127,69.65375
"2166",76.79317,69.66707
"2167",76.895706,69.680405
"2168",77.04219,69.69374
"2169",77.152054,69.70708
"2170",77.17403,69.7204
"2171",77.08125,69.733734
"2172",76.876175,69.74707
"2173",76.57099,69.76041
"2174",76.18036,69.77373
"2175",75.73113,69.78706
"2176",75.24284,69.8004
"2177",74.74479,69.813736
"2178",74.25407,69.82706
"2179",73.797516,69.84039
"2180",73.38247,69.85373
"2181",73.01381,69.867065
"2182",72.69398,69.88039
"2183",72.464485,69.89372
"2184",72.410774,69.90706
"2185",72.69886,69.920395
"2186",73.51675,69.933716
"2187",74.97673,69.94705
"2188",77.06416,69.96039
"2189",79.61791,69.973724
"2190",82.337685,69.987045
"2191",84.874344,70.00038
"2192",86.93248,70.01372
"2193",88.341194,70.027054
"2194",89.06386,70.040375
"2195",89.161514,70.05371
"2196",88.75868,70.06705
"2197",88.006714,70.08038
"2198",87.04234,70.093704
"2199",85.96811,70.10704
"2200",84.84993,70.12038
"2201",83.72442,70.13371
"2202",82.61356,70.14703
"2203",81.54177,70.16037
"2204",80.54078,70.173706
"2205",79.64721,70.18704
"2206",78.9099,70.20036
"2207",78.35325,70.2137
"2208",77.98215,70.227036
"2209",77.77951,70.24037
"2210",77.69405,70.25369
"2211",77.66964,70.26703
"2212",77.65255,70.280365
"2213",77.593956,70.2937
"2214",77.46212,70.30702
"2215",77.24727,70.32036
"2216",76.93721,70.333694
"2217",76.53193,70.34703
"2218",76.04852,70.36035
"2219",75.508965,70.37369
"2220",74.949875,70.387024
"2221",74.38834,70.40036
"2222",73.8439,70.41368
"2223",73.32632,70.42702
"2224",72.83803,70.44035
"2225",72.39857,70.45369
"2226",72.03479,70.46701
"2227",71.83215,70.48035
"2228",71.92981,70.49368
"2229",72.498665,70.50702
"2230",73.67544,70.52034
"2231",75.48943,70.533676
"2232",77.823456,70.54701
"2233",80.430916,70.56035
"2234",82.984665,70.57367
"2235",85.17464,70.587006
"2236",86.79576,70.60034
"2237",87.77234,70.61368
"2238",88.13611,70.627
"2239",87.99451,70.640335
"2240",87.48669,70.65367
"2241",86.751816,70.66701
"2242",85.9144,70.68033
"2243",85.0428,70.693665
"2244",84.16632,70.707
"2245",83.282524,70.72034
"2246",82.38163,70.73366
"2247",81.47341,70.746994
"2248",80.601814,70.76033
"2249",79.815674,70.77367
"2250",79.17357,70.78699
"2251",78.709694,70.80032
"2252",78.41917,70.81366
"2253",78.27024,70.826996
"2254",78.20187,70.84032
"2255",78.16037,70.85365
"2256",78.1091,70.86699
"2257",78.01877,70.880325
"2258",77.86984,70.89365
"2259",77.65011,70.90698
"2260",77.36935,70.92032
"2261",77.04219,70.933655
"2262",76.67841,70.946976
"2263",76.29267,70.96031
"2264",75.911804,70.97365
"2265",75.55291,70.986984
"2266",75.23308,71.000305
"2267",74.95964,71.01364
"2268",74.72282,71.02698
"2269",74.51774,71.04031
"2270",74.339516,71.053635
"2271",74.21011,71.06697
"2272",74.19791,71.08031
"2273",74.4567,71.09364
"2274",75.157394,71.106964
"2275",76.422066,71.1203
"2276",78.26292,71.13364
"2277",80.55543,71.14697
"2278",83.05058,71.16029
"2279",85.43343,71.17363
"2280",87.415886,71.186966
"2281",88.81972,71.2003
"2282",89.583885,71.21362
"2283",89.740135,71.22696
"2284",89.38857,71.240295
"2285",88.673225,71.25363
"2286",87.725945,71.26695
"2287",86.65171,71.28029
"2288",85.52621,71.293625
"2289",84.3885,71.30696
"2290",83.25811,71.32028
"2291",82.14969,71.33362
"2292",81.09743,71.346954
"2293",80.14526,71.36029
"2294",79.34203,71.37361
"2295",78.72434,71.38695
"2296",78.30442,71.40028
"2297",78.06271,71.41362
"2298",77.962616,71.42694
"2299",77.943085,71.44028
"2300",77.945526,71.45361
"2301",77.92111,71.46695
"2302",77.82834,71.48027
"2303",77.65499,71.49361
"2304",77.3962,71.50694
"2305",77.06416,71.52028
"2306",76.6833,71.5336
"2307",76.2707,71.546936
"2308",75.85565,71.56027
"2309",75.45525,71.57361
"2310",75.07683,71.58693
"2311",74.72282,71.600266
"2312",74.39567,71.6136
"2313",74.090485,71.62694
"2314",73.80728,71.64026
"2315",73.55825,71.653595
"2316",73.34585,71.66693
"2317",73.19203,71.68027
"2318",73.16518,71.69359
"2319",73.402,71.706924
"2320",74.07095,71.72026
"2321",75.31121,71.7336
"2322",77.152054,71.74692
"2323",79.47875,71.760254
"2324",82.0325,71.77359
"2325",84.491035,71.78693
"2326",86.556496,71.80025
"2327",88.026245,71.81358
"2328",88.83925,71.82692
"2329",89.039444,71.840256
"2330",88.7367,71.85358
"2331",88.077515,71.86691
"2332",87.203476,71.88025
"2333",86.21713,71.893585
"2334",85.189285,71.906906
"2335",84.16144,71.92024
"2336",83.15068,71.93358
"2337",82.18875,71.946915
"2338",81.31716,71.960236
"2339",80.57252,71.97357
"2340",79.99878,71.98691
"2341",79.62035,72.000244
"2342",79.43725,72.013565
"2343",79.42016,72.0269
"2344",79.52758,72.04024
"2345",79.70092,72.05357
"2346",79.87427,72.066895
"2347",79.99634,72.08023
"2348",80.02319,72.09357
"2349",79.937744,72.1069
"2350",79.744865,72.120224
"2351",79.45678,72.13356
"2352",79.10521,72.1469
"2353",78.72434,72.16023
"2354",78.3386,72.17355
"2355",77.95529,72.18689
"2356",77.58663,72.200226
"2357",77.23262,72.21356
"2358",76.8835,72.22688
"2359",76.544136,72.24022
"2360",76.21454,72.253555
"2361",75.8996,72.26689
"2362",75.6115,72.28021
"2363",75.386894,72.29355
"2364",75.30389,72.306885
"2365",75.494316,72.32022
"2366",76.13397,72.33354
"2367",77.35226,72.34688
"2368",79.1638,72.360214
"2369",81.444115,72.37355
"2370",83.94415,72.38687
"2371",86.33433,72.40021
"2372",88.324104,72.41354
"2373",89.720604,72.42688
"2374",90.4506,72.4402
"2375",90.55558,72.45354
"2376",90.125885,72.46687
"2377",89.30312,72.48021
"2378",88.224,72.49353
"2379",87.01305,72.50687
"2380",85.753265,72.5202
"2381",84.51301,72.53354
"2382",83.336235,72.54686
"2383",82.25956,72.560196
"2384",81.31716,72.57353
"2385",80.55543,72.58687
"2386",80.0061,72.60019
"2387",79.676506,72.613525
"2388",79.551994,72.62686
"2389",79.586174,72.6402
"2390",79.7058,72.65352
"2391",79.83765,72.666855
"2392",79.91577,72.68019
"2393",79.903564,72.69353
"2394",79.77905,72.70685
"2395",79.54711,72.720184
"2396",79.2224,72.73352
"2397",78.82933,72.74686
"2398",78.38743,72.76018
"2399",77.91867,72.77351
"2400",77.44991,72.78685
"2401",76.995804,72.800186
"2402",76.561226,72.81351
"2403",76.15106,72.82684
"2404",75.76532,72.84018
"2405",75.41131,72.853516
"2406",75.10124,72.86684
"2407",74.89128,72.88017
"2408",74.896164,72.89351
"2409",75.29412,72.906845
"2410",76.23407,72.920166
"2411",77.79416,72.9335
"2412",79.91089,72.94684
"2413",82.37675,72.960175
"2414",84.874344,72.973495
"2415",87.07408,72.98683
"2416",88.71961,73.00017
"2417",89.686424,73.013504
"2418",89.969635,73.026825
"2419",89.654686,73.04016
"2420",88.87587,73.0535
"2421",87.78943,73.06683
"2422",86.519875,73.080154
"2423",85.16731,73.09349
"2424",83.809875,73.10683
"2425",82.50858,73.12016
"2426",81.31716,73.133484
"2427",80.308846,73.14682
"2428",79.53002,73.16016
"2429",79.01732,73.17349
"2430",78.77318,73.18681
"2431",78.765854,73.20015
"2432",78.92943,73.213486
"2433",79.18089,73.22682
"2434",79.43969,73.24014
"2435",79.62768,73.25348
"2436",79.69848,73.266815
"2437",79.63012,73.28015
"2438",79.42748,73.29347
"2439",79.114975,73.30681
"2440",78.712135,73.320145
"2441",78.25803,73.33348
"2442",77.77219,73.3468
"2443",77.27657,73.36014
"2444",76.79317,73.373474
"2445",76.33173,73.38681
"2446",75.90204,73.40013
"2447",75.52361,73.41347
"2448",75.24773,73.4268
"2449",75.20134,73.44014
"2450",75.56756,73.45346
"2451",76.51728,73.4668
"2452",78.133514,73.48013
"2453",80.34791,73.49347
"2454",82.948044,73.50679
"2455",85.58968,73.52013
"2456",87.92859,73.53346
"2457",89.69375,73.5468
"2458",90.75334,73.56012
"2459",91.090256,73.573456
"2460",90.794846,73.58679
"2461",90.003815,73.60013
"2462",88.87587,73.61345
"2463",87.552605,73.626785
"2464",86.14145,73.64012
"2465",84.72053,73.65346
"2466",83.35577,73.66678
"2467",82.1033,73.680115
"2468",81.02907,73.69345
"2469",80.19165,73.70679
"2470",79.62768,73.72011
"2471",79.3518,73.733444
"2472",79.32983,73.74678
"2473",79.48852,73.76012
"2474",79.73022,73.77344
"2475",79.96704,73.78677
"2476",80.12573,73.80011
"2477",80.15991,73.813446
"2478",80.04028,73.82677
"2479",79.766846,73.8401
"2480",79.3518,73.85344
"2481",78.8098,73.866776
"2482",78.15793,73.8801
"2483",77.435265,73.89343
"2484",76.680855,73.90677
"2485",75.9411,73.920105
"2486",75.264824,73.933426
"2487",74.720375,73.94676
"2488",74.41764,73.9601
"2489",74.52506,73.973434
"2490",75.21843,73.986755
"2491",76.60517,74.00009
"2492",78.66575,74.01343
"2493",81.24147,74.026764
"2494",84.01984,74.040085
"2495",86.62974,74.05342
"2496",88.741585,74.06676
"2497",90.15762,74.08009
"2498",90.81682,74.093414
"2499",90.777756,74.10675
"2500",90.17471,74.12009
"2501",89.178604,74.13342
"2502",87.953,74.14674
"2503",86.61509,74.16008
"2504",85.24544,74.173416
"2505",83.90997,74.18675
"2506",82.667274,74.20007
"2507",81.56863,74.21341
"2508",80.66773,74.226746
"2509",80.02319,74.24008
"2510",79.6643,74.2534
"2511",79.569084,74.26674
"2512",79.67895,74.280075
"2513",79.8938,74.29341
"2514",80.10864,74.30673
"2515",80.23071,74.32007
"2516",80.19165,74.333405
"2517",79.96948,74.34674
"2518",79.569084,74.36006
"2519",79.01732,74.3734
"2520",78.35813,74.386734
"2521",77.63058,74.40007
"2522",76.87862,74.41339
"2523",76.14618,74.42673
"2524",75.47723,74.44006
"2525",74.932785,74.4534
"2526",74.63004,74.46672
"2527",74.73502,74.48006
"2528",75.403984,74.49339
"2529",76.72724,74.50673
"2530",78.66331,74.52005
"2531",81.01198,74.53339
"2532",83.46319,74.54672
"2533",85.67025,74.56006
"2534",87.35485,74.57338
"2535",88.36561,74.586716
"2536",88.687874,74.60005
"2537",88.41444,74.61339
"2538",87.70641,74.62671
"2539",86.73228,74.640045
"2540",85.61898,74.65338
"2541",84.44709,74.66672
"2542",83.25323,74.68004
"2543",82.04959,74.693375
"2544",80.87282,74.70671
"2545",79.76196,74.72005
"2546",78.7805,74.73337
"2547",77.98459,74.746704
"2548",77.40841,74.76004
"2549",77.03975,74.77338
"2550",76.84932,74.7867
"2551",76.77608,74.80003
"2552",76.754105,74.81337
"2553",76.715034,74.826706
"2554",76.60273,74.84003
"2555",76.36591,74.85336
"2556",75.98749,74.8667
"2557",75.50408,74.880035
"2558",74.9572,74.89336
"2559",74.3859,74.90669
"2560",73.814606,74.92003
"2561",73.27749,74.933365
"2562",72.80629,74.946686
"2563",72.44984,74.96002
"2564",72.31556,74.97336
"2565",72.5597,74.986694
"2566",73.304344,75.000015
"2567",74.59098,75.01335
"2568",76.35371,75.02669
"2569",78.433815,75.04002
"2570",80.57496,75.053345
"2571",82.50858,75.06668
"2572",84.03204,75.08002
"2573",85.04036,75.09335
"2574",85.523766,75.106674
"2575",85.56039,75.12001
"2576",85.27718,75.13335
"2577",84.78645,75.14668
"2578",84.16144,75.16
"2579",83.438774,75.17334
"2580",82.62577,75.186676
"2581",81.72976,75.20001
"2582",80.77272,75.21333
"2583",79.80591,75.22667
"2584",78.89769,75.240005
"2585",78.11398,75.25334
"2586",77.49386,75.26666
"2587",77.049515,75.28
"2588",76.76875,75.293335
"2589",76.612495,75.30667
"2590",76.52705,75.31999
"2591",76.453804,75.33333
"2592",76.35371,75.346664
"2593",76.192566,75.36
"2594",75.96796,75.37332
"2595",75.684746,75.38666
"2596",75.355156,75.399994
"2597",74.9987,75.41333
"2598",74.6276,75.42665
"2599",74.251625,75.43999
"2600",73.88052,75.45332
"2601",73.52407,75.46666
"2602",73.20668,75.47998
"2603",72.96498,75.49332
"2604",72.87221,75.50665
"2605",73.043106,75.51999
"2606",73.6144,75.53331
"2607",74.67155,75.546646
"2608",76.209656,75.55998
"2609",78.11154,75.57332
"2610",80.15991,75.58664
"2611",82.10086,75.599976
"2612",83.71221,75.61331
"2613",84.86702,75.62665
"2614",85.54574,75.639984
"2615",85.804535,75.65332
"2616",85.74105,75.66666
"2617",85.46761,75.67999
"2618",85.07698,75.69333
"2619",84.613106,75.706665
"2620",84.08331,75.72
"2621",83.47784,75.73334
"2622",82.78935,75.74667
"2623",82.037384,75.76001
"2624",81.25613,75.773346
"2625",80.50172,75.78668
"2626",79.83276,75.80002
"2627",79.29565,75.813354
"2628",78.907455,75.82669
"2629",78.658424,75.84003
"2630",78.504616,75.85336
"2631",78.38743,75.8667
"2632",78.24582,75.880035
"2633",78.05539,75.89337
"2634",77.80148,75.90671
"2635",77.488976,75.920044
"2636",77.137405,75.93338
"2637",76.76143,75.94672
"2638",76.3708,75.96005
"2639",75.965515,75.97339
"2640",75.57,75.986725
"2641",75.20134,76.00006
"2642",74.86931,76.0134
"2643",74.58366,76.02673
"2644",74.3444,76.04007
"2645",74.15152,76.053406
"2646",73.99771,76.06674
"2647",73.882965,76.08008
"2648",73.797516,76.093414
"2649",73.738914,76.10675
"2650",73.704735,76.12009
"2651",73.69497,76.13342
"2652",73.69985,76.14676
"2653",73.724266,76.160095
"2654",73.75845,76.17343
"2655",73.797516,76.18677
"2656",73.83414,76.2001
"2657",73.85855,76.21344
"2658",73.87076,76.226776
"2659",73.865875,76.24011
"2660",73.863434,76.25345
"2661",73.91226,76.266785
"2662",74.11978,76.28012
"2663",74.64713,76.29346
"2664",75.62127,76.30679
"2665",77.086136,76.32013
"2666",78.96117,76.333466
"2667",81.04372,76.3468
"2668",83.06767,76.36014
"2669",84.77913,76.373474
"2670",86.04135,76.38681
"2671",86.8275,76.40015
"2672",87.19371,76.41348
"2673",87.25475,76.42682
"2674",87.12779,76.440155
"2675",86.908066,76.45349
"2676",86.64927,76.46683
"2677",86.363625,76.48016
"2678",86.0267,76.4935
"2679",85.6141,76.506836
"2680",85.103836,76.52017
"2681",84.5008,76.53351
"2682",83.83917,76.546844
"2683",83.18486,76.56018
"2684",82.59403,76.57352
"2685",82.108185,76.58685
"2686",81.73464,76.60019
"2687",81.46609,76.613525
"2688",81.26833,76.62686
"2689",81.09987,76.6402
"2690",80.91676,76.653534
"2691",80.69947,76.66687
"2692",80.4358,76.68021
"2693",80.130615,76.69354
"2694",79.78638,76.70688
"2695",79.42016,76.720215
"2696",79.04173,76.73355
"2697",78.66819,76.74689
"2698",78.30686,76.76022
"2699",77.96994,76.77356
"2700",77.662315,76.786896
"2701",77.39376,76.80023
"2702",77.15938,76.81357
"2703",76.961624,76.826904
"2704",76.79561,76.84024
"2705",76.663765,76.85358
"2706",76.5539,76.86691
"2707",76.46845,76.88025
"2708",76.404976,76.893585
"2709",76.35859,76.90692
"2710",76.32441,76.92026
"2711",76.299995,76.93359
"2712",76.27558,76.94693
"2713",76.23895,76.960266
"2714",76.18524,76.9736
"2715",76.112,76.98694
"2716",76.02411,77.000275
"2717",75.93622,77.01361
"2718",75.87274,77.02695
"2719",75.894714,77.04028
"2720",76.09979,77.05362
"2721",76.61494,77.066956
"2722",77.51827,77.08029
"2723",78.81712,77.09363
"2724",80.4065,77.106964
"2725",82.10574,77.1203
"2726",83.69268,77.13364
"2727",84.98665,77.14697
"2728",85.88754,77.16031
"2729",86.397804,77.173645
"2730",86.57847,77.18698
"2731",86.52476,77.20032
"2732",86.33189,77.21365
"2733",86.082855,77.22699
"2734",85.81674,77.240326
"2735",85.53353,77.25366
"2736",85.206375,77.267
"2737",84.805984,77.280334
"2738",84.32014,77.29367
"2739",83.76349,77.30701
"2740",83.192184,77.32034
"2741",82.66239,77.33368
"2742",82.22293,77.347015
"2743",81.898224,77.36035
"2744",81.685814,77.37369
"2745",81.55886,77.387024
"2746",81.47341,77.40036
"2747",81.38796,77.4137
"2748",81.26345,77.42703
"2749",81.077896,77.44037
"2750",80.82399,77.453705
"2751",80.51392,77.46704
"2752",80.16235,77.48038
"2753",79.79614,77.49371
"2754",79.429924,77.50705
"2755",79.06615,77.520386
"2756",78.7219,77.53372
"2757",78.397194,77.54706
"2758",78.10422,77.560394
"2759",77.838104,77.57373
"2760",77.608604,77.58707
"2761",77.41085,77.6004
"2762",77.24971,77.61374
"2763",77.117874,77.627075
"2764",77.015335,77.64041
"2765",76.93233,77.65375
"2766",76.86397,77.66708
"2767",76.805374,77.68042
"2768",76.749214,77.693756
"2769",76.6955,77.70709
"2770",76.64179,77.72043
"2771",76.58564,77.733765
"2772",76.524605,77.7471
"2773",76.456245,77.76044
"2774",76.39033,77.77377
"2775",76.32929,77.78711
"2776",76.30488,77.800446
"2777",76.40009,77.81378
"2778",76.73945,77.82712
"2779",77.437706,77.840454
"2780",78.55833,77.85379
"2781",80.06958,77.86713
"2782",81.83719,77.88046
"2783",83.64141,77.8938
"2784",85.25765,77.907135
"2785",86.51743,77.92047
"2786",87.345085,77.93381
"2787",87.75525,77.94714
"2788",87.82361,77.96048
"2789",87.64294,77.973816
"2790",87.31335,77.98715
"2791",86.91539,78.00049
"2792",86.485695,78.013824
"2793",86.03403,78.02716
"2794",85.5433,78.0405
"2795",84.998856,78.05383
"2796",84.40559,78.06717
"2797",83.792786,78.080505
"2798",83.21416,78.09384
"2799",82.720985,78.10718
"2800",82.354774,78.120514
"2801",82.12039,78.13385
"2802",81.99344,78.14719
"2803",81.92508,78.16052
"2804",81.86893,78.17386
"2805",81.77615,78.187195
"2806",81.61257,78.20053
"2807",81.36355,78.21387
"2808",81.03639,78.2272
"2809",80.64332,78.24054
"2810",80.21362,78.253876
"2811",79.764404,78.26721
"2812",79.31762,78.28055
"2813",78.890366,78.293884
"2814",78.48997,78.30722
"2815",78.12863,78.32056
"2816",77.806366,78.33389
"2817",77.53048,78.34723
"2818",77.296104,78.360565
"2819",77.10567,78.3739
"2820",76.9543,78.38724
"2821",76.839554,78.40057
"2822",76.749214,78.41391
"2823",76.67597,78.427246
"2824",76.60517,78.44058
"2825",76.524605,78.45392
"2826",76.43427,78.467255
"2827",76.33173,78.48059
"2828",76.23163,78.49393
"2829",76.16083,78.50726
"2830",76.1828,78.5206
"2831",76.41718,78.533936
"2832",77.00069,78.54727
"2833",78.0383,78.56061
"2834",79.54223,78.573944
"2835",81.41482,78.58728
"2836",83.4461,78.60062
"2837",85.38705,78.61395
"2838",87.010605,78.62729
"2839",88.182495,78.640625
"2840",88.868546,78.65396
"2841",89.12245,78.6673
"2842",89.037,78.68063
"2843",88.71961,78.69397
"2844",88.26551,78.707306
"2845",87.74792,78.72064
"2846",87.1815,78.73398
"2847",86.57603,78.747314
"2848",85.91196,78.76065
"2849",85.19417,78.77399
"2850",84.43,78.78732
"2851",83.66827,78.80066
"2852",82.96513,78.813995
"2853",82.371864,78.82733
"2854",81.91287,78.84067
"2855",81.5906,78.854004
"2856",81.375755,78.86734
"2857",81.22682,78.88068
"2858",81.08766,78.89401
"2859",80.91432,78.90735
"2860",80.67017,78.920685
"2861",80.34058,78.93402
"2862",79.93042,78.94736
"2863",79.45922,78.96069
"2864",78.94652,78.97403
"2865",78.41917,78.987366
"2866",77.89914,79.0007
"2867",77.40353,79.01404
"2868",76.94942,79.027374
"2869",76.54902,79.04071
"2870",76.20233,79.05405
"2871",75.911804,79.06738
"2872",75.67498,79.08072
"2873",75.48455,79.094055
"2874",75.335625,79.10739
"2875",75.228195,79.12073
"2876",75.157394,79.13406
"2877",75.10857,79.1474
"2878",75.0695,79.160736
"2879",75.03288,79.17407
"2880",74.98894,79.18741
"2881",74.932785,79.200745
"2882",74.86931,79.21408
"2883",74.82292,79.22742
"2884",74.85222,79.24075
"2885",75.08415,79.25409
"2886",75.68963,79.267426
"2887",76.822464,79.28076
"2888",78.54612,79.2941
"2889",80.77516,79.307434
"2890",83.302055,79.32077
"2891",85.81186,79.33411
"2892",88.006714,79.34744
"2893",89.66445,79.36078
"2894",90.70939,79.374115
"2895",91.15617,79.38745
"2896",91.10002,79.40079
"2897",90.67765,79.41412
"2898",90.03555,79.42746
"2899",89.2958,79.440796
"2900",88.5243,79.45413
"2901",87.74792,79.46747
"2902",86.95201,79.480804
"2903",86.11215,79.49414
"2904",85.21126,79.50748
"2905",84.26887,79.52081
"2906",83.34112,79.53415
"2907",82.48661,79.547485
"2908",81.76395,79.56082
"2909",81.20729,79.57416
"2910",80.80446,79.587494
"2911",80.52857,79.60083
"2912",80.323494,79.61417
"2913",80.1355,79.6275
"2914",79.91089,79.64084
"2915",79.62035,79.654175
"2916",79.24437,79.66751
"2917",78.78783,79.68085
"2918",78.26292,79.69418
"2919",77.69894,79.70752
"2920",77.11543,79.720856
"2921",76.541695,79.73419
"2922",75.99725,79.74753
"2923",75.4992,79.760864
"2924",75.0573,79.7742
"2925",74.67643,79.78754
"2926",74.36393,79.80087
"2927",74.12222,79.81421
"2928",73.93912,79.827545
"2929",73.814606,79.84088
"2930",73.74624,79.85422
"2931",73.7145,79.86755
"2932",73.704735,79.88089
"2933",73.70962,79.894226
"2934",73.71206,79.90756
"2935",73.70718,79.9209
"2936",73.68032,79.934235
"2937",73.633934,79.94757
"2938",73.58999,79.96091
"2939",73.61196,79.97424
"2940",73.831696,79.98758
"2941",74.44938,80.000916
"2942",75.64568,80.01425
"2943",77.50851,80.02759
"2944",79.96948,80.040924
"2945",82.80644,80.05426
"2946",85.677574,80.0676
"2947",88.22156,80.08093
"2948",90.160065,80.09427
"2949",91.36126,80.107605
"2950",91.8349,80.12094
"2951",91.68597,80.13428
"2952",91.07805,80.14761
"2953",90.194244,80.16095
"2954",89.18349,80.174286
"2955",88.14343,80.18762
"2956",87.12047,80.20096
"2957",86.11459,80.214294
"2958",85.1136,80.22763
"2959",84.10773,80.24097
"2960",83.106735,80.2543
"2961",82.15457,80.26764
"2962",81.304955,80.280975
"2963",80.60914,80.29431
"2964",80.09155,80.30765
"2965",79.742424,80.320984
"2966",79.534904,80.33432
"2967",79.40307,80.34766
"2968",79.27856,80.36099
"2969",79.11986,80.37433
"2970",78.8806,80.387665
"2971",78.54612,80.401
"2972",78.12131,80.41434
"2973",77.62081,80.42767
"2974",77.06416,80.44101
"2975",76.4831,80.454346
"2976",75.897156,80.46768
"2977",75.335625,80.48102
"2978",74.82048,80.494354
"2979",74.35905,80.50769
"2980",73.96109,80.52103
"2981",73.62905,80.53436
"2982",73.36294,80.5477
"2983",73.16518,80.561035
"2984",73.02846,80.57437
"2985",72.94057,80.58771
"2986",72.886856,80.60104
"2987",72.86,80.61438
"2988",72.84535,80.627716
"2989",72.82826,80.64105
"2990",72.81117,80.65439
"2991",72.798965,80.667725
"2992",72.8307,80.68106
"2993",73.02846,80.6944
"2994",73.58755,80.70773
"2995",74.71549,80.72107
"2996",76.541695,80.734406
"2997",79.03441,80.74774
"2998",81.988556,80.76108
"2999",85.04768,80.774414
"3000",87.82117,80.78775
"3001",89.97696,80.80109
"3002",91.34661,80.81442
"3003",91.90814,80.82776
"3004",91.74944,80.841095
"3005",91.04387,80.85443
"3006",89.9794,80.86777
"3007",88.74891,80.8811
"3008",87.47936,80.89444
"3009",86.2562,80.907776
"3010",85.103836,80.92111
"3011",84.02228,80.93445
"3012",83.00664,80.947784
"3013",82.07156,80.96112
"3014",81.24147,80.97446
"3015",80.552986,80.98779
"3016",80.04028,81.00113
"3017",79.710686,81.014465
"3018",79.53979,81.0278
"3019",79.483635,81.04114
"3020",79.48119,81.054474
"3021",79.46166,81.06781
"3022",79.37621,81.08115
"3023",79.18822,81.09448
"3024",78.8806,81.10782
"3025",78.45579,81.121155
"3026",77.94064,81.13449
"3027",77.36202,81.14783
"3028",76.75166,81.16116
"3029",76.1413,81.1745
"3030",75.56756,81.187836
"3031",75.04509,81.20117
"3032",74.581215,81.21451
"3033",74.18326,81.227844
"3034",73.85855,81.24118
"3035",73.59731,81.25452
"3036",73.402,81.26785
"3037",73.26528,81.28119
"3038",73.17006,81.294525
"3039",73.09926,81.30786
"3040",73.04555,81.3212
"3041",72.99184,81.33453
"3042",72.94545,81.34787
"3043",72.97475,81.361206
"3044",73.22621,81.37454
"3045",73.917145,81.38788
"3046",75.250175,81.401215
"3047",77.30831,81.41455
"3048",80.008545,81.42789
"3049",83.09453,81.44122
"3050",86.168304,81.45456
"3051",88.82216,81.467896
"3052",90.77043,81.48123
"3053",91.8764,81.49457
"3054",92.15228,81.507904
"3055",91.717705,81.52124
"3056",90.760666,81.53458
"3057",89.47646,81.54791
"3058",88.03845,81.56125
"3059",86.5687,81.574585
"3060",85.138016,81.58792
"3061",83.78546,81.60126
"3062",82.52567,81.61459
"3063",81.38796,81.62793
"3064",80.40894,81.641266
"3065",79.63256,81.6546
"3066",79.09056,81.66794
"3067",78.79027,81.681274
"3068",78.70481,81.69461
"3069",78.768295,81.70795
"3070",78.9099,81.72128
"3071",79.046616,81.73462
"3072",79.11009,81.747955
"3073",79.05638,81.76129
"3074",78.86107,81.77463
"3075",78.53391,81.787964
"3076",78.101776,81.8013
"3077",77.591515,81.81464
"3078",77.03731,81.82797
"3079",76.470894,81.84131
"3080",75.91669,81.854645
"3081",75.39422,81.86798
"3082",74.91814,81.88132
"3083",74.49821,81.89465
"3084",74.13443,81.90799
"3085",73.814606,81.921326
"3086",73.52895,81.93466
"3087",73.270164,81.948
"3088",73.04555,81.961334
"3089",72.91371,81.97467
"3090",73.03334,81.98801
"3091",73.636375,82.00134
"3092",74.94255,82.01468
"3093",77.049515,82.028015
"3094",79.86694,82.04135
"3095",83.11406,82.05469
"3096",86.36851,82.06802
"3097",89.195694,82.08136
"3098",91.27581,82.094696
"3099",92.46967,82.10803
"3100",92.77974,82.12137
"3101",92.318306,82.134705
"3102",91.27337,82.14804
"3103",89.85733,82.16138
"3104",88.2533,82.17471
"3105",86.60532,82.18805
"3106",85.00862,82.201385
"3107",83.509575,82.21472
"3108",82.13504,82.22806
"3109",80.902115,82.241394
"3110",79.84497,82.25473
"3111",79.00267,82.26807
"3112",78.4094,82.2814
"3113",78.065155,82.29474
"3114",77.943085,82.308075
"3115",77.977264,82.32141
"3116",78.08957,82.33475
"3117",78.19699,82.34808
"3118",78.24094,82.36142
"3119",78.184784,82.374756
"3120",78.00656,82.38809
"3121",77.7087,82.40143
"3122",77.30099,82.414764
"3123",76.81514,82.4281
"3124",76.27314,82.44144
"3125",75.716484,82.45477
"3126",75.16716,82.46811
"3127",74.64469,82.481445
"3128",74.158844,82.49478
"3129",73.7145,82.50812
"3130",73.3019,82.521454
"3131",72.92592,82.53479
"3132",72.586555,82.54813
"3133",72.29359,82.56146
"3134",72.13489,82.5748
"3135",72.31312,82.588135
"3136",73.091934,82.60147
"3137",74.6984,82.61481
"3138",77.196,82.62814
"3139",80.430916,82.64148
"3140",84.04913,82.654816
"3141",87.56725,82.66815
"3142",90.53605,82.68149
"3143",92.65278,82.694824
"3144",93.80759,82.70816
"3145",94.03952,82.7215
"3146",93.48287,82.73483
"3147",92.34028,82.74817
"3148",90.83879,82.761505
"3149",89.17616,82.77484
"3150",87.48669,82.78818
"3151",85.86557,82.80151
"3152",84.35432,82.81485
"3153",82.967575,82.828186
"3154",81.70779,82.84152
"3155",80.61402,82.85486
"3156",79.72289,82.868195
"3157",79.05882,82.88153
"3158",78.6218,82.89487
"3159",78.39475,82.9082
"3160",78.31907,82.92154
"3161",78.31663,82.934875
"3162",78.32395,82.94821
"3163",78.28489,82.96155
"3164",78.167694,82.974884
"3165",77.95041,82.98822
"3166",77.625694,83.00156
"3167",77.208206,83.01489
"3168",76.7248,83.02823
"3169",76.192566,83.041565
"3170",75.6408,83.0549
"3171",75.09148,83.06824
"3172",74.56168,83.08157
"3173",74.05875,83.09491
"3174",73.58999,83.108246
"3175",73.15053,83.12158
"3176",72.73792,83.13492
"3177",72.376595,83.148254
"3178",72.16174,83.16159
"3179",72.30091,83.17493
"3180",73.0724,83.18826
"3181",74.68864,83.2016
"3182",77.196,83.214935
"3183",80.42603,83.22827
"3184",84.00275,83.24161
"3185",87.4403,83.254944
"3186",90.28947,83.26828
"3187",92.26704,83.28162
"3188",93.280235,83.29495
"3189",93.37789,83.30829
"3190",92.70649,83.321625
"3191",91.473564,83.33496
"3192",89.898834,83.3483
"3193",88.16052,83.36163
"3194",86.38804,83.37497
"3195",84.664375,83.388306
"3196",83.035934,83.40164
"3197",81.529564,83.41498
"3198",80.184326,83.428314
"3199",79.05638,83.44165
"3200",78.18967,83.45499
"3201",77.61349,83.46832
"3202",77.31808,83.48166
"3203",77.25704,83.494995
"3204",77.35714,83.50833
"3205",77.53048,83.52167
"3206",77.68673,83.535
"3207",77.7673,83.54834
"3208",77.72579,83.561676
"3209",77.54757,83.57501
"3210",77.242386,83.58835
"3211",76.83467,83.601685
"3212",76.351265,83.61502
"3213",75.81903,83.62836
"3214",75.25994,83.64169
"3215",74.69352,83.65503
"3216",74.13931,83.668365
"3217",73.61196,83.6817
"3218",73.11879,83.69504
"3219",72.6598,83.708374
"3220",72.26429,83.72171
"3221",72.027466,83.73505
"3222",72.1593,83.74838
"3223",72.94301,83.76172
"3224",74.60319,83.775055
"3225",77.18623,83.78839
"3226",80.5066,83.80173
"3227",84.16876,83.81506
"3228",87.6527,83.8284
"3229",90.4921,83.841736
"3230",92.39887,83.85507
"3231",93.29488,83.86841
"3232",93.24361,83.881744
"3233",92.420845,83.89508
"3234",91.03166,83.90842
"3235",89.288475,83.92175
"3236",87.379265,83.93509
"3237",85.43343,83.948425
"3238",83.543755,83.96176
"3239",81.77127,83.9751
"3240",80.19165,83.988434
"3241",78.86351,84.00177
"3242",77.85031,84.01511
"3243",77.18379,84.02844
"3244",76.87129,84.04178
"3245",76.859085,84.055115
"3246",77.05684,84.06845
"3247",77.3547,84.08179
"3248",77.65743,84.09512
"3249",77.88205,84.10846
"3250",77.97482,84.121796
"3251",77.91135,84.13513
"3252",77.71603,84.14847
"3253",77.418175,84.161804
"3254",77.03975,84.17514
"3255",76.60029,84.18848
"3256",76.13397,84.20181
"3257",75.65545,84.21515
"3258",75.16228,84.228485
"3259",74.652016,84.24182
"3260",74.141754,84.25516
"3261",73.651024,84.26849
"3262",73.20912,84.28183
"3263",72.972305,84.295166
"3264",73.20424,84.3085
"3265",74.18326,84.32184
"3266",76.070496,84.335175
"3267",78.83421,84.34851
"3268",82.22293,84.36185
"3269",85.78989,84.37518
"3270",89.02724,84.38852
"3271",91.52239,84.401855
"3272",93.050735,84.41519
"3273",93.58053,84.42853
"3274",93.21187,84.441864
"3275",92.140076,84.4552
"3276",90.58488,84.46854
"3277",88.7538,84.48187
"3278",86.81041,84.49521
"3279",84.86702,84.508545
"3280",82.99687,84.52188
"3281",81.26589,84.53522
"3282",79.75464,84.54855
"3283",78.53391,84.56189
"3284",77.662315,84.575226
"3285",77.15938,84.58856
"3286",76.998245,84.6019
"3287",77.09834,84.615234
"3288",77.3547,84.62857
"3289",77.65743,84.64191
"3290",77.91135,84.65524
"3291",78.04318,84.66858
"3292",78.01633,84.681915
"3293",77.81857,84.69525
"3294",77.471886,84.70859
"3295",77.00069,84.721924
"3296",76.44892,84.73526
"3297",75.84589,84.7486
"3298",75.23064,84.76193
"3299",74.62516,84.77527
"3300",74.04654,84.788605
"3301",73.5021,84.80194
"3302",73.00893,84.81528
"3303",72.64271,84.82861
"3304",72.59144,84.84195
"3305",73.14076,84.855286
"3306",74.547035,84.86862
"3307",76.92012,84.88196
"3308",80.14282,84.895294
"3309",83.86359,84.90863
"3310",87.56237,84.92197
"3311",90.719154,84.9353
"3312",92.97017,84.94864
"3313",94.168915,84.961975
"3314",94.34959,84.97531
"3315",93.678185,84.98865
"3316",92.37446,85.00198
"3317",90.68253,85.01532
"3318",88.80507,85.028656
"3319",86.88121,85.04199
"3320",84.998856,85.05533
"3321",83.21416,85.068665
"3322",80.1355,85.09534
"3323",78.95628,85.10867
"3324",78.082245,85.12201
"3325",77.53536,85.135345
"3326",77.28634,85.14868
"3327",77.26925,85.16202
"3328",77.3962,85.175354
"3329",77.56466,85.18869
"3330",77.69405,85.20203
"3331",77.72091,85.21536
"3332",77.60616,85.2287
"3333",77.34249,85.242035
"3334",76.946976,85.25537
"3335",76.44404,85.26871
"3336",75.860535,85.28204
"3337",75.23308,85.29538
"3338",74.59098,85.308716
"3339",73.94888,85.32205
"3340",73.32632,85.33539
"3341",72.73304,85.348724
"3342",72.19592,85.36206
"3343",71.776,85.3754
"3344",71.65392,85.38873
"3345",72.11047,85.40207
"3346",73.426414,85.415405
"3347",75.736015,85.42874
"3348",78.958725,85.44208
"3349",82.74784,85.455414
"3350",86.58579,85.46875
"3351",89.918365,85.482086
"3352",92.34272,85.49542
"3353",93.68551,85.50876
"3354",93.97604,85.522095
"3355",93.385216,85.53543
"3356",92.154724,85.54877
"3357",90.53849,85.5621
"3358",88.7367,85.57544
"3359",86.89342,85.588776
"3360",85.08919,85.60211
"3361",83.36797,85.61545
"3362",81.77127,85.628784
"3363",80.343025,85.64212
"3364",79.14183,85.65546
"3365",78.21408,85.66879
"3366",77.58907,85.68213
"3367",77.25704,85.695465
"3368",77.16182,85.7088
"3369",77.222855,85.72214
"3370",77.347374,85.73547
"3371",77.452354,85.74881
"3372",77.467,85.762146
"3373",77.347374,85.77548
"3374",77.08858,85.78882
"3375",76.700386,85.802155
"3376",76.207214,85.81549
"3377",75.63592,85.82883
"3378",75.020676,85.84216
"3379",74.38346,85.8555
"3380",73.738914,85.868835
"3381",73.109024,85.88217
"3382",72.50843,85.89551
"3383",71.95911,85.908844
"3384",71.49035,85.92218
"3385",71.20958,85.93552
"3386",71.3341,85.94885
"3387",72.15198,85.96219
"3388",73.88541,85.975525
"3389",76.58564,85.98886
"3390",80.062256,86.0022
"3391",83.88312,86.01553
"3392",87.501335,86.02887
"3393",90.41642,86.042206
"3394",92.32319,86.05554
"3395",93.14839,86.06888
"3396",93.00435,86.082214
"3397",92.09125,86.09555
"3398",90.667885,86.10889
"3399",88.96132,86.12222
"3400",87.14488,86.13556
"3401",85.32601,86.148895
"3402",83.57061,86.16223
"3403",81.92508,86.17557
"3404",80.43824,86.1889
"3405",79.168686,86.20224
"3406",78.17258,86.215576
"3407",77.49386,86.22891
"3408",77.12764,86.24225
"3409",77.02998,86.255585
"3410",77.120316,86.26892
"3411",77.296104,86.28226
"3412",77.46456,86.29559
"3413",77.54513,86.30893
"3414",77.486534,86.322266
"3415",77.27413,86.3356
"3416",76.91768,86.34894
"3417",76.4416,86.362274
"3418",75.88739,86.37561
"3419",75.29168,86.38895
"3420",74.68131,86.40228
"3421",74.08072,86.41562
"3422",73.51186,86.428955
"3423",72.97963,86.44229
"3424",72.4889,86.45563
"3425",72.042114,86.46896
"3426",71.641716,86.4823
"3427",71.29992,86.495636
"3428",71.09972,86.50897
"3429",71.23888,86.52231
"3430",72.00549,86.535645
"3431",73.66079,86.54898
"3432",76.30732,86.56232
"3433",79.783936,86.57565
"3434",83.700005,86.58899
"3435",87.49889,86.602325
"3436",90.650795,86.61566
"3437",92.80171,86.629
"3438",93.84177,86.642334
"3439",93.84909,86.65567
"3440",93.02632,86.66901
"3441",91.62493,86.68234
"3442",89.88907,86.69568
"3443",88.0116,86.709015
"3444",86.117035,86.72235
"3445",84.283516,86.73569
"3446",82.55985,86.74902
"3447",81.004654,86.76236
"3448",79.676506,86.775696
"3449",78.63889,86.78903
"3450",77.9382,86.80237
"3451",77.576866,86.815704
"3452",77.50118,86.82904
"3453",77.628136,86.84238
"3454",77.85275,86.85571
"3455",78.0676,86.86905
"3456",78.18234,86.882385
"3457",78.14572,86.89572
"3458",77.93576,86.90906
"3459",77.557335,86.92239
"3460",77.04219,86.93573
"3461",76.43427,86.949066
"3462",75.775085,86.9624
"3463",75.106125,86.97574
"3464",74.459145,86.989075
"3465",73.85611,87.00241
"3466",73.306786,87.01575
"3467",72.82094,87.02908
"3468",72.38636,87.04242
"3469",72.00061,87.055756
"3470",71.66369,87.06909
"3471",71.380486,87.08243
"3472",71.2047,87.095764
"3473",71.29748,87.1091
"3474",71.939575,87.12244
"3475",73.411766,87.13577
"3476",75.86786,87.14911
"3477",79.234604,87.162445
"3478",83.177536,87.17578
"3479",87.166855,87.18912
"3480",90.64103,87.20245
"3481",93.18257,87.21579
"3482",94.608376,87.229126
"3483",94.95506,87.24246
"3484",94.4033,87.2558
"3485",93.19722,87.269135
"3486",91.59319,87.28247
"3487",89.80606,87.29581
"3488",87.989624,87.30914
"3489",86.21469,87.32248
"3490",84.51789,87.335815
"3491",82.92851,87.34915
"3492",81.48806,87.36249
"3493",80.23804,87.375824
"3494",79.234604,87.38916
"3495",78.51682,87.4025
"3496",78.09201,87.41583
"3497",77.91623,87.42917
"3498",77.90158,87.442505
"3499",77.96506,87.45584
"3500",78.013885,87.46918
"3501",77.977264,87.48251
"3502",77.803925,87.49585
"3503",77.48409,87.509186
"3504",77.02754,87.52252
"3505",76.46113,87.53586
"3506",75.81903,87.549194
"3507",75.142746,87.56253
"3508",74.461586,87.57587
"3509",73.80484,87.5892
"3510",73.19447,87.60254
"3511",72.64759,87.615875
"3512",72.16907,87.62921
"3513",71.75891,87.64255
"3514",71.40246,87.65588
"3515",71.09483,87.66922
"3516",70.84825,87.682556
"3517",70.73594,87.69589
"3518",70.94591,87.70923
"3519",71.75647,87.722565
"3520",73.43618,87.7359
"3521",76.09491,87.74924
"3522",79.603264,87.76257
"3523",83.58282,87.77591
"3524",87.49401,87.789246
"3525",90.792404,87.80258
"3526",93.10933,87.81592
"3527",94.31541,87.829254
"3528",94.48142,87.84259
"3529",93.81979,87.85593
"3530",92.58198,87.86926
"3531",91.01457,87.8826
"3532",89.31045,87.895935
"3533",87.59655,87.90927
"3534",85.926605,87.92261
"3535",84.32502,87.93594
"3536",82.80888,87.94928
"3537",81.409935,87.962616
"3538",80.16724,87.97595
"3539",79.14183,87.98929
"3540",78.37522,88.002625
"3541",77.88205,88.01596
"3542",77.63302,88.0293
"3543",77.56954,88.04263
"3544",77.60372,88.05597
"3545",77.642784,88.069305
"3546",77.60616,88.08264
"3547",77.44503,88.09598
"3548",77.13985,88.109314
"3549",76.697945,88.12265
"3550",76.15106,88.13599
"3551",75.53094,88.14932
"3552",74.87175,88.16266
"3553",74.20279,88.175995
"3554",73.55093,88.18933
"3555",72.94545,88.20267
"3556",72.39857,88.216
"3557",71.91272,88.22934
"3558",71.49767,88.242676
"3559",71.148544,88.25601
"3560",70.85802,88.26935
"3561",70.62852,88.282684
"3562",70.5333,88.29602
"3563",70.74082,88.30936
"3564",71.52209,88.32269
"3565",73.145645,88.33603
"3566",75.7409,88.349365
"3567",79.200424,88.3627
"3568",83.16533,88.37604
"3569",87.10338,88.38937
"3570",90.47013,88.40271
"3571",92.87984,88.416046
"3572",94.17868,88.42938
"3573",94.415504,88.44272
"3574",93.78317,88.456055
"3575",92.53071,88.46939
"3576",90.90715,88.48273
"3577",89.11513,88.49606
"3578",87.293816,88.5094
"3579",85.521324,88.522736
"3580",83.82941,88.53607
"3581",82.24979,88.54941
"3582",80.82155,88.562744
"3583",79.59838,88.57608
"3584",78.63889,88.58942
"3585",77.979706,88.60275
"3586",77.62081,88.61609
"3587",77.51095,88.629425
"3588",77.576866,88.64276
"3589",77.71603,88.6561
"3590",77.83566,88.66943
"3591",77.857635,88.68277
"3592",77.738,88.696106
"3593",77.45968,88.70944
"3594",77.03731,88.72278
"3595",76.50019,88.736115
"3596",75.88251,88.74945
"3597",75.22087,88.76279
"3598",74.55192,88.77612
"3599",73.9025,88.78946
"3600",73.3019,88.802795
"3601",72.764786,88.81613
"3602",72.29847,88.82947
"3603",71.89807,88.842804
"3604",71.56115,88.85614
"3605",71.27795,88.86948
"3606",71.046005,88.88281
"3607",70.872665,88.89615
"3608",70.82872,88.909485
"3609",71.10216,88.92282
"3610",71.96155,88.93616
"3611",73.68032,88.94949
"3612",76.368355,88.96283
"3613",79.91089,88.976166
"3614",83.92462,88.9895
"3615",87.86267,89.00284
"3616",91.18059,89.016174
"3617",93.504845,89.02951
"3618",94.68894,89.04285
"3619",94.79637,89.05618
"3620",94.032196,89.06952
"3621",92.65034,89.082855
"3622",90.914474,89.09619
"3623",89.02724,89.10953
"3624",87.13023,89.12286
"3625",85.29427,89.1362
"3626",83.5584,89.149536
"3627",81.95682,89.16287
"3628",80.54566,89.17621
"3629",79.3933,89.189545
"3630",78.56077,89.20288
"3631",78.07248,89.21622
"3632",77.91135,89.22955
"3633",78.00168,89.24289
"3634",78.23117,89.256226
"3635",78.48997,89.26956
"3636",78.67307,89.2829
"3637",78.70481,89.296234
"3638",78.553444,89.30957
"3639",78.221405,89.32291
"3640",77.73556,89.33624
"3641",77.13008,89.34958
"3642",76.456245,89.362915
"3643",75.755554,89.37625
"3644",75.06218,89.38959
"3645",74.4152,89.40292
"3646",73.829254,89.41626
"3647",73.31899,89.429596
"3648",72.87709,89.44293
"3649",72.49378,89.45627
"3650",72.164185,89.469604
"3651",71.88098,89.48294
"3652",71.641716,89.49628
"3653",71.47814,89.50961
"3654",71.49767,89.52295
"3655",71.91272,89.536285
"3656",73.01137,89.54962
"3657",75.018234,89.56296
"3658",77.97482,89.576294
"3659",81.66384,89.58963
"3660",85.645836,89.60297
"3661",89.36172,89.6163
"3662",92.31098,89.62964
"3663",94.19821,89.642975
"3664",94.96971,89.65631
"3665",94.74998,89.66965
"3666",93.76608,89.68298
"3667",92.26215,89.69632
"3668",90.477455,89.709656
"3669",88.58289,89.72299
"3670",86.68101,89.73633
"3671",84.83772,89.749664
"3672",83.09697,89.763
"3673",81.51736,89.77634
"3674",80.16235,89.78967
"3675",79.10521,89.80301
"3676",78.399635,89.816345
"3677",78.05539,89.82968
"3678",78.01877,89.84302
"3679",78.19699,89.85635
"3680",78.47288,89.86969
"3681",78.72678,89.883026
"3682",78.86595,89.89636
"3683",78.83421,89.9097
"3684",78.61448,89.923035
"3685",78.21652,89.93637
"3686",77.67452,89.94971
"3687",77.03487,89.96304
"3688",76.34394,89.97638
"3689",75.63836,89.989716
"3690",74.95476,90.00305
"3691",74.31754,90.01639
"3692",73.73647,90.029724
"3693",73.20912,90.04306
"3694",72.73304,90.0564
"3695",72.30579,90.06973
"3696",71.92981,90.08307
"3697",71.639275,90.096405
"3698",71.5465,90.10974
"3699",71.88098,90.12308
"3700",72.918594,90.13641
"3701",74.86931,90.14975
"3702",77.747765,90.163086
"3703",81.324486,90.17642
"3704",85.152664,90.18976
"3705",88.69276,90.203094
"3706",91.476006,90.21643
"3707",93.23872,90.22977
"3708",93.941864,90.2431
"3709",93.712364,90.25644
"3710",92.752884,90.269775
"3711",91.302666,90.28311
"3712",89.583885,90.29645
"3713",87.7699,90.309784
"3714",85.95346,90.32312
"3715",84.19562,90.33646
"3716",82.533,90.34979
"3717",81.00954,90.36313
"3718",79.67162,90.376465
"3719",78.58762,90.3898
"3720",77.81369,90.40314
"3721",77.366905,90.41647
"3722",77.21553,90.42981
"3723",77.28878,90.443146
"3724",77.48165,90.45648
"3725",77.69161,90.46982
"3726",77.8259,90.483154
"3727",77.821014,90.49649
"3728",77.645226,90.50983
"3729",77.30831,90.52316
"3730",76.839554,90.5365
"3731",76.28535,90.549835
"3732",75.67498,90.56317
"3733",75.04753,90.57651
"3734",74.42741,90.58984
"3735",73.83658,90.60318
"3736",73.28481,90.616516
"3737",72.77455,90.62985
"3738",72.308235,90.64319
"3739",71.885864,90.656525
"3740",71.54894,90.66986
"3741",71.40978,90.6832
"3742",71.70031,90.69653
"3743",72.7013,90.70987
"3744",74.615395,90.723206
"3745",77.44991,90.73654
"3746",80.98512,90.74988
"3747",84.78157,90.763214
"3748",88.29969,90.77655
"3749",91.08293,90.78989
"3750",92.88228,90.80322
"3751",93.65133,90.81656
"3752",93.49996,90.829895
"3753",92.63813,90.84323
"3754",91.30511,90.85657
"3755",89.723045,90.8699
"3756",88.05554,90.88324
"3757",86.41245,90.896576
"3758",84.83772,90.90991
"3759",83.34356,90.92325
"3760",81.93973,90.936584
"3761",80.65308,90.94992
"3762",79.52758,90.96326
"3763",78.624245,90.97659
"3764",77.98215,90.98993
"3765",77.59884,91.003265
"3766",77.44259,91.0166
"3767",77.44503,91.02994
"3768",77.51339,91.043274
"3769",77.55489,91.05661
"3770",77.503624,91.06995
"3771",77.31075,91.08328
"3772",76.97139,91.09662
"3773",76.50263,91.109955
"3774",75.9411,91.12329
"3775",75.32342,91.13663
"3776",74.686195,91.14996
"3777",74.05875,91.1633
"3778",73.463036,91.176636
"3779",72.90639,91.18997
"3780",72.40589,91.20331
"3781",71.95422,91.216644
"3782",71.55627,91.22998
"3783",71.219345,91.24332
"3784",70.99718,91.25665
"3785",71.026474,91.26999
"3786",71.55871,91.283325
"3787",72.85756,91.29666
"3788",75.07683,91.31
"3789",78.16281,91.32333
"3790",81.82742,91.33667
"3791",85.59457,91.350006
"3792",88.95155,91.36334
"3793",91.493095,91.37668
"3794",93.033646,91.390015
"3795",93.58541,91.40335
"3796",93.29488,91.41669
"3797",92.3769,91.43002
"3798",91.06584,91.44336
"3799",89.55947,91.456696
"3800",87.99939,91.47003
"3801",86.45884,91.48337
"3802",84.96712,91.496704
"3803",83.5169,91.51004
"3804",82.12039,91.52338
"3805",80.80446,91.53671
"3806",79.62768,91.55005
"3807",78.64866,91.563385
"3808",77.92111,91.57672
"3809",77.44991,91.59006
"3810",77.21553,91.60339
"3811",77.14961,91.61673
"3812",77.171585,91.630066
"3813",77.19844,91.6434
"3814",77.15938,91.65674
"3815",77.00557,91.670074
"3816",76.72724,91.68341
"3817",76.32685,91.69675
"3818",75.826355,91.71008
"3819",75.25506,91.72342
"3820",74.652016,91.736755
"3821",74.0441,91.75009
"3822",73.463036,91.76343
"3823",72.92592,91.776764
"3824",72.45472,91.7901
"3825",72.044556,91.80344
"3826",71.69543,91.81677
"3827",71.395134,91.83011
"3828",71.14366,91.843445
"3829",70.941025,91.85678
"3830",70.8629,91.87012
"3831",71.0753,91.88345
"3832",71.84192,91.89679
"3833",73.409325,91.910126
"3834",75.89227,91.92346
"3835",79.168686,91.9368
"3836",82.90898,91.950134
"3837",86.61753,91.96347
"3838",89.79874,91.97681
"3839",92.10834,91.99014
"3840",93.416954,92.00348
"3841",93.77341,92.016815
"3842",93.34615,92.03015
"3843",92.35737,92.04349
"3844",91.03899,92.05682
"3845",89.57412,92.07016
"3846",88.09216,92.083496
"3847",86.64439,92.09683
"3848",85.243,92.11017
"3849",83.87335,92.123505
"3850",82.533,92.13684
"3851",81.24635,92.15018
"3852",80.07446,92.16351
"3853",79.08812,92.17685
"3854",78.34104,92.190186
"3855",77.84787,92.20352
"3856",77.58907,92.21686
"3857",77.503624,92.230194
"3858",77.51095,92.24353
"3859",77.5256,92.25687
"3860",77.47433,92.2702
"3861",77.30831,92.28354
"3862",77.01045,92.296875
"3863",76.5832,92.31021
"3864",76.050964,92.32355
"3865",75.44549,92.33688
"3866",74.80583,92.35022
"3867",74.158844,92.363556
"3868",73.53628,92.37689
"3869",72.96742,92.39023
"3870",72.47425,92.403564
"3871",72.06653,92.4169
"3872",71.74181,92.43024
"3873",71.49035,92.44357
"3874",71.29748,92.45691
"3875",71.150986,92.470245
"3876",71.0338,92.48358
"3877",70.93126,92.49692
"3878",70.86046,92.510254
"3879",70.853134,92.52359
"3880",71.00694,92.53693
"3881",71.52697,92.55026
"3882",72.66956,92.5636
"3883",74.63737,92.576935
"3884",77.44991,92.59027
"3885",80.91676,92.60361
"3886",84.65705,92.61694
"3887",88.17029,92.63028
"3888",91.01701,92.643616
"3889",92.928665,92.65695
"3890",93.839325,92.67029
"3891",93.839325,92.683624
"3892",93.12398,92.69696
"3893",91.92035,92.7103
"3894",90.45304,92.72363
"3895",88.90028,92.73697
"3896",87.37194,92.750305
"3897",85.91196,92.76364
"3898",84.525215,92.77698
"3899",83.209274,92.79031
"3900",81.969025,92.80365
"3901",80.83864,92.816986
"3902",79.871826,92.83032
"3903",79.11986,92.84366
"3904",78.60227,92.856995
"3905",78.311745,92.87033
"3906",78.19943,92.88367
"3907",78.19211,92.897
"3908",78.21408,92.91034
"3909",78.19455,92.923676
"3910",78.07736,92.93701
"3911",77.83078,92.95035
"3912",77.45968,92.963684
"3913",76.981155,92.97702
"3914",76.422066,92.99036
"3915",75.81415,93.00369
"3916",75.18669,93.01703
"3917",74.56901,93.030365
"3918",73.99039,93.0437
"3919",73.46548,93.05704
"3920",73.01381,93.07037
"3921",72.65003,93.08371
"3922",72.361946,93.097046
"3923",72.14221,93.11038
"3924",71.9762,93.12372
"3925",71.85657,93.137054
"3926",71.76868,93.15039
"3927",71.710075,93.16373
"3928",71.690544,93.17706
"3929",71.77844,93.1904
"3930",72.13489,93.203735
"3931",72.99916,93.21707
"3932",74.57145,93.23041
"3933",76.927444,93.243744
"3934",79.96216,93.25708
"3935",83.372856,93.27042
"3936",86.71519,93.28375
"3937",89.55947,93.29709
"3938",91.60296,93.310425
"3939",92.72114,93.32376
"3940",92.93843,93.3371
"3941",92.403755,93.35043
"3942",91.32708,93.36377
"3943",89.918365,93.377106
"3944",88.36805,93.39044
"3945",86.803085,93.40378
"3946",85.28695,93.417114
"3947",83.85138,93.43045
"3948",82.511024,93.44379
"3949",81.28298,93.45712
"3950",80.216064,93.47046
"3951",79.35912,93.483795
"3952",78.751205,93.49713
"3953",78.40696,93.51047
"3954",78.294655,93.5238
"3955",78.348366,93.53714
"3956",78.485085,93.550476
"3957",78.6218,93.56381
"3958",78.69016,93.57715
"3959",78.63889,93.590485
"3960",78.44602,93.60382
"3961",78.12131,93.61716
"3962",77.68429,93.63049
"3963",77.15938,93.64383
"3964",76.57343,93.657166
"3965",75.96307,93.6705
"3966",75.355156,93.68384
"3967",74.78142,93.697174
"3968",74.26139,93.71051
"3969",73.814606,93.72385
"3970",73.45571,93.73718
"3971",73.18715,93.75052
"3972",73.01137,93.763855
"3973",72.9308,93.77719
"3974",72.91615,93.79053
"3975",72.94545,93.80386
"3976",72.99428,93.8172
"3977",73.04555,93.830536
"3978",73.094376,93.84387
"3979",73.231094,93.85721
"3980",73.66079,93.870544
"3981",74.63737,93.88388
"3982",76.35615,93.89722
"3983",78.856186,93.91055
"3984",81.988556,93.92389
"3985",85.38705,93.937225
"3986",88.59266,93.95056
"3987",91.17815,93.9639
"3988",92.894485,93.977234
"3989",93.6733,93.99057
"3990",93.58541,94.00391
"3991",92.789505,94.01724
"3992",91.493095,94.03058
"3993",89.89151,94.043915
"3994",88.15076,94.05725
"3995",86.38804,94.07059
"3996",84.67414,94.08392
"3997",83.055466,94.09726
"3998",81.57351,94.110596
"3999",80.274666,94.12393
"4000",79.219955,94.13727
"4001",78.467995,94.150604
"4002",78.05295,94.16394
"4003",77.962616,94.17728
"4004",78.1384,94.19061
"4005",78.487526,94.20395
"4006",78.89769,94.217285
"4007",79.26879,94.23062
"4008",79.52758,94.24396
"4009",79.62035,94.25729
"4010",79.53246,94.27063
"4011",79.27123,94.283966
"4012",78.870834,94.2973
"4013",78.3679,94.31064
"4014",77.806366,94.323975
"4015",77.21309,94.33731
"4016",76.627144,94.35065
"4017",76.070496,94.36398
"4018",75.560234,94.37732
"4019",75.10368,94.390656
"4020",74.70084,94.40399
"4021",74.339516,94.41733
"4022",74.01236,94.430664
"4023",73.71938,94.444
"4024",73.45571,94.45734
"4025",73.25063,94.47067
"4026",73.199356,94.48401
"4027",73.5021,94.497345
"4028",74.40299,94.51068
"4029",76.08026,94.52402
"4030",78.57053,94.53735
"4031",81.7029,94.55069
"4032",85.10872,94.564026
"4033",88.33875,94.57736
"4034",90.99748,94.5907
"4035",92.82124,94.604034
"4036",93.72701,94.61737
"4037",93.7612,94.63071
"4038",93.06294,94.64404
"4039",91.82025,94.65738
"4040",90.22354,94.670715
"4041",88.446175,94.68405
"4042",86.61021,94.69739
"4043",84.79866,94.710724
"4044",83.070114,94.72406
"4045",81.4905,94.7374
"4046",80.1355,94.75073
"4047",79.07347,94.76407
"4048",78.363014,94.777405
"4049",78.01877,94.79074
"4050",78.011444,94.80408
"4051",78.24582,94.81741
"4052",78.61204,94.83075
"4053",78.995346,94.844086
"4054",79.29809,94.85742
"4055",79.44457,94.87076
"4056",79.40551,94.884094
"4057",79.183334,94.89743
"4058",78.80003,94.91077
"4059",78.30442,94.9241
"4060",77.74044,94.93744
"4061",77.15694,94.950775
"4062",76.59052,94.96411
"4063",76.06317,94.97745
"4064",75.58953,94.99078
"4065",75.16228,95.00412
"4066",74.776535,95.017456
"4067",74.41764,95.03079
"4068",74.08072,95.04413
"4069",73.78287,95.057465
"4070",73.6144,95.0708
"4071",73.76822,95.08414
"4072",74.5153,95.09747
"4073",76.06561,95.11081
"4074",78.48264,95.124146
"4075",81.619896,95.13748
"4076",85.135574,95.15082
"4077",88.57069,95.164154
"4078",91.473564,95.17749
"4079",93.55123,95.19083
"4080",94.68162,95.20416
"4081",94.88426,95.2175
"4082",94.27146,95.230835
"4083",93.031204,95.24417
"4084",91.36858,95.25751
"4085",89.4667,95.27084
"4086",87.47448,95.28418
"4087",85.49203,95.297516
"4088",83.597466,95.31085
"4089",81.864044,95.32419
"4090",80.35279,95.337524
"4091",79.132065,95.35086
"4092",78.25071,95.3642
"4093",77.72823,95.37753
"4094",77.52804,95.39087
"4095",77.57931,95.404205
"4096",77.78195,95.41754
"4097",78.04318,95.43088
"4098",78.277565,95.444214
"4099",78.42649,95.45755
"4100",78.45335,95.47089
"4101",78.348366,95.48422
"4102",78.116425,95.49756
"4103",77.77707,95.510895
"4104",77.349815,95.52423
"4105",76.859085,95.53757
"4106",76.32929,95.5509
"4107",75.78241,95.56424
"4108",75.23064,95.577576
"4109",74.68864,95.59091
"4110",74.161285,95.60425
"4111",73.653465,95.617584
"4112",73.18471,95.63092
"4113",72.8185,95.64426
"4114",72.71107,95.65759
"4115",73.111465,95.67093
"4116",74.28092,95.684265
"4117",76.34394,95.6976
"4118",79.24681,95.71094
"4119",82.71122,95.72427
"4120",86.30259,95.73761
"4121",89.52773,95.750946
"4122",92.0058,95.76428
"4123",93.53414,95.77762
"4124",94.08835,95.790955
"4125",93.75876,95.80429
"4126",92.72114,95.81763
"4127",91.18547,95.83096
"4128",89.356834,95.8443
"4129",87.39391,95.857635
"4130",85.40902,95.87097
"4131",83.48516,95.88431
"4132",81.6907,95.897644
"4133",80.09888,95.91098
"4134",78.77074,95.92432
"4135",77.77463,95.93765
"4136",77.14473,95.95099
"4137",76.87129,95.964325
"4138",76.89815,95.97766
"4139",77.134964,95.991
"4140",77.47433,96.00433
"4141",77.81125,96.01767
"4142",78.05783,96.031006
"4143",78.15793,96.04434
"4144",78.09201,96.05768
"4145",77.872284,96.071014
"4146",77.51339,96.08435
"4147",77.0544,96.09769
"4148",76.52705,96.11102
"4149",75.95331,96.12436
"4150",75.3576,96.137695
"4151",74.757,96.15103
"4152",74.161285,96.16437
"4153",73.58022,96.177704
"4154",73.02602,96.19104
"4155",72.52308,96.20438
"4156",72.13489,96.21771
"4157",72.010376,96.23105
"4158",72.396126,96.244385
"4159",73.54604,96.25772
"4160",75.6115,96.27106
"4161",78.54368,96.28439
"4162",82.07889,96.29773
"4163",85.770355,96.311066
"4164",89.12489,96.3244
"4165",91.74212,96.33774
"4166",93.39254,96.351074
"4167",94.03708,96.36441
"4168",93.7612,96.37775
"4169",92.75044,96.39108
"4170",91.226974,96.40442
"4171",89.39834,96.417755
"4172",87.42809,96.43109
"4173",85.43099,96.44443
"4174",83.492485,96.45776
"4175",81.6907,96.4711
"4176",80.08179,96.484436
"4177",78.746315,96.49777
"4178",77.74532,96.51111
"4179",77.120316,96.524445
"4180",76.8542,96.53778
"4181",76.893265,96.55112
"4182",77.14717,96.56445
"4183",77.503624,96.57779
"4184",77.85275,96.591125
"4185",78.10422,96.60446
"4186",78.204315,96.6178
"4187",78.14816,96.631134
"4188",77.945526,96.64447
"4189",77.61593,96.65781
"4190",77.18623,96.67114
"4191",76.68818,96.68448
"4192",76.14618,96.697815
"4193",75.58221,96.71115
"4194",75.018234,96.72449
"4195",74.46891,96.73782
"4196",73.94888,96.75116
"4197",73.460594,96.764496
"4198",73.01137,96.77783
"4199",72.64515,96.79117
"4200",72.481575,96.804504
"4201",72.764786,96.81784
"4202",73.7731,96.83118
"4203",75.67498,96.84451
"4204",78.45579,96.85785
"4205",81.87869,96.871185
"4206",85.51888,96.88452
"4207",88.87343,96.89786
"4208",91.51507,96.911194
"4209",93.206985,96.92453
"4210",93.890594,96.93787
"4211",93.64645,96.9512
"4212",92.647896,96.96454
"4213",91.11711,96.977875
"4214",89.26162,96.99121
"4215",87.25475,97.00455
"4216",85.2137,97.01788
"4217",83.22148,97.03122
"4218",81.36111,97.044556
"4219",79.72045,97.05789
"4220",78.40208,97.07123
"4221",77.47677,97.084564
"4222",76.981155,97.0979
"4223",76.88594,97.11124
"4224",77.11055,97.12457
"4225",77.523155,97.13791
"4226",77.98459,97.151245
"4227",78.382545,97.16458
"4228",78.63645,97.17792
"4229",78.709694,97.19125
"4230",78.59251,97.20459
"4231",78.311745,97.217926
"4232",77.90158,97.23126
"4233",77.39376,97.2446
"4234",76.82002,97.257935
"4235",76.2121,97.27127
"4236",75.58709,97.28461
"4237",74.96452,97.29794
"4238",74.35905,97.31128
"4239",73.79019,97.324615
"4240",73.27749,97.33795
"4241",72.89174,97.35129
"4242",72.813614,97.364624
"4243",73.29946,97.37796
"4244",74.58366,97.3913
"4245",76.76387,97.40463
"4246",79.73998,97.41797
"4247",83.19707,97.431305
"4248",86.66392,97.44464
"4249",89.66689,97.45798
"4250",91.861755,97.47131
"4251",93.08736,97.48465
"4252",93.34615,97.497986
"4253",92.75777,97.51132
"4254",91.51507,97.52466
"4255",89.83292,97.537994
"4256",87.89929,97.55133
"4257",85.86313,97.56467
"4258",83.82208,97.578
"4259",81.866486,97.59134
"4260",80.09155,97.604675
"4261",78.59739,97.61801
"4262",77.47433,97.63135
"4263",76.7834,97.644684
"4264",76.52705,97.65802
"4265",76.64423,97.67136
"4266",77.015335,97.68469
"4267",77.503624,97.69803
"4268",77.98215,97.711365
"4269",78.35081,97.7247
"4270",78.54124,97.73804
"4271",78.53391,97.75137
"4272",78.33372,97.76471
"4273",77.97482,97.778046
"4274",77.486534,97.79138
"4275",76.90791,97.80472
"4276",76.2707,97.818054
"4277",75.60906,97.83139
"4278",74.94255,97.84473
"4279",74.29069,97.85806
"4280",73.68032,97.8714
"4281",73.17738,97.884735
"4282",72.94301,97.89807
"4283",73.23842,97.91141
"4284",74.32487,97.92474
"4285",76.351265,97.93808
"4286",79.26391,97.951416
"4287",82.777145,97.96475
"4288",86.41978,97.97809
"4289",89.67422,97.991425
"4290",92.140076,98.00476
"4291",93.61227,98.0181
"4292",94.06149,98.03143
"4293",93.609825,98.04477
"4294",92.46967,98.058105
"4295",90.86076,98.07144
"4296",88.988174,98.08478
"4297",87.00328,98.098114
"4298",85.00862,98.11145
"4299",83.08232,98.12479
"4300",81.30251,98.13812
"4301",79.74731,98.15146
"4302",78.49973,98.164795
"4303",77.628136,98.17813
"4304",77.154495,98.19147
"4305",77.04219,98.2048
"4306",77.208206,98.21814
"4307",77.540245,98.231476
"4308",77.91135,98.24481
"4309",78.21896,98.25815
"4310",78.380104,98.271484
"4311",78.35569,98.28482
"4312",78.1384,98.29816
"4313",77.747765,98.31149
"4314",77.22774,98.32483
"4315",76.61738,98.338165
"4316",75.95087,98.3515
"4317",75.2575,98.36484
"4318",74.55924,98.378174
"4319",73.87564,98.39151
"4320",73.26772,98.40485
"4321",72.87465,98.41818
"4322",72.952774,98.43152
"4323",73.78775,98.444855
"4324",75.577324,98.45819
"4325",78.32151,98.47153
"4326",81.78592,98.48486
"4327",85.51888,98.4982
"4328",88.98329,98.511536
"4329",91.72747,98.52487
"4330",93.48287,98.53821
"4331",94.19577,98.551544
"4332",93.958954,98.56488
"4333",92.97749,98.57822
"4334",91.48821,98.59155
"4335",89.71572,98.60489
"4336",87.82849,98.618225
"4337",85.93149,98.63156
"4338",84.09064,98.6449
"4339",82.34257,98.65823
"4340",80.743416,98.67157
"4341",79.3518,98.684906
"4342",78.221405,98.69824
"4343",77.40841,98.71158
"4344",76.92012,98.724915
"4345",76.71992,98.73825
"4346",76.734566,98.75159
"4347",76.87373,98.76492
"4348",77.03731,98.77826
"4349",77.13985,98.791595
"4350",77.117874,98.80493
"4351",76.93721,98.81827
"4352",76.595406,98.831604
"4353",76.11688,98.84494
"4354",75.53582,98.85828
"4355",74.8864,98.87161
"4356",74.20279,98.88495
"4357",73.514305,98.898285
"4358",72.84047,98.91162
"4359",72.22034,98.92496
"4360",71.7467,98.93829
"4361",71.6173,98.95163
"4362",72.10803,98.964966
"4363",73.480125,98.9783
"4364",75.83856,98.99164
"4365",79.07591,99.004974
"4366",82.828415,99.01831
"4367",86.57603,99.03165
"4368",89.79874,99.04498
"4369",92.12543,99.05832
"4370",93.40475,99.071655
"4371",93.678185,99.08499
"4372",93.119095,99.09833
"4373",90.457924,99.125
"4374",88.77577,99.138336
"4375",87.04967,99.15167
"4376",85.34066,99.16501
"4377",83.68047,99.178345
"4378",82.08377,99.19168
"4379",80.584724,99.20502
"4380",79.24193,99.21835
"4381",78.116425,99.23169
"4382",77.26925,99.245026
"4383",76.717476,99.25836
"4384",76.44648,99.2717
"4385",76.39765,99.285034
"4386",76.4831,99.29837
"4387",76.60761,99.31171
"4388",76.68818,99.32504
"4389",76.65644,99.33838
"4390",76.47822,99.351715
"4391",76.14862,99.36505
"4392",75.682304,99.37839
"4393",75.10857,99.39172
"4394",74.461586,99.40506
"4395",73.77554,99.418396
"4396",73.08217,99.43173
"4397",72.40589,99.44507
"4398",71.77844,99.458405
"4399",71.24132,99.47174
"4400",70.88243,99.48508
"4401",70.89952,99.49841
"4402",71.57336,99.51175
"4403",73.14076,99.525085
"4404",75.68719,99.53842
"4405",79.07103,99.55176
"4406",82.91142,99.565094
"4407",86.67368,99.57843
"4408",89.84024,99.59177
"4409",92.06195,99.6051
"4410",93.21431,99.61844
"4411",93.36324,99.631775
"4412",92.70405,99.64511
"4413",91.48821,99.65845
"4414",89.94766,99.67178
"4415",88.26307,99.68512
"4416",86.554054,99.698456
"4417",84.86946,99.71179
"4418",83.228806,99.72513
"4419",81.6614,99.738464
"4420",80.2063,99.7518
"4421",78.924545,99.76514
"4422",77.88449,99.77847
"4423",77.12764,99.79181
"4424",76.65644,99.805145
"4425",76.43183,99.81848
"4426",76.37568,99.83182
"4427",76.404976,99.84515
"4428",76.42695,99.85849
"4429",76.37324,99.871826
"4430",76.20233,99.88516
"4431",75.897156,99.8985
"4432",75.4699,99.911835
"4433",74.94011,99.92517
"4434",74.337074,99.93851
"4435",73.69497,99.95184
"4436",73.05043,99.96518
"4437",72.42298,99.978516
"4438",71.837036,99.99185
"4439",71.30724,100.00519
"4440",70.84093,100.018524
"4441",70.42832,100.03186
"4442",70.07675,100.0452
"4443",69.79843,100.05853
"4444",69.644615,100.07187
"4445",69.76181,100.085205
"4446",70.41123,100.09854
"4447",71.88098,100.11188
"4448",74.337074,100.12521
"4449",77.733116,100.13855
"4450",81.75418,100.151886
"4451",85.88754,100.16522
"4452",89.56191,100.17856
"4453",92.32563,100.191895
"4454",93.96872,100.20523
"4455",94.49851,100.21857
"4456",94.08591,100.2319
"4457",92.97505,100.24524
"4458",91.422295,100.258575
"4459",89.64736,100.27191
"4460",87.80652,100.28525
"4461",85.98764,100.298584
"4462",84.23468,100.31192
"4463",82.57206,100.32526
"4464",81.03395,100.33859
"4465",79.66674,100.35193
"4466",78.53391,100.365265
"4467",77.68917,100.3786
"4468",77.14961,100.39194
"4469",76.88838,100.40527
"4470",76.84688,100.41861
"4471",76.927444,100.431946
"4472",77.03487,100.44528
"4473",77.07637,100.45862
"4474",76.98848,100.471954
"4475",76.74189,100.48529
"4476",76.33662,100.49863
"4477",75.80682,100.51196
"4478",75.18425,100.5253
"4479",74.512856,100.538635
"4480",73.831696,100.55197
"4481",73.17494,100.56531
"4482",72.567024,100.57864
"4483",72.027466,100.59198
"4484",71.56359,100.605316
"4485",71.17784,100.61865
"4486",70.870224,100.63199
"4487",70.62852,100.645325
"4488",70.44297,100.65866
"4489",70.30625,100.672
"4490",70.21835,100.68533
"4491",70.21103,100.69867
"4492",70.39414,100.712006
"4493",70.992294,100.72534
"4494",72.28138,100.73868
"4495",74.478676,100.752014
"4496",77.60616,100.76535
"4497",81.43435,100.77869
"4498",85.51888,100.79202
"4499",89.30068,100.80536
"4500",92.29389,100.818695
"4501",94.203094,100.83203
"4502",94.974594,100.84537
"4503",94.73289,100.8587
"4504",93.70748,100.87204
"4505",92.15228,100.885376
"4506",90.321205,100.89871
"4507",88.38758,100.91205
"4508",86.46128,100.925385
"4509",84.60578,100.93872
"4510",82.85771,100.95206
"4511",81.25613,100.96539
"4512",79.86206,100.97873
"4513",78.73899,100.992065
"4514",77.943085,101.0054
"4515",77.486534,101.01874
"4516",77.34005,101.032074
"4517",77.42306,101.04541
"4518",77.63302,101.05875
"4519",77.86008,101.07208
"4520",78.00656,101.08542
"4521",78.00656,101.098755
"4522",77.82834,101.11209
"4523",77.48409,101.12543
"4524",76.99336,101.13876
"4525",76.39521,101.1521
"4526",75.72381,101.165436
"4527",75.020676,101.17877
"4528",74.32487,101.19211
"4529",73.66323,101.205444
"4530",73.057755,101.21878
"4531",72.52308,101.23212
"4532",72.061646,101.24545
"4533",71.67101,101.25879
"4534",71.35363,101.272125
"4535",71.09483,101.28546
"4536",70.89464,101.2988
"4537",70.75304,101.31213
"4538",70.67979,101.32547
"4539",70.75548,101.338806
"4540",71.16075,101.35214
"4541",72.16907,101.36548
"4542",74.02457,101.378815
"4543",76.82002,101.39215
"4544",80.411385,101.40549
"4545",84.422676,101.41882
"4546",88.31678,101.43216
"4547",91.55657,101.445496
"4548",93.788055,101.45883
"4549",94.88426,101.47217
"4550",94.91112,101.485504
"4551",94.07126,101.49884
"4552",92.61616,101.51218
"4553",90.78752,101.52551
"4554",88.77333,101.53885
"4555",86.70542,101.552185
"4556",84.67658,101.56552
"4557",82.75029,101.57886
"4558",80.99733,101.59219
"4559",79.50317,101.60553
"4560",78.34104,101.618866
"4561",77.56954,101.6322
"4562",77.20332,101.64554
"4563",77.196,101.658875
"4564",77.44991,101.67221
"4565",77.838104,101.68555
"4566",78.23361,101.69888
"4567",78.53147,101.71222
"4568",78.65354,101.725555
"4569",78.572975,101.73889
"4570",78.29954,101.75223
