"","ppg","time"
"1",89.66445,63.737915
"2",89.901276,63.75122
"3",89.76456,63.764587
"4",89.393456,63.777893
"5",88.90517,63.79126
"6",88.36805,63.804565
"7",87.80408,63.817932
"8",87.20836,63.831238
"9",86.5687,63.844543
"10",85.875336,63.85791
"11",85.155106,63.871216
"12",84.45197,63.884583
"13",83.824524,63.89789
"14",83.31426,63.911255
"15",82.9456,63.92456
"16",82.703896,63.937866
"17",82.55741,63.951233
"18",82.442665,63.96454
"19",82.30595,63.977905
"20",82.09842,63.99121
"21",81.7908,64.00458
"22",81.3782,64.01788
"23",80.87526,64.03125
"24",80.30396,64.044556
"25",79.69848,64.05786
"26",79.080795,64.07123
"27",78.47288,64.08453
"28",77.891815,64.0979
"29",77.35226,64.111206
"30",76.86397,64.12457
"31",76.43183,64.13788
"32",76.06073,64.151245
"33",75.75067,64.16455
"34",75.48943,64.17786
"35",75.27703,64.19122
"36",75.10124,64.20453
"37",74.96208,64.217896
"38",74.84978,64.2312
"39",74.75212,64.24457
"40",74.669106,64.25787
"41",74.5861,64.27118
"42",74.495766,64.284546
"43",74.39567,64.29785
"44",74.27604,64.31122
"45",74.141754,64.324524
"46",73.99283,64.33789
"47",73.84146,64.3512
"48",73.704735,64.3645
"49",73.64858,64.37787
"50",73.76822,64.391174
"51",74.20767,64.40454
"52",75.09148,64.41785
"53",76.48798,64.43121
"54",78.35325,64.44452
"55",80.5359,64.457886
"56",82.794235,64.47119
"57",84.86946,64.4845
"58",86.55894,64.49786
"59",87.745476,64.51117
"60",88.40955,64.524536
"61",88.602425,64.53784
"62",88.43641,64.55121
"63",88.026245,64.564514
"64",87.4696,64.57788
"65",86.83482,64.59119
"66",86.14633,64.60449
"67",85.418785,64.61786
"68",84.661934,64.631165
"69",83.90997,64.64453
"70",83.19951,64.65784
"71",82.59159,64.6712
"72",82.1326,64.68451
"73",81.84451,64.697815
"74",81.71267,64.71118
"75",81.69558,64.72449
"76",81.73464,64.737854
"77",81.76639,64.75116
"78",81.72976,64.76453
"79",81.59548,64.77783
"80",81.34646,64.79114
"81",80.98268,64.804504
"82",80.533455,64.81781
"83",80.02075,64.83118
"84",79.46899,64.84448
"85",78.90257,64.85785
"86",78.35081,64.871155
"87",77.83078,64.88452
"88",77.35226,64.89783
"89",76.929886,64.91113
"90",76.56611,64.9245
"91",76.25605,64.937805
"92",75.999695,64.95117
"93",75.789734,64.96448
"94",75.613945,64.977844
"95",75.474785,64.99115
"96",75.3576,65.00452
"97",75.2575,65.01782
"98",75.16716,65.03113
"99",75.07927,65.044495
"100",74.98894,65.0578
"101",74.89128,65.07117
"102",74.78142,65.08447
"103",74.66178,65.09784
"104",74.53971,65.111145
"105",74.42985,65.12445
"106",74.373695,65.13782
"107",74.46403,65.15112
"108",74.844894,65.16449
"109",75.65301,65.177795
"110",76.981155,65.19116
"111",78.81468,65.20447
"112",81.02663,65.21777
"113",83.3753,65.23114
"114",85.592125,65.244446
"115",87.450066,65.25781
"116",88.797745,65.27112
"117",89.60342,65.284485
"118",89.90616,65.29779
"119",89.80118,65.31116
"120",89.41543,65.32446
"121",88.86366,65.33777
"122",88.22888,65.351135
"123",87.552605,65.36444
"124",86.854355,65.37781
"125",86.13168,65.39111
"126",85.38705,65.40448
"127",84.644844,65.417786
"128",83.94171,65.43115
"129",83.33135,65.44446
"130",82.847946,65.45776
"131",82.50614,65.47113
"132",82.29374,65.484436
"133",82.16922,65.4978
"134",82.07889,65.51111
"135",81.969025,65.524475
"136",81.78836,65.53778
"137",81.514915,65.55109
"138",81.143814,65.56445
"139",80.672615,65.57776
"140",80.12329,65.591125
"141",79.5227,65.60443
"142",78.90013,65.6178
"143",78.27512,65.6311
"144",77.67208,65.64441
"145",77.11299,65.657776
"146",76.60273,65.67108
"147",76.14374,65.68445
"148",75.73846,65.697754
"149",75.39178,65.71112
"150",75.09392,65.72443
"151",74.84001,65.73779
"152",74.634926,65.7511
"153",74.47135,65.764404
"154",74.339516,65.77777
"155",74.232086,65.79108
"156",74.14908,65.80444
"157",74.08316,65.81775
"158",74.02945,65.831116
"159",73.98306,65.84442
"160",73.944,65.85779
"161",73.9025,65.87109
"162",73.848785,65.8844
"163",73.77554,65.897766
"164",73.67788,65.91107
"165",73.55337,65.92444
"166",73.42153,65.937744
"167",73.3312,65.95111
"168",73.38247,65.96442
"169",73.738914,65.97772
"170",74.57145,65.99109
"171",76.00702,66.004395
"172",78.06271,66.01776
"173",80.61646,66.03107
"174",83.42901,66.04443
"175",86.19272,66.05774
"176",88.619514,66.071045
"177",90.5214,66.08441
"178",91.810486,66.09772
"179",92.508736,66.111084
"180",92.71137,66.12439
"181",92.5478,66.13776
"182",92.15961,66.15106
"183",91.65911,66.16443
"184",91.121994,66.177734
"185",90.565346,66.19104
"186",89.9794,66.20441
"187",89.3373,66.21771
"188",88.62684,66.23108
"189",87.850464,66.244385
"190",87.047226,66.25775
"191",86.26841,66.27106
"192",85.56771,66.284424
"193",84.972,66.29773
"194",84.491035,66.311035
"195",84.102844,66.3244
"196",83.775696,66.33771
"197",83.45342,66.351074
"198",83.09697,66.36438
"199",82.67704,66.37775
"200",82.176544,66.39105
"201",81.59548,66.40436
"202",80.95094,66.417725
"203",80.257576,66.43103
"204",79.53246,66.4444
"205",78.80736,66.4577
"206",78.099335,66.47107
"207",77.4255,66.484375
"208",76.805374,66.49768
"209",76.24628,66.51105
"210",75.74822,66.52435
"211",75.30389,66.53772
"212",74.91081,66.551025
"213",74.56901,66.56439
"214",74.26627,66.5777
"215",74.002594,66.591064
"216",73.78531,66.60437
"217",73.6144,66.617676
"218",73.477684,66.63104
"219",73.375145,66.64435
"220",73.29214,66.657715
"221",73.21889,66.67102
"222",73.13344,66.68439
"223",73.03578,66.69769
"224",72.91371,66.71106
"225",72.77211,66.724365
"226",72.61097,66.73767
"227",72.44984,66.75104
"228",72.34486,66.76434
"229",72.40345,66.77771
"230",72.7892,66.791016
"231",73.68032,66.80438
"232",75.1989,66.81769
"233",77.349815,66.83099
"234",79.99634,66.84436
"235",82.879684,66.857666
"236",85.68978,66.87103
"237",88.14343,66.88434
"238",90.05264,66.897705
"239",91.336845,66.91101
"240",92.02289,66.92432
"241",92.20355,66.93768
"242",92.01312,66.95099
"243",91.580986,66.964355
"244",91.02434,66.97766
"245",90.41154,66.99103
"246",89.767,67.00433
"247",89.076065,67.0177
"248",88.31922,67.031006
"249",87.49889,67.04431
"250",86.62974,67.05768
"251",85.75815,67.070984
"252",84.9427,67.08435
"253",84.23468,67.09766
"254",83.648735,67.11102
"255",83.18486,67.12433
"256",82.81377,67.137695
"257",82.496376,67.151
"258",82.18631,67.16431
"259",81.846954,67.17767
"260",81.44167,67.19098
"261",80.9485,67.204346
"262",80.36988,67.21765
"263",79.71557,67.23102
"264",79.009995,67.24432
"265",78.277565,67.25763
"266",77.54513,67.270996
"267",76.83467,67.2843
"268",76.16815,67.29767
"269",75.55047,67.310974
"270",74.98894,67.32434
"271",74.48844,67.33765
"272",74.05142,67.35095
"273",73.67788,67.36432
"274",73.358055,67.377625
"275",73.091934,67.39099
"276",72.87221,67.4043
"277",72.689095,67.41766
"278",72.54261,67.43097
"279",72.42542,67.444336
"280",72.33753,67.45764
"281",72.274055,67.47095
"282",72.22522,67.484314
"283",72.181274,67.49762
"284",72.12756,67.51099
"285",72.059204,67.52429
"286",71.96643,67.53766
"287",71.84924,67.550964
"288",71.71252,67.56433
"289",71.59045,67.57764
"290",71.55627,67.59094
"291",71.75403,67.60431
"292",72.37171,67.617615
"293",73.58022,67.63098
"294",75.46502,67.64429
"295",77.96994,67.65765
"296",80.88991,67.67096
"297",83.91974,67.684265
"298",86.729836,67.69763
"299",89.06142,67.71094
"300",90.76311,67.724304
"301",91.80316,67.73761
"302",92.23773,67.75098
"303",92.18646,67.76428
"304",91.790955,67.77759
"305",91.19035,67.790955
"306",90.48966,67.80426
"307",89.7499,67.81763
"308",88.98329,67.83093
"309",88.18494,67.8443
"310",87.34753,67.857605
"311",86.48081,67.87097
"312",85.61898,67.88428
"313",84.81331,67.89758
"314",84.122375,67.91095
"315",83.57305,67.924255
"316",83.17021,67.93762
"317",82.88701,67.95093
"318",82.67704,67.964294
"319",82.48417,67.9776
"320",82.25956,67.99097
"321",81.95926,68.00427
"322",81.5613,68.01758
"323",81.05592,68.030945
"324",80.45533,68.04425
"325",79.78882,68.05762
"326",79.08324,68.07092
"327",78.365456,68.08429
"328",77.65743,68.097595
"329",76.978714,68.1109
"330",76.33906,68.12427
"331",75.75311,68.13757
"332",75.228195,68.15094
"333",74.77409,68.164246
"334",74.38102,68.17761
"335",74.05875,68.19092
"336",73.79996,68.20422
"337",73.59731,68.21759
"338",73.445946,68.230896
"339",73.33608,68.24426
"340",73.255516,68.25757
"341",73.18959,68.270935
"342",73.12367,68.28424
"343",73.04799,68.29761
"344",72.952774,68.31091
"345",72.83803,68.32422
"346",72.706184,68.337585
"347",72.586555,68.35089
"348",72.532845,68.36426
"349",72.672005,68.37756
"350",73.17494,68.39093
"351",74.19791,68.404236
"352",75.83368,68.4176
"353",78.03586,68.43091
"354",80.638435,68.444214
"355",83.36553,68.45758
"356",85.91196,68.47089
"357",88.026245,68.48425
"358",89.566795,68.49756
"359",90.48722,68.510925
"360",90.826584,68.52423
"361",90.68009,68.53754
"362",90.18204,68.5509
"363",89.45449,68.56421
"364",88.587776,68.577576
"365",87.640495,68.59088
"366",86.65171,68.60425
"367",85.645836,68.61755
"368",84.65705,68.63086
"369",83.73174,68.644226
"370",82.92851,68.65753
"371",82.30595,68.6709
"372",81.8909,68.684204
"373",81.68093,68.69757
"374",81.636986,68.71088
"375",81.69558,68.72424
"376",81.78104,68.73755
"377",81.82498,68.750854
"378",81.77127,68.76422
"379",81.58572,68.77753
"380",81.26101,68.79089
"381",80.80446,68.8042
"382",80.235596,68.817566
"383",79.5935,68.83087
"384",78.91234,68.84424
"385",78.21896,68.857544
"386",77.540245,68.87085
"387",76.90303,68.88422
"388",76.314644,68.89752
"389",75.789734,68.91089
"390",75.33074,68.924194
"391",74.94011,68.93756
"392",74.615395,68.95087
"393",74.34684,68.96417
"394",74.127106,68.97754
"395",73.94888,68.990845
"396",73.79019,69.00421
"397",73.64858,69.01752
"398",73.51919,69.03088
"399",73.38491,69.04419
"400",73.2433,69.057495
"401",73.111465,69.07086
"402",73.023575,69.08417
"403",73.074844,69.097534
"404",73.41665,69.11084
"405",74.21744,69.12421
"406",75.60662,69.13751
"407",77.61837,69.15088
"408",80.15259,69.164185
"409",82.97978,69.17749
"410",85.79233,69.19086
"411",88.29969,69.20416
"412",90.27482,69.21753
"413",91.61028,69.230835
"414",92.28901,69.2442
"415",92.39399,69.25751
"416",92.04486,69.270874
"417",91.388115,69.28418
"418",90.55314,69.297485
"419",89.63271,69.31085
"420",88.67811,69.32416
"421",87.70397,69.337524
"422",86.71519,69.35083
"423",85.72396,69.3642
"424",84.76204,69.3775
"425",83.87091,69.39081
"426",83.106735,69.404175
"427",82.50126,69.41748
"428",82.05936,69.43085
"429",81.75418,69.44415
"430",81.54665,69.45752
"431",81.36843,69.470825
"432",81.163345,69.48413
"433",80.88014,69.4975
"434",80.49683,69.5108
"435",79.99878,69.52417
"436",79.40551,69.537476
"437",78.73655,69.55084
"438",78.01633,69.56415
"439",77.27413,69.577515
"440",76.53925,69.59082
"441",75.83368,69.604126
"442",75.174484,69.61749
"443",74.5861,69.6308
"444",74.07095,69.644165
"445",73.63149,69.65747
"446",73.26528,69.67084
"447",72.96742,69.68414
"448",72.723274,69.69751
"449",72.52552,69.710815
"450",72.361946,69.72412
"451",72.217896,69.73749
"452",72.08606,69.75079
"453",71.956665,69.76416
"454",71.82483,69.777466
"455",71.70519,69.79083
"456",71.64416,69.80414
"457",71.75159,69.817444
"458",72.18616,69.83081
"459",73.13344,69.84412
"460",74.71305,69.85748
"461",76.93233,69.87079
"462",79.64477,69.884155
"463",82.58671,69.89746
"464",85.42855,69.91077
"465",87.87244,69.92413
"466",89.720604,69.93744
"467",90.89494,69.950806
"468",91.41741,69.96411
"469",91.388115,69.97748
"470",90.948654,69.99078
"471",90.250404,70.00415
"472",89.42519,70.017456
"473",88.54871,70.03076
"474",87.65514,70.04413
"475",86.7567,70.057434
"476",85.8436,70.0708
"477",84.91341,70.08411
"478",83.99298,70.09747
"479",83.13359,70.11078
"480",82.391396,70.124146
"481",81.795685,70.13745
"482",81.356224,70.15076
"483",81.0486,70.16412
"484",80.82399,70.17743
"485",80.62623,70.190796
"486",80.39918,70.2041
"487",80.10376,70.21747
"488",79.71801,70.230774
"489",79.23949,70.24408
"490",78.675514,70.25745
"491",78.04562,70.27075
"492",77.37423,70.28412
"493",76.6833,70.297424
"494",75.999695,70.31079
"495",75.34051,70.3241
"496",74.73258,70.3374
"497",74.1857,70.35077
"498",73.7145,70.364075
"499",73.323875,70.37744
"500",73.00404,70.39075
"501",72.75014,70.40411
"502",72.54749,70.41742
"503",72.38148,70.430786
"504",72.24719,70.44409
"505",72.12756,70.4574
"506",72.010376,70.470764
"507",71.89075,70.48407
"508",71.77356,70.49744
"509",71.67101,70.51074
"510",71.641716,70.52411
"511",71.8053,70.537415
"512",72.32288,70.55078
"513",73.36538,70.56409
"514",75.018234,70.57739
"515",77.25216,70.59076
"516",79.89868,70.604065
"517",82.6746,70.61743
"518",85.26498,70.63074
"519",87.40856,70.644104
"520",88.95155,70.65741
"521",89.85489,70.670715
"522",90.16983,70.68408
"523",90.01602,70.69739
"524",89.532616,70.710754
"525",88.866104,70.72406
"526",88.114136,70.73743
"527",87.33044,70.75073
"528",86.53208,70.76404
"529",85.71664,70.777405
"530",84.874344,70.79071
"531",84.03204,70.80408
"532",83.22148,70.81738
"533",82.5037,70.83075
"534",81.917755,70.844055
"535",81.48806,70.85742
"536",81.197525,70.87073
"537",81.01442,70.88403
"538",80.87526,70.8974
"539",80.72877,70.910706
"540",80.52369,70.92407
"541",80.22583,70.93738
"542",79.83032,70.950745
"543",79.33959,70.96405
"544",78.77318,70.97742
"545",78.14816,70.99072
"546",77.50118,71.00403
"547",76.8542,71.017395
"548",76.23163,71.0307
"549",75.65545,71.04407
"550",75.13542,71.05737
"551",74.67887,71.07074
"552",74.285805,71.084045
"553",73.95621,71.09735
"554",73.6852,71.11072
"555",73.46792,71.12402
"556",73.29214,71.13739
"557",73.15297,71.150696
"558",73.043106,71.16406
"559",72.94789,71.17737
"560",72.86244,71.190674
"561",72.781876,71.20404
"562",72.69642,71.21735
"563",72.60609,71.23071
"564",72.535286,71.24402
"565",72.54261,71.257385
"566",72.75258,71.27069
"567",73.33364,71.28406
"568",74.43473,71.29736
"569",76.12665,71.31067
"570",78.35813,71.324036
"571",80.93385,71.33734
"572",83.56573,71.35071
"573",85.95346,71.36401
"574",87.86267,71.37738
"575",89.16884,71.390686
"576",89.85489,71.40405
"577",90.003815,71.41736
"578",89.740135,71.430664
"579",89.2079,71.44403
"580",88.534065,71.45734
"581",87.80408,71.4707
"582",87.05455,71.48401
"583",86.295265,71.497375
"584",85.51888,71.51068
"585",84.73029,71.52399
"586",83.95392,71.53735
"587",83.245895,71.55066
"588",82.652626,71.564026
"589",82.213165,71.57733
"590",81.93729,71.5907
"591",81.79324,71.604004
"592",81.722435,71.61731
"593",81.66384,71.63068
"594",81.55886,71.64398
"595",81.36355,71.65735
"596",81.05348,71.670654
"597",80.638435,71.68402
"598",80.128174,71.69733
"599",79.54955,71.71069
"600",78.93675,71.724
"601",78.314186,71.737305
"602",77.70626,71.75067
"603",77.13252,71.76398
"604",76.612495,71.77734
"605",76.14862,71.79065
"606",75.75067,71.804016
"607",75.423515,71.81732
"608",75.16228,71.83069
"609",74.95476,71.843994
"610",74.78386,71.8573
"611",74.64469,71.87067
"612",74.5153,71.88397
"613",74.39323,71.89734
"614",74.26139,71.910645
"615",74.13199,71.92401
"616",74.00015,71.93732
"617",73.882965,71.95062
"618",73.81705,71.96399
"619",73.89273,71.977295
"620",74.24429,71.99066
"621",75.01579,72.00397
"622",76.29511,72.017334
"623",78.07736,72.03064
"624",80.235596,72.043945
"625",82.533,72.05731
"626",84.69611,72.07062
"627",86.48814,72.083984
"628",87.76257,72.09729
"629",88.482796,72.11066
"630",88.690315,72.12396
"631",88.48524,72.13733
"632",87.992065,72.150635
"633",87.32311,72.16394
"634",86.55894,72.17731
"635",85.74105,72.19061
"636",84.89143,72.20398
"637",84.02716,72.217285
"638",83.17998,72.23065
"639",82.388954,72.24396
"640",81.71999,72.257324
"641",81.22926,72.27063
"642",80.936295,72.283936
"643",80.82887,72.2973
"644",80.85573,72.31061
"645",80.95094,72.323975
"646",81.03639,72.33728
"647",81.04616,72.35065
"648",80.93141,72.36395
"649",80.68482,72.37726
"650",80.31129,72.390625
"651",79.83276,72.40393
"652",79.28344,72.4173
"653",78.69993,72.4306
"654",78.11154,72.44397
"655",77.540245,72.457275
"656",77.00801,72.47058
"657",76.53681,72.48395
"658",76.12421,72.49725
"659",75.775085,72.51062
"660",75.494316,72.523926
"661",75.26238,72.53729
"662",75.071945,72.5506
"663",74.91325,72.563965
"664",74.77409,72.57727
"665",74.64469,72.590576
"666",74.51774,72.60394
"667",74.390785,72.61725
"668",74.25651,72.630615
"669",74.12955,72.64392
"670",74.03433,72.65729
"671",74.05142,72.67059
"672",74.31266,72.68396
"673",74.96452,72.697266
"674",76.138855,72.71057
"675",77.857635,72.72394
"676",80.028076,72.73724
"677",82.4329,72.75061
"678",84.79622,72.763916
"679",86.84215,72.77728
"680",88.3827,72.79059
"681",89.339745,72.803894
"682",89.73281,72.81726
"683",89.65713,72.83057
"684",89.2372,72.84393
"685",88.61463,72.85724
"686",87.89197,72.870605
"687",87.13023,72.88391
"688",86.34409,72.89722
"689",85.540855,72.91058
"690",84.715645,72.92389
"691",83.897766,72.937256
"692",83.12627,72.95056
"693",82.459755,72.96393
"694",81.94705,72.977234
"695",81.60769,72.9906
"696",81.41238,73.00391
"697",81.3196,73.01721
"698",81.26833,73.03058
"699",81.19264,73.043884
"700",81.03639,73.05725
"701",80.77028,73.07056
"702",80.38941,73.08392
"703",79.90112,73.09723
"704",79.33227,73.110596
"705",78.712135,73.1239
"706",78.07248,73.13721
"707",77.437706,73.15057
"708",76.83711,73.16388
"709",76.28535,73.177246
"710",75.78729,73.19055
"711",75.355156,73.20392
"712",74.984055,73.217224
"713",74.67399,73.23053
"714",74.42252,73.2439
"715",74.2272,73.2572
"716",74.07828,73.27057
"717",73.970856,73.283875
"718",73.89273,73.29724
"719",73.83414,73.31055
"720",73.780426,73.32385
"721",73.721825,73.33722
"722",73.64614,73.350525
"723",73.55093,73.36389
"724",73.43618,73.3772
"725",73.32876,73.390564
"726",73.287254,73.40387
"727",73.4313,73.41724
"728",73.92935,73.43054
"729",74.949875,73.44385
"730",76.59052,73.457214
"731",78.82445,73.47052
"732",81.4905,73.48389
"733",84.300606,73.49719
"734",86.93492,73.51056
"735",89.127335,73.523865
"736",90.719154,73.53723
"737",91.67132,73.55054
"738",92.05463,73.56384
"739",91.99115,73.57721
"740",91.629814,73.590515
"741",91.10979,73.60388
"742",90.528725,73.61719
"743",89.92325,73.630554
"744",89.29336,73.64386
"745",88.61463,73.657166
"746",87.86511,73.67053
"747",87.047226,73.68384
"748",86.1976,73.697205
"749",85.3724,73.71051
"750",84.63508,73.72388
"751",84.03204,73.73718
"752",83.56573,73.75049
"753",83.22148,73.763855
"754",82.948044,73.77716
"755",82.69169,73.79053
"756",82.39384,73.80383
"757",82.022736,73.8172
"758",81.55398,73.830505
"759",80.987564,73.84387
"760",80.34547,73.85718
"761",79.65453,73.87048
"762",78.93431,73.88385
"763",78.21896,73.897156
"764",77.53536,73.91052
"765",76.893265,73.92383
"766",76.30244,73.937195
"767",75.7702,73.9505
"768",75.301445,73.96387
"769",74.89128,73.97717
"770",74.53727,73.99048
"771",74.23697,74.003845
"772",73.987946,74.01715
"773",73.78287,74.03052
"774",73.616844,74.04382
"775",73.49233,74.05719
"776",73.39956,74.070496
"777",73.32632,74.0838
"778",73.255516,74.09717
"779",73.179825,74.11047
"780",73.091934,74.12384
"781",72.97475,74.137146
"782",72.833145,74.15051
"783",72.674446,74.16382
"784",72.52552,74.177124
"785",72.46204,74.19049
"786",72.61829,74.2038
"787",73.17494,74.21716
"788",74.305336,74.23047
"789",76.102234,74.243835
"790",78.519264,74.25714
"791",81.36355,74.27051
"792",84.334785,74.28381
"793",87.10582,74.29712
"794",89.408104,74.310486
"795",91.087814,74.32379
"796",92.103455,74.33716
"797",92.525826,74.350464
"798",92.47944,74.36383
"799",92.11322,74.37714
"800",91.56634,74.3905
"801",90.94377,74.40381
"802",90.287025,74.417114
"803",89.59609,74.43048
"804",88.84657,74.44379
"805",88.026245,74.45715
"806",87.14,74.47046
"807",86.2269,74.483826
"808",85.34554,74.49713
"809",84.56672,74.51044
"810",83.92462,74.5238
"811",83.43145,74.53711
"812",83.06279,74.550476
"813",82.77226,74.56378
"814",82.493935,74.57715
"815",82.176544,74.590454
"816",81.778595,74.60376
"817",81.2781,74.61713
"818",80.6775,74.63043
"819",79.99878,74.6438
"820",79.26879,74.657104
"821",78.51438,74.67047
"822",77.75754,74.68378
"823",77.02754,74.69714
"824",76.33662,74.71045
"825",75.699394,74.723755
"826",75.125656,74.73712
"827",74.62028,74.75043
"828",74.1857,74.763794
"829",73.81705,74.7771
"830",73.5021,74.79047
"831",73.23598,74.80377
"832",73.01137,74.81714
"833",72.82338,74.830444
"834",72.66468,74.84375
"835",72.53773,74.85712
"836",72.43763,74.87042
"837",72.36439,74.88379
"838",72.308235,74.897095
"839",72.26185,74.91046
"840",72.217896,74.92377
"841",72.164185,74.93707
"842",72.095825,74.95044
"843",72.010376,74.963745
"844",71.902954,74.97711
"845",71.77356,74.99042
"846",71.63683,75.003784
"847",71.51232,75.01709
"848",71.45373,75.030396
"849",71.59533,75.04376
"850",72.1178,75.05707
"851",73.22621,75.070435
"852",75.04753,75.08374
"853",77.57198,75.09711
"854",80.63111,75.11041
"855",83.90997,75.12378
"856",87.04234,75.137085
"857",89.71328,75.15039
"858",91.72503,75.16376
"859",93.00679,75.17706
"860",93.60494,75.19043
"861",93.64645,75.203735
"862",93.29,75.2171
"863",92.696724,75.23041
"864",91.98871,75.243774
"865",91.23674,75.25708
"866",90.46281,75.270386
"867",89.652245,75.28375
"868",88.78554,75.29706
"869",87.86511,75.310425
"870",86.93004,75.32373
"871",86.031586,75.3371
"872",85.240555,75.3504
"873",84.596016,75.36371
"874",84.10773,75.377075
"875",83.75128,75.39038
"876",83.47784,75.40375
"877",83.22392,75.41705
"878",82.933395,75.43042
"879",82.562294,75.443726
"880",82.08621,75.45703
"881",81.50271,75.4704
"882",80.82399,75.4837
"883",80.07446,75.49707
"884",79.281,75.510376
"885",78.4802,75.52374
"886",77.696495,75.53705
"887",76.9543,75.550415
"888",76.265816,75.56372
"889",75.64324,75.57709
"890",75.08659,75.59039
"891",74.600746,75.60376
"892",74.18326,75.617065
"893",73.83414,75.63043
"894",73.548485,75.64374
"895",73.31899,75.657104
"896",73.1432,75.67041
"897",73.00893,75.68378
"898",72.903946,75.69708
"899",72.82338,75.71045
"900",72.75746,75.723755
"901",72.69886,75.73712
"902",72.64515,75.75043
"903",72.58167,75.763794
"904",72.498665,75.7771
"905",72.38636,75.79047
"906",72.24475,75.80377
"907",72.08118,75.81714
"908",71.905396,75.830444
"909",71.74181,75.84381
"910",71.656364,75.85712
"911",71.783325,75.87048
"912",72.31312,75.88379
"913",73.426414,75.897156
"914",75.23308,75.91046
"915",77.70138,75.92383
"916",80.64088,75.93713
"917",83.734184,75.9505
"918",86.6273,75.963806
"919",89.02968,75.97717
"920",90.77043,75.99048
"921",91.79584,76.003845
"922",92.15961,76.01715
"923",91.98627,76.03052
"924",91.43206,76.04382
"925",90.64347,76.05719
"926",89.72793,76.070496
"927",88.76112,76.08386
"928",87.765015,76.09717
"929",86.751816,76.110535
"930",85.73861,76.12384
"931",84.75716,76.13721
"932",83.86603,76.15051
"933",83.11894,76.16388
"934",82.562294,76.177185
"935",82.2034,76.19055
"936",82.01297,76.20386
"937",81.934845,76.217224
"938",81.900665,76.23053
"939",81.82742,76.2439
"940",81.66384,76.2572
"941",81.37087,76.27057
"942",80.938736,76.283875
"943",80.38453,76.29724
"944",79.7351,76.31055
"945",79.0222,76.32391
"946",78.28977,76.33722
"947",77.557335,76.350586
"948",76.84688,76.36389
"949",76.1828,76.37726
"950",75.58465,76.390564
"951",75.0573,76.40393
"952",74.60319,76.41724
"953",74.2272,76.4306
"954",73.92447,76.44391
"955",73.6852,76.457275
"956",73.497215,76.47058
"957",73.35073,76.48395
"958",73.23598,76.49725
"959",73.14076,76.51062
"960",73.04799,76.523926
"961",72.955215,76.53729
"962",72.85512,76.5506
"963",72.73792,76.563965
"964",72.60609,76.57727
"965",72.46693,76.59064
"966",72.33997,76.60394
"967",72.28382,76.61731
"968",72.40589,76.630615
"969",72.867325,76.64398
"970",73.82681,76.65729
"971",75.37957,76.670654
"972",77.4963,76.68396
"973",80.01831,76.69733
"974",82.669716,76.71063
"975",85.14778,76.724
"976",87.19127,76.737305
"977",88.64881,76.75067
"978",89.47402,76.76398
"979",89.720604,76.77734
"980",89.49355,76.79065
"981",88.92714,76.804016
"982",88.1532,76.81732
"983",87.26208,76.83069
"984",86.30991,76.843994
"985",85.330894,76.85736
"986",84.349434,76.87067
"987",83.39483,76.88403
"988",82.52323,76.89734
"989",81.78592,76.910706
"990",81.23903,76.92401
"991",80.90456,76.93738
"992",80.77272,76.95068
"993",80.78981,76.96405
"994",80.88991,76.977356
"995",80.987564,76.99072
"996",81.02174,77.00403
"997",80.93141,77.017395
"998",80.69947,77.0307
"999",80.325935,77.04407
"1000",79.83765,77.05737
"1001",79.256584,77.07074
"1002",78.6218,77.084045
"1003",77.96506,77.09741
"1004",77.31075,77.11072
"1005",76.680855,77.124084
"1006",76.104675,77.13739
"1007",75.596855,77.15076
"1008",75.16716,77.16406
"1009",74.81804,77.17743
"1010",74.53971,77.190735
"1011",74.32487,77.2041
"1012",74.158844,77.21741
"1013",74.02945,77.230774
"1014",73.92691,77.24408
"1015",73.848785,77.25745
"1016",73.777985,77.27075
"1017",73.70718,77.28412
"1018",73.62661,77.297424
"1019",73.53384,77.31079
"1020",73.43618,77.3241
"1021",73.36538,77.33746
"1022",73.40688,77.35077
"1023",73.69741,77.364136
"1024",74.40543,77.37744
"1025",75.6701,77.39081
"1026",77.53048,77.40411
"1027",79.90845,77.41748
"1028",82.579384,77.430786
"1029",85.25033,77.44415
"1030",87.61852,77.45746
"1031",89.47158,77.470825
"1032",90.704506,77.48413
"1033",91.3222,77.4975
"1034",91.405205,77.5108
"1035",91.087814,77.52417
"1036",90.50919,77.537476
"1037",89.79385,77.55084
"1038",89.01991,77.56415
"1039",88.23132,77.577515
"1040",87.42809,77.59082
"1041",86.60532,77.60419
"1042",85.76303,77.61749
"1043",84.92561,77.63086
"1044",84.14191,77.644165
"1045",83.46807,77.65753
"1046",82.94316,77.67084
"1047",82.579384,77.684204
"1048",82.34501,77.69751
"1049",82.193634,77.71088
"1050",82.0618,77.72418
"1051",81.8909,77.73755
"1052",81.63943,77.750854
"1053",81.27566,77.76422
"1054",80.799576,77.77753
"1055",80.22583,77.79089
"1056",79.57885,77.8042
"1057",78.890366,77.817566
"1058",78.19455,77.83087
"1059",77.51583,77.84424
"1060",76.87373,77.857544
"1061",76.280464,77.87091
"1062",75.74578,77.88422
"1063",75.27215,77.89758
"1064",74.86687,77.91089
"1065",74.52506,77.924255
"1066",74.25407,77.93756
"1067",74.039215,77.95093
"1068",73.87564,77.96423
"1069",73.75357,77.9776
"1070",73.65591,77.990906
"1071",73.5729,78.00427
"1072",73.497215,78.01758
"1073",73.41909,78.030945
"1074",73.33364,78.04425
"1075",73.233536,78.05762
"1076",73.11635,78.07092
"1077",72.99184,78.08429
"1078",72.90639,78.097595
"1079",72.9601,78.11096
"1080",73.31167,78.12427
"1081",74.14664,78.137634
"1082",75.5993,78.15094
"1083",77.68917,78.16431
"1084",80.30152,78.17761
"1085",83.177536,78.19098
"1086",85.99985,78.204285
"1087",88.46815,78.21765
"1088",90.3798,78.23096
"1089",91.646904,78.24432
"1090",92.29145,78.25763
"1091",92.41352,78.270996
"1092",92.14984,78.2843
"1093",91.649345,78.29767
"1094",91.0341,78.310974
"1095",90.374916,78.32434
"1096",89.69375,78.33765
"1097",88.98329,78.35101
"1098",88.216675,78.36432
"1099",87.38171,78.377686
"1100",86.49302,78.39099
"1101",85.59945,78.40436
"1102",84.76448,78.41766
"1103",84.03937,78.43103
"1104",83.458305,78.444336
"1105",83.0164,78.4577
"1106",82.6746,78.47101
"1107",82.38163,78.484375
"1108",82.07889,78.49768
"1109",81.71999,78.51105
"1110",81.2781,78.52435
"1111",80.73853,78.53772
"1112",80.11597,78.551025
"1113",79.42504,78.56439
"1114",78.69749,78.5777
"1115",77.95285,78.591064
"1116",77.23506,78.60437
"1117",76.5539,78.61774
"1118",75.92401,78.63104
"1119",75.352715,78.64441
"1120",74.847336,78.657715
"1121",74.40055,78.67108
"1122",74.01236,78.68439
"1123",73.687645,78.697754
"1124",73.41665,78.71106
"1125",73.19447,78.72443
"1126",73.01625,78.73773
"1127",72.87709,78.7511
"1128",72.76967,78.764404
"1129",72.68665,78.77777
"1130",72.61829,78.79108
"1131",72.55482,78.80444
"1132",72.4889,78.81775
"1133",72.40345,78.831116
"1134",72.29603,78.84442
"1135",72.16907,78.85779
"1136",72.02258,78.87109
"1137",71.87854,78.88446
"1138",71.78088,78.897766
"1139",71.83215,78.91113
"1140",72.20325,78.92444
"1141",73.077286,78.937805
"1142",74.598305,78.95111
"1143",76.79805,78.96448
"1144",79.551994,78.97778
"1145",82.58671,78.99115
"1146",85.56039,79.004456
"1147",88.148315,79.01782
"1148",90.13565,79.03113
"1149",91.439384,79.044495
"1150",92.086365,79.0578
"1151",92.19867,79.07117
"1152",91.92767,79.08447
"1153",91.42962,79.09784
"1154",90.81926,79.111145
"1155",90.17471,79.12451
"1156",89.515526,79.13782
"1157",88.82216,79.151184
"1158",88.07019,79.16449
"1159",87.24986,79.17786
"1160",86.37339,79.19116
"1161",85.49203,79.20453
"1162",84.67658,79.217834
"1163",83.9881,79.2312
"1164",83.455864,79.24451
"1165",83.075,79.25787
"1166",82.794235,79.27118
"1167",82.562294,79.284546
"1168",82.303505,79.29785
"1169",81.97635,79.31122
"1170",81.55154,79.324524
"1171",81.02174,79.33789
"1172",80.396736,79.3512
"1173",79.70336,79.36456
"1174",78.96605,79.37787
"1175",78.21896,79.391235
"1176",77.49386,79.40454
"1177",76.8127,79.41791
"1178",76.19501,79.43121
"1179",75.64568,79.44458
"1180",75.17204,79.457886
"1181",74.77165,79.47125
"1182",74.444496,79.48456
"1183",74.1857,79.497925
"1184",73.99527,79.51123
"1185",73.87076,79.5246
"1186",73.8024,79.5379
"1187",73.77554,79.55127
"1188",73.78531,79.564575
"1189",73.82193,79.57794
"1190",73.87564,79.59125
"1191",73.94156,79.604614
"1192",74.00748,79.61792
"1193",74.07828,79.63129
"1194",74.1564,79.64459
"1195",74.27604,79.65796
"1196",74.50309,79.671265
"1197",74.95476,79.68463
"1198",75.76288,79.69794
"1199",77.03487,79.7113
"1200",78.80736,79.72461
"1201",80.99489,79.737976
"1202",83.39239,79.75128
"1203",85.72884,79.76465
"1204",87.73083,79.777954
"1205",89.20058,79.79132
"1206",90.055084,79.80463
"1207",90.32365,79.81799
"1208",90.11856,79.8313
"1209",89.58877,79.844666
"1210",88.885635,79.85797
"1211",88.131226,79.87134
"1212",87.396355,79.88464
"1213",86.6981,79.89801
"1214",86.01938,79.911316
"1215",85.32113,79.92468
"1216",84.59113,79.93799
"1217",83.84894,79.951355
"1218",83.13847,79.96466
"1219",82.51591,79.97803
"1220",82.02762,79.99133
"1221",81.67849,80.0047
"1222",81.44167,80.018005
"1223",81.26345,80.03137
"1224",81.077896,80.04468
"1225",80.82887,80.058044
"1226",80.4773,80.07135
"1227",79.99878,80.08472
"1228",79.3933,80.09802
"1229",78.68284,80.11139
"1230",77.90402,80.124695
"1231",77.09346,80.13806
"1232",76.29023,80.15137
"1233",75.53582,80.164734
"1234",74.85466,80.17804
"1235",74.26383,80.19141
"1236",73.77066,80.20471
"1237",73.37759,80.21808
"1238",73.074844,80.231384
"1239",72.84291,80.24475
"1240",72.672005,80.25806
"1241",72.54017,80.27142
"1242",72.430305,80.28473
"1243",72.33753,80.298096
"1244",72.254524,80.3114
"1245",72.17395,80.32477
"1246",72.095825,80.33807
"1247",72.02258,80.35144
"1248",71.94446,80.364746
"1249",71.868774,80.37811
"1250",71.8053,80.39142
"1251",71.75403,80.404785
"1252",71.71984,80.41809
"1253",71.71252,80.43146
"1254",71.7467,80.44476
"1255",71.85657,80.45813
"1256",72.14465,80.471436
"1257",72.764786,80.4848
"1258",73.87564,80.49811
"1259",75.59197,80.511475
"1260",77.91867,80.52478
"1261",80.723885,80.53815
"1262",83.74151,80.55145
"1263",86.65171,80.56482
"1264",89.17372,80.578125
"1265",91.121994,80.59149
"1266",92.43549,80.6048
"1267",93.14595,80.618164
"1268",93.35592,80.63147
"1269",93.206985,80.64484
"1270",92.83589,80.65814
"1271",92.34272,80.67151
"1272",91.790955,80.684814
"1273",91.19524,80.69818
"1274",90.54093,80.71149
"1275",89.79385,80.72485
"1276",88.95155,80.73816
"1277",88.03845,80.751526
"1278",87.12047,80.76483
"1279",86.26597,80.7782
"1280",85.53353,80.791504
"1281",84.945145,80.80487
"1282",84.49836,80.81818
"1283",84.159,80.83154
"1284",83.878235,80.84485
"1285",83.59014,80.858215
"1286",83.243454,80.87152
"1287",82.79668,80.88489
"1288",82.2327,80.89819
"1289",81.55886,80.91156
"1290",80.80202,80.924866
"1291",79.99634,80.93823
"1292",79.17601,80.95154
"1293",78.3679,80.964905
"1294",77.59884,80.97821
"1295",76.893265,80.99158
"1296",76.27314,81.00488
"1297",75.73846,81.01825
"1298",75.28191,81.031555
"1299",74.898605,81.04492
"1300",74.56901,81.05823
"1301",74.288246,81.071594
"1302",74.05386,81.0849
"1303",73.85367,81.09827
"1304",73.67544,81.11157
"1305",73.51919,81.12494
"1306",73.38247,81.138245
"1307",73.29214,81.15161
"1308",73.33608,81.16492
"1309",73.66567,81.17828
"1310",74.444496,81.19159
"1311",75.79462,81.204956
"1312",77.75021,81.21826
"1313",80.20386,81.23163
"1314",82.913864,81.244934
"1315",85.575035,81.2583
"1316",87.89441,81.27161
"1317",89.65957,81.28497
"1318",90.76799,81.29828
"1319",91.2343,81.311646
"1320",91.16106,81.32495
"1321",90.69962,81.33832
"1322",90.006256,81.35162
"1323",89.20058,81.36499
"1324",88.35096,81.378296
"1325",87.47448,81.39166
"1326",86.55894,81.40497
"1327",85.59457,81.418335
"1328",84.59846,81.43164
"1329",83.60723,81.44501
"1330",82.68192,81.45831
"1331",81.88602,81.47168
"1332",81.253685,81.484985
"1333",80.78493,81.49835
"1334",80.45289,81.51166
"1335",80.198975,81.525024
"1336",79.9646,81.53833
"1337",79.68139,81.5517
"1338",79.31274,81.565
"1339",78.84154,81.57837
"1340",78.27512,81.591675
"1341",77.63302,81.60504
"1342",76.946976,81.61835
"1343",76.25117,81.631714
"1344",75.57244,81.64502
"1345",74.93523,81.65839
"1346",74.356606,81.67169
"1347",73.848785,81.68506
"1348",73.41665,81.698364
"1349",73.060196,81.71173
"1350",72.77455,81.72504
"1351",72.549934,81.7384
"1352",72.376595,81.75171
"1353",72.234985,81.765076
"1354",72.11047,81.77838
"1355",71.98352,81.79175
"1356",71.84436,81.80505
"1357",71.692986,81.81842
"1358",71.536736,81.831726
"1359",71.40978,81.84509
"1360",71.40002,81.8584
"1361",71.65148,81.871765
"1362",72.35706,81.88507
"1363",73.68032,81.89844
"1364",75.699394,81.91174
"1365",78.345924,81.92511
"1366",81.3904,81.938416
"1367",84.491035,81.95178
"1368",87.28893,81.96509
"1369",89.50088,81.978455
"1370",90.97063,81.99176
"1371",91.67132,82.00513
"1372",91.7055,82.01843
"1373",91.2343,82.0318
"1374",90.440834,82.045105
"1375",89.49111,82.05847
"1376",88.499886,82.07178
"1377",87.52575,82.085144
"1378",86.58091,82.09845
"1379",85.660484,82.11182
"1380",84.76692,82.12512
"1381",83.92218,82.13849
"1382",83.160446,82.151794
"1383",82.52567,82.16516
"1384",82.037384,82.17847
"1385",81.70046,82.19183
"1386",81.478294,82.20514
"1387",81.324486,82.218506
"1388",81.17311,82.23181
"1389",80.970474,82.24518
"1390",80.66285,82.258484
"1391",80.22583,82.27185
"1392",79.65209,82.28516
"1393",78.95384,82.29852
"1394",78.153046,82.31183
"1395",77.279015,82.325195
"1396",76.37324,82.3385
"1397",75.46502,82.35187
"1398",74.5861,82.36517
"1399",73.7731,82.37854
"1400",73.05531,82.391846
"1401",72.44984,82.40521
"1402",71.96643,82.41852
"1403",71.60998,82.431885
"1404",71.37316,82.44519
"1405",71.24132,82.45856
"1406",71.185165,82.47186
"1407",71.182724,82.48523
"1408",71.219345,82.498535
"1409",71.275505,82.5119
"1410",71.35607,82.52521
"1411",71.49279,82.538574
"1412",71.78088,82.55188
"1413",72.361946,82.56525
"1414",73.40688,82.57855
"1415",75.04997,82.59192
"1416",77.32052,82.605225
"1417",80.113525,82.61859
"1418",83.17265,82.6319
"1419",86.1561,82.64526
"1420",88.73182,82.65857
"1421",90.663,82.671936
"1422",91.827576,82.68524
"1423",92.2475,82.69861
"1424",92.03998,82.711914
"1425",91.38323,82.72528
"1426",90.45548,82.73859
"1427",89.40566,82.75195
"1428",88.324104,82.76526
"1429",87.237656,82.778625
"1430",86.153656,82.79193
"1431",85.05745,82.8053
"1432",83.966125,82.8186
"1433",82.91875,82.83197
"1434",81.98123,82.845276
"1435",81.20973,82.85864
"1436",80.635994,82.87195
"1437",80.257576,82.885315
"1438",80.03296,82.89862
"1439",79.89624,82.91199
"1440",79.77905,82.92529
"1441",79.61303,82.93866
"1442",79.35668,82.951965
"1443",78.995346,82.96533
"1444",78.53147,82.97864
"1445",77.98459,82.992004
"1446",77.38644,83.00531
"1447",76.773636,83.01868
"1448",76.17059,83.03198
"1449",75.596855,83.04535
"1450",75.06706,83.058655
"1451",74.59098,83.07202
"1452",74.16617,83.08533
"1453",73.79019,83.098694
"1454",73.47524,83.112
"1455",73.216446,83.12537
"1456",73.00893,83.13867
"1457",72.84047,83.15204
"1458",72.69642,83.165344
"1459",72.56458,83.17871
"1460",72.42054,83.19202
"1461",72.26673,83.20538
"1462",72.12024,83.21869
"1463",72.0177,83.232056
"1464",72.04944,83.24536
"1465",72.38636,83.25873
"1466",73.22621,83.27203
"1467",74.74235,83.2854
"1468",76.99092,83.298706
"1469",79.88403,83.31207
"1470",83.15068,83.32538
"1471",86.417336,83.338745
"1472",89.28359,83.35205
"1473",91.45159,83.36542
"1474",92.76509,83.37872
"1475",93.224075,83.39209
"1476",92.9482,83.405396
"1477",92.13519,83.41876
"1478",91.002365,83.43207
"1479",89.73037,83.445435
"1480",88.43641,83.45874
"1481",87.17906,83.47211
"1482",85.96811,83.48541
"1483",84.79866,83.49878
"1484",83.67315,83.512085
"1485",82.62577,83.52545
"1486",81.69558,83.53876
"1487",80.92653,83.552124
"1488",80.343025,83.56543
"1489",79.937744,83.5788
"1490",79.674065,83.5921
"1491",79.500725,83.60547
"1492",79.34692,83.618774
"1493",79.15648,83.63214
"1494",78.87816,83.64545
"1495",78.49485,83.65881
"1496",77.99924,83.67212
"1497",77.418175,83.685486
"1498",76.77608,83.69879
"1499",76.09491,83.71216
"1500",75.40154,83.725464
"1501",74.71549,83.73883
"1502",74.06363,83.75214
"1503",73.480125,83.7655
"1504",72.98695,83.77881
"1505",72.59388,83.792175
"1506",72.29847,83.80548
"1507",72.09094,83.81885
"1508",71.939575,83.83215
"1509",71.82971,83.84552
"1510",71.7467,83.858826
"1511",71.68078,83.87219
"1512",71.61486,83.8855
"1513",71.5465,83.898865
"1514",71.48058,83.91217
"1515",71.43908,83.92554
"1516",71.500114,83.93884
"1517",71.81506,83.95221
"1518",72.584114,83.965515
"1519",73.99527,83.97888
"1520",76.14618,83.99219
"1521",78.97826,84.005554
"1522",82.25712,84.01886
"1523",85.60677,84.03223
"1524",88.621956,84.04553
"1525",90.97063,84.0589
"1526",92.455025,84.072205
"1527",93.033646,84.08557
"1528",92.81392,84.09888
"1529",91.981384,84.11224
"1530",90.75334,84.12555
"1531",89.322655,84.138916
"1532",87.8407,84.15222
"1533",86.383156,84.16559
"1534",84.97688,84.178894
"1535",83.63653,84.19226
"1536",82.38163,84.20557
"1537",81.24391,84.21893
"1538",80.28199,84.23224
"1539",79.54711,84.245605
"1540",79.05638,84.25891
"1541",78.80003,84.27228
"1542",78.72434,84.28558
"1543",78.751205,84.29895
"1544",78.80492,84.312256
"1545",78.81224,84.32562
"1546",78.7219,84.33893
"1547",78.49973,84.352295
"1548",78.14328,84.3656
"1549",77.66964,84.37897
"1550",77.100784,84.39227
"1551",76.473335,84.40564
"1552",75.82391,84.418945
"1553",75.18913,84.43231
"1554",74.59586,84.44562
"1555",74.056305,84.458984
"1556",73.582664,84.47229
"1557",73.18227,84.48566
"1558",72.85512,84.49896
"1559",72.58167,84.51233
"1560",72.35218,84.525635
"1561",72.15198,84.539
"1562",71.96887,84.55231
"1563",71.79553,84.565674
"1564",71.62707,84.57898
"1565",71.483025,84.59235
"1566",71.41955,84.60565
"1567",71.55627,84.61902
"1568",72.07141,84.632324
"1569",73.15297,84.64569
"1570",74.91814,84.659
"1571",77.36446,84.67236
"1572",80.33326,84.68567
"1573",83.51934,84.699036
"1574",86.55894,84.71234
"1575",89.12245,84.72571
"1576",90.97795,84.73901
"1577",92.02289,84.75238
"1578",92.27924,84.765686
"1579",91.86908,84.77905
"1580",90.95842,84.79236
"1581",89.72549,84.805725
"1582",88.31922,84.81903
"1583",86.8275,84.8324
"1584",85.313805,84.8457
"1585",83.81232,84.85907
"1586",82.36454,84.872375
"1587",81.03639,84.88574
"1588",79.90112,84.89905
"1589",79.0222,84.912415
"1590",78.44358,84.92572
"1591",78.17258,84.93909
"1592",78.16281,84.95239
"1593",78.33616,84.96576
"1594",78.6096,84.979065
"1595",78.89281,84.99243
"1596",79.10765,85.00574
"1597",79.19554,85.019104
"1598",79.11986,85.03241
"1599",78.887924,85.04578
"1600",78.51682,85.05908
"1601",78.02365,85.07245
"1602",77.43282,85.085754
"1603",76.773636,85.09912
"1604",76.068054,85.11243
"1605",75.338066,85.12579
"1606",74.617836,85.1391
"1607",73.92935,85.152466
"1608",73.289696,85.16577
"1609",72.69642,85.17914
"1610",72.15198,85.192444
"1611",71.66857,85.20581
"1612",71.26574,85.21912
"1613",71.00694,85.23248
"1614",71.011826,85.24579
"1615",71.45373,85.259155
"1616",72.50843,85.27246
"1617",74.27604,85.28583
"1618",76.74677,85.29913
"1619",79.74731,85.3125
"1620",82.97978,85.325806
"1621",86.065765,85.33917
"1622",88.6952,85.35248
"1623",90.64591,85.365845
"1624",91.825134,85.37915
"1625",92.23285,85.39252
"1626",91.949646,85.40582
"1627",91.10002,85.41919
"1628",89.82071,85.432495
"1629",88.24109,85.44586
"1630",86.49546,85.45917
"1631",84.70344,85.472534
"1632",82.96025,85.48584
"1633",81.3489,85.49921
"1634",79.940186,85.51251
"1635",78.80003,85.52588
"1636",77.96994,85.539185
"1637",77.47677,85.55255
"1638",77.30831,85.56586
"1639",77.40597,85.57922
"1640",77.66964,85.59253
"1641",77.97482,85.605896
"1642",78.22385,85.6192
"1643",78.345924,85.63257
"1644",78.30198,85.645874
"1645",78.09689,85.65924
"1646",77.747765,85.67255
"1647",77.279015,85.68591
"1648",76.700386,85.69922
"1649",76.03876,85.712585
"1650",75.33074,85.72589
"1651",74.61051,85.73926
"1652",73.89761,85.75256
"1653",73.20668,85.76593
"1654",72.55726,85.779236
"1655",71.95911,85.7926
"1656",71.41711,85.80591
"1657",70.9337,85.819275
"1658",70.54307,85.83258
"1659",70.330666,85.84595
"1660",70.46494,85.85925
"1661",71.16075,85.87262
"1662",72.59876,85.885925
"1663",74.82536,85.89929
"1664",77.70138,85.9126
"1665",80.92409,85.925964
"1666",84.09796,85.93927
"1667",86.8568,85.95264
"1668",88.94911,85.96594
"1669",90.28214,85.97931
"1670",90.87297,85.992615
"1671",90.829025,86.00598
"1672",90.284584,86.01929
"1673",89.373924,86.03265
"1674",88.1947,86.04596
"1675",86.81529,86.059326
"1676",85.28939,86.07263
"1677",83.6878,86.086
"1678",82.091095,86.099304
"1679",80.59937,86.11267
"1680",79.31762,86.12598
"1681",78.331276,86.13934
"1682",77.68185,86.15265
"1683",77.36935,86.166016
"1684",77.34249,86.17932
"1685",77.51583,86.19269
"1686",77.789276,86.20599
"1687",78.06271,86.21936
"1688",78.25071,86.232666
"1689",78.29954,86.24603
"1690",78.19455,86.25934
"1691",77.93332,86.272705
"1692",77.540245,86.28601
"1693",77.049515,86.29938
"1694",76.48554,86.31268
"1695",75.877625,86.32605
"1696",75.25262,86.339355
"1697",74.632484,86.35272
"1698",74.03677,86.36603
"1699",73.48257,86.379395
"1700",72.98207,86.3927
"1701",72.53773,86.40607
"1702",72.16174,86.41937
"1703",71.91028,86.43274
"1704",71.939575,86.446045
"1705",72.47425,86.45941
"1706",73.721825,86.47272
"1707",75.7702,86.486084
"1708",78.536354,86.49939
"1709",81.75174,86.51276
"1710",85.04524,86.52606
"1711",88.03601,86.53943
"1712",90.45548,86.552734
"1713",92.1767,86.5661
"1714",93.17525,86.57941
"1715",93.51461,86.59277
"1716",93.30709,86.60608
"1717",92.67719,86.619446
"1718",91.737236,86.63275
"1719",90.582436,86.64612
"1720",89.27871,86.659424
"1721",87.869995,86.67279
"1722",86.40513,86.6861
"1723",84.95247,86.69946
"1724",83.59014,86.71277
"1725",82.4036,86.726135
"1726",81.463646,86.73944
"1727",80.816666,86.75281
"1728",80.448006,86.76611
"1729",80.31129,86.77948
"1730",80.32838,86.792786
"1731",80.40894,86.80615
"1732",80.47242,86.81946
"1733",80.462654,86.832825
"1734",80.34058,86.84613
"1735",80.09888,86.8595
"1736",79.7351,86.8728
"1737",79.273674,86.88617
"1738",78.72678,86.899475
"1739",78.13107,86.91284
"1740",77.51339,86.92615
"1741",76.90303,86.939514
"1742",76.317085,86.95282
"1743",75.76776,86.96619
"1744",75.26238,86.97949
"1745",74.810715,86.99286
"1746",74.442055,87.006165
"1747",74.26383,87.01953
"1748",74.47135,87.03284
"1749",75.28191,87.0462
"1750",76.86153,87.05951
"1751",79.234604,87.072876
"1752",82.252235,87.08618
"1753",85.59701,87.09955
"1754",88.88075,87.112854
"1755",91.75433,87.12622
"1756",93.97116,87.13953
"1757",95.42626,87.15289
"1758",96.12207,87.1662
"1759",96.1416,87.179565
"1760",95.6289,87.19287
"1761",94.72556,87.20624
"1762",93.558556,87.21954
"1763",92.23041,87.23291
"1764",90.792404,87.246216
"1765",89.28359,87.25958
"1766",87.73815,87.27289
"1767",86.20981,87.286255
"1768",84.76448,87.29956
"1769",83.47295,87.31293
"1770",82.39872,87.32623
"1771",81.57839,87.3396
"1772",80.99489,87.352905
"1773",80.60914,87.36627
"1774",80.34547,87.37958
"1775",80.12573,87.392944
"1776",79.88403,87.40625
"1777",79.56176,87.41962
"1778",79.132065,87.43292
"1779",78.58274,87.44629
"1780",77.93088,87.459595
"1781",77.205765,87.47296
"1782",76.439156,87.48627
"1783",75.67498,87.49963
"1784",74.93523,87.51294
"1785",74.23697,87.526306
"1786",73.58755,87.53961
"1787",72.98695,87.55298
"1788",72.43519,87.566284
"1789",71.920044,87.57965
"1790",71.44152,87.59296
"1791",71.01915,87.60632
"1792",70.74082,87.61963
"1793",70.78966,87.632996
"1794",71.42443,87.6463
"1795",72.85268,87.65967
"1796",75.15251,87.67297
"1797",78.21896,87.68634
"1798",81.75906,87.699646
"1799",85.347984,87.71301
"1800",88.57313,87.72632
"1801",91.12932,87.739685
"1802",92.87251,87.75299
"1803",93.77829,87.76636
"1804",93.93698,87.77966
"1805",93.5024,87.79303
"1806",92.66743,87.806335
"1807",91.59319,87.8197
"1808",90.39933,87.83301
"1809",89.14931,87.846375
"1810",87.86511,87.85968
"1811",86.54429,87.87305
"1812",85.19905,87.88635
"1813",83.861145,87.89972
"1814",82.579384,87.913025
"1815",81.41482,87.92639
"1816",80.41871,87.9397
"1817",79.622795,87.953064
"1818",79.027084,87.96637
"1819",78.590065,87.97974
"1820",78.25803,87.99304
"1821",77.95773,88.00641
"1822",77.61837,88.019714
"1823",77.18135,88.03308
"1824",76.63691,88.04639
"1825",75.99481,88.05975
"1826",75.2868,88.07306
"1827",74.57145,88.086426
"1828",73.88541,88.09973
"1829",73.255516,88.1131
"1830",72.67933,88.1264
"1831",72.14221,88.13977
"1832",71.63439,88.153076
"1833",71.15831,88.16644
"1834",70.728615,88.17975
"1835",70.37461,88.193115
"1836",70.09628,88.20642
"1837",69.88144,88.21979
"1838",69.691,88.23309
"1839",69.505455,88.24646
"1840",69.31747,88.259766
"1841",69.153885,88.27313
"1842",69.11238,88.28644
"1843",69.37362,88.299805
"1844",70.16708,88.31311
"1845",71.6881,88.32648
"1846",74.01724,88.33978
"1847",77.04219,88.35315
"1848",80.482185,88.366455
"1849",83.931946,88.37982
"1850",86.99107,88.39313
"1851",89.3666,88.406494
"1852",90.92424,88.4198
"1853",91.67132,88.43317
"1854",91.71526,88.44647
"1855",91.229416,88.45984
"1856",90.39933,88.473145
"1857",89.40566,88.48651
"1858",88.37293,88.49982
"1859",87.35973,88.51318
"1860",86.36118,88.52649
"1861",85.3431,88.539856
"1862",84.29084,88.55316
"1863",83.22148,88.56653
"1864",82.18631,88.579834
"1865",81.25613,88.5932
"1866",80.49195,88.60651
"1867",79.90845,88.61987
"1868",79.48852,88.63318
"1869",79.18089,88.646545
"1870",78.92943,88.65985
"1871",78.69016,88.67322
"1872",78.42161,88.68652
"1873",78.08957,88.69989
"1874",77.67452,88.713196
"1875",77.13008,88.72656
"1876",76.40986,88.73987
"1877",75.4992,88.753235
"1878",74.44694,88.76654
"1879",73.33364,88.77991
"1880",72.256966,88.79321
"1881",71.3341,88.80658
"1882",70.64805,88.819885
"1883",70.20859,88.83325
"1884",69.976654,88.84656
"1885",69.90341,88.859924
"1886",69.942474,88.87323
"1887",70.03525,88.8866
"1888",70.15732,88.8999
"1889",70.27451,88.91327
"1890",70.36729,88.926575
"1891",70.41123,88.93994
"1892",70.37949,88.95325
"1893",70.26719,88.96661
"1894",70.08652,88.97992
"1895",69.879,88.993286
"1896",69.712975,89.00659
"1897",69.71053,89.01996
"1898",70.07675,89.033264
"1899",71.026474,89.04663
"1900",72.72083,89.05994
"1901",75.16228,89.0733
"1902",78.17258,89.08661
"1903",81.40017,89.099976
"1904",84.437325,89.11328
"1905",86.925156,89.12665
"1906",88.653694,89.13995
"1907",89.58633,89.15332
"1908",89.80362,89.166626
"1909",89.45937,89.17999
"1910",88.73182,89.1933
"1911",87.79187,89.206665
"1912",86.77135,89.21997
"1913",85.748375,89.23334
"1914",84.74738,89.24664
"1915",83.77814,89.26001
"1916",82.845505,89.273315
"1917",81.95438,89.28668
"1918",81.14137,89.29999
"1919",80.45533,89.313354
"1920",79.940186,89.32666
"1921",79.61059,89.34003
"1922",79.45434,89.35333
"1923",79.42748,89.3667
"1924",79.46166,89.380005
"1925",79.4934,89.39337
"1926",79.46166,89.40668
"1927",79.3225,89.420044
"1928",79.063705,89.43335
"1929",78.69016,89.44672
"1930",78.22385,89.46002
"1931",77.69405,89.47339
"1932",77.13008,89.486694
"1933",76.561226,89.50006
"1934",75.999695,89.51337
"1935",75.46502,89.52673
"1936",74.97429,89.54004
"1937",74.529945,89.553406
"1938",74.13931,89.56671
"1939",73.80972,89.58008
"1940",73.54116,89.59338
"1941",73.32632,89.60675
"1942",73.16762,89.620056
"1943",73.05531,89.63342
"1944",72.98695,89.64673
"1945",72.94789,89.660095
"1946",72.92592,89.6734
"1947",72.91371,89.68677
"1948",72.89906,89.70007
"1949",72.87465,89.71344
"1950",72.83559,89.726746
"1951",72.79164,89.74011
"1952",72.79408,89.75342
"1953",72.97963,89.766785
"1954",73.55337,89.78009
"1955",74.73502,89.79346
"1956",76.627144,89.80676
"1957",79.166245,89.82013
"1958",82.09598,89.833435
"1959",85.04524,89.8468
"1960",87.623405,89.86011
"1961",89.54238,89.873474
"1962",90.69474,89.88678
"1963",91.10246,89.90015
"1964",90.88762,89.91345
"1965",90.21866,89.92682
"1966",89.26406,89.940125
"1967",88.162964,89.95349
"1968",87.02037,89.9668
"1969",85.89487,89.98016
"1970",84.81331,89.99347
"1971",83.790344,90.006836
"1972",82.85771,90.02014
"1973",82.056915,90.03351
"1974",81.42214,90.046814
"1975",80.99977,90.06018
"1976",80.797134,90.07349
"1977",80.78737,90.08685
"1978",80.907,90.10016
"1979",81.08034,90.113525
"1980",81.22194,90.12683
"1981",81.270775,90.1402
"1982",81.19264,90.1535
"1983",80.9778,90.16687
"1984",80.635994,90.180176
"1985",80.19653,90.19354
"1986",79.68871,90.20685
"1987",79.14427,90.220215
"1988",78.58762,90.23352
"1989",78.0383,90.24689
"1990",77.51095,90.26019
"1991",77.01778,90.27356
"1992",76.558784,90.286865
"1993",76.14618,90.30023
"1994",75.78241,90.31354
"1995",75.46746,90.326904
"1996",75.20134,90.34021
"1997",74.9987,90.35358
"1998",74.8571,90.36688
"1999",74.76921,90.38025
"2000",74.72282,90.393555
"2001",74.70817,90.40692
"2002",74.70084,90.42023
"2003",74.68864,90.43359
"2004",74.65934,90.4469
"2005",74.615395,90.460266
"2006",74.58366,90.47357
"2007",74.64713,90.48694
"2008",74.95476,90.500244
"2009",75.69207,90.51361
"2010",76.98848,90.52692
"2011",78.86351,90.54028
"2012",81.180435,90.55359
"2013",83.66094,90.566956
"2014",87.84314,90.59363
"2015",89.08339,90.60693
"2016",89.66445,90.6203
"2017",89.654686,90.633606
"2018",89.18593,90.64697
"2019",88.39735,90.66028
"2020",87.411,90.673645
"2021",86.31968,90.68695
"2022",85.186844,90.70032
"2023",84.05646,90.71362
"2024",82.9749,90.72699
"2025",81.99344,90.740295
"2026",81.17067,90.75366
"2027",80.56275,90.76697
"2028",80.21362,90.780334
"2029",80.128174,90.79364
"2030",80.27711,90.80701
"2031",80.59693,90.82031
"2032",80.98512,90.83368
"2033",81.34646,90.846985
"2034",81.60525,90.86035
"2035",81.71755,90.87366
"2036",81.66384,90.887024
"2037",81.461205,90.90033
"2038",81.14137,90.9137
"2039",80.73853,90.927
"2040",80.289314,90.94037
"2041",79.818115,90.953674
"2042",79.34692,90.96704
"2043",78.90013,90.98035
"2044",78.47532,90.99371
"2045",78.0798,91.00702
"2046",77.71847,91.020386
"2047",77.39132,91.03369
"2048",77.0959,91.04706
"2049",76.83467,91.06036
"2050",76.60029,91.07373
"2051",76.40009,91.087036
"2052",76.23651,91.1004
"2053",76.13641,91.11371
"2054",76.175476,91.127075
"2055",76.4831,91.14038
"2056",77.20088,91.15375
"2057",78.41917,91.16705
"2058",80.113525,91.18042
"2059",82.13992,91.193726
"2060",84.23956,91.20709
"2061",86.13168,91.2204
"2062",87.58434,91.233765
"2063",88.480354,91.24707
"2064",88.80751,91.26044
"2065",88.63416,91.27374
"2066",88.07507,91.28711
"2067",87.2401,91.300415
"2068",86.22934,91.31378
"2069",85.10872,91.32709
"2070",83.94171,91.340454
"2071",82.77226,91.35376
"2072",81.66384,91.36713
"2073",80.68238,91.38043
"2074",79.90845,91.3938
"2075",79.3933,91.407104
"2076",79.168686,91.42047
"2077",79.217514,91.43378
"2078",79.49096,91.44714
"2079",79.89624,91.46045
"2080",80.33082,91.473816
"2081",80.70435,91.48712
"2082",80.9485,91.50049
"2083",81.02663,91.513794
"2084",80.938736,91.52716
"2085",80.706795,91.54047
"2086",80.36744,91.55383
"2087",79.95239,91.56714
"2088",79.500725,91.580505
"2089",79.044174,91.59381
"2090",78.59251,91.60718
"2091",78.16037,91.62048
"2092",77.75754,91.63385
"2093",77.38155,91.647156
"2094",77.04463,91.66052
"2095",76.74433,91.67383
"2096",76.47822,91.687195
"2097",76.25361,91.7005
"2098",76.087585,91.71387
"2099",76.04608,91.72717
"2100",76.25849,91.74054
"2101",76.88106,91.753845
"2102",78.0383,91.76721
"2103",79.74731,91.78052
"2104",81.883575,91.793884
"2105",84.2005,91.80719
"2106",86.39292,91.82056
"2107",88.18494,91.83386
"2108",89.41543,91.84723
"2109",90.037994,91.860535
"2110",90.121,91.8739
"2111",89.76456,91.88721
"2112",89.09804,91.90057
"2113",88.23132,91.91388
"2114",87.2401,91.927246
"2115",86.17319,91.94055
"2116",85.067215,91.95392
"2117",83.963684,91.967224
"2118",82.90898,91.98059
"2119",81.969025,91.9939
"2120",81.20973,92.00726
"2121",80.68726,92.02057
"2122",80.42603,92.033936
"2123",80.411385,92.04724
"2124",80.587166,92.06061
"2125",80.87526,92.07391
"2126",81.18532,92.08728
"2127",81.43435,92.100586
"2128",81.56374,92.11395
"2129",81.55154,92.12726
"2130",81.392845,92.140625
"2131",81.10719,92.15393
"2132",80.71656,92.1673
"2133",80.26246,92.1806
"2134",79.77417,92.19397
"2135",79.27856,92.207275
"2136",78.79271,92.22064
"2137",78.328835,92.23395
"2138",77.88937,92.247314
"2139",77.471886,92.26062
"2140",77.07637,92.27399
"2141",76.71259,92.28729
"2142",76.39033,92.30066
"2143",76.15839,92.313965
"2144",76.11688,92.32733
"2145",76.42939,92.34064
"2146",77.25704,92.354004
"2147",78.69749,92.36731
"2148",80.723885,92.38068
"2149",83.16533,92.39398
"2150",85.72884,92.40735
"2151",88.08484,92.420654
"2152",89.9794,92.43402
"2153",91.26116,92.44733
"2154",91.913025,92.46069
"2155",91.998474,92.474
"2156",91.64202,92.487366
"2157",90.97307,92.50067
"2158",90.11856,92.51404
"2159",89.16884,92.52734
"2160",88.17517,92.54071
"2161",87.166855,92.554016
"2162",86.153656,92.56738
"2163",85.15755,92.58069
"2164",84.21759,92.594055
"2165",83.38018,92.60736
"2166",82.69901,92.62073
"2167",82.20096,92.63403
"2168",81.89578,92.6474
"2169",81.75418,92.660706
"2170",81.71267,92.67407
"2171",81.7029,92.68738
"2172",81.65896,92.700745
"2173",81.52712,92.71405
"2174",81.27566,92.72742
"2175",80.91188,92.74072
"2176",80.448006,92.75409
"2177",79.91089,92.767395
"2178",79.33227,92.78076
"2179",78.73899,92.79407
"2180",78.14816,92.807434
"2181",77.57198,92.82074
"2182",77.02022,92.83411
"2183",76.490425,92.84741
"2184",75.982605,92.86078
"2185",75.49676,92.874084
"2186",75.04753,92.88745
"2187",74.64225,92.90076
"2188",74.32975,92.91412
"2189",74.20035,92.92743
"2190",74.4152,92.940796
"2191",75.16472,92.9541
"2192",76.59052,92.96747
"2193",78.709694,92.980774
"2194",81.38552,92.99414
"2195",84.34699,93.00745
"2196",87.235214,93.02081
"2197",89.73769,93.03412
"2198",91.64446,93.047485
"2199",92.87007,93.06079
"2200",93.44137,93.07416
"2201",93.46334,93.08746
"2202",93.07271,93.10083
"2203",92.41108,93.114136
"2204",91.598076,93.1275
"2205",90.70695,93.14081
"2206",89.76456,93.154175
"2207",88.77333,93.16748
"2208",87.73815,93.18085
"2209",86.67368,93.19415
"2210",85.61654,93.20752
"2211",84.62287,93.220825
"2212",83.75128,93.23419
"2213",83.04082,93.2475
"2214",82.50126,93.260864
"2215",82.11063,93.27417
"2216",81.815216,93.28754
"2217",81.55642,93.30084
"2218",81.26589,93.31421
"2219",80.89723,93.327515
"2220",80.42115,93.34088
"2221",79.83765,93.35419
"2222",79.15892,93.36755
"2223",78.41428,93.38086
"2224",77.63546,93.394226
"2225",76.84688,93.40753
"2226",76.08026,93.4209
"2227",75.34783,93.434204
"2228",74.666664,93.44757
"2229",74.04654,93.46088
"2230",73.48989,93.47424
"2231",72.99916,93.48755
"2232",72.57191,93.500916
"2233",72.19348,93.51422
"2234",71.85657,93.52759
"2235",71.5465,93.54089
"2236",71.258415,93.55426
"2237",70.99718,93.567566
"2238",70.79698,93.58093
"2239",70.750595,93.59424
"2240",71.028915,93.607605
"2241",71.8468,93.62091
"2242",73.38003,93.63428
"2243",75.67986,93.64758
"2244",78.643776,93.66095
"2245",81.988556,93.674255
"2246",85.33578,93.68762
"2247",88.30213,93.70093
"2248",90.6215,93.714294
"2249",92.16449,93.7276
"2250",92.93599,93.74097
"2251",93.05318,93.75427
"2252",92.67719,93.76764
"2253",91.983826,93.780945
"2254",91.11467,93.79431
"2255",90.160065,93.80762
"2256",89.14931,93.820984
"2257",88.09216,93.83429
"2258",86.98131,93.84766
"2259",85.83627,93.86096
"2260",84.68635,93.87433
"2261",83.59991,93.887634
"2262",82.64042,93.901
"2263",81.85428,93.91431
"2264",81.25124,93.92767
"2265",80.814224,93.94098
"2266",80.49195,93.954346
"2267",80.21362,93.96765
"2268",79.91333,93.98102
"2269",79.53979,93.99432
"2270",79.061264,94.00769
"2271",78.467995,94.020996
"2272",77.77463,94.03436
"2273",76.998245,94.04767
"2274",76.18036,94.061035
"2275",75.355156,94.07434
"2276",74.55436,94.08771
"2277",73.797516,94.10101
"2278",73.10658,94.11438
"2279",72.47913,94.127686
"2280",71.922485,94.14105
"2281",71.43664,94.15436
"2282",71.01671,94.167725
"2283",70.6627,94.18103
"2284",70.37217,94.1944
"2285",70.13779,94.2077
"2286",69.962006,94.22107
"2287",69.84238,94.234375
"2288",69.76669,94.24774
"2289",69.72274,94.26105
"2290",69.695885,94.274414
"2291",69.66903,94.28772
"2292",69.62264,94.30109
"2293",69.55184,94.31439
"2294",69.454185,94.32776
"2295",69.332115,94.341064
"2296",69.20027,94.35443
"2297",69.11238,94.36774
"2298",69.18074,94.3811
"2299",69.610435,94.39441
"2300",70.63096,94.407776
"2301",72.42298,94.42108
"2302",75.04265,94.43445
"2303",78.35325,94.447754
"2304",82.039825,94.46112
"2305",85.69222,94.47443
"2306",88.91493,94.48779
"2307",91.422295,94.5011
"2308",93.084915,94.514465
"2309",93.91257,94.52777
"2310",94.01999,94.54114
"2311",93.58541,94.55444
"2312",92.79683,94.56781
"2313",91.81293,94.581116
"2314",90.73136,94.59448
"2315",89.600975,94.60779
"2316",88.44129,94.621155
"2317",87.25475,94.63446
"2318",86.07553,94.64783
"2319",84.945145,94.66113
"2320",83.929504,94.6745
"2321",83.08232,94.687805
"2322",82.43778,94.70117
"2323",81.97879,94.71448
"2324",81.6614,94.727844
"2325",81.42947,94.74115
"2326",81.20973,94.75452
"2327",80.92897,94.76782
"2328",80.5481,94.78119
"2329",80.045166,94.794495
"2330",79.4226,94.80786
"2331",78.692604,94.82117
"2332",77.891815,94.83453
"2333",77.049515,94.84784
"2334",76.20233,94.861206
"2335",75.37713,94.87451
"2336",74.60319,94.88788
"2337",73.89273,94.901184
"2338",73.26284,94.91455
"2339",72.706184,94.92786
"2340",72.22278,94.94122
"2341",71.81018,94.95453
"2342",71.465935,94.967896
"2343",71.18761,94.9812
"2344",70.98009,94.99457
"2345",70.836044,95.00787
"2346",70.75304,95.02124
"2347",70.72129,95.034546
"2348",70.71641,95.04791
"2349",70.72129,95.06122
"2350",70.728615,95.074585
"2351",70.72129,95.08789
"2352",70.694435,95.10126
"2353",70.63828,95.11456
"2354",70.55283,95.12793
"2355",70.435646,95.141235
"2356",70.30869,95.1546
"2357",70.21347,95.16791
"2358",70.26719,95.181274
"2359",70.657814,95.19458
"2360",71.60265,95.20795
"2361",73.287254,95.22125
"2362",75.755554,95.23462
"2363",78.890366,95.247925
"2364",82.39872,95.26129
"2365",85.889984,95.2746
"2366",88.96864,95.287964
"2367",91.36126,95.30127
"2368",92.91646,95.31464
"2369",93.6318,95.32794
"2370",93.61227,95.34131
"2371",93.04097,95.354614
"2372",92.09613,95.36798
"2373",90.94621,95.38129
"2374",89.70107,95.39465
"2375",88.42176,95.40796
"2376",87.13756,95.421326
"2377",85.88266,95.43463
"2378",84.69367,95.448
"2379",83.63409,95.4613
"2380",82.76738,95.47467
"2381",82.13504,95.487976
"2382",81.74685,95.50134
"2383",81.566185,95.51465
"2384",81.52712,95.528015
"2385",81.53933,95.54132
"2386",81.512474,95.55469
"2387",81.375755,95.56799
"2388",81.08278,95.58136
"2389",80.62867,95.594666
"2390",80.02319,95.60803
"2391",79.31274,95.62134
"2392",78.538795,95.634705
"2393",77.738,95.64801
"2394",76.94209,95.66138
"2395",76.18036,95.67468
"2396",75.47234,95.68805
"2397",74.82536,95.701355
"2398",74.251625,95.71472
"2399",73.75601,95.72803
"2400",73.340965,95.741394
"2401",73.00404,95.7547
"2402",72.73792,95.76807
"2403",72.54017,95.78137
"2404",72.40101,95.79474
"2405",72.30579,95.808044
"2406",72.23743,95.82141
"2407",72.181274,95.83472
"2408",72.112915,95.84808
"2409",72.0177,95.86139
"2410",71.888306,95.874756
"2411",71.724724,95.88806
"2412",71.53185,95.90143
"2413",71.31945,95.914734
"2414",71.11192,95.9281
"2415",70.963,95.94141
"2416",70.98253,95.95477
"2417",71.34142,95.96808
"2418",72.232544,95.981445
"2419",73.78531,95.99475
"2420",76.019226,96.00812
"2421",78.79759,96.02142
"2422",81.849396,96.03479
"2423",84.83528,96.048096
"2424",87.43786,96.06146
"2425",89.42275,96.07477
"2426",90.687416,96.088135
"2427",91.226974,96.10144
"2428",91.13176,96.11481
"2429",90.53849,96.12811
"2430",89.58877,96.14148
"2431",88.40955,96.154785
"2432",87.10094,96.16815
"2433",85.74349,96.18146
"2434",84.403145,96.194824
"2435",83.15068,96.20813
"2436",82.054474,96.2215
"2437",81.1902,96.2348
"2438",80.6067,96.24817
"2439",80.31373,96.261475
"2440",80.27711,96.27484
"2441",80.428474,96.28815
"2442",80.66773,96.30151
"2443",80.89479,96.31482
"2444",81.02907,96.328186
"2445",81.01198,96.34149
"2446",80.81911,96.35486
"2447",80.45533,96.368164
"2448",79.94995,96.38153
"2449",79.33471,96.39484
"2450",78.658424,96.4082
"2451",77.95529,96.42151
"2452",77.25948,96.434875
"2453",76.60029,96.44818
"2454",75.99481,96.46155
"2455",75.45525,96.47485
"2456",74.986496,96.48822
"2457",74.5861,96.501526
"2458",74.24429,96.51489
"2459",73.944,96.5282
"2460",73.6852,96.541565
"2461",73.46548,96.55487
"2462",73.28237,96.56824
"2463",73.13588,96.58154
"2464",73.02113,96.59491
"2465",72.92348,96.608215
"2466",72.84291,96.62158
"2467",72.79408,96.63489
"2468",72.84291,96.648254
"2469",73.111465,96.66156
"2470",73.76578,96.67493
"2471",74.93767,96.68823
"2472",76.697945,96.7016
"2473",78.98558,96.714905
"2474",81.617455,96.72827
"2475",84.317696,96.74158
"2476",86.783554,96.754944
"2477",88.780655,96.76825
"2478",90.160065,96.78162
"2479",90.88274,96.79492
"2480",90.9926,96.80829
"2481",90.59464,96.821594
"2482",89.82315,96.83496
"2483",88.78798,96.84827
"2484",87.5819,96.86163
"2485",86.278175,96.87494
"2486",84.93782,96.888306
"2487",83.6292,96.90161
"2488",82.43046,96.91498
"2489",81.42458,96.92828
"2490",80.67506,96.94165
"2491",80.216064,96.954956
"2492",80.03784,96.96832
"2493",80.08911,96.98163
"2494",80.28687,96.994995
"2495",80.533455,97.0083
"2496",80.740974,97.02167
"2497",80.8362,97.03497
"2498",80.77272,97.04834
"2499",80.53834,97.061646
"2500",80.15259,97.07501
"2501",79.64233,97.08832
"2502",79.04906,97.101685
"2503",78.40696,97.11499
"2504",77.75998,97.12836
"2505",77.134964,97.14166
"2506",76.55146,97.15503
"2507",76.01434,97.168335
"2508",75.53338,97.1817
"2509",75.106125,97.19501
"2510",74.73014,97.208374
"2511",74.39567,97.22168
"2512",74.09781,97.23505
"2513",73.831696,97.24835
"2514",73.59487,97.26172
"2515",73.40444,97.275024
"2516",73.306786,97.28839
"2517",73.411766,97.3017
"2518",73.87564,97.31506
"2519",74.86931,97.32837
"2520",76.50263,97.341736
"2521",78.768295,97.35504
"2522",81.51736,97.36841
"2523",84.48615,97.381714
"2524",87.33532,97.39508
"2525",89.767,97.40839
"2526",91.57366,97.42175
"2527",92.664986,97.43506
"2528",93.05562,97.448425
"2529",92.85298,97.46173
"2530",92.19867,97.4751
"2531",91.24162,97.4884
"2532",90.10391,97.50177
"2533",88.87099,97.515076
"2534",87.59899,97.52844
"2535",86.31724,97.54175
"2536",85.06477,97.555115
"2537",83.888,97.56842
"2538",82.84062,97.58179
"2539",81.98123,97.59509
"2540",81.34646,97.60846
"2541",80.94118,97.621765
"2542",80.73121,97.63513
"2543",80.65064,97.64844
"2544",80.621346,97.661804
"2545",80.57252,97.67511
"2546",80.43336,97.68848
"2547",80.17212,97.70178
"2548",79.77417,97.71515
"2549",79.25414,97.728455
"2550",78.63645,97.74182
"2551",77.95529,97.75513
"2552",77.24727,97.76849
"2553",76.544136,97.7818
"2554",75.86786,97.795166
"2555",75.23796,97.80847
"2556",74.66178,97.82184
"2557",74.144196,97.835144
"2558",73.6852,97.84851
"2559",73.27749,97.86182
"2560",72.91127,97.87518
"2561",72.57923,97.88849
"2562",72.2765,97.901855
"2563",72.01282,97.91516
"2564",71.82483,97.92853
"2565",71.81262,97.94183
"2566",72.14221,97.9552
"2567",73.01381,97.968506
"2568",74.58854,97.98187
"2569",76.92012,97.99518
"2570",79.90845,98.008545
"2571",83.29473,98.02185
"2572",86.71519,98.03522
"2573",89.80118,98.04852
"2574",92.26948,98.06189
"2575",93.96628,98.075195
"2576",94.85985,98.08856
"2577",95.028305,98.10187
"2578",94.63523,98.115234
"2579",93.85397,98.12854
"2580",92.84566,98.14191
"2581",91.734795,98.15521
"2582",90.579994,98.16858
"2583",89.39834,98.181885
"2584",88.1947,98.19525
"2585",86.97398,98.20856
"2586",85.767914,98.221924
"2587",84.62531,98.23523
"2588",83.60235,98.2486
"2589",82.75029,98.2619
"2590",82.08621,98.27527
"2591",81.59548,98.288574
"2592",81.23903,98.30194
"2593",80.96559,98.31525
"2594",80.69947,98.32861
"2595",80.38453,98.34192
"2596",79.97681,98.355286
"2597",79.45922,98.36859
"2598",78.83421,98.38196
"2599",78.116425,98.39526
"2600",77.34493,98.40863
"2601",76.54902,98.421936
"2602",75.76288,98.4353
"2603",75.01091,98.44861
"2604",74.3151,98.461975
"2605",73.6852,98.47528
"2606",73.12367,98.48865
"2607",72.637825,98.50195
"2608",72.217896,98.51532
"2609",71.851685,98.528625
"2610",71.534294,98.54199
"2611",71.24864,98.5553
"2612",70.98985,98.568665
"2613",70.76036,98.58197
"2614",70.58457,98.59534
"2615",70.52842,98.60864
"2616",70.74082,98.62201
"2617",71.42687,98.635315
"2618",72.78676,98.64868
"2619",74.94011,98.66199
"2620",77.857635,98.675354
"2621",81.322044,98.68866
"2622",84.979324,98.70203
"2623",88.41688,98.71533
"2624",91.27825,98.7287
"2625",93.33395,98.742004
"2626",94.51804,98.75537
"2627",94.87938,98.76868
"2628",94.574196,98.78204
"2629",93.81247,98.79535
"2630",92.77974,98.808716
"2631",91.62005,98.82202
"2632",90.41886,98.83539
"2633",89.195694,98.848694
"2634",87.953,98.86206
"2635",86.68101,98.87537
"2636",85.401695,98.88873
"2637",84.16876,98.90204
"2638",83.05058,98.915405
"2639",82.11063,98.92871
"2640",81.38308,98.94208
"2641",80.86305,98.95538
"2642",80.51392,98.96875
"2643",80.26246,98.982056
"2644",80.03052,98.99542
"2645",79.7522,99.00873
"2646",79.37621,99.022095
"2647",78.87572,99.0354
"2648",78.25315,99.04877
"2649",77.5378,99.06207
"2650",76.75166,99.07544
"2651",75.93378,99.088745
"2652",75.11589,99.10211
"2653",74.32731,99.11542
"2654",73.58755,99.128784
"2655",72.91127,99.14209
"2656",72.308235,99.15546
"2657",71.78577,99.16876
"2658",71.34875,99.18213
"2659",70.99962,99.195435
"2660",70.728615,99.2088
"2661",70.538185,99.22211
"2662",70.41123,99.23547
"2663",70.330666,99.24878
"2664",70.27207,99.262146
"2665",70.22812,99.27545
"2666",70.17929,99.28882
"2667",70.115814,99.302124
"2668",70.03769,99.31549
"2669",69.96689,99.3288
"2670",69.962006,99.34216
"2671",70.169525,99.35547
"2672",70.80675,99.368835
"2673",72.09827,99.38214
"2674",74.20279,99.39551
"2675",77.1252,99.40881
"2676",80.67017,99.42218
"2677",84.48615,99.435486
"2678",88.13367,99.44885
"2679",91.229416,99.46216
"2680",93.49996,99.475525
"2681",94.84276,99.48883
"2682",95.29931,99.5022
"2683",95.03075,99.5155
"2684",94.2446,99.52887
"2685",93.155716,99.542175
"2686",91.92035,99.55554
"2687",90.62638,99.56885
"2688",89.31045,99.582214
"2689",87.97986,99.59552
"2690",86.64683,99.60889
"2691",85.3431,99.62219
"2692",84.12726,99.63556
"2693",83.07744,99.648865
"2694",82.23758,99.66223
"2695",81.62966,99.67554
"2696",81.23659,99.6889
"2697",80.99489,99.70221
"2698",80.82643,99.715576
"2699",80.65308,99.72888
"2700",80.4065,99.74225
"2701",80.04028,99.755554
"2702",79.537346,99.76892
"2703",78.907455,99.78223
"2704",78.170135,99.79559
"2705",77.36202,99.8089
"2706",76.51728,99.822266
"2707",75.67498,99.83557
"2708",74.8571,99.84894
"2709",74.092926,99.86224
"2710",73.402,99.87561
"2711",72.7892,99.888916
"2712",72.26429,99.90228
"2713",71.82239,99.91559
"2714",71.45861,99.928955
"2715",71.17296,99.94226
"2716",70.95323,99.95563
"2717",70.79698,99.96893
"2718",70.7042,99.9823
"2719",70.66514,99.995605
"2720",70.66758,100.00897
"2721",70.694435,100.02228
"2722",70.728615,100.035645
"2723",70.75548,100.04895
"2724",70.75792,100.06232
"2725",70.728615,100.07562
"2726",70.66758,100.08899
"2727",70.57969,100.102295
"2728",70.47471,100.11566
"2729",70.40391,100.12897
"2730",70.47959,100.142334
"2731",70.89464,100.15564
"2732",71.885864,100.16901
"2733",73.651024,100.18231
"2734",76.25605,100.19568
"2735",79.588615,100.208984
"2736",83.35577,100.22235
"2737",87.13756,100.23566
"2738",90.51652,100.24902
"2739",93.172806,100.26233
"2740",94.923325,100.275696
"2741",95.746086,100.289
"2742",95.746086,100.30237
"2743",95.10887,100.315674
"2744",94.0444,100.32904
"2745",92.73823,100.34235
"2746",91.32708,100.35571
"2747",89.884186,100.36902
"2748",88.45106,100.382385
"2749",87.05455,100.39569
"2750",85.73617,100.40906
"2751",84.54963,100.42236
"2752",83.5584,100.43573
"2753",82.804,100.449036
"2754",82.29862,100.4624
"2755",82.01297,100.47571
"2756",81.88602,100.489075
"2757",81.832306,100.50238
"2758",81.76883,100.51575
"2759",81.617455,100.52905
"2760",81.33425,100.54242
"2761",80.885025,100.555725
"2762",80.28687,100.56909
"2763",79.55932,100.5824
"2764",78.74387,100.595764
"2765",77.87961,100.60907
"2766",77.00557,100.62244
"2767",76.15839,100.63574
"2768",75.36004,100.64911
"2769",74.632484,100.662415
"2770",73.985504,100.67578
"2771",73.426414,100.68909
"2772",72.952774,100.70245
"2773",72.56458,100.71576
"2774",72.25941,100.729126
"2775",72.02991,100.74243
"2776",71.871216,100.7558
"2777",71.77112,100.769104
"2778",71.724724,100.78247
"2779",71.71252,100.79578
"2780",71.724724,100.80914
"2781",71.7467,100.82245
"2782",71.76868,100.835815
"2783",71.77844,100.84912
"2784",71.75891,100.86249
"2785",71.70031,100.87579
"2786",71.605095,100.88916
"2787",71.47814,100.902466
"2788",71.37316,100.91583
"2789",71.397575,100.92914
"2790",71.73449,100.942505
"2791",72.603645,100.95581
"2792",74.178375,100.96918
"2793",76.524605,100.98248
"2794",79.53246,100.99585
"2795",82.93584,101.009155
"2796",86.35386,101.02252
"2797",89.40078,101.03583
"2798",91.78363,101.049194
"2799",93.33639,101.0625
"2800",94.03464,101.07587
"2801",93.96872,101.08917
"2802",93.29,101.10254
"2803",92.17914,101.115845
"2804",90.80217,101.12921
"2805",89.28603,101.14252
"2806",87.71618,101.15588
"2807",86.16342,101.16919
"2808",84.69611,101.182556
"2809",83.387505,101.19586
"2810",82.30595,101.20923
"2811",81.512474,101.222534
"2812",81.03883,101.2359
"2813",80.86549,101.24921
"2814",80.921646,101.26257
"2815",81.12184,101.27588
"2816",81.35134,101.289246
"2817",81.51736,101.30255
"2818",81.53933,101.31592
"2819",81.375755,101.32922
"2820",81.0193,101.34259
"2821",80.48951,101.355896
"2822",79.82056,101.36926
"2823",79.05638,101.38257
"2824",78.24582,101.395935
"2825",77.43038,101.40924
"2826",76.63935,101.42261
"2827",75.897156,101.43591
"2828",75.22575,101.44928
"2829",74.64225,101.462585
"2830",74.15152,101.47595
"2831",73.75113,101.48926
"2832",73.443504,101.502625
"2833",73.21889,101.51593
"2834",73.057755,101.5293
"2835",72.95033,101.5426
"2836",72.87953,101.55597
"2837",72.82582,101.569275
"2838",72.779434,101.58264
"2839",72.73304,101.59595
"2840",72.67933,101.609314
"2841",72.62318,101.62262
"2842",72.567024,101.63599
"2843",72.549934,101.64929
"2844",72.66468,101.66266
"2845",73.0724,101.675964
"2846",73.96109,101.68933
"2847",75.474785,101.70264
"2848",77.659874,101.716
"2849",80.40894,101.72931
"2850",83.47295,101.742676
"2851",86.51743,101.75598
"2852",89.20302,101.76935
"2853",91.27581,101.78265
"2854",92.59907,101.79602
"2855",93.14351,101.809326
"2856",92.982376,101.82269
"2857",92.25483,101.836
"2858",91.124435,101.849365
"2859",89.73525,101.86267
"2860",88.199585,101.87604
"2861",86.61509,101.88934
"2862",85.05501,101.90271
"2863",83.59258,101.916016
"2864",82.31083,101.92938
"2865",81.29519,101.94269
"2866",80.601814,101.956055
"2867",80.25025,101.96936
"2868",80.20874,101.98273
"2869",80.40162,101.99603
"2870",80.72877,102.0094
"2871",81.07301,102.022705
"2872",81.32937,102.03607
"2873",81.42214,102.04938
"2874",81.31228,102.062744
"2875",80.99245,102.07605
"2876",80.482185,102.08942
"2877",79.82544,102.10272
"2878",79.06859,102.11609
"2879",78.26292,102.129395
"2880",77.452354,102.14276
"2881",76.67353,102.15607
"2882",75.95819,102.16943
"2883",75.32586,102.18274
"2884",74.78142,102.196106
"2885",74.32975,102.20941
"2886",73.95865,102.22278
"2887",73.65835,102.236084
"2888",73.41421,102.24945
"2889",73.21889,102.26276
"2890",73.05287,102.27612
"2891",72.91127,102.28943
"2892",72.78676,102.302795
"2893",72.68665,102.3161
"2894",72.64271,102.32947
"2895",72.73792,102.34277
"2896",73.128555,102.35614
"2897",74.00992,102.369446
"2898",75.54803,102.38281
"2899",77.803925,102.39612
"2900",80.69215,102.409485
"2901",83.97833,102.42279
"2902",87.31579,102.43616
"2903",90.33585,102.44946
"2904",92.74799,102.46283
"2905",94.37888,102.476135
"2906",95.17479,102.4895
"2907",95.19432,102.50281
"2908",94.574196,102.516174
"2909",93.49996,102.52948
"2910",92.140076,102.54285
"2911",90.62638,102.55615
"2912",89.05653,102.56952
"2913",87.49157,102.582825
"2914",85.9852,102.59619
"2915",84.58137,102.6095
"2916",83.35088,102.62286
"2917",82.357216,102.63617
"2918",81.64675,102.649536
"2919",81.22438,102.66284
"2920",81.058365,102.67621
"2921",81.077896,102.689514
"2922",81.180435,102.70288
"2923",81.27322,102.71619
"2924",81.26833,102.72955
"2925",81.10475,102.74286
"2926",80.76784,102.756226
"2927",80.26002,102.76953
"2928",79.61059,102.7829
"2929",78.856186,102.7962
"2930",78.0383,102.80957
"2931",77.19356,102.822876
"2932",76.36347,102.83624
"2933",75.577324,102.84955
"2934",74.85954,102.862915
"2935",74.22232,102.87622
"2936",73.673,102.88959
"2937",73.20668,102.90289
"2938",72.80629,102.91626
"2939",72.46204,102.929565
"2940",72.164185,102.94293
"2941",71.905396,102.95624
"2942",71.67834,102.969604
"2943",71.47814,102.98291
"2944",71.312126,102.99628
"2945",71.219345,103.00958
"2946",71.30724,103.02295
"2947",71.77112,103.036255
"2948",72.8307,103.04962
"2949",74.67155,103.06293
"2950",77.35226,103.076294
"2951",80.76051,103.0896
"2952",84.610664,103.10297
"2953",88.50721,103.11627
"2954",92.03998,103.12964
"2955",94.88182,103.142944
"2956",96.83986,103.15631
"2957",97.865265,103.16962
"2958",98.041046,103.18298
"2959",97.53567,103.19629
"2960",96.55665,103.209656
"2961",95.30419,103.22296
"2962",93.924774,103.23633
"2963",92.508736,103.24963
"2964",91.090256,103.263
"2965",89.67666,103.276306
"2966",88.275276,103.28967
"2967",86.91539,103.30298
"2968",85.65316,103.316345
"2969",84.53986,103.32965
"2970",83.6292,103.34302
"2971",82.93584,103.35632
"2972",82.44022,103.36969
"2973",82.091095,103.382996
"2974",81.81766,103.39636
"2975",81.549095,103.40967
"2976",81.214615,103.423035
"2977",80.76784,103.43634
"2978",80.18921,103.44971
"2979",79.47875,103.46301
"2980",78.66575,103.47638
"2981",77.78439,103.489685
"2982",76.87129,103.50305
"2983",75.9704,103.51636
"2984",75.11345,103.529724
"2985",74.32487,103.54303
"2986",73.62417,103.5564
"2987",73.01625,103.5697
"2988",72.49622,103.58307
"2989",72.059204,103.596375
"2990",71.692986,103.60974
"2991",71.38537,103.62305
"2992",71.12169,103.63641
"2993",70.889755,103.64972
"2994",70.68467,103.663086
"2995",70.504005,103.67639
"2996",70.36729,103.68976
"2997",70.35264,103.703064
"2998",70.608986,103.71643
"2999",71.35363,103.72974
"3000",72.80141,103.7431
"3001",75.089035,103.75641
"3002",78.20187,103.769775
"3003",81.9324,103.78308
"3004",85.90463,103.79645
"3005",89.67666,103.80975
"3006",92.83833,103.82312
"3007",95.113754,103.836426
"3008",96.395515,103.84979
"3009",96.73243,103.8631
"3010",96.29786,103.876465
"3011",95.31884,103.88977
"3012",94.029755,103.90314
"3013",92.611275,103.91644
"3014",91.158615,103.92981
"3015",89.71328,103.943115
"3016",88.28016,103.95648
"3017",86.85191,103.96979
"3018",85.44076,103.983154
"3019",84.09552,103.99646
"3020",82.882126,104.00983
"3021",81.864044,104.02313
"3022",81.077896,104.0365
"3023",80.51392,104.049805
"3024",80.13794,104.06317
"3025",79.87915,104.07648
"3026",79.65453,104.08984
"3027",79.38842,104.10315
"3028",79.029526,104.116516
"3029",78.54368,104.12982
"3030",77.91867,104.14319
"3031",77.17891,104.156494
"3032",76.35371,104.16986
"3033",75.47967,104.18317
"3034",74.59586,104.19653
"3035",73.7438,104.20984
"3036",72.95766,104.223206
"3037",72.24963,104.23651
"3038",71.63683,104.24988
"3039",71.12657,104.26318
"3040",70.71641,104.27655
"3041",70.39414,104.289856
"3042",70.15976,104.30322
"3043",70.00107,104.31653
"3044",69.90341,104.329895
"3045",69.84726,104.3432
"3046",69.81796,104.35657
"3047",69.79111,104.36987
"3048",69.75693,104.38324
"3049",69.70565,104.396545
"3050",69.644615,104.40991
"3051",69.60311,104.42322
"3052",69.678795,104.436584
"3053",70.04501,104.44989
"3054",70.94347,104.46326
"3055",72.59876,104.47656
"3056",75.13542,104.48993
"3057",78.504616,104.503235
"3058",82.44022,104.5166
"3059",86.52476,104.52991
"3060",90.284584,104.543274
"3061",93.31686,104.55658
"3062",95.379875,104.56995
"3063",96.40284,104.58325
"3064",96.48585,104.59662
"3065",95.836426,104.609924
"3066",94.710915,104.62329
"3067",93.331505,104.6366
"3068",91.85687,104.64996
"3069",90.372475,104.66327
"3070",88.8954,104.676636
"3071",87.42321,104.68994
"3072",85.96811,104.70331
"3073",84.56916,104.71661
"3074",83.28741,104.72998
"3075",82.19852,104.743286
"3076",81.35134,104.75665
"3077",80.75807,104.76996
"3078",80.38209,104.783325
"3079",80.15747,104.79663
"3080",79.99878,104.81
"3081",79.818115,104.8233
"3082",79.54223,104.83667
"3083",79.13451,104.849976
"3084",78.5803,104.86334
"3085",77.88937,104.87665
"3086",77.09346,104.890015
"3087",76.23895,104.90332
"3088",75.36248,104.91669
"3089",74.50553,104.92999
"3090",73.704735,104.94336
"3091",72.98695,104.956665
"3092",72.359505,104.97003
"3093",71.82483,104.98334
"3094",71.38293,104.996704
"3095",71.03868,105.01001
"3096",70.78233,105.02338
"3097",70.61387,105.03668
"3098",70.52842,105.05005
"3099",70.51377,105.063354
"3100",70.54795,105.07672
"3101",70.61143,105.09003
"3102",70.68467,105.10339
"3103",70.750595,105.1167
"3104",70.79698,105.130066
"3105",70.80675,105.14337
"3106",70.77501,105.15674
"3107",70.70908,105.170044
"3108",70.62852,105.18341
"3109",70.59678,105.19672
"3110",70.76036,105.21008
"3111",71.33898,105.22339
"3112",72.57923,105.236755
"3113",74.6569,105.25006
"3114",77.60372,105.26343
"3115",81.24635,105.27673
"3116",85.223465,105.2901
"3117",89.0663,105.303406
"3118",92.332954,105.31677
"3119",94.70603,105.33008
"3120",96.05371,105.343445
"3121",96.410164,105.35675
"3122",95.958496,105.37012
"3123",94.93797,105.38342
"3124",93.58541,105.39679
"3125",92.086365,105.410095
"3126",90.55314,105.42346
"3127",89.03456,105.43677
"3128",87.5404,105.450134
"3129",86.09506,105.46344
"3130",84.73762,105.47681
"3131",83.53399,105.49011
"3132",82.55497,105.50348
"3133",81.846954,105.516785
"3134",81.41482,105.53015
"3135",81.20729,105.54346
"3136",81.14137,105.55682
"3137",81.11452,105.57013
"3138",81.03395,105.583496
"3139",80.82399,105.5968
"3140",80.445564,105.61017
"3141",79.8938,105.623474
"3142",79.19066,105.63684
"3143",78.380104,105.65015
"3144",77.51095,105.66351
"3145",76.6247,105.67682
"3146",75.76776,105.690186
"3147",74.966965,105.70349
"3148",74.24429,105.71686
"3149",73.60952,105.73016
"3150",73.07973,105.74353
"3151",72.65003,105.756836
"3152",72.32044,105.7702
"3153",72.0885,105.78351
"3154",71.9469,105.796875
"3155",71.88098,105.81018
"3156",71.86389,105.82355
"3157",71.888306,105.83685
"3158",71.920044,105.85022
"3159",71.9469,105.863525
"3160",71.94934,105.87689
"3161",71.92493,105.8902
"3162",71.85901,105.903564
"3163",71.76135,105.91687
"3164",71.64416,105.93024
"3165",71.54406,105.94354
"3166",71.5465,105.95691
"3167",71.81262,105.970215
"3168",72.54505,105.98358
"3169",73.93179,105.99689
"3170",76.053406,106.010254
"3171",78.84642,106.02356
"3172",82.06912,106.03693
"3173",85.367516,106.05023
"3174",88.33875,106.0636
"3175",90.66544,106.076904
"3176",92.157166,106.09027
"3177",92.78218,106.10358
"3178",92.63325,106.11694
"3179",91.88617,106.13025
"3180",90.74357,106.143616
"3181",89.376366,106.15692
"3182",87.904175,106.17029
"3183",86.397804,106.18359
"3184",84.90608,106.19696
"3185",83.4876,106.210266
"3186",82.2034,106.22363
"3187",81.13649,106.23694
"3188",80.35035,106.250305
"3189",79.87671,106.26361
"3190",79.691154,106.27698
"3191",79.73266,106.29028
"3192",79.906006,106.30365
"3193",80.10376,106.316956
"3194",80.22583,106.33032
"3195",80.20386,106.34363
"3196",79.9939,106.356995
"3197",79.5935,106.3703
"3198",79.0222,106.38367
"3199",78.328835,106.39697
"3200",77.56466,106.41034
"3201",76.78584,106.423645
"3202",76.036316,106.43701
"3203",75.34783,106.45032
"3204",74.73991,106.463684
"3205",74.21744,106.47699
"3206",73.78531,106.49036
"3207",73.443504,106.50366
"3208",73.18715,106.51703
"3209",73.006485,106.530334
"3210",72.886856,106.5437
"3211",72.80873,106.55701
"3212",72.75502,106.57037
"3213",72.708626,106.58368
"3214",72.6598,106.597046
"3215",72.601204,106.61035
"3216",72.5304,106.62372
"3217",72.447395,106.637024
"3218",72.36439,106.65039
"3219",72.318,106.6637
"3220",72.38148,106.67706
"3221",72.691536,106.69037
"3222",73.411766,106.703735
"3223",74.69108,106.71704
"3224",76.58808,106.73041
"3225",79.03441,106.74371
"3226",81.82742,106.75708
"3227",84.644844,106.770386
"3228",87.16441,106.78375
"3229",89.11757,106.79706
"3230",90.36515,106.810425
"3231",90.88762,106.82373
"3232",90.76555,106.8371
"3233",90.15274,106.8504
"3234",89.198135,106.86377
"3235",88.03601,106.877075
"3236",86.75914,106.89044
"3237",85.435875,106.90375
"3238",84.11261,106.917114
"3239",82.85771,106.93042
"3240",81.74685,106.94379
"3241",80.85817,106.95709
"3242",80.257576,106.97046
"3243",79.96216,106.983765
"3244",79.94263,106.99713
"3245",80.11841,107.01044
"3246",80.39185,107.0238
"3247",80.65064,107.03711
"3248",80.80202,107.050476
"3249",80.78737,107.06378
"3250",80.57496,107.07715
"3251",80.17456,107.090454
"3252",79.61303,107.10382
"3253",78.94652,107.11713
"3254",78.22629,107.13049
"3255",77.4963,107.1438
"3256",76.79317,107.157166
"3257",76.14618,107.17047
"3258",75.57244,107.18384
"3259",75.07927,107.19714
"3260",74.669106,107.21051
"3261",74.339516,107.223816
"3262",74.08072,107.23718
"3263",73.87564,107.25049
"3264",73.70718,107.263855
"3265",73.55825,107.27716
"3266",73.42153,107.29053
"3267",73.287254,107.30383
"3268",73.16518,107.3172
"3269",73.06996,107.330505
"3270",73.04555,107.34387
"3271",73.17494,107.35718
"3272",73.59731,107.370544
"3273",74.48112,107.38385
"3274",75.95087,107.39722
"3275",78.0383,107.41052
"3276",80.635994,107.42389
"3277",83.50469,107.437195
"3278",86.32212,107.45056
"3279",88.77577,107.46387
"3280",90.633705,107.477234
"3281",91.78363,107.49054
"3282",92.245056,107.50391
"3283",92.120544,107.51721
"3284",91.563896,107.53058
"3285",90.7338,107.543884
"3286",89.75479,107.55725
"3287",88.707405,107.57056
"3288",87.61852,107.58392
"3289",86.50034,107.59723
"3290",85.37728,107.610596
"3291",84.28596,107.6239
"3292",83.28985,107.63727
"3293",82.45487,107.65057
"3294",81.849396,107.66394
"3295",81.480736,107.677246
"3296",81.324486,107.69061
"3297",81.31472,107.70392
"3298",81.36111,107.717285
"3299",81.36355,107.73059
"3300",81.25857,107.74396
"3301",80.99977,107.75726
"3302",80.57252,107.77063
"3303",79.9939,107.783936
"3304",79.30785,107.7973
"3305",78.551,107.81061
"3306",77.77463,107.823975
"3307",77.015335,107.83728
"3308",76.30976,107.85065
"3309",75.67254,107.86395
"3310",75.11589,107.87732
"3311",74.649574,107.890625
"3312",74.2736,107.90399
"3313",73.987946,107.9173
"3314",73.7731,107.930664
"3315",73.61196,107.94397
"3316",73.49966,107.95734
"3317",73.409325,107.97064
"3318",73.32632,107.98401
"3319",73.233536,107.997314
"3320",73.13344,108.01068
"3321",73.01869,108.02399
"3322",72.91615,108.03735
"3323",72.867325,108.05066
"3324",72.98695,108.064026
"3325",73.43862,108.07733
"3326",74.41276,108.0907
"3327",76.050964,108.104004
"3328",78.38743,108.11737
"3329",81.287865,108.13068
"3330",84.48127,108.14404
"3331",87.603874,108.15735
"3332",90.32609,108.170715
"3333",92.40864,108.18402
"3334",93.751434,108.19739
"3335",94.37644,108.21069
"3336",94.4033,108.22406
"3337",93.99802,108.237366
"3338",93.331505,108.25073
"3339",92.540474,108.26404
"3340",91.7055,108.277405
"3341",90.851,108.29071
"3342",89.94766,108.30408
"3343",88.9662,108.31738
"3344",87.89929,108.33075
"3345",86.77135,108.344055
"3346",85.65072,108.35742
"3347",84.613106,108.37073
"3348",83.7293,108.384094
"3349",83.03349,108.3974
"3350",82.50614,108.41077
"3351",82.11063,108.42407
"3352",81.78104,108.43744
"3353",81.446556,108.450745
"3354",81.0486,108.46411
"3355",80.55543,108.47742
"3356",79.94751,108.49078
"3357",79.23949,108.50409
"3358",78.45579,108.517456
"3359",77.63546,108.53076
"3360",76.8127,108.54413
"3361",76.02167,108.557434
"3362",75.27947,108.5708
"3363",74.600746,108.58411
"3364",73.99771,108.59747
"3365",73.46548,108.61078
"3366",73.01381,108.624146
"3367",72.637825,108.63745
"3368",72.33509,108.65082
"3369",72.09827,108.66412
"3370",71.9176,108.67749
"3371",71.783325,108.690796
"3372",71.6881,108.70416
"3373",71.6173,108.71747
"3374",71.55627,108.730835
"3375",71.49767,108.74414
"3376",71.42931,108.75751
"3377",71.34142,108.77081
"3378",71.23155,108.78418
"3379",71.1046,108.797485
"3380",70.98497,108.81085
"3381",70.9337,108.82416
"3382",71.08751,108.837524
"3383",71.6466,108.85083
"3384",72.82582,108.8642
"3385",74.757,108.8775
"3386",77.42306,108.89087
"3387",80.63355,108.904175
"3388",84.051575,108.91754
"3389",87.28161,108.93085
"3390",89.99405,108.944214
"3391",91.99115,108.95752
"3392",93.221634,108.97089
"3393",93.753876,108.98419
"3394",93.73434,108.99756
"3395",93.33883,109.010864
"3396",92.7309,109.02423
"3397",92.02777,109.03754
"3398",91.28802,109.0509
"3399",90.50919,109.06421
"3400",89.66201,109.077576
"3401",88.70985,109.09088
"3402",87.64782,109.10425
"3403",86.51255,109.11755
"3404",85.3724,109.13092
"3405",84.315254,109.144226
"3406",83.40215,109.15759
"3407",82.67216,109.1709
"3408",82.11063,109.184265
"3409",81.67849,109.19757
"3410",81.31472,109.21094
"3411",80.95094,109.22424
"3412",80.533455,109.23761
"3413",80.028076,109.250916
"3414",79.42016,109.26428
"3415",78.71458,109.27759
"3416",77.943085,109.290955
"3417",77.134964,109.30426
"3418",76.32685,109.31763
"3419",75.55291,109.33093
"3420",74.83513,109.3443
"3421",74.18326,109.357605
"3422",73.60464,109.37097
"3423",73.09926,109.38428
"3424",72.66224,109.397644
"3425",72.29359,109.41095
"3426",71.990845,109.42432
"3427",71.744255,109.43762
"3428",71.551384,109.45099
"3429",71.397575,109.464294
"3430",71.27795,109.47766
"3431",71.18761,109.49097
"3432",71.114365,109.50433
"3433",71.05821,109.51764
"3434",71.01427,109.531006
"3435",70.98497,109.54431
"3436",70.96788,109.55768
"3437",70.958115,109.570984
"3438",70.94347,109.58435
"3439",70.91905,109.59766
"3440",70.87511,109.61102
"3441",70.80919,109.62433
"3442",70.72373,109.637695
"3443",70.63096,109.651
"3444",70.55039,109.66437
"3445",70.54795,109.67767
"3446",70.767685,109.69104
"3447",71.42931,109.704346
"3448",72.75502,109.71771
"3449",74.86687,109.73102
"3450",77.730675,109.744385
"3451",81.12428,109.75769
"3452",84.6717,109.77106
"3453",87.957886,109.78436
"3454",90.66056,109.79773
"3455",92.59907,109.811035
"3456",93.748985,109.8244
"3457",94.20798,109.83771
"3458",94.134735,109.851074
"3459",93.70748,109.86438
"3460",93.08736,109.87775
"3461",92.39399,109.89105
"3462",91.68108,109.90442
"3463",90.95598,109.917725
"3464",90.18692,109.93109
"3465",89.34463,109.9444
"3466",87.411,109.97107
"3467",86.40269,109.984436
"3468",85.46273,109.99774
"3469",84.65217,110.01111
"3470",84.000305,110.024414
"3471",83.50469,110.03778
"3472",83.12627,110.05109
"3473",82.80888,110.06445
"3474",82.493935,110.07776
"3475",82.127716,110.091125
"3476",81.67605,110.10443
"3477",81.11696,110.1178
"3478",80.45289,110.1311
"3479",79.71313,110.14447
"3480",78.91966,110.157776
"3481",78.1091,110.17114
"3482",77.30831,110.18445
"3483",76.55146,110.197815
"3484",75.85321,110.21112
"3485",75.228195,110.22449
"3486",74.67887,110.23779
"3487",74.20523,110.25116
"3488",73.79996,110.264465
"3489",73.460594,110.27783
"3490",73.1725,110.29114
"3491",72.94057,110.304504
"3492",72.75258,110.31781
"3493",72.59876,110.33118
"3494",72.46693,110.34448
"3495",72.35462,110.35785
"3496",72.25941,110.371155
"3497",72.17883,110.38452
"3498",72.11536,110.39783
"3499",72.06409,110.411194
"3500",72.025024,110.4245
"3501",71.993286,110.43787
"3502",71.96399,110.45117
"3503",71.93469,110.46454
"3504",71.89807,110.477844
"3505",71.8468,110.49121
"3506",71.77844,110.50452
"3507",71.69543,110.51788
"3508",71.59777,110.53119
"3509",71.51476,110.544556
"3510",71.51232,110.55786
"3511",71.727165,110.57123
"3512",72.37171,110.58453
"3513",73.66079,110.5979
"3514",75.72137,110.611206
"3515",78.519264,110.62457
"3516",81.82254,110.63788
"3517",85.26986,110.651245
"3518",88.448616,110.66455
"3519",91.03899,110.67792
"3520",92.860306,110.69122
"3521",93.893036,110.70459
"3522",94.23239,110.717896
"3523",94.03952,110.73126
"3524",93.487755,110.74457
"3525",92.74799,110.757935
"3526",91.935,110.77124
"3527",91.10979,110.78461
"3528",90.28947,110.79791
"3529",89.45693,110.81128
"3530",88.59266,110.824585
"3531",87.691765,110.83795
"3532",86.77867,110.85126
"3533",85.91196,110.864624
"3534",85.15022,110.87793
"3535",84.542305,110.8913
"3536",84.105286,110.9046
"3537",83.82208,110.91797
"3538",83.64629,110.931274
"3539",83.50469,110.94464
"3540",83.32159,110.95795
"3541",83.04326,110.97131
"3542",82.63554,110.98462
"3543",82.09354,110.997986
"3544",81.43435,111.01129
"3545",80.69459,111.02466
"3546",79.906006,111.037964
"3547",79.10277,111.05133
"3548",78.311745,111.06464
"3549",77.56222,111.078
"3550",76.86641,111.09131
"3551",76.23895,111.104675
"3552",75.68963,111.11798
"3553",75.22331,111.13135
"3554",74.82536,111.14465
"3555",74.49821,111.15802
"3556",74.232086,111.171326
"3557",74.019684,111.18469
"3558",73.85367,111.198
"3559",73.72671,111.211365
"3560",73.63149,111.22467
"3561",73.55825,111.23804
"3562",73.50942,111.25134
"3563",73.47036,111.26471
"3564",73.428856,111.278015
"3565",73.38003,111.29138
"3566",73.31167,111.30469
"3567",73.216446,111.318054
"3568",73.091934,111.33136
"3569",72.94545,111.34473
"3570",72.78432,111.35803
"3571",72.62806,111.3714
"3572",72.498665,111.384705
"3573",72.48646,111.39807
"3574",72.740364,111.41138
"3575",73.463036,111.42474
"3576",74.81804,111.43805
"3577",76.859085,111.451416
"3578",79.48608,111.46472
"3579",82.44511,111.47809
"3580",85.37972,111.491394
"3581",87.94568,111.50476
"3582",89.90372,111.51807
"3583",91.14397,111.53143
"3584",91.68597,111.54474
"3585",91.62493,111.558105
"3586",91.107346,111.57141
"3587",90.284584,111.58478
"3588",89.28603,111.59808
"3589",88.20203,111.61145
"3590",87.081406,111.624756
"3591",85.95834,111.63812
"3592",84.86458,111.65143
"3593",83.83673,111.664795
"3594",82.93584,111.6781
"3595",82.22049,111.69147
"3596",81.73464,111.70477
"3597",81.497826,111.71814
"3598",81.478294,111.731445
"3599",81.60769,111.74481
"3600",81.80057,111.75812
"3601",81.97391,111.771484
"3602",82.05203,111.78479
"3603",81.98367,111.79816
"3604",81.74929,111.81146
"3605",81.358665,111.82483
"3606",80.82887,111.838135
"3607",80.19409,111.8515
"3608",79.49828,111.86481
"3609",78.77562,111.878174
"3610",78.0676,111.89148
"3611",77.39864,111.90485
"3612",76.79805,111.91815
"3613",76.2707,111.93152
"3614",75.81903,111.944824
"3615",75.44549,111.95819
"3616",75.13786,111.9715
"3617",74.8864,111.98486
"3618",74.68864,111.99817
"3619",74.53239,112.011536
"3620",74.407875,112.02484
"3621",74.305336,112.03821
"3622",74.21988,112.05151
"3623",74.14908,112.06488
"3624",74.090485,112.078186
"3625",74.04166,112.09155
"3626",73.99527,112.10486
"3627",73.94888,112.118225
"3628",73.89517,112.13153
"3629",73.86099,112.1449
"3630",73.917145,112.1582
"3631",74.20035,112.17157
"3632",74.89128,112.184875
"3633",76.1413,112.19824
"3634",77.996796,112.21155
"3635",80.37232,112.224915
"3636",83.038376,112.23822
"3637",85.6849,112.25159
"3638",88.00427,112.26489
"3639",89.77188,112.27826
"3640",90.88518,112.291565
"3641",91.34417,112.30493
"3642",91.2343,112.31824
"3643",90.67765,112.331604
"3644",89.813385,112.34491
"3645",88.74647,112.35828
"3646",87.56481,112.37158
"3647",86.32456,112.38495
"3648",85.0721,112.398254
"3649",83.8587,112.41162
"3650",82.75029,112.42493
"3651",81.81766,112.43829
"3652",81.12428,112.4516
"3653",80.71656,112.464966
"3654",80.59205,112.47827
"3655",80.706795,112.49164
"3656",80.987564,112.504944
"3657",81.33425,112.51831
"3658",81.64431,112.53162
"3659",81.83475,112.54498
"3660",81.8616,112.55829
"3661",81.69558,112.571655
"3662",81.3489,112.58496
"3663",80.85573,112.59833
"3664",80.255135,112.61163
"3665",79.588615,112.625
"3666",78.90013,112.638306
"3667",78.22385,112.65167
"3668",77.58419,112.66498
"3669",77.00069,112.678345
"3670",76.48554,112.69165
"3671",76.03876,112.70502
"3672",75.65545,112.71832
"3673",75.33318,112.73169
"3674",75.05974,112.744995
"3675",74.827805,112.75836
"3676",74.62272,112.77167
"3677",74.44694,112.785034
"3678",74.29069,112.79834
"3679",74.14908,112.81171
"3680",74.02701,112.82501
"3681",73.934235,112.83838
"3682",73.90982,112.851685
"3683",74.05386,112.86505
"3684",74.527504,112.87836
"3685",75.51385,112.89172
"3686",77.137405,112.90503
"3687",79.412834,112.918396
"3688",82.18631,112.9317
"3689",85.186844,112.94507
"3690",88.07507,112.958374
"3691",90.548256,112.97174
"3692",92.40131,112.98505
"3693",93.55123,112.99841
"3694",94.012665,113.01172
"3695",93.875946,113.025085
"3696",93.277794,113.03839
"3697",92.35493,113.05176
"3698",91.2343,113.06506
"3699",90.01846,113.07843
"3700",88.763565,113.091736
"3701",87.50378,113.1051
"3702",86.26841,113.11841
"3703",85.09651,113.131775
"3704",84.03693,113.14508
"3705",83.14824,113.15845
"3706",82.48661,113.17175
"3707",82.06912,113.18512
"3708",81.87625,113.198425
"3709",81.85184,113.21179
"3710",81.91531,113.2251
"3711",81.971466,113.238464
"3712",81.94705,113.25177
"3713",81.78592,113.26514
"3714",81.46609,113.27844
"3715",80.990005,113.29181
"3716",80.38209,113.305115
"3717",79.67162,113.31848
"3718",78.90013,113.33179
"3719",78.10666,113.34515
"3720",77.32296,113.35846
"3721",76.578316,113.371826
"3722",75.88495,113.38513
"3723",75.25994,113.3985
"3724",74.71305,113.411804
"3725",74.24429,113.42517
"3726",73.85123,113.43848
"3727",73.52651,113.45184
"3728",73.25796,113.46515
"3729",73.02602,113.478516
"3730",72.816055,113.49182
"3731",72.62806,113.50519
"3732",72.47181,113.51849
"3733",72.413216,113.53186
"3734",72.57679,113.545166
"3735",73.16762,113.55853
"3736",74.38834,113.57184
"3737",76.37324,113.585205
"3738",79.10521,113.59851
"3739",82.4036,113.61188
"3740",85.94614,113.62518
"3741",89.356834,113.63855
"3742",92.29633,113.651855
"3743",94.5449,113.66522
"3744",96.00488,113.67853
"3745",96.690926,113.691895
"3746",96.70313,113.7052
"3747",96.20264,113.71857
"3748",95.34814,113.73187
"3749",94.293434,113.74524
"3750",93.14351,113.758545
"3751",91.95941,113.77191
"3752",90.74845,113.78522
"3753",89.51797,113.798584
"3754",88.26795,113.81189
"3755",87.027695,113.82526
"3756",85.8436,113.83856
"3757",84.77913,113.85193
"3758",83.88556,113.865234
"3759",83.18486,113.8786
"3760",82.66239,113.89191
"3761",82.286415,113.90527
"3762",81.986115,113.91858
"3763",81.69558,113.931946
"3764",81.34402,113.94525
"3765",80.88991,113.95862
"3766",80.308846,113.971924
"3767",79.605705,113.98529
"3768",78.802475,113.9986
"3769",77.93576,114.01196
"3770",77.04463,114.02527
"3771",76.155945,114.038635
"3772",75.30877,114.05194
"3773",74.52018,114.06531
"3774",73.8024,114.07861
"3775",73.15785,114.09198
"3776",72.584114,114.105286
"3777",72.07141,114.11865
"3778",71.60998,114.13196
"3779",71.19493,114.145325
"3780",70.821396,114.15863
"3781",70.49668,114.172
"3782",70.26475,114.1853
"3783",70.2501,114.19867
"3784",70.64561,114.211975
"3785",71.67101,114.22534
"3786",73.5021,114.23865
"3787",76.16327,114.252014
"3788",79.50805,114.26532
"3789",83.22148,114.27869
"3790",86.89342,114.29199
"3791",90.13321,114.30536
"3792",92.65278,114.318665
"3793",94.30564,114.33203
"3794",95.08446,114.34534
"3795",95.09178,114.3587
"3796",94.51072,114.37201
"3797",93.539024,114.385376
"3798",92.35737,114.39868
"3799",91.09514,114.41205
"3800",89.81583,114.425354
"3801",88.52918,114.43872
"3802",87.23033,114.45203
"3803",85.9144,114.46539
"3804",84.60822,114.4787
"3805",83.35577,114.492065
"3806",82.22781,114.50537
"3807",81.28054,114.51874
"3808",80.5481,114.53204
"3809",80.01587,114.54541
"3810",79.64965,114.558716
"3811",79.378654,114.57208
"3812",79.12474,114.58539
"3813",78.819565,114.598755
"3814",78.41184,114.61206
"3815",77.87717,114.62543
"3816",77.21065,114.63873
"3817",76.44404,114.6521
"3818",75.60906,114.665405
"3819",74.74479,114.67877
"3820",73.88785,114.69208
"3821",73.06508,114.705444
"3822",72.29847,114.71875
"3823",71.60265,114.73212
"3824",70.99962,114.74542
"3825",70.49424,114.75879
"3826",70.0914,114.772095
"3827",69.77646,114.78546
"3828",69.53231,114.79877
"3829",69.33456,114.81213
"3830",69.170975,114.82544
"3831",69.02449,114.838806
"3832",68.892654,114.85211
"3833",68.77547,114.86548
"3834",68.70466,114.878784
"3835",68.76814,114.89215
"3836",69.14656,114.90546
"3837",70.07431,114.91882
"3838",71.766235,114.93213
"3839",74.31754,114.945496
"3840",77.645226,114.9588
"3841",81.47585,114.97217
"3842",85.401695,114.98547
"3843",88.98329,114.99884
"3844",91.861755,115.012146
"3845",93.82956,115.02551
"3846",94.84276,115.03882
"3847",94.991684,115.052185
"3848",94.46189,115.06549
"3849",93.48531,115.07886
"3850",92.27192,115.09216
"3851",90.96086,115.10553
"3852",89.63027,115.118835
"3853",88.30457,115.1322
"3854",86.97887,115.14551
"3855",85.64828,115.158875
"3856",84.349434,115.17218
"3857",83.13359,115.18555
"3858",82.07156,115.19885
"3859",81.21706,115.21222
"3860",80.587166,115.225525
"3861",80.16724,115.23889
"3862",79.8938,115.2522
"3863",79.691154,115.265564
"3864",79.48119,115.27887
"3865",79.19798,115.29224
"3866",78.79515,115.30554
"3867",78.25803,115.31891
"3868",77.5964,115.332214
"3869",76.824905,115.34558
"3870",75.98749,115.35889
"3871",75.11589,115.37225
"3872",74.25407,115.38556
"3873",73.426414,115.398926
"3874",72.66712,115.41223
"3875",71.993286,115.4256
"3876",71.412224,115.4389
"3877",70.92882,115.45227
"3878",70.54307,115.465576
"3879",70.2501,115.47894
"3880",70.03769,115.49225
"3881",69.88876,115.505615
"3882",69.79111,115.51892
"3883",69.72762,115.53229
"3884",69.68368,115.54559
"3885",69.63485,115.55896
"3886",69.573814,115.572266
"3887",69.49813,115.58563
"3888",69.41268,115.59894
"3889",69.37118,115.612305
"3890",69.49325,115.62561
"3891",69.97421,115.63898
"3892",71.04112,115.65228
"3893",72.85756,115.66565
"3894",75.47234,115.678955
"3895",78.74387,115.69232
"3896",82.3621,115.70563
"3897",85.92172,115.718994
"3898",89.022354,115.7323
"3899",91.37591,115.74567
"3900",92.843216,115.75897
"3901",93.434044,115.77234
"3902",93.280235,115.785645
"3903",92.57954,115.79901
"3904",91.5346,115.81232
"3905",90.31876,115.82568
"3906",89.03212,115.83899
"3907",87.725945,115.852356
"3908",86.42466,115.86566
"3909",85.14534,115.87903
"3910",83.92218,115.892334
"3911",82.80644,115.9057
"3912",81.85916,115.91901
"3913",81.12428,115.93237
"3914",80.62379,115.94568
"3915",80.32838,115.959045
"3916",80.184326,115.97235
"3917",80.10864,115.98572
"3918",80.02319,115.99902
"3919",79.84985,116.01239
"3920",79.54955,116.025696
"3921",79.10277,116.03906
"3922",78.521706,116.05237
"3923",77.83078,116.065735
"3924",77.06172,116.07904
"3925",76.25849,116.09241
"3926",75.45281,116.10571
"3927",74.67643,116.11908
"3928",73.95621,116.132385
"3929",73.31167,116.14575
"3930",72.74769,116.15906
"3931",72.274055,116.172424
"3932",71.88342,116.18573
"3933",71.5758,116.1991
"3934",71.346306,116.2124
"3935",71.18761,116.22577
"3936",71.09483,116.239075
"3937",71.05089,116.25244
"3938",71.0338,116.26575
"3939",71.026474,116.27911
"3940",71.01671,116.29242
"3941",70.992294,116.305786
"3942",70.94835,116.31909
"3943",70.88243,116.33246
"3944",70.81407,116.345764
"3945",70.79454,116.35913
"3946",70.94835,116.37244
"3947",71.47326,116.3858
"3948",72.59388,116.39911
"3949",74.45426,116.412476
"3950",77.07149,116.42578
"3951",80.27955,116.43915
"3952",83.75128,116.45245
"3953",87.09117,116.46582
"3954",89.933014,116.479126
"3955",92.03021,116.49249
"3956",93.27535,116.5058
"3957",93.70504,116.519165
"3958",93.44869,116.53247
"3959",92.69184,116.54584
"3960",91.62249,116.55914
"3961",90.39445,116.57251
"3962",89.0956,116.585815
"3963",87.78943,116.59918
"3964",86.50034,116.61249
"3965",85.26009,116.625854
"3966",84.119934,116.63916
"3967",83.13603,116.65253
"3968",82.36698,116.66583
"3969",81.84451,116.6792
"3970",81.55398,116.692505
"3971",81.444115,116.70587
"3972",81.43923,116.71918
"3973",81.446556,116.732544
"3974",81.3904,116.74585
"3975",81.20973,116.75922
"3976",80.8777,116.77252
"3977",80.394295,116.78589
"3978",79.77905,116.799194
"3979",79.063705,116.81256
"3980",78.28733,116.82587
"3981",77.49142,116.83923
"3982",76.71015,116.85254
"3983",75.9704,116.865906
"3984",75.29412,116.87921
"3985",74.69108,116.89258
"3986",74.17349,116.90588
"3987",73.7438,116.91925
"3988",73.39956,116.932556
"3989",73.13588,116.94592
"3990",72.94545,116.95923
"3991",72.81117,116.972595
"3992",72.72083,116.9859
"3993",72.6598,116.99927
"3994",72.61585,117.01257
"3995",72.57435,117.02594
"3996",72.52552,117.039246
"3997",72.4596,117.05261
"3998",72.38148,117.06592
"3999",72.30091,117.079285
"4000",72.28138,117.09259
"4001",72.45228,117.10596
"4002",72.99916,117.11926
"4003",74.124664,117.13263
"4004",75.94354,117.145935
"4005",78.44846,117.1593
"4006",81.461205,117.17261
"4007",84.66682,117.185974
"4008",87.691765,117.19928
"4009",90.20157,117.21265
"4010",91.983826,117.22595
"4011",92.95064,117.23932
"4012",93.15083,117.252625
"4013",92.72602,117.26599
"4014",91.85443,117.2793
"4015",90.704506,117.29266
"4016",89.40566,117.30597
"4017",88.04822,117.319336
"4018",86.68589,117.33264
"4019",85.365074,117.34601
"4020",84.14435,117.359314
"4021",83.087204,117.37268
"4022",82.25712,117.38599
"4023",81.69558,117.39935
"4024",81.40505,117.41266
"4025",81.34402,117.426025
"4026",81.43435,117.43933
"4027",81.583275,117.4527
"4028",81.688255,117.466
"4029",81.67361,117.47937
"4030",81.49294,117.492676
"4031",81.126724,117.50604
"4032",80.587166,117.51935
"4033",79.91333,117.532715
"4034",79.149155,117.54602
"4035",78.345924,117.55939
"4036",77.54269,117.57269
"4037",76.773636,117.58606
"4038",76.070496,117.599365
"4039",75.44549,117.61273
"4040",74.90593,117.62604
"4041",74.4567,117.639404
"4042",74.09781,117.65271
"4043",73.82193,117.66608
"4044",73.60464,117.67938
"4045",73.43862,117.69275
"4046",73.30923,117.706055
"4047",73.196915,117.71942
"4048",73.094376,117.73273
"4049",72.99428,117.74609
"4050",72.89418,117.7594
"4051",72.80141,117.772766
"4052",72.74769,117.78607
"4053",72.80629,117.79944
"4054",73.11879,117.812744
"4055",73.86099,117.82611
"4056",75.19646,117.83942
"4057",77.20088,117.85278
"4058",79.801025,117.86609
"4059",82.777145,117.879456
"4060",85.804535,117.89276
"4061",88.5243,117.90613
"4062",90.66544,117.91943
"4063",92.06683,117.9328
"4064",92.69184,117.946106
"4065",92.6186,117.95947
"4066",91.99115,117.97278
"4067",90.97795,117.986145
"4068",89.72793,117.99945
"4069",88.35584,118.01282
"4070",86.93736,118.02612
"4071",85.52865,118.03949
"4072",84.18585,118.052795
"4073",82.97734,118.06616
"4074",81.97391,118.07947
"4075",81.24147,118.092834
"4076",80.816666,118.10614
"4077",80.68238,118.11951
"4078",80.77272,118.13281
"4079",80.99245,118.14618
"4080",81.22926,118.159485
"4081",81.375755,118.17285
"4082",81.36355,118.18616
"4083",81.15846,118.199524
"4084",80.75319,118.21283
"4085",80.17944,118.2262
"4086",79.48608,118.2395
"4087",78.71946,118.25287
"4088",77.925995,118.266174
"4089",77.152054,118.27954
"4090",76.42451,118.29285
"4091",75.76776,118.30621
"4092",75.194016,118.31952
"4093",74.703285,118.332886
"4094",74.29801,118.34619
"4095",73.96353,118.35956
"4096",73.6852,118.37286
"4097",73.44839,118.38623
"4098",73.24086,118.399536
"4099",73.057755,118.4129
"4100",72.89174,118.42621
"4101",72.7599,118.439575
"4102",72.70374,118.45288
"4103",72.8185,118.46625
"4104",73.248184,118.47955
"4105",74.175934,118.49292
"4106",75.72869,118.506226
"4107",77.93576,118.51959
"4108",80.67017,118.5329
"4109",83.67559,118.546265
"4110",86.61021,118.55957
"4111",89.14198,118.57294
"4112",91.0341,118.58624
"4113",92.171814,118.59961
"4114",92.56245,118.612915
"4115",92.3061,118.62628
"4116",91.561455,118.63959
"4117",90.48722,118.652954
"4118",89.22255,118.66626
"4119",87.86023,118.67963
"4120",86.46616,118.69293
"4121",85.09163,118.7063
"4122",83.79523,118.719604
"4123",82.64286,118.73297
"4124",81.70779,118.74628
"4125",81.03883,118.75964
"4126",80.655525,118.77295
"4127",80.5359,118.786316
"4128",80.6067,118.79962
"4129",80.780045,118.81299
"4130",80.953384,118.826294
"4131",81.03639,118.83966
"4132",80.96071,118.85297
"4133",80.69703,118.86633
"4134",80.2478,118.87964
"4135",79.64965,118.893005
"4136",78.941635,118.90631
"4137",78.17502,118.91968
"4138",77.39376,118.93298
"4139",76.63691,118.94635
"4140",75.931335,118.959656
"4141",75.299,118.97302
"4142",74.75456,118.98633
"4143",74.288246,118.999695
"4144",73.89517,119.013
"4145",73.56313,119.02637
"4146",73.27505,119.03967
"4147",73.02113,119.05304
"4148",72.798965,119.066345
"4149",72.620735,119.07971
"4150",72.54261,119.09302
"4151",72.691536,119.106384
"4152",73.2433,119.11969
"4153",74.39323,119.13306
"4154",76.25849,119.14636
"4155",78.83421,119.15973
"4156",81.94705,119.173035
"4157",85.29183,119.1864
"4158",88.482796,119.19971
"4159",91.18059,119.21307
"4160",93.153275,119.22638
"4161",94.30564,119.239746
"4162",94.66697,119.25305
"4163",94.36912,119.26642
"4164",93.59518,119.279724
"4165",92.52827,119.29309
"4166",91.317314,119.3064
"4167",90.04532,119.31976
"4168",88.7538,119.33307
"4169",87.45983,119.346436
"4170",86.17807,119.35974
"4171",84.945145,119.37311
"4172",83.826965,119.38641
"4173",82.89433,119.39978
"4174",82.18875,119.413086
"4175",81.71755,119.42645
"4176",81.446556,119.43976
"4177",81.31228,119.453125
"4178",81.22682,119.46643
"4179",81.10719,119.4798
"4180",80.88747,119.4931
"4181",80.52125,119.50647
"4182",79.991455,119.519775
"4183",79.31762,119.53314
"4184",78.54368,119.54645
"4185",77.71114,119.559814
"4186",76.87129,119.57312
"4187",76.05829,119.58649
"4188",75.30389,119.59979
"4189",74.62272,119.61316
"4190",74.02701,119.626465
"4191",73.514305,119.63983
"4192",73.0724,119.65314
"4193",72.68421,119.666504
"4194",72.3473,119.67981
"4195",72.047,119.69318
"4196",71.78088,119.70648
"4197",71.56115,119.71985
"4198",71.43664,119.733154
"4199",71.50988,119.74652
"4200",71.95178,119.75983
"4201",72.97963,119.77319
"4202",74.759445,119.7865
"4203",77.34493,119.799866
"4204",80.61158,119.81317
"4205",84.266426,119.82654
"4206",87.90662,119.83984
"4207",91.121994,119.85321
"4208",93.6025,119.866516
"4209",95.19188,119.87988
"4210",95.89258,119.89319
"4211",95.833984,119.906555
"4212",95.22362,119.91986
"4213",94.278786,119.93323
"4214",93.16792,119.94653
"4215",91.99359,119.9599
"4216",90.78996,119.973206
"4217",89.53994,119.98657
"4218",88.224,119.99988
"4219",86.84947,120.013245
"4220",85.46761,120.02655
"4221",84.14435,120.03992
"4222",82.96513,120.05322
"4223",81.99344,120.06659
"4224",81.24391,120.079895
"4225",80.69703,120.09326
"4226",80.2942,120.10657
"4227",79.96216,120.119934
"4228",79.61791,120.13324
"4229",79.20531,120.14661
"4230",78.6804,120.15991
"4231",78.030975,120.17328
"4232",77.26925,120.186584
"4233",76.43183,120.19995
"4234",75.56512,120.21326
"4235",74.71061,120.22662
"4236",73.90494,120.23993
"4237",73.1725,120.253296
"4238",72.52308,120.2666
"4239",71.95422,120.27997
"4240",71.4757,120.293274
"4241",71.08507,120.30664
"4242",70.78233,120.31995
"4243",70.55039,120.33331
"4244",70.37705,120.34662
"4245",70.24765,120.359985
"4246",70.13779,120.37329
"4247",70.03769,120.38666
"4248",69.93271,120.39996
"4249",69.822845,120.41333
"4250",69.72274,120.426636
"4251",69.67635,120.44
"4252",69.79111,120.45331
"4253",70.259865,120.466675
"4254",71.309685,120.47998
"4255",73.14076,120.49335
"4256",75.81659,120.50665
"4257",79.22972,120.52002
"4258",83.06035,120.533325
"4259",86.869,120.54669
"4260",90.20645,120.56
"4261",92.74799,120.573364
"4262",94.33982,120.58667
"4263",95.00877,120.60004
"4264",94.91356,120.61334
"4265",94.28123,120.62671
"4266",93.33395,120.640015
"4267",92.23529,120.65338
"4268",91.07561,120.66669
"4269",89.87686,120.68005
"4270",88.619514,120.69336
"4271",87.276726,120.706726
"4272",85.855804,120.72003
"4273",84.40803,120.7334
"4274",83.02617,120.746704
"4275",81.80789,120.76007
"4276",80.82399,120.77338
"4277",80.096436,120.78674
"4278",79.59594,120.80005
"4279",79.24681,120.813416
"4280",78.958725,120.82672
"4281",78.65354,120.84009
"4282",78.26536,120.85339
"4283",77.76242,120.86676
"4284",77.13985,120.880066
"4285",76.41718,120.89343
"4286",75.63348,120.90674
"4287",74.827805,120.920105
"4288",74.03189,120.93341
"4289",73.28237,120.94678
"4290",72.59632,120.96008
"4291",71.9884,120.97345
"4292",71.465935,120.986755
"4293",71.028915,121.00012
"4294",70.67246,121.01343
"4295",70.38682,121.026794
"4296",70.16464,121.0401
"4297",70.00107,121.05347
"4298",69.89365,121.06677
"4299",69.837494,121.08014
"4300",69.822845,121.093445
"4301",69.839935,121.10681
"4302",69.879,121.12012
"4303",69.925385,121.133484
"4304",69.976654,121.14679
"4305",70.02792,121.16016
"4306",70.07675,121.17346
"4307",70.11093,121.18683
"4308",70.1207,121.200134
"4309",70.09628,121.2135
"4310",70.03281,121.22681
"4311",69.942474,121.24017
"4312",69.837494,121.25348
"4313",69.76181,121.266846
"4314",69.81552,121.28015
"4315",70.17197,121.29352
"4316",71.063095,121.30682
"4317",72.71351,121.32019
"4318",75.245285,121.333496
"4319",78.59739,121.34686
"4320",82.5037,121.36017
"4321",86.54429,121.373535
"4322",90.252846,121.38684
"4323",93.24605,121.40021
"4324",95.309074,121.41351
"4325",96.40772,121.42688
"4326",96.66163,121.440186
"4327",96.28321,121.45355
"4328",95.499504,121.46686
"4329",94.51316,121.480225
"4330",93.44381,121.49353
"4331",92.33784,121.5069
"4332",91.18303,121.5202
"4333",89.9501,121.53357
"4334",88.62684,121.546875
"4335",87.24986,121.56024
"4336",85.88754,121.57355
"4337",84.63264,121.586914
"4338",83.57305,121.60022
"4339",82.75029,121.61359
"4340",82.15701,121.62689
"4341",81.739525,121.64026
"4342",81.427025,121.653564
"4343",81.129166,121.66693
"4344",80.77272,121.68024
"4345",80.31617,121.6936
"4346",79.742424,121.70691
"4347",79.05638,121.720276
"4348",78.28489,121.73358
"4349",77.46456,121.74695
"4350",76.63447,121.760254
"4351",75.8288,121.77362
"4352",75.07683,121.78693
"4353",74.40299,121.80029
"4354",73.814606,121.8136
"4355",73.31167,121.826965
"4356",72.89418,121.84027
"4357",72.55482,121.85364
"4358",72.28382,121.86694
"4359",72.078735,121.88031
"4360",71.92737,121.893616
"4361",71.81995,121.90698
"4362",71.75159,121.92029
"4363",71.71252,121.933655
"4364",71.690544,121.94696
"4365",71.67834,121.96033
"4366",71.673454,121.97363
"4367",71.66613,121.987
"4368",71.66125,122.000305
"4369",71.65392,122.01367
"4370",71.64416,122.02698
"4371",71.62707,122.040344
"4372",71.60265,122.05365
"4373",71.55627,122.06702
"4374",71.49767,122.08032
"4375",71.42687,122.09369
"4376",71.346306,122.106995
"4377",71.26086,122.12036
"4378",71.18761,122.13367
"4379",71.17296,122.14703
"4380",71.32433,122.16034
"4381",71.82239,122.173706
"4382",72.8893,122.18701
"4383",74.703285,122.20038
"4384",77.3254,122.213684
"4385",80.635994,122.22705
"4386",84.34455,122.24036
"4387",88.03845,122.25372
"4388",91.30999,122.26703
"4389",93.84909,122.280396
"4390",95.50683,122.2937
"4391",96.290535,122.30707
"4392",96.33448,122.32037
"4393",95.84375,122.33374
"4394",95.02586,122.347046
"4395",94.049286,122.36041
"4396",93.01167,122.37372
"4397",91.949646,122.387085
"4398",90.846115,122.40039
"4399",89.686424,122.41376
"4400",88.47303,122.42706
"4401",87.24742,122.44043
"4402",86.09018,122.453735
"4403",85.08186,122.4671
"4404",84.28596,122.48041
"4405",83.717094,122.493774
"4406",83.34112,122.50708
"4407",83.089645,122.52045
"4408",82.87724,122.53375
"4409",82.61845,122.54712
"4410",82.262,122.560425
"4411",81.77371,122.57379
"4412",81.15114,122.5871
"4413",80.41627,122.600464
"4414",79.603264,122.61377
"4415",78.751205,122.62714
"4416",77.90402,122.64044
"4417",77.0959,122.65381
"4418",76.35371,122.667114
"4419",75.69451,122.68048
"4420",75.12077,122.69379
"4421",74.632484,122.70715
"4422",74.22476,122.72046
"4423",73.89029,122.733826
"4424",73.62173,122.74713
"4425",73.41665,122.7605
"4426",73.2604,122.7738
"4427",73.15053,122.78717
"4428",73.0724,122.800476
"4429",73.01625,122.81384
"4430",72.969864,122.82715
"4431",72.93324,122.840515
"4432",72.89662,122.85382
"4433",72.86244,122.86719
"4434",72.82826,122.88049
"4435",72.79408,122.89386
"4436",72.762344,122.907166
"4437",72.72083,122.92053
"4438",72.66468,122.93384
"4439",72.59388,122.947205
"4440",72.50111,122.96051
"4441",72.38636,122.97388
"4442",72.256966,122.98718
"4443",72.12024,123.00055
"4444",71.99573,123.013855
"4445",71.92981,123.02722
"4446",72.03479,123.04053
"4447",72.48646,123.053894
"4448",73.48745,123.0672
"4449",75.19646,123.08057
"4450",77.64767,123.09387
"4451",80.72144,123.10724
"4452",84.137024,123.120544
"4453",87.51354,123.13391
"4454",90.48234,123.14722
"4455",92.76509,123.16058
"4456",94.22507,123.17389
"4457",94.86961,123.187256
"4458",94.81346,123.20056
"4459",94.22995,123.21393
"4460",93.31197,123.227234
"4461",92.21576,123.2406
"4462",91.0341,123.25391
"4463",89.82071,123.26727
"4464",88.59266,123.28058
"4465",87.37438,123.293945
"4466",86.204926,123.30725
"4467",85.14534,123.32062
"4468",84.26154,123.33392
"4469",83.60967,123.34729
"4470",83.20683,123.360596
"4471",83.018845,123.37396
"4472",82.97246,123.38727
"4473",82.98222,123.400635
"4474",82.95781,123.41394
"4475",82.828415,123.42731
"4476",82.55009,123.44061
"4477",82.10574,123.45398
"4478",81.51003,123.467285
"4479",80.79225,123.48065
"4480",79.98901,123.49396
"4481",79.14671,123.507324
"4482",78.3093,123.52063
"4483",77.51339,123.534
"4484",76.78096,123.5473
"4485",76.13397,123.56067
"4486",75.57244,123.573975
"4487",75.10857,123.58734
"4488",74.73014,123.60065
"4489",74.43717,123.61401
"4490",74.215,123.62732
"4491",74.056305,123.640686
"4492",73.944,123.65399
"4493",73.8732,123.66736
"4494",73.82681,123.680664
"4495",73.795074,123.69403
"4496",73.76822,123.70734
"4497",73.73403,123.7207
"4498",73.69253,123.73401
"4499",73.62905,123.747375
"4500",73.5436,123.76068
"4501",73.42397,123.77405
"4502",73.272606,123.78735
"4503",73.08949,123.80072
"4504",72.89418,123.814026
"4505",72.71839,123.82739
"4506",72.61585,123.8407
"4507",72.706184,123.854065
"4508",73.15297,123.86737
"4509",74.13931,123.88074
"4510",75.792175,123.89404
"4511",78.12863,123.90741
"4512",81.00954,123.920715
"4513",84.15411,123.93408
"4514",87.21324,123.94739
"4515",89.85489,123.960754
"4516",91.84711,123.97406
"4517",93.07759,123.98743
"4518",93.56344,124.00073
"4519",93.40963,124.0141
"4520",92.77974,124.027405
"4521",91.827576,124.04077
"4522",90.6923,124.05408
"4523",89.45449,124.067444
"4524",88.165405,124.08075
"4525",86.85924,124.09412
"4526",85.59701,124.10742
"4527",84.43244,124.12079
"4528",83.441216,124.134094
"4529",82.686806,124.14746
"4530",82.20828,124.16077
"4531",81.986115,124.17413
"4532",81.969025,124.18744
"4533",82.07889,124.200806
"4534",82.21561,124.21411
"4535",82.28397,124.22748
"4536",82.21561,124.24078
