"","ppg","time"
"1",83.18974,270.76733
"2",83.01396,270.78076
"3",82.847946,270.79407
"4",82.67948,270.80737
"5",82.48173,270.8208
"6",82.24979,270.8341
"7",81.99344,270.8474
"8",81.722435,270.86072
"9",81.45876,270.87402
"10",81.22194,270.88745
"11",81.02907,270.90076
"12",80.8777,270.91406
"13",80.75319,270.9275
"14",80.64576,270.9408
"15",80.53101,270.9541
"16",80.40406,270.9674
"17",80.24536,270.9807
"18",80.05249,270.99414
"19",79.83032,271.00745
"20",79.586174,271.02075
"21",79.32983,271.03418
"22",79.078354,271.0475
"23",78.836655,271.0608
"24",78.6096,271.0741
"25",78.40208,271.0874
"26",78.21408,271.10083
"27",78.048065,271.11414
"28",77.90646,271.12744
"29",77.78439,271.14087
"30",77.68185,271.15417
"31",77.593956,271.16748
"32",77.523155,271.1808
"33",77.469444,271.1941
"34",77.4255,271.20752
"35",77.401085,271.22083
"36",77.39132,271.23413
"37",77.39132,271.24756
"38",77.38644,271.26086
"39",77.38155,271.27417
"40",77.36446,271.28748
"41",77.33761,271.30078
"42",77.30343,271.3142
"43",77.26681,271.3275
"44",77.23018,271.34082
"45",77.19356,271.35425
"46",77.15694,271.36755
"47",77.12276,271.38086
"48",77.11299,271.39417
"49",77.18379,271.40747
"50",77.420616,271.4209
"51",77.908905,271.4342
"52",78.677956,271.4475
"53",79.693596,271.46094
"54",80.83864,271.47424
"55",81.94705,271.48755
"56",82.86015,271.50085
"57",83.48028,271.51416
"58",83.7879,271.5276
"59",83.826965,271.5409
"60",83.682915,271.5542
"61",83.441216,271.56763
"62",83.16533,271.58093
"63",82.90166,271.59424
"64",82.669716,271.60754
"65",82.459755,271.62085
"66",82.25956,271.63428
"67",82.05203,271.64758
"68",81.83475,271.6609
"69",81.60525,271.67432
"70",81.38552,271.68762
"71",81.19264,271.70093
"72",81.0486,271.71423
"73",80.95094,271.72754
"74",80.89235,271.74097
"75",80.85573,271.75427
"76",80.814224,271.76758
"77",80.7483,271.781
"78",80.64576,271.7943
"79",80.50172,271.80762
"80",80.325935,271.82092
"81",80.12329,271.83423
"82",79.903564,271.84766
"83",79.68139,271.86096
"84",79.466545,271.87427
"85",79.256584,271.8877
"86",79.06615,271.901
"87",78.887924,271.9143
"88",78.72678,271.9276
"89",78.58518,271.94092
"90",78.46311,271.95435
"91",78.35813,271.96765
"92",78.27024,271.98096
"93",78.19699,271.9944
"94",78.135956,272.0077
"95",78.08469,272.021
"96",78.04074,272.0343
"97",77.996796,272.0476
"98",77.95529,272.06104
"99",77.91867,272.07434
"100",77.88205,272.08765
"101",77.85275,272.10107
"102",77.82834,272.11438
"103",77.803925,272.1277
"104",77.77707,272.141
"105",77.75754,272.1543
"106",77.789276,272.16772
"107",77.95529,272.18103
"108",78.345924,272.19434
"109",79.009995,272.20776
"110",79.93042,272.22107
"111",81.01442,272.23438
"112",82.10574,272.24768
"113",83.035934,272.261
"114",83.69024,272.2744
"115",84.04425,272.28772
"116",84.12482,272.30103
"117",84.00519,272.31445
"118",83.77081,272.32776
"119",83.49493,272.34106
"120",83.22148,272.35437
"121",82.97734,272.36768
"122",82.76494,272.3811
"123",82.562294,272.3944
"124",82.354774,272.4077
"125",82.12039,272.42114
"126",81.87137,272.43445
"127",81.617455,272.44775
"128",81.38552,272.46106
"129",81.19508,272.47437
"130",81.05592,272.4878
"131",80.96071,272.5011
"132",80.89479,272.5144
"133",80.833755,272.52783
"134",80.75807,272.54114
"135",80.65308,272.55444
"136",80.51148,272.56775
"137",80.32838,272.58105
"138",80.12329,272.59448
"139",79.90845,272.6078
"140",79.69604,272.6211
"141",79.49096,272.63452
"142",79.29809,272.64783
"143",79.11253,272.66113
"144",78.924545,272.67444
"145",78.74143,272.68774
"146",78.57786,272.70117
"147",78.450905,272.71448
"148",78.35569,272.72778
"149",78.28489,272.7412
"150",78.22873,272.75452
"151",78.1799,272.76782
"152",78.12375,272.78113
"153",78.0676,272.79443
"154",78.02365,272.80786
"155",77.98947,272.82117
"156",77.960175,272.83447
"157",77.93088,272.8479
"158",77.8967,272.8612
"159",77.857635,272.8745
"160",77.81613,272.88782
"161",77.769745,272.90112
"162",77.71847,272.91455
"163",77.67208,272.92786
"164",77.63302,272.94116
"165",77.60372,272.9546
"166",77.608604,272.9679
"167",77.70626,272.9812
"168",77.98459,272.9945
"169",78.53391,273.0078
"170",79.381096,273.02124
"171",80.479744,273.03455
"172",81.69558,273.04785
"173",82.862595,273.06128
"174",83.809875,273.0746
"175",84.454414,273.0879
"176",84.78401,273.1012
"177",84.85481,273.1145
"178",84.74494,273.12793
"179",84.53742,273.14124
"180",84.298164,273.15454
"181",84.06622,273.16797
"182",83.86359,273.18127
"183",83.69268,273.19458
"184",83.53399,273.2079
"185",83.36797,273.2212
"186",83.17265,273.23462
"187",82.948044,273.24792
"188",82.701454,273.26123
"189",82.44755,273.27466
"190",82.213165,273.28796
"191",82.01297,273.30127
"192",81.849396,273.31458
"193",81.705345,273.32788
"194",81.56863,273.3413
"195",81.427025,273.3546
"196",81.27322,273.36792
"197",81.09743,273.38135
"198",80.89723,273.39465
"199",80.672615,273.40796
"200",80.42359,273.42126
"201",80.16235,273.43457
"202",79.8938,273.448
"203",79.635,273.4613
"204",79.398186,273.4746
"205",79.185776,273.48804
"206",78.995346,273.50134
"207",78.83177,273.51465
"208",78.69016,273.52795
"209",78.56565,273.54126
"210",78.44846,273.5547
"211",78.34348,273.568
"212",78.24826,273.5813
"213",78.16037,273.59473
"214",78.0798,273.60803
"215",78.011444,273.62134
"216",77.945526,273.63464
"217",77.87961,273.64795
"218",77.81613,273.66138
"219",77.76242,273.67468
"220",77.713585,273.688
"221",77.6672,273.70142
"222",77.625694,273.71472
"223",77.58419,273.72803
"224",77.5378,273.74133
"225",77.488976,273.75464
"226",77.437706,273.76807
"227",77.383995,273.78137
"228",77.3254,273.79468
"229",77.27169,273.8081
"230",77.22041,273.8214
"231",77.18623,273.83472
"232",77.188675,273.84802
"233",77.2839,273.86133
"234",77.55978,273.87476
"235",78.09689,273.88806
"236",78.93431,273.90137
"237",80.04028,273.9148
"238",81.29763,273.9281
"239",82.53788,273.9414
"240",83.58526,273.9547
"241",84.332344,273.96802
"242",84.75227,273.98145
"243",84.88167,273.99475
"244",84.8011,274.00806
"245",84.59846,274.02148
"246",84.35676,274.0348
"247",84.1297,274.0481
"248",83.92462,274.0614
"249",83.75372,274.0747
"250",83.59991,274.08813
"251",83.44854,274.10144
"252",83.27032,274.11475
"253",83.06035,274.12817
"254",82.82353,274.14148
"255",82.57694,274.1548
"256",82.3328,274.1681
"257",82.11063,274.1814
"258",81.92508,274.19482
"259",81.77615,274.20813
"260",81.651634,274.22144
"261",81.54665,274.23486
"262",81.444115,274.24817
"263",81.324486,274.26147
"264",81.16823,274.27478
"265",80.95827,274.2881
"266",80.70191,274.3015
"267",80.41627,274.31482
"268",80.12085,274.32812
"269",79.835205,274.34155
"270",79.58129,274.35486
"271",79.35912,274.36816
"272",79.15892,274.38147
"273",78.9807,274.39478
"274",78.8098,274.4082
"275",78.641335,274.4215
"276",78.4802,274.4348
"277",78.328835,274.44824
"278",78.18234,274.46155
"279",78.048065,274.47485
"280",77.92111,274.48816
"281",77.7966,274.50146
"282",77.6672,274.5149
"283",77.5378,274.5282
"284",77.41085,274.5415
"285",77.2839,274.55493
"286",77.15938,274.56824
"287",77.04219,274.58154
"288",76.929886,274.59485
"289",76.81758,274.60815
"290",76.70527,274.62158
"291",76.592964,274.6349
"292",76.48554,274.6482
"293",76.39033,274.66162
"294",76.30488,274.67493
"295",76.226746,274.68823
"296",76.14862,274.70154
"297",76.068054,274.71484
"298",75.982605,274.72827
"299",75.90204,274.74158
"300",75.83856,274.75488
"301",75.80682,274.7683
"302",75.860535,274.78162
"303",76.085144,274.79492
"304",76.5832,274.80823
"305",77.42306,274.82153
"306",78.5803,274.83496
"307",79.94751,274.84827
"308",81.3489,274.86157
"309",82.6038,274.875
"310",83.577934,274.8883
"311",84.2298,274.9016
"312",84.58869,274.91492
"313",84.72541,274.92822
"314",84.71809,274.94165
"315",84.627754,274.95496
"316",84.50324,274.96826
"317",84.36652,274.9817
"318",84.22247,274.995
"319",84.05646,275.0083
"320",83.861145,275.0216
"321",83.61944,275.0349
"322",83.336235,275.04834
"323",83.02373,275.06165
"324",82.7161,275.07495
"325",82.44999,275.08838
"326",82.247345,275.10168
"327",82.13504,275.115
"328",82.11795,275.1283
"329",82.18143,275.1416
"330",82.2913,275.15503
"331",82.4036,275.16833
"332",82.4622,275.18164
"333",82.42802,275.19507
"334",82.28397,275.20837
"335",82.04227,275.22168
"336",81.73464,275.235
"337",81.40017,275.2483
"338",81.07057,275.26172
"339",80.765396,275.27502
"340",80.49439,275.28833
"341",80.26246,275.30176
"342",80.0647,275.31506
"343",79.89624,275.32837
"344",79.7522,275.34167
"345",79.63012,275.35498
"346",79.52758,275.3684
"347",79.44213,275.3817
"348",79.36645,275.39502
"349",79.29565,275.40845
"350",79.217514,275.42175
"351",79.12718,275.43506
"352",79.029526,275.44836
"353",78.922104,275.46167
"354",78.8098,275.4751
"355",78.69749,275.4884
"356",78.58762,275.5017
"357",78.47532,275.51514
"358",78.35569,275.52844
"359",78.23117,275.54175
"360",78.101776,275.55505
"361",77.96994,275.56836
"362",77.84299,275.5818
"363",77.7551,275.5951
"364",77.77463,275.6084
"365",77.98459,275.62183
"366",78.46555,275.63513
"367",79.24437,275.64844
"368",80.27711,275.66174
"369",81.446556,275.67505
"370",82.59647,275.68848
"371",83.577934,275.70178
"372",84.29084,275.7151
"373",84.71809,275.72852
"374",84.88899,275.74182
"375",84.86214,275.75513
"376",84.71809,275.76843
"377",84.52766,275.78174
"378",84.34211,275.79517
"379",84.18829,275.80847
"380",84.068665,275.82178
"381",83.95636,275.8352
"382",83.81964,275.8485
"383",83.6292,275.86182
"384",83.37774,275.87512
"385",83.08232,275.88843
"386",82.777145,275.90186
"387",82.493935,275.91516
"388",82.26444,275.92847
"389",82.08865,275.9419
"390",81.94705,275.9552
"391",81.81766,275.9685
"392",81.68093,275.9818
"393",81.512474,275.99512
"394",81.307396,276.00854
"395",81.077896,276.02185
"396",80.82643,276.03516
"397",80.55787,276.04858
"398",80.27955,276.0619
"399",79.98413,276.0752
"400",79.676506,276.0885
"401",79.35912,276.1018
"402",79.061264,276.11523
"403",78.80492,276.12854
"404",78.59739,276.14185
"405",78.433815,276.15527
"406",78.30198,276.16858
"407",78.17746,276.1819
"408",78.04562,276.1952
"409",77.908905,276.2085
"410",77.78195,276.22192
"411",77.66964,276.23523
"412",77.56954,276.24854
"413",77.48409,276.26196
"414",77.40841,276.27527
"415",77.33517,276.28857
"416",77.26925,276.30188
"417",77.21553,276.3152
"418",77.17891,276.3286
"419",77.15938,276.34192
"420",77.154495,276.35522
"421",77.15694,276.36865
"422",77.15938,276.38196
"423",77.14473,276.39526
"424",77.11055,276.40857
"425",77.051956,276.42188
"426",76.97383,276.4353
"427",76.90547,276.4486
"428",76.895706,276.4619
"429",77.032425,276.47534
"430",77.418175,276.48865
"431",78.11154,276.50195
"432",79.10765,276.51526
"433",80.31617,276.52856
"434",81.583275,276.542
"435",82.735634,276.5553
"436",83.64385,276.5686
"437",84.24689,276.58203
"438",84.559395,276.59534
"439",84.6424,276.60864
"440",84.578926,276.62195
"441",84.44221,276.63525
"442",84.29084,276.64868
"443",84.156555,276.662
"444",84.03937,276.6753
"445",83.93439,276.68872
"446",83.807434,276.70203
"447",83.63897,276.71533
"448",83.40948,276.72864
"449",83.12627,276.74194
"450",82.811325,276.75537
"451",82.496376,276.76868
"452",82.213165,276.78198
"453",81.98367,276.7954
"454",81.80057,276.80872
"455",81.64675,276.82202
"456",81.495384,276.83533
"457",81.324486,276.84863
"458",81.12428,276.86206
"459",80.88991,276.87537
"460",80.618904,276.88867
"461",80.31373,276.9021
"462",79.98657,276.9154
"463",79.64965,276.9287
"464",79.31762,276.94202
"465",79.00755,276.95532
"466",78.73167,276.96875
"467",78.485085,276.98206
"468",78.26536,276.99536
"469",78.07492,277.0088
"470",77.90646,277.0221
"471",77.76486,277.0354
"472",77.64767,277.0487
"473",77.54757,277.062
"474",77.46212,277.07544
"475",77.38644,277.08875
"476",77.31075,277.10205
"477",77.2375,277.11548
"478",77.16426,277.12878
"479",77.09346,277.1421
"480",77.02998,277.1554
"481",76.96651,277.1687
"482",76.90791,277.18213
"483",76.8542,277.19543
"484",76.80049,277.20874
"485",76.754105,277.22217
"486",76.7248,277.23547
"487",76.70527,277.24878
"488",76.700386,277.2621
"489",76.70283,277.2754
"490",76.70527,277.28882
"491",76.700386,277.30212
"492",76.69062,277.31543
"493",76.68818,277.32886
"494",76.734566,277.34216
"495",76.92012,277.35547
"496",77.34249,277.36877
"497",78.0676,277.38208
"498",79.09544,277.3955
"499",80.3357,277.4088
"500",81.62722,277.42212
"501",82.79668,277.43555
"502",83.69268,277.44885
"503",84.25422,277.46216
"504",84.488594,277.47546
"505",84.471504,277.48877
"506",84.29572,277.5022
"507",84.06378,277.5155
"508",83.83429,277.5288
"509",83.63897,277.54224
"510",83.47784,277.55554
"511",83.32891,277.56885
"512",83.16533,277.58215
"513",82.96269,277.59546
"514",82.7161,277.6089
"515",82.43778,277.6222
"516",82.15457,277.6355
"517",81.8909,277.64893
"518",81.66384,277.66223
"519",81.48806,277.67554
"520",81.341576,277.68884
"521",81.20241,277.70215
"522",81.05592,277.71558
"523",80.88991,277.72888
"524",80.689705,277.7422
"525",80.45533,277.7556
"526",80.18921,277.76892
"527",79.8938,277.78223
"528",79.58373,277.79553
"529",79.26879,277.80884
"530",78.96605,277.82227
"531",78.68284,277.83557
"532",78.41917,277.84888
"533",78.17746,277.8623
"534",77.962616,277.8756
"535",77.769745,277.88892
"536",77.60372,277.90222
"537",77.45968,277.91553
"538",77.34493,277.92896
"539",77.24971,277.94226
"540",77.17647,277.95557
"541",77.117874,277.969
"542",77.066605,277.9823
"543",77.01778,277.9956
"544",76.97627,278.0089
"545",76.93965,278.02222
"546",76.90791,278.03564
"547",76.87862,278.04895
"548",76.85176,278.06226
"549",76.81514,278.07568
"550",76.75899,278.089
"551",76.68574,278.1023
"552",76.59785,278.1156
"553",76.50996,278.1289
"554",76.439156,278.14233
"555",76.44892,278.15564
"556",76.61738,278.16895
"557",77.02998,278.18237
"558",77.730675,278.19568
"559",78.70237,278.20898
"560",79.84497,278.2223
"561",81.007095,278.2356
"562",82.02518,278.24902
"563",82.78447,278.26233
"564",83.243454,278.27563
"565",83.43633,278.28906
"566",83.43145,278.30237
"567",83.30938,278.31567
"568",83.14336,278.32898
"569",82.97978,278.3423
"570",82.84062,278.3557
"571",82.720985,278.36902
"572",82.60624,278.38232
"573",82.459755,278.39575
"574",82.26444,278.40906
"575",82.00076,278.42236
"576",81.68093,278.43567
"577",81.32937,278.44897
"578",80.97536,278.4624
"579",80.64088,278.4757
"580",80.34791,278.489
"581",80.09888,278.50244
"582",79.8938,278.51575
"583",79.72045,278.52905
"584",79.57397,278.54236
"585",79.45434,278.55566
"586",79.33471,278.5691
"587",79.20775,278.5824
"588",79.06859,278.5957
"589",78.91478,278.60913
"590",78.73655,278.62244
"591",78.536354,278.63574
"592",78.331276,278.64905
"593",78.12375,278.66235
"594",77.91135,278.67578
"595",77.70382,278.6891
"596",77.50851,278.7024
"597",77.31075,278.71582
"598",77.10811,278.72913
"599",76.90059,278.74243
"600",76.69062,278.75574
"601",76.49287,278.76904
"602",76.317085,278.78247
"603",76.16571,278.79578
"604",76.03143,278.80908
"605",75.90692,278.8225
"606",75.78485,278.83582
"607",75.667656,278.84912
"608",75.55779,278.86243
"609",75.46502,278.87573
"610",75.386894,278.88916
"611",75.32098,278.90247
"612",75.26238,278.91577
"613",75.20378,278.9292
"614",75.142746,278.9425
"615",75.089035,278.9558
"616",75.04509,278.96912
"617",75.01579,278.98242
"618",75.001144,278.99585
"619",75.003586,279.00916
"620",75.035324,279.02246
"621",75.13298,279.0359
"622",75.36736,279.0492
"623",75.83612,279.0625
"624",76.595406,279.0758
"625",77.63546,279.0891
"626",78.87572,279.10254
"627",80.15015,279.11584
"628",81.28298,279.12915
"629",82.144806,279.14258
"630",82.6746,279.15588
"631",82.90166,279.1692
"632",82.90654,279.1825
"633",82.78935,279.1958
"634",82.63798,279.20923
"635",82.51835,279.22253
"636",82.45487,279.23584
"637",82.44022,279.24927
"638",82.442665,279.26257
"639",82.42802,279.27588
"640",82.3621,279.28918
"641",82.2327,279.3025
"642",82.04471,279.31592
"643",81.82254,279.32922
"644",81.58572,279.34253
"645",81.34646,279.35596
"646",81.12428,279.36926
"647",80.921646,279.38257
"648",80.73121,279.39587
"649",80.552986,279.40918
"650",80.377205,279.4226
"651",80.2063,279.4359
"652",80.02075,279.44922
"653",79.815674,279.46265
"654",79.58129,279.47595
"655",79.3225,279.48926
"656",79.046616,279.50256
"657",78.765854,279.51587
"658",78.49973,279.5293
"659",78.2678,279.5426
"660",78.0798,279.5559
"661",77.93332,279.56934
"662",77.81369,279.58264
"663",77.71847,279.59595
"664",77.64034,279.60925
"665",77.576866,279.62256
"666",77.53292,279.636
"667",77.51339,279.6493
"668",77.52071,279.6626
"669",77.55001,279.67603
"670",77.591515,279.68933
"671",77.645226,279.70264
"672",77.70382,279.71594
"673",77.7673,279.72925
"674",77.83078,279.74268
"675",77.8967,279.75598
"676",77.95285,279.7693
"677",77.98947,279.7827
"678",78.00168,279.79602
"679",77.98459,279.80933
"680",77.943085,279.82263
"681",77.88693,279.83594
"682",77.81857,279.84937
"683",77.74288,279.86267
"684",77.65743,279.87598
"685",77.5671,279.8894
"686",77.47433,279.9027
"687",77.38155,279.91602
"688",77.296104,279.92932
"689",77.21553,279.94263
"690",77.134964,279.95605
"691",77.051956,279.96936
"692",76.98604,279.98267
"693",76.981155,279.9961
"694",77.12764,280.0094
"695",77.540245,280.0227
"696",78.27512,280.036
"697",79.31274,280.04932
"698",80.52857,280.06274
"699",81.761505,280.07605
"700",82.82353,280.08936
"701",83.59991,280.10278
"702",84.054016,280.1161
"703",84.2298,280.1294
"704",84.2005,280.1427
"705",84.03937,280.156
"706",83.81476,280.16943
"707",83.58526,280.18274
"708",83.38506,280.19604
"709",83.2166,280.20947
"710",83.08476,280.22278
"711",82.96269,280.23608
"712",82.82353,280.2494
"713",82.650185,280.2627
"714",82.44511,280.27612
"715",82.22537,280.28943
"716",82.02762,280.30273
"717",81.864044,280.31616
"718",81.74685,280.32947
"719",81.66628,280.34277
"720",81.58816,280.35608
"721",81.50271,280.3694
"722",81.42214,280.3828
"723",81.37087,280.39612
"724",81.3489,280.40942
"725",81.35378,280.42285
"726",81.36843,280.43616
"727",81.38308,280.44946
"728",81.37087,280.46277
"729",81.33669,280.47607
"730",81.29763,280.4895
"731",81.290306,280.5028
"732",81.33669,280.5161
"733",81.444115,280.52954
"734",81.602806,280.54285
"735",81.80057,280.55615
"736",82.01297,280.56946
"737",82.2034,280.58276
"738",82.354774,280.5962
"739",82.45731,280.6095
"740",82.50126,280.6228
"741",82.476845,280.63623
"742",82.39872,280.64954
"743",82.28153,280.66284
"744",82.15213,280.67615
"745",82.03006,280.68945
"746",81.92996,280.70288
"747",81.83963,280.7162
"748",81.74441,280.7295
"749",81.6321,280.74292
"750",81.48562,280.75623
"751",81.30007,280.76953
"752",81.08034,280.78284
"753",80.8362,280.79614
"754",80.5774,280.80957
"755",80.323494,280.82288
"756",80.111084,280.83618
"757",79.98901,280.8496
"758",80.02075,280.8629
"759",80.26978,280.87622
"760",80.75075,280.88953
"761",81.43679,280.90283
"762",82.24246,280.91626
"763",83.06279,280.92957
"764",83.77814,280.94287
"765",84.31037,280.9563
"766",84.61799,280.9696
"767",84.70588,280.9829
"768",84.61799,280.99622
"769",84.41535,281.00952
"770",84.173645,281.02295
"771",83.94171,281.03625
"772",83.74639,281.04956
"773",83.560844,281.063
"774",83.34112,281.0763
"775",83.055466,281.0896
"776",82.69657,281.1029
"777",82.29618,281.1162
"778",81.91043,281.12964
"779",81.5906,281.14294
"780",81.36843,281.15625
"781",81.22682,281.16968
"782",81.143814,281.18298
"783",81.08522,281.1963
"784",81.03151,281.2096
"785",80.970474,281.2229
"786",80.88747,281.23633
"787",80.77272,281.24963
"788",80.60914,281.26294
"789",80.39918,281.27637
"790",80.15747,281.28967
"791",79.91577,281.30298
"792",79.69604,281.31628
"793",79.51293,281.3296
"794",79.36889,281.34302
"795",79.25414,281.35632
"796",79.149155,281.36963
"797",79.03685,281.38306
"798",78.91722,281.39636
"799",78.79515,281.40967
"800",78.677956,281.42297
"801",78.57542,281.43628
"802",78.49241,281.4497
"803",78.42405,281.463
"804",78.365456,281.47632
"805",78.30442,281.48975
"806",78.23361,281.50305
"807",78.14816,281.51636
"808",78.05539,281.52966
"809",77.960175,281.54297
"810",77.86496,281.5564
"811",77.769745,281.5697
"812",77.67208,281.583
"813",77.56954,281.59644
"814",77.46456,281.60974
"815",77.36935,281.62305
"816",77.30099,281.63635
"817",77.29366,281.64966
"818",77.40841,281.6631
"819",77.71603,281.6764
"820",78.27512,281.6897
"821",79.10765,281.70312
"822",80.15747,281.71643
"823",81.31716,281.72974
"824",82.4329,281.74304
"825",83.3753,281.75635
"826",84.06134,281.76978
"827",84.47639,281.78308
"828",84.65705,281.7964
"829",84.67902,281.8098
"830",84.60334,281.82312
"831",84.48127,281.83643
"832",84.34699,281.84973
"833",84.207825,281.86304
"834",84.068665,281.87646
"835",83.91974,281.88977
"836",83.75128,281.90308
"837",83.54864,281.9165
"838",83.30938,281.9298
"839",83.038376,281.9431
"840",82.75029,281.95642
"841",82.47196,281.96973
"842",82.22537,281.98315
"843",82.02762,281.99646
"844",81.86893,282.00977
"845",81.72976,282.0232
"846",81.5906,282.0365
"847",81.42947,282.0498
"848",81.23659,282.0631
"849",81.00954,282.07642
"850",80.75075,282.08984
"851",80.462654,282.10315
"852",80.15015,282.11646
"853",79.82056,282.12988
"854",79.48119,282.1432
"855",79.14427,282.1565
"856",78.82445,282.1698
"857",78.52903,282.1831
"858",78.26536,282.19653
"859",78.028534,282.20984
"860",77.823456,282.22314
"861",77.642784,282.23657
"862",77.48165,282.24988
"863",77.332726,282.26318
"864",77.196,282.2765
"865",77.0544,282.2898
"866",76.910355,282.30322
"867",76.756546,282.31653
"868",76.592964,282.32983
"869",76.43427,282.34326
"870",76.29023,282.35657
"871",76.17792,282.36987
"872",76.102234,282.38318
"873",76.068054,282.39648
"874",76.07294,282.4099
"875",76.11444,282.42322
"876",76.18768,282.43652
"877",76.282906,282.44995
"878",76.387886,282.46326
"879",76.490425,282.47656
"880",76.56611,282.48987
"881",76.60029,282.50317
"882",76.610054,282.5166
"883",76.65644,282.5299
"884",76.83467,282.5432
"885",77.239944,282.55664
"886",77.92111,282.56995
"887",78.853745,282.58325
"888",79.9353,282.59656
"889",81.02907,282.60986
"890",81.98367,282.6233
"891",82.703896,282.6366
"892",83.15556,282.6499
"893",83.36553,282.66333
"894",83.387505,282.67664
"895",83.28741,282.68994
"896",83.13603,282.70325
"897",82.97978,282.71655
"898",82.845505,282.72998
"899",82.735634,282.7433
"900",82.6453,282.7566
"901",82.55009,282.77002
"902",82.42069,282.78333
"903",82.2449,282.79663
"904",82.020294,282.80994
"905",81.76639,282.82324
"906",81.50759,282.83667
"907",81.26833,282.84998
"908",81.06569,282.86328
"909",80.89479,282.8767
"910",80.743416,282.89
"911",80.59693,282.90332
"912",80.4358,282.91663
"913",80.25025,282.92993
"914",80.05005,282.94336
"915",79.84253,282.95667
"916",79.62524,282.96997
"917",79.40795,282.9834
"918",79.1931,282.9967
"919",78.97826,283.01
"920",78.76341,283.02332
"921",78.55833,283.03662
"922",78.37034,283.05005
"923",78.20676,283.06335
"924",78.06271,283.07666
"925",77.94064,283.0901
"926",77.838104,283.1034
"927",77.752655,283.1167
"928",77.67696,283.13
"929",77.60128,283.1433
"930",77.5256,283.15674
"931",77.452354,283.17004
"932",77.38155,283.18335
"933",77.31075,283.19678
"934",77.24971,283.21008
"935",77.196,283.2234
"936",77.14717,283.2367
"937",77.09834,283.25
"938",77.051956,283.26343
"939",77.00313,283.27673
"940",76.946976,283.29004
"941",76.88106,283.30347
"942",76.81514,283.31677
"943",76.77608,283.33008
"944",76.81514,283.34338
"945",77.01778,283.3567
"946",77.45724,283.37012
"947",78.170135,283.38342
"948",79.11742,283.39673
"949",80.20386,283.41016
"950",81.28054,283.42346
"951",82.19852,283.43677
"952",82.86748,283.45007
"953",83.25811,283.46338
"954",83.39971,283.4768
"955",83.35577,283.4901
"956",83.20195,283.50342
"957",82.99931,283.51685
"958",82.79668,283.53015
"959",82.61845,283.54346
"960",82.4744,283.55676
"961",82.34257,283.57007
"962",82.196075,283.5835
"963",82.01541,283.5968
"964",81.79324,283.6101
"965",81.53933,283.62354
"966",81.28298,283.63684
"967",81.06325,283.65015
"968",80.89235,283.66345
"969",80.77028,283.67676
"970",80.67994,283.6902
"971",80.604256,283.7035
"972",80.52369,283.7168
"973",80.42603,283.73022
"974",80.308846,283.74353
"975",80.17456,283.75684
"976",80.01099,283.77014
"977",79.83032,283.78345
"978",79.63012,283.79688
"979",79.42504,283.81018
"980",79.22484,283.8235
"981",79.044174,283.8369
"982",78.887924,283.85022
"983",78.75609,283.86353
"984",78.641335,283.87683
"985",78.538795,283.89014
"986",78.44358,283.90356
"987",78.35813,283.91687
"988",78.28489,283.93018
"989",78.22873,283.9436
"990",78.18234,283.9569
"991",78.153046,283.9702
"992",78.12375,283.98352
"993",78.09201,283.99683
"994",78.05539,284.01025
"995",78.009,284.02356
"996",77.95285,284.03687
"997",77.89426,284.0503
"998",77.855194,284.0636
"999",77.88449,284.0769
"1000",78.06271,284.0902
"1001",78.46311,284.10352
"1002",79.114975,284.11694
"1003",79.98657,284.13025
"1004",80.972916,284.14355
"1005",81.9324,284.15698
"1006",82.73319,284.1703
"1007",83.28741,284.1836
"1008",83.580376,284.1969
"1009",83.65606,284.2102
"1010",83.580376,284.22363
"1011",83.424126,284.23694
"1012",83.243454,284.25024
"1013",83.08232,284.26367
"1014",82.9456,284.27698
"1015",82.8333,284.29028
"1016",82.71122,284.3036
"1017",82.562294,284.3169
"1018",82.36942,284.33032
"1019",82.13504,284.34363
"1020",81.87625,284.35693
"1021",81.61501,284.37036
"1022",81.38064,284.38367
"1023",81.18776,284.39697
"1024",81.03395,284.41028
"1025",80.90456,284.42358
"1026",80.79225,284.437
"1027",80.67506,284.45032
"1028",80.53834,284.46362
"1029",80.37965,284.47705
"1030",80.20386,284.49036
"1031",80.01343,284.50366
"1032",79.801025,284.51697
"1033",79.58373,284.53027
"1034",79.364006,284.5437
"1035",79.149155,284.557
"1036",78.9514,284.5703
"1037",78.78294,284.58374
"1038",78.63889,284.59705
"1039",78.51682,284.61035
"1040",78.40452,284.62366
"1041",78.29954,284.63696
"1042",78.204315,284.6504
"1043",78.116425,284.6637
"1044",78.03586,284.677
"1045",77.9675,284.69043
"1046",77.91135,284.70374
"1047",77.86496,284.71704
"1048",77.823456,284.73035
"1049",77.789276,284.74365
"1050",77.7551,284.75708
"1051",77.72091,284.7704
"1052",77.68185,284.7837
"1053",77.64034,284.79712
"1054",77.593956,284.81042
"1055",77.55001,284.82373
"1056",77.53048,284.83704
"1057",77.593956,284.85034
"1058",77.821014,284.86377
"1059",78.28001,284.87708
"1060",79.00023,284.89038
"1061",79.94263,284.9038
"1062",80.99489,284.9171
"1063",81.99344,284.93042
"1064",82.804,284.94373
"1065",83.34356,284.95703
"1066",83.60479,284.97046
"1067",83.64629,284.98376
"1068",83.54864,284.99707
"1069",83.39483,285.0105
"1070",83.23613,285.0238
"1071",83.106735,285.0371
"1072",83.01152,285.0504
"1073",82.93828,285.06372
"1074",82.85527,285.07715
"1075",82.74296,285.09045
"1076",82.57694,285.10376
"1077",82.34989,285.1172
"1078",82.07156,285.1305
"1079",81.77615,285.1438
"1080",81.49294,285.1571
"1081",81.25124,285.1704
"1082",81.06325,285.18384
"1083",80.92653,285.19714
"1084",80.81911,285.21045
"1085",80.72144,285.22388
"1086",80.6067,285.23718
"1087",80.462654,285.2505
"1088",80.28443,285.2638
"1089",80.079346,285.2771
"1090",79.86206,285.29053
"1091",79.64477,285.30383
"1092",79.432365,285.31714
"1093",79.23216,285.33057
"1094",79.046616,285.34387
"1095",78.86839,285.35718
"1096",78.69993,285.37048
"1097",78.551,285.3838
"1098",78.42405,285.39722
"1099",78.31663,285.41052
"1100",78.22385,285.42383
"1101",78.14572,285.43726
"1102",78.07492,285.45056
"1103",78.00168,285.46387
"1104",77.93576,285.47717
"1105",77.872284,285.49048
"1106",77.81369,285.5039
"1107",77.75754,285.5172
"1108",77.70626,285.53052
"1109",77.659874,285.54395
"1110",77.61349,285.55725
"1111",77.5671,285.57056
"1112",77.51827,285.58386
"1113",77.46456,285.59717
"1114",77.41085,285.6106
"1115",77.36202,285.6239
"1116",77.3254,285.6372
"1117",77.30831,285.65063
"1118",77.30099,285.66394
"1119",77.30343,285.67725
"1120",77.30587,285.69055
"1121",77.30831,285.70386
"1122",77.30343,285.7173
"1123",77.298546,285.7306
"1124",77.28634,285.7439
"1125",77.27657,285.75732
"1126",77.30587,285.77063
"1127",77.454796,285.78394
"1128",77.81857,285.79724
"1129",78.46311,285.81055
"1130",79.38354,285.82397
"1131",80.49439,285.83728
"1132",81.64187,285.8506
"1133",82.65507,285.864
"1134",83.40215,285.87732
"1135",83.83429,285.89062
"1136",83.980774,285.90393
"1137",83.912415,285.91724
"1138",83.719536,285.93066
"1139",83.48028,285.94397
"1140",83.250786,285.95728
"1141",83.070114,285.9707
"1142",82.93584,285.984
"1143",82.83818,285.9973
"1144",82.74052,286.01062
"1145",82.616005,286.02393
"1146",82.44511,286.03735
"1147",82.21561,286.05066
"1148",81.94949,286.06396
"1149",81.68093,286.0774
"1150",81.45144,286.0907
"1151",81.270775,286.104
"1152",81.146255,286.1173
"1153",81.05348,286.1306
"1154",80.97536,286.14404
"1155",80.87526,286.15735
"1156",80.74586,286.17065
"1157",80.58228,286.18408
"1158",80.396736,286.1974
"1159",80.19165,286.2107
"1160",79.97681,286.224
"1161",79.766846,286.2373
"1162",79.56176,286.25073
"1163",79.364006,286.26404
"1164",79.18089,286.27734
"1165",79.01732,286.29077
"1166",78.86595,286.30408
"1167",78.73167,286.31738
"1168",78.6096,286.3307
"1169",78.49729,286.344
"1170",78.397194,286.35742
"1171",78.32395,286.37073
"1172",78.27512,286.38403
"1173",78.24338,286.39746
"1174",78.22629,286.41077
"1175",78.20676,286.42407
"1176",78.17746,286.43738
"1177",78.1384,286.45068
"1178",78.099335,286.4641
"1179",78.05539,286.47742
"1180",78.013885,286.49072
"1181",77.97238,286.50415
"1182",77.93576,286.51746
"1183",77.90158,286.53076
"1184",77.86984,286.54407
"1185",77.85275,286.55737
"1186",77.840546,286.5708
"1187",77.83078,286.5841
"1188",77.81857,286.5974
"1189",77.79416,286.61084
"1190",77.75998,286.62415
"1191",77.713585,286.63745
"1192",77.67208,286.65076
"1193",77.65255,286.66406
"1194",77.71114,286.6775
"1195",77.92111,286.6908
"1196",78.35325,286.7041
"1197",79.044174,286.71753
"1198",79.957275,286.73083
"1199",80.990005,286.74414
"1200",81.99832,286.75745
"1201",82.82597,286.77075
"1202",83.37774,286.78418
"1203",83.63409,286.7975
"1204",83.63409,286.8108
"1205",83.458305,286.82422
"1206",83.18486,286.83752
"1207",82.896774,286.85083
"1208",82.633095,286.86414
"1209",82.423134,286.87744
"1210",82.262,286.89087
"1211",82.125275,286.90417
"1212",81.986115,286.91748
"1213",81.815216,286.9309
"1214",81.61257,286.9442
"1215",81.38552,286.95752
"1216",81.16579,286.97083
"1217",80.97536,286.98413
"1218",80.8362,286.99756
"1219",80.74586,287.01086
"1220",80.68482,287.02417
"1221",80.62623,287.0376
"1222",80.54566,287.0509
"1223",80.43336,287.0642
"1224",80.291756,287.0775
"1225",80.130615,287.09082
"1226",79.957275,287.10425
"1227",79.78638,287.11755
"1228",79.61059,287.13086
"1229",79.43725,287.1443
"1230",79.26391,287.1576
"1231",79.093,287.1709
"1232",78.93431,287.1842
"1233",78.79027,287.1975
"1234",78.66575,287.21094
"1235",78.553444,287.22424
"1236",78.45579,287.23755
"1237",78.37522,287.25098
"1238",78.314186,287.26428
"1239",78.2678,287.2776
"1240",78.24094,287.2909
"1241",78.21896,287.3042
"1242",78.20676,287.31763
"1243",78.18967,287.33093
"1244",78.16281,287.34424
"1245",78.133514,287.35767
"1246",78.099335,287.37097
"1247",78.0676,287.38428
"1248",78.03342,287.39758
"1249",78.00412,287.4109
"1250",77.97482,287.42432
"1251",77.94797,287.43762
"1252",77.91135,287.45093
"1253",77.874725,287.46436
"1254",77.83566,287.47766
"1255",77.79904,287.49097
"1256",77.76486,287.50427
"1257",77.74288,287.51758
"1258",77.730675,287.531
"1259",77.74532,287.5443
"1260",77.840546,287.55762
"1261",78.09201,287.57104
"1262",78.5803,287.58435
"1263",79.33227,287.59766
"1264",80.308846,287.61096
"1265",81.39773,287.62427
"1266",82.43778,287.6377
"1267",83.267876,287.651
"1268",83.807434,287.6643
"1269",84.03937,287.67773
"1270",84.017395,287.69104
"1271",83.82941,287.70435
"1272",83.560844,287.71765
"1273",83.28008,287.73096
"1274",83.035934,287.7444
"1275",82.85039,287.7577
"1276",82.718544,287.771
"1277",82.61356,287.78442
"1278",82.50858,287.79773
"1279",82.371864,287.81104
"1280",82.19119,287.82434
"1281",81.969025,287.83765
"1282",81.72732,287.85107
"1283",81.49294,287.86438
"1284",81.287865,287.8777
"1285",81.11696,287.8911
"1286",80.98024,287.90442
"1287",80.86549,287.91772
"1288",80.765396,287.93103
"1289",80.66285,287.94434
"1290",80.550545,287.95776
"1291",80.41627,287.97107
"1292",80.257576,287.98438
"1293",80.079346,287.9978
"1294",79.88159,288.0111
"1295",79.68139,288.0244
"1296",79.48852,288.03772
"1297",79.30785,288.05103
"1298",79.13939,288.06445
"1299",78.98802,288.07776
"1300",78.853745,288.09106
"1301",78.73899,288.1045
"1302",78.641335,288.1178
"1303",78.56077,288.1311
"1304",78.49729,288.1444
"1305",78.4387,288.1577
"1306",78.38743,288.17114
"1307",78.34348,288.18445
"1308",78.30442,288.19775
"1309",78.2678,288.21118
"1310",78.22873,288.2245
"1311",78.187225,288.2378
"1312",78.14816,288.2511
"1313",78.10666,288.2644
"1314",78.07004,288.27783
"1315",78.03342,288.29114
"1316",78.00168,288.30444
"1317",77.9675,288.31787
"1318",77.93332,288.33118
"1319",77.90158,288.34448
"1320",77.87961,288.3578
"1321",77.86008,288.3711
"1322",77.84787,288.38452
"1323",77.838104,288.39783
"1324",77.83566,288.41113
"1325",77.83078,288.42456
"1326",77.823456,288.43787
"1327",77.81857,288.45117
"1328",77.81125,288.46448
"1329",77.806366,288.47778
"1330",77.838104,288.4912
"1331",77.96994,288.50452
"1332",78.28977,288.51782
"1333",78.873276,288.53125
"1334",79.73022,288.54456
"1335",80.79469,288.55786
"1336",81.92508,288.57117
"1337",82.95293,288.58447
"1338",83.734184,288.5979
"1339",84.20294,288.6112
"1340",84.37141,288.6245
"1341",84.31037,288.63794
"1342",84.09552,288.65125
"1343",83.81476,288.66455
"1344",83.529106,288.67786
"1345",83.282524,288.69116
"1346",83.089645,288.7046
"1347",82.948044,288.7179
"1348",82.83574,288.7312
"1349",82.71366,288.74463
"1350",82.564735,288.75793
"1351",82.374306,288.77124
"1352",82.14969,288.78455
"1353",81.9202,288.79785
"1354",81.7029,288.81128
"1355",81.5198,288.8246
"1356",81.375755,288.8379
"1357",81.26101,288.85132
"1358",81.16579,288.86462
"1359",81.077896,288.87793
"1360",80.98268,288.89124
"1361",80.867935,288.90454
"1362",80.72877,288.91797
"1363",80.56519,288.93127
"1364",80.38209,288.94458
"1365",80.184326,288.958
"1366",79.98413,288.9713
"1367",79.783936,288.98462
"1368",79.59594,288.99792
"1369",79.42748,289.01123
"1370",79.28344,289.02466
"1371",79.166245,289.03796
"1372",79.06859,289.05127
"1373",78.98558,289.0647
"1374",78.91234,289.078
"1375",78.84398,289.0913
"1376",78.7805,289.1046
"1377",78.71946,289.11792
"1378",78.67063,289.13135
"1379",78.624245,289.14465
"1380",78.5803,289.15796
"1381",78.54368,289.1714
"1382",78.504616,289.1847
"1383",78.467995,289.198
"1384",78.43137,289.2113
"1385",78.39231,289.2246
"1386",78.35569,289.23804
"1387",78.31663,289.25134
"1388",78.27512,289.26465
"1389",78.24094,289.27808
"1390",78.21652,289.29138
"1391",78.19699,289.3047
"1392",78.18234,289.318
"1393",78.167694,289.3313
"1394",78.14816,289.34473
"1395",78.12375,289.35803
"1396",78.11154,289.37134
"1397",78.167694,289.38477
"1398",78.382545,289.39807
"1399",78.82933,289.41138
"1400",79.54467,289.42468
"1401",80.482185,289.438
"1402",81.52712,289.45142
"1403",82.51835,289.46472
"1404",83.30694,289.47803
"1405",83.81232,289.49146
"1406",84.02716,289.50476
"1407",84.00519,289.51807
"1408",83.82208,289.53137
"1409",83.5584,289.54468
"1410",83.2752,289.5581
"1411",83.01152,289.5714
"1412",82.791794,289.58472
"1413",82.61845,289.59814
"1414",82.46952,289.61145
"1415",82.32792,289.62476
"1416",82.16678,289.63806
"1417",81.97879,289.65137
"1418",81.77371,289.6648
"1419",81.57107,289.6781
"1420",81.40017,289.6914
"1421",81.27322,289.70483
"1422",81.1902,289.71814
"1423",81.126724,289.73145
"1424",81.06325,289.74475
"1425",80.9778,289.75806
"1426",80.87038,289.77148
"1427",80.73853,289.7848
"1428",80.587166,289.7981
"1429",80.42115,289.81152
"1430",80.24292,289.82483
"1431",80.05737,289.83813
"1432",79.8645,289.85144
"1433",79.674065,289.86475
"1434",79.49828,289.87817
"1435",79.33959,289.89148
"1436",79.19798,289.9048
"1437",79.07591,289.9182
"1438",78.97093,289.93152
"1439",78.8806,289.94482
"1440",78.80736,289.95813
"1441",78.74387,289.97144
"1442",78.692604,289.98486
"1443",78.658424,289.99817
"1444",78.63645,290.01147
"1445",78.6218,290.0249
"1446",78.61204,290.0382
"1447",78.59739,290.0515
"1448",78.56809,290.06482
"1449",78.52903,290.07812
"1450",78.487526,290.09155
"1451",78.44358,290.10486
"1452",78.40208,290.11816
"1453",78.363014,290.1316
"1454",78.31907,290.1449
"1455",78.26536,290.1582
"1456",78.21164,290.1715
"1457",78.18234,290.1848
"1458",78.23605,290.19824
"1459",78.44846,290.21155
"1460",78.90257,290.22485
"1461",79.622795,290.23828
"1462",80.567635,290.2516
"1463",81.62722,290.2649
"1464",82.64286,290.2782
"1465",83.47295,290.2915
"1466",84.03204,290.30493
"1467",84.31281,290.31824
"1468",84.35432,290.33154
"1469",84.23224,290.34497
"1470",84.03204,290.35828
"1471",83.8172,290.37158
"1472",83.6292,290.3849
"1473",83.4876,290.3982
"1474",83.389946,290.41162
"1475",83.31426,290.42493
"1476",83.22148,290.43823
"1477",83.09209,290.45166
"1478",82.91142,290.46497
"1479",82.68192,290.47827
"1480",82.43046,290.49158
"1481",82.178986,290.50488
"1482",81.95682,290.5183
"1483",81.778595,290.53162
"1484",81.636986,290.54492
"1485",81.5198,290.55835
"1486",81.4197,290.57166
"1487",81.30984,290.58496
"1488",81.17555,290.59827
"1489",81.01442,290.61157
"1490",80.82155,290.625
"1491",80.59693,290.6383
"1492",80.35523,290.6516
"1493",80.111084,290.66504
"1494",79.88403,290.67834
"1495",79.67895,290.69165
"1496",79.49584,290.70496
"1497",79.33471,290.71826
"1498",79.1931,290.7317
"1499",79.06859,290.745
"1500",78.94896,290.7583
"1501",78.84154,290.77173
"1502",78.74143,290.78503
"1503",78.643776,290.79834
"1504",78.54368,290.81165
"1505",78.450905,290.82495
"1506",78.37034,290.83838
"1507",78.30198,290.85168
"1508",78.23605,290.865
"1509",78.1799,290.87842
"1510",78.12375,290.89172
"1511",78.065155,290.90503
"1512",78.00656,290.91833
"1513",77.94797,290.93164
"1514",77.89426,290.94507
"1515",77.84543,290.95837
"1516",77.80148,290.97168
"1517",77.75998,290.9851
"1518",77.71114,290.9984
"1519",77.65499,291.01172
"1520",77.61349,291.02502
"1521",77.642784,291.03833
"1522",77.82834,291.05176
"1523",78.260475,291.06506
"1524",78.97826,291.07837
"1525",79.94751,291.0918
"1526",81.058365,291.1051
"1527",82.14969,291.1184
"1528",83.06767,291.1317
"1529",83.70733,291.14502
"1530",84.054016,291.15845
"1531",84.16144,291.17175
"1532",84.105286,291.18506
"1533",83.96124,291.1985
"1534",83.807434,291.2118
"1535",83.68047,291.2251
"1536",83.59258,291.2384
"1537",83.53643,291.2517
"1538",83.49981,291.26514
"1539",83.44366,291.27844
"1540",83.33868,291.29175
"1541",83.16777,291.30518
"1542",82.92851,291.31848
"1543",82.6453,291.3318
"1544",82.34745,291.3451
"1545",82.06912,291.3584
"1546",81.832306,291.37183
"1547",81.64187,291.38513
"1548",81.4905,291.39844
"1549",81.358665,291.41187
"1550",81.22194,291.42517
"1551",81.06569,291.43848
"1552",80.88014,291.45178
"1553",80.66285,291.4651
"1554",80.42115,291.47852
"1555",80.15991,291.49182
"1556",79.8938,291.50513
"1557",79.63256,291.51855
"1558",79.39086,291.53186
"1559",79.168686,291.54517
"1560",78.96849,291.55847
"1561",78.78783,291.57178
"1562",78.624245,291.5852
"1563",78.4802,291.5985
"1564",78.348366,291.61182
"1565",78.23605,291.62524
"1566",78.13107,291.63855
"1567",78.0383,291.65186
"1568",77.95041,291.66516
"1569",77.86496,291.67847
"1570",77.78439,291.6919
"1571",77.7087,291.7052
"1572",77.64034,291.7185
"1573",77.57931,291.73193
"1574",77.51827,291.74524
"1575",77.452354,291.75854
"1576",77.38644,291.77185
"1577",77.315636,291.78516
"1578",77.24727,291.79858
"1579",77.17647,291.8119
"1580",77.11055,291.8252
"1581",77.04707,291.83862
"1582",77.00557,291.85193
"1583",77.02266,291.86523
"1584",77.17647,291.87854
"1585",77.540245,291.89185
"1586",78.16281,291.90527
"1587",79.01732,291.91858
"1588",80.025635,291.9319
"1589",81.0486,291.9453
"1590",81.934845,291.95862
"1591",82.58427,291.97192
"1592",82.96025,291.98523
"1593",83.09209,291.99854
"1594",83.04814,292.01196
"1595",82.90654,292.02527
"1596",82.73319,292.03857
"1597",82.57206,292.052
"1598",82.44022,292.0653
"1599",82.33524,292.0786
"1600",82.23758,292.09192
"1601",82.11551,292.10522
"1602",81.95926,292.11865
"1603",81.761505,292.13196
"1604",81.52712,292.14526
"1605",81.27566,292.1587
"1606",81.03639,292.172
"1607",80.8362,292.1853
"1608",80.67994,292.1986
"1609",80.570076,292.2119
"1610",80.482185,292.22534
"1611",80.396736,292.23865
"1612",80.28687,292.25195
"1613",80.13794,292.26538
"1614",79.957275,292.2787
"1615",79.7522,292.292
"1616",79.53979,292.3053
"1617",79.327385,292.3186
"1618",79.12474,292.33203
"1619",78.922104,292.34534
"1620",78.72434,292.35864
"1621",78.536354,292.37207
"1622",78.365456,292.38538
"1623",78.21408,292.39868
"1624",78.08713,292.412
"1625",77.979706,292.4253
"1626",77.891815,292.43872
"1627",77.81857,292.45203
"1628",77.75998,292.46533
"1629",77.71114,292.47876
"1630",77.66964,292.49207
"1631",77.63058,292.50537
"1632",77.58907,292.51868
"1633",77.54757,292.53198
"1634",77.50118,292.5454
"1635",77.44747,292.55872
"1636",77.38644,292.57202
"1637",77.32296,292.58545
"1638",77.25948,292.59875
"1639",77.21797,292.61206
"1640",77.25704,292.62537
"1641",77.454796,292.63867
"1642",77.8674,292.6521
"1643",78.5095,292.6654
"1644",79.344475,292.6787
"1645",80.272224,292.69214
"1646",81.15114,292.70544
"1647",81.864044,292.71875
"1648",82.337685,292.73206
"1649",82.57206,292.74536
"1650",82.6038,292.7588
"1651",82.5037,292.7721
"1652",82.34501,292.7854
"1653",82.19119,292.79883
"1654",82.06668,292.81213
"1655",81.986115,292.82544
"1656",81.9324,292.83875
"1657",81.87625,292.85205
"1658",81.78836,292.86548
"1659",81.63943,292.87878
"1660",81.43191,292.8921
"1661",81.180435,292.90552
"1662",80.91676,292.91882
"1663",80.67017,292.93213
"1664",80.4773,292.94543
"1665",80.34058,292.95874
"1666",80.25025,292.97217
"1667",80.17944,292.98547
"1668",80.1062,292.99878
"1669",80.01587,293.0122
"1670",79.89624,293.0255
"1671",79.742424,293.03882
"1672",79.56664,293.05212
"1673",79.37621,293.06543
"1674",79.17845,293.07886
"1675",78.9807,293.09216
"1676",78.79759,293.10547
"1677",78.63157,293.1189
"1678",78.48264,293.1322
"1679",78.348366,293.1455
"1680",78.22385,293.1588
"1681",78.1091,293.17212
"1682",78.00412,293.18555
"1683",77.91135,293.19885
"1684",77.840546,293.21216
"1685",77.786835,293.2256
"1686",77.74532,293.2389
"1687",77.71114,293.2522
"1688",77.67696,293.2655
"1689",77.64034,293.2788
"1690",77.60372,293.29224
"1691",77.56954,293.30554
"1692",77.53292,293.31885
"1693",77.4963,293.33228
"1694",77.46212,293.34558
"1695",77.4255,293.3589
"1696",77.39132,293.3722
"1697",77.35958,293.3855
"1698",77.330284,293.39893
"1699",77.30343,293.41223
"1700",77.2839,293.42554
"1701",77.28634,293.43896
"1702",77.35714,293.45227
"1703",77.574425,293.46558
"1704",78.00656,293.47888
"1705",78.68772,293.4922
"1706",79.58373,293.5056
"1707",80.59205,293.51892
"1708",81.57107,293.53223
"1709",82.37919,293.54565
"1710",82.92851,293.55896
"1711",83.20439,293.57227
"1712",83.25811,293.58557
"1713",83.16777,293.59888
"1714",83.02617,293.6123
"1715",82.88945,293.6256
"1716",82.794235,293.63892
"1717",82.74296,293.65234
"1718",82.720985,293.66565
"1719",82.69413,293.67896
"1720",82.63554,293.69226
"1721",82.51591,293.70557
"1722",82.33036,293.719
"1723",82.08377,293.7323
"1724",81.80301,293.7456
"1725",81.52712,293.75903
"1726",81.28542,293.77234
"1727",81.08766,293.78564
"1728",80.936295,293.79895
"1729",80.816666,293.81226
"1730",80.709236,293.82568
"1731",80.59693,293.839
"1732",80.46998,293.8523
"1733",80.33082,293.86572
"1734",80.17212,293.87903
"1735",79.99634,293.89233
"1736",79.80347,293.90564
"1737",79.60082,293.91895
"1738",79.3933,293.93237
"1739",79.19798,293.94568
"1740",79.01732,293.95898
"1741",78.86107,293.9724
"1742",78.72678,293.98572
"1743",78.607155,293.99902
"1744",78.49973,294.01233
"1745",78.399635,294.02563
"1746",78.30686,294.03906
"1747",78.21896,294.05237
"1748",78.135956,294.06567
"1749",78.06271,294.0791
"1750",78.00168,294.0924
"1751",77.94797,294.1057
"1752",77.90158,294.11902
"1753",77.86252,294.13232
"1754",77.83322,294.14575
"1755",77.806366,294.15906
"1756",77.78195,294.17236
"1757",77.75754,294.1858
"1758",77.730675,294.1991
"1759",77.70138,294.2124
"1760",77.66476,294.2257
"1761",77.63058,294.239
"1762",77.60616,294.25244
"1763",77.58663,294.26575
"1764",77.56954,294.27905
"1765",77.55001,294.29248
"1766",77.5256,294.3058
"1767",77.49874,294.3191
"1768",77.48409,294.3324
"1769",77.51095,294.3457
"1770",77.645226,294.35913
"1771",77.96506,294.37244
"1772",78.53147,294.38574
"1773",79.33959,294.39917
"1774",80.31373,294.41248
"1775",81.324486,294.42578
"1776",82.21805,294.4391
"1777",82.87724,294.4524
"1778",83.25567,294.46582
"1779",83.38018,294.47913
"1780",83.3167,294.49243
"1781",83.15556,294.50586
"1782",82.967575,294.51917
"1783",82.804,294.53247
"1784",82.67704,294.54578
"1785",82.59647,294.55908
"1786",82.54032,294.5725
"1787",82.47929,294.58582
"1788",82.388954,294.59912
"1789",82.247345,294.61255
"1790",82.05203,294.62585
"1791",81.8201,294.63916
"1792",81.57839,294.65247
"1793",81.358665,294.66577
"1794",81.18532,294.6792
"1795",81.06081,294.6925
"1796",80.970474,294.7058
"1797",80.89479,294.71924
"1798",80.80934,294.73254
"1799",80.70435,294.74585
"1800",80.57496,294.75916
"1801",80.42359,294.77246
"1802",80.25269,294.7859
"1803",80.07202,294.7992
"1804",79.886475,294.8125
"1805",79.70336,294.82593
"1806",79.517815,294.83923
"1807",79.34692,294.85254
"1808",79.1931,294.86584
"1809",79.061264,294.87915
"1810",78.95384,294.89258
"1811",78.873276,294.90588
"1812",78.80736,294.9192
"1813",78.74876,294.93262
"1814",78.695045,294.94592
"1815",78.64622,294.95923
"1816",78.59739,294.97253
"1817",78.553444,294.98584
"1818",78.51682,294.99927
"1819",78.487526,295.01257
"1820",78.46067,295.02588
"1821",78.43626,295.0393
"1822",78.4094,295.0526
"1823",78.380104,295.06592
"1824",78.345924,295.07922
"1825",78.3093,295.09253
"1826",78.27268,295.10596
"1827",78.23361,295.11926
"1828",78.18967,295.13257
"1829",78.14572,295.146
"1830",78.09445,295.1593
"1831",78.048065,295.1726
"1832",78.00656,295.1859
"1833",77.99191,295.19922
"1834",78.065155,295.21265
"1835",78.294655,295.22595
"1836",78.74143,295.23926
"1837",79.42016,295.2527
"1838",80.28199,295.266
"1839",81.21217,295.2793
"1840",82.0618,295.2926
"1841",82.70878,295.3059
"1842",83.087204,295.31934
"1843",83.209274,295.33264
"1844",83.13847,295.34595
"1845",82.95537,295.35938
"1846",82.73075,295.37268
"1847",82.52079,295.386
"1848",82.357216,295.3993
"1849",82.2449,295.4126
"1850",82.159454,295.42603
"1851",82.07645,295.43933
"1852",81.96414,295.45264
"1853",81.80545,295.46606
"1854",81.59792,295.47937
"1855",81.36111,295.49268
"1856",81.13649,295.50598
"1857",80.94362,295.5193
"1858",80.8069,295.5327
"1859",80.719,295.54602
"1860",80.65797,295.55933
"1861",80.59449,295.57275
"1862",80.516365,295.58606
"1863",80.40894,295.59937
"1864",80.274666,295.61267
"1865",80.12329,295.62598
"1866",79.9646,295.6394
"1867",79.798584,295.6527
"1868",79.63012,295.66602
"1869",79.45922,295.67944
"1870",79.29565,295.69275
"1871",79.14427,295.70605
"1872",79.00755,295.71936
"1873",78.88304,295.73267
"1874",78.77318,295.7461
"1875",78.6804,295.7594
"1876",78.60227,295.7727
"1877",78.538795,295.78613
"1878",78.487526,295.79944
"1879",78.44846,295.81274
"1880",78.41184,295.82605
"1881",78.37278,295.83936
"1882",78.33616,295.85278
"1883",78.30198,295.8661
"1884",78.27268,295.8794
"1885",78.24338,295.89282
"1886",78.21408,295.90613
"1887",78.18967,295.91943
"1888",78.16525,295.93274
"1889",78.14084,295.94604
"1890",78.11398,295.95947
"1891",78.08713,295.97278
"1892",78.05295,295.98608
"1893",78.009,295.9995
"1894",77.962616,296.01282
"1895",77.92844,296.02612
"1896",77.93576,296.03943
"1897",78.04318,296.05273
"1898",78.328835,296.06616
"1899",78.839096,296.07947
"1900",79.57885,296.09277
"1901",80.48951,296.1062
"1902",81.45876,296.1195
"1903",82.33524,296.1328
"1904",83.004196,296.14612
"1905",83.407036,296.15942
"1906",83.5584,296.17285
"1907",83.51446,296.18616
"1908",83.35577,296.19946
"1909",83.16289,296.2129
"1910",82.984665,296.2262
"1911",82.84306,296.2395
"1912",82.74784,296.2528
"1913",82.684364,296.2661
"1914",82.62577,296.27954
"1915",82.55009,296.29285
"1916",82.43046,296.30615
"1917",82.25712,296.31958
"1918",82.03494,296.3329
"1919",81.78836,296.3462
"1920",81.549095,296.3595
"1921",81.33669,296.3728
"1922",81.16579,296.38623
"1923",81.03639,296.39954
"1924",80.938736,296.41284
"1925",80.848404,296.42627
"1926",80.74586,296.43958
"1927",80.62379,296.45288
"1928",80.46998,296.4662
"1929",80.291756,296.4795
"1930",80.096436,296.49292
"1931",79.903564,296.50623
"1932",79.71557,296.51953
"1933",79.54223,296.53296
"1934",79.37377,296.54626
"1935",79.21507,296.55957
"1936",79.05882,296.57288
"1937",78.91234,296.58618
"1938",78.7805,296.5996
"1939",78.66819,296.6129
"1940",78.572975,296.62622
"1941",78.49485,296.63965
"1942",78.433815,296.65295
"1943",78.380104,296.66626
"1944",78.328835,296.67957
"1945",78.28001,296.69287
"1946",78.23117,296.7063
"1947",78.1799,296.7196
"1948",78.133514,296.7329
"1949",78.0798,296.74634
"1950",78.02365,296.75964
"1951",77.97238,296.77295
"1952",77.93088,296.78625
"1953",77.89426,296.79956
"1954",77.86496,296.813
"1955",77.84299,296.8263
"1956",77.82834,296.8396
"1957",77.81613,296.85303
"1958",77.806366,296.86633
"1959",77.7966,296.87964
"1960",77.78195,296.89294
"1961",77.76486,296.90625
"1962",77.747765,296.91968
"1963",77.733116,296.93298
"1964",77.72091,296.9463
"1965",77.71603,296.95972
"1966",77.74044,296.97302
"1967",77.85031,296.98633
"1968",78.12863,296.99963
"1969",78.641335,297.01294
"1970",79.415276,297.02637
"1971",80.38453,297.03967
"1972",81.42947,297.05298
"1973",82.39384,297.0664
"1974",83.14336,297.0797
"1975",83.617,297.09302
"1976",83.8172,297.10632
"1977",83.79767,297.11963
"1978",83.6292,297.13306
"1979",83.39483,297.14636
"1980",83.15068,297.15967
"1981",82.933395,297.1731
"1982",82.76738,297.1864
"1983",82.650185,297.1997
"1984",82.562294,297.213
"1985",82.46952,297.22632
"1986",82.34745,297.23975
"1987",82.18143,297.25305
"1988",81.97879,297.26636
"1989",81.761505,297.2798
"1990",81.55398,297.2931
"1991",81.38308,297.3064
"1992",81.253685,297.3197
"1993",81.15846,297.333
"1994",81.08278,297.34644
"1995",81.004654,297.35974
"1996",80.91432,297.37305
"1997",80.799576,297.38647
"1998",80.655525,297.39978
"1999",80.482185,297.4131
"2000",80.291756,297.4264
"2001",80.09155,297.4397
"2002",79.886475,297.45312
"2003",79.68871,297.46643
"2004",79.500725,297.47974
"2005",79.327385,297.49316
"2006",79.17845,297.50647
"2007",79.0515,297.51978
"2008",78.94652,297.53308
"2009",78.85863,297.5464
"2010",78.79027,297.5598
"2011",78.729225,297.57312
"2012",78.675514,297.58643
"2013",78.63157,297.59985
"2014",78.59251,297.61316
"2015",78.551,297.62646
"2016",78.502174,297.63977
"2017",78.450905,297.65308
"2018",78.399635,297.6665
"2019",78.35569,297.6798
"2020",78.314186,297.6931
"2021",78.28001,297.70654
"2022",78.25071,297.71985
"2023",78.221405,297.73315
"2024",78.18234,297.74646
"2025",78.13107,297.75977
"2026",78.07248,297.7732
"2027",78.009,297.7865
"2028",77.95041,297.7998
"2029",77.91135,297.81323
"2030",77.93576,297.82654
"2031",78.08713,297.83984
"2032",78.44114,297.85315
"2033",79.03197,297.86646
"2034",79.83765,297.87988
"2035",80.76784,297.8932
"2036",81.68093,297.9065
"2037",82.43534,297.91992
"2038",82.94072,297.93323
"2039",83.175095,297.94653
"2040",83.17265,297.95984
"2041",83.00908,297.97314
"2042",82.760056,297.98657
"2043",82.49882,297.99988
"2044",82.26444,298.01318
"2045",82.07645,298.0266
"2046",81.934845,298.03992
"2047",81.82498,298.05322
"2048",81.71267,298.06653
"2049",81.57351,298.07983
"2050",81.40017,298.09326
"2051",81.19508,298.10657
"2052",80.9778,298.11987
"2053",80.77028,298.1333
"2054",80.6067,298.1466
"2055",80.49439,298.1599
"2056",80.42115,298.17322
"2057",80.37232,298.18652
"2058",80.32105,298.19995
"2059",80.25269,298.21326
"2060",80.15503,298.22656
"2061",80.03052,298.24
"2062",79.886475,298.2533
"2063",79.72045,298.2666
"2064",79.54467,298.2799
"2065",79.35668,298.2932
"2066",79.17357,298.30664
"2067",78.99779,298.31995
"2068",78.84642,298.33325
"2069",78.72434,298.34668
"2070",78.62913,298.36
"2071",78.55833,298.3733
"2072",78.49729,298.3866
"2073",78.44358,298.3999
"2074",78.38987,298.41333
"2075",78.34104,298.42664
"2076",78.2971,298.43994
"2077",78.26536,298.45337
"2078",78.24094,298.46667
"2079",78.221405,298.47998
"2080",78.20187,298.4933
"2081",78.18234,298.5066
"2082",78.16281,298.52002
"2083",78.135956,298.53333
"2084",78.1091,298.54663
"2085",78.0798,298.56006
"2086",78.05051,298.57336
"2087",78.01633,298.58667
"2088",77.98215,298.59998
"2089",77.95285,298.61328
"2090",77.93088,298.6267
"2091",77.95041,298.64
"2092",78.07004,298.65332
"2093",78.37278,298.66675
"2094",78.907455,298.68005
"2095",79.67895,298.69336
"2096",80.61402,298.70667
"2097",81.583275,298.71997
"2098",82.425575,298.7334
"2099",83.03349,298.7467
"2100",83.36065,298.76
"2101",83.42657,298.77344
"2102",83.302055,298.78674
"2103",83.070114,298.80005
"2104",82.80888,298.81335
"2105",82.564735,298.82666
"2106",82.36942,298.8401
"2107",82.230255,298.8534
"2108",82.125275,298.8667
"2109",82.0325,298.88013
"2110",81.92264,298.89343
"2111",81.77615,298.90674
"2112",81.5906,298.92004
"2113",81.373314,298.93335
"2114",81.15358,298.94678
"2115",80.9485,298.96008
"2116",80.780045,298.9734
"2117",80.65064,298.98682
"2118",80.55543,299.00012
"2119",80.47242,299.01343
"2120",80.39185,299.02673
"2121",80.29908,299.04004
"2122",80.18921,299.05347
"2123",80.05005,299.06677
"2124",79.89136,299.08008
"2125",79.72289,299.0935
"2126",79.54711,299.1068
"2127",79.37377,299.12012
"2128",79.20775,299.13342
"2129",79.05638,299.14673
"2130",78.91966,299.16016
"2131",78.79759,299.17346
"2132",78.695045,299.18677
"2133",78.60471,299.2002
"2134",78.52659,299.2135
"2135",78.46067,299.2268
"2136",78.40452,299.2401
"2137",78.35081,299.25342
"2138",78.30442,299.26685
"2139",78.26536,299.28015
"2140",78.23117,299.29346
"2141",78.20187,299.3069
"2142",78.17258,299.3202
"2143",78.14572,299.3335
"2144",78.12375,299.3468
"2145",78.10422,299.3601
"2146",78.08713,299.37354
"2147",78.07492,299.38684
"2148",78.05783,299.40015
"2149",78.04318,299.41357
"2150",78.02609,299.42688
"2151",78.009,299.4402
"2152",77.996796,299.4535
"2153",77.98459,299.4668
"2154",77.9675,299.48022
"2155",77.95285,299.49353
"2156",77.97238,299.50684
"2157",78.09689,299.52026
"2158",78.41428,299.53357
"2159",78.98314,299.54688
"2160",79.798584,299.56018
"2161",80.78493,299.5735
"2162",81.79813,299.5869
"2163",82.67948,299.60022
"2164",83.30938,299.61353
"2165",83.65362,299.62695
"2166",83.734184,299.64026
"2167",83.614555,299.65356
"2168",83.38018,299.66687
"2169",83.09941,299.68018
"2170",82.82597,299.6936
"2171",82.59159,299.7069
"2172",82.408485,299.7202
"2173",82.266884,299.73364
"2174",82.14969,299.74695
"2175",82.03006,299.76025
"2176",81.883575,299.77356
"2177",81.7029,299.78687
"2178",81.50271,299.8003
"2179",81.29519,299.8136
"2180",81.112076,299.8269
"2181",80.96559,299.84033
"2182",80.85817,299.85364
"2183",80.782486,299.86694
"2184",80.72144,299.88025
"2185",80.655525,299.89355
"2186",80.57252,299.90698
"2187",80.46021,299.9203
"2188",80.325935,299.9336
"2189",80.17212,299.94702
"2190",80.0061,299.96033
"2191",79.835205,299.97363
"2192",79.6643,299.98694
"2193",79.4934,300.00024
"2194",79.33227,300.01367
"2195",79.185776,300.02698
"2196",79.063705,300.04028
"2197",78.958725,300.0537
"2198",78.873276,300.06702
"2199",78.80492,300.08032
"2200",78.75365,300.09363
"2201",78.709694,300.10693
"2202",78.67307,300.12036
"2203",78.64622,300.13367
"2204",78.624245,300.14697
"2205",78.59983,300.1604
"2206",78.57786,300.1737
"2207",78.555885,300.187
"2208",78.53391,300.20032
"2209",78.51194,300.21362
"2210",78.49241,300.22705
"2211",78.47288,300.24036
"2212",78.45335,300.25366
"2213",78.43137,300.2671
"2214",78.40452,300.2804
"2215",78.3679,300.2937
"2216",78.32395,300.307
"2217",78.28001,300.3203
"2218",78.27024,300.33374
"2219",78.348366,300.34705
"2220",78.59251,300.36035
"2221",79.05882,300.37378
"2222",79.75708,300.3871
"2223",80.63111,300.4004
"2224",81.5613,300.4137
"2225",82.39872,300.427
"2226",83.02617,300.44043
"2227",83.38506,300.45374
"2228",83.48028,300.46704
"2229",83.36797,300.48047
"2230",83.12871,300.49377
"2231",82.8333,300.50708
"2232",82.54032,300.5204
"2233",82.28886,300.5337
"2234",82.091095,300.54712
"2235",81.9324,300.56042
"2236",81.7908,300.57373
"2237",81.63943,300.58716
"2238",81.46853,300.60046
"2239",81.28054,300.61377
"2240",81.0901,300.62708
"2241",80.92653,300.64038
"2242",80.80446,300.6538
"2243",80.723885,300.6671
"2244",80.67506,300.68042
"2245",80.638435,300.69385
"2246",80.59693,300.70715
"2247",80.533455,300.72046
"2248",80.445564,300.73376
"2249",80.325935,300.74707
"2250",80.184326,300.7605
"2251",80.025635,300.7738
"2252",79.85718,300.7871
"2253",79.68139,300.80054
"2254",79.50805,300.81384
"2255",79.34203,300.82715
"2256",79.19066,300.84045
"2257",79.05394,300.85376
"2258",78.941635,300.8672
"2259",78.84642,300.8805
"2260",78.75853,300.8938
"2261",78.68528,300.90723
"2262",78.63157,300.92053
"2263",78.590065,300.93384
"2264",78.555885,300.94714
"2265",78.53147,300.96045
"2266",78.51194,300.97388
"2267",78.48997,300.98718
"2268",78.46311,301.0005
"2269",78.44114,301.01392
"2270",78.416725,301.02722
"2271",78.38987,301.04053
"2272",78.363014,301.05383
"2273",78.33372,301.06714
"2274",78.30198,301.08057
"2275",78.27024,301.09387
"2276",78.238495,301.10718
"2277",78.204315,301.1206
"2278",78.170135,301.1339
"2279",78.150604,301.14722
"2280",78.184784,301.16052
"2281",78.345924,301.17383
"2282",78.71702,301.18726
"2283",79.344475,301.20056
"2284",80.2063,301.21387
"2285",81.21217,301.2273
"2286",82.21805,301.2406
"2287",83.06767,301.2539
"2288",83.66094,301.2672
"2289",83.96857,301.28052
"2290",84.01984,301.29395
"2291",83.89288,301.30725
"2292",83.66094,301.32056
"2293",83.40215,301.33398
"2294",83.16533,301.3473
"2295",82.97734,301.3606
"2296",82.8333,301.3739
"2297",82.718544,301.3872
"2298",82.60868,301.40063
"2299",82.48661,301.41394
"2300",82.33036,301.42725
"2301",82.13992,301.44067
"2302",81.9324,301.45398
"2303",81.72732,301.4673
"2304",81.53689,301.4806
"2305",81.373314,301.4939
"2306",81.24391,301.50732
"2307",81.13893,301.52063
"2308",81.04616,301.53394
"2309",80.94362,301.54736
"2310",80.82399,301.56067
"2311",80.68238,301.57397
"2312",80.516365,301.58728
"2313",80.33082,301.6006
"2314",80.13794,301.614
"2315",79.940186,301.62732
"2316",79.742424,301.64062
"2317",79.54955,301.65405
"2318",79.37377,301.66736
"2319",79.21507,301.68066
"2320",79.07591,301.69397
"2321",78.96117,301.70728
"2322",78.86595,301.7207
"2323",78.78294,301.734
"2324",78.70237,301.7473
"2325",78.63401,301.76074
"2326",78.57053,301.77405
"2327",78.5095,301.78735
"2328",78.45335,301.80066
"2329",78.40452,301.81396
"2330",78.35325,301.8274
"2331",78.30442,301.8407
"2332",78.25559,301.854
"2333",78.204315,301.86743
"2334",78.150604,301.88074
"2335",78.099335,301.89404
"2336",78.05295,301.90735
"2337",78.013885,301.92065
"2338",77.98459,301.93408
"2339",77.960175,301.9474
"2340",77.943085,301.9607
"2341",77.925995,301.97412
"2342",77.90158,301.98743
"2343",77.86984,302.00073
"2344",77.83322,302.01404
"2345",77.79904,302.02734
"2346",77.77951,302.04077
"2347",77.81613,302.05408
"2348",77.979706,302.06738
"2349",78.35813,302.0808
"2350",78.99779,302.09412
"2351",79.88159,302.10742
"2352",80.93141,302.12073
"2353",82.005646,302.13403
"2354",82.94072,302.14746
"2355",83.62432,302.16077
"2356",84.01251,302.17407
"2357",84.13214,302.1875
"2358",84.03693,302.2008
"2359",83.809875,302.2141
"2360",83.53399,302.22742
"2361",83.26055,302.24072
"2362",83.035934,302.25415
"2363",82.87236,302.26746
"2364",82.75517,302.28076
"2365",82.65507,302.2942
"2366",82.54032,302.3075
"2367",82.38651,302.3208
"2368",82.19119,302.3341
"2369",81.96658,302.3474
"2370",81.74197,302.36084
"2371",81.54177,302.37415
"2372",81.373314,302.38745
"2373",81.24147,302.40088
"2374",81.13649,302.41418
"2375",81.03883,302.4275
"2376",80.936295,302.4408
"2377",80.814224,302.4541
"2378",80.67017,302.46753
"2379",80.49683,302.48083
"2380",80.30152,302.49414
"2381",80.09155,302.50757
"2382",79.88403,302.52087
"2383",79.68383,302.53418
"2384",79.49584,302.5475
"2385",79.32494,302.5608
"2386",79.168686,302.57422
"2387",79.027084,302.58752
"2388",78.89281,302.60083
"2389",78.77806,302.61426
"2390",78.675514,302.62756
"2391",78.58762,302.64087
"2392",78.51194,302.65417
"2393",78.44602,302.66748
"2394",78.38499,302.6809
"2395",78.32395,302.6942
"2396",78.2678,302.70752
"2397",78.221405,302.72095
"2398",78.184784,302.73425
"2399",78.153046,302.74756
"2400",78.12619,302.76086
"2401",78.09689,302.77417
"2402",78.06271,302.7876
"2403",78.028534,302.8009
"2404",77.994354,302.8142
"2405",77.9675,302.82764
"2406",77.943085,302.84094
"2407",77.92111,302.85425
"2408",77.90158,302.86755
"2409",77.87961,302.88086
"2410",77.85275,302.8943
"2411",77.81369,302.9076
"2412",77.769745,302.9209
"2413",77.74532,302.93433
"2414",77.79904,302.94763
"2415",78.011444,302.96094
"2416",78.45823,302.97424
"2417",79.166245,302.98755
"2418",80.093994,303.00098
"2419",81.126724,303.01428
"2420",82.11551,303.0276
"2421",82.92363,303.04102
"2422",83.46075,303.05432
"2423",83.702446,303.06763
"2424",83.69756,303.08093
"2425",83.5169,303.09424
"2426",83.23857,303.10767
"2427",82.933395,303.12097
"2428",82.65507,303.13428
"2429",82.42069,303.1477
"2430",82.22781,303.161
"2431",82.0618,303.17432
"2432",81.90555,303.18762
"2433",81.73464,303.20093
"2434",81.549095,303.21436
"2435",81.35378,303.22766
"2436",81.17311,303.24097
"2437",81.02174,303.2544
"2438",80.91188,303.2677
"2439",80.8362,303.281
"2440",80.78737,303.2943
"2441",80.73365,303.30762
"2442",80.672615,303.32104
"2443",80.584724,303.33435
"2444",80.46754,303.34766
"2445",80.31861,303.36108
"2446",80.15015,303.3744
"2447",79.96216,303.3877
"2448",79.764404,303.401
"2449",79.569084,303.4143
"2450",79.381096,303.42773
"2451",79.19798,303.44104
"2452",79.027084,303.45435
"2453",78.8806,303.46777
"2454",78.75853,303.48108
"2455",78.660866,303.4944
"2456",78.58518,303.5077
"2457",78.52903,303.521
"2458",78.485085,303.53442
"2459",78.44358,303.54773
"2460",78.40696,303.56104
"2461",78.37278,303.57446
"2462",78.33616,303.58777
"2463",78.30442,303.60107
"2464",78.27024,303.61438
"2465",78.238495,303.6277
"2466",78.204315,303.6411
"2467",78.170135,303.65442
"2468",78.133514,303.66772
"2469",78.09689,303.68115
"2470",78.06271,303.69446
"2471",78.030975,303.70776
"2472",77.99924,303.72107
"2473",77.9675,303.73438
"2474",77.93576,303.7478
"2475",77.91379,303.7611
"2476",77.92355,303.7744
"2477",78.03586,303.78784
"2478",78.328835,303.80115
"2479",78.873276,303.81445
"2480",79.67162,303.82776
"2481",80.65797,303.84106
"2482",81.70046,303.8545
"2483",82.64042,303.8678
"2484",83.353325,303.8811
"2485",83.78302,303.89453
"2486",83.946594,303.90784
"2487",83.90021,303.92114
"2488",83.717094,303.93445
"2489",83.475395,303.94775
"2490",83.22392,303.96118
"2491",83.004196,303.9745
"2492",82.83086,303.9878
"2493",82.69413,304.00122
"2494",82.57694,304.01453
"2495",82.44511,304.02783
"2496",82.27665,304.04114
"2497",82.06424,304.05444
"2498",81.832306,304.06787
"2499",81.600365,304.08118
"2500",81.392845,304.09448
"2501",81.22682,304.1079
"2502",81.10719,304.12122
"2503",81.01198,304.13452
"2504",80.92409,304.14783
"2505",80.82643,304.16113
"2506",80.706795,304.17456
"2507",80.56275,304.18787
"2508",80.39918,304.20117
"2509",80.218506,304.2146
"2510",80.025635,304.2279
"2511",79.82788,304.2412
"2512",79.63012,304.25452
"2513",79.43725,304.26782
"2514",79.26391,304.28125
"2515",79.097885,304.29456
"2516",78.94896,304.30786
"2517",78.81468,304.3213
"2518",78.69749,304.3346
"2519",78.60227,304.3479
"2520",78.52659,304.3612
"2521",78.467995,304.3745
"2522",78.416725,304.38794
"2523",78.37522,304.40125
"2524",78.32639,304.41455
"2525",78.28245,304.42798
"2526",78.238495,304.44128
"2527",78.19455,304.4546
"2528",78.14572,304.4679
"2529",78.09689,304.4812
"2530",78.048065,304.49463
"2531",78.00412,304.50793
"2532",77.960175,304.52124
"2533",77.91867,304.53467
"2534",77.88205,304.54797
"2535",77.85275,304.56128
"2536",77.8259,304.5746
"2537",77.803925,304.5879
"2538",77.77951,304.60132
"2539",77.752655,304.61462
"2540",77.72091,304.62793
"2541",77.69161,304.64136
"2542",77.662315,304.65466
"2543",77.65743,304.66797
"2544",77.72579,304.68127
"2545",77.94797,304.69458
"2546",78.4094,304.708
"2547",79.151596,304.7213
"2548",80.13794,304.73462
"2549",81.26101,304.74805
"2550",82.35966,304.76135
"2551",83.2752,304.77466
"2552",83.914856,304.78796
"2553",84.2591,304.80127
"2554",84.34211,304.8147
"2555",84.23468,304.828
"2556",84.01984,304.8413
"2557",83.76349,304.85474
"2558",83.52178,304.86804
"2559",83.33135,304.88135
"2560",83.20195,304.89465
"2561",83.11406,304.90796
"2562",83.035934,304.9214
"2563",82.93584,304.9347
"2564",82.78935,304.948
"2565",82.58671,304.96143
"2566",82.34745,304.97473
"2567",82.09842,304.98804
"2568",81.86893,305.00134
"2569",81.67361,305.01465
"2570",81.5198,305.02808
"2571",81.39529,305.04138
"2572",81.28542,305.0547
"2573",81.16823,305.0681
"2574",81.03395,305.08142
"2575",80.87038,305.09473
"2576",80.67994,305.10803
"2577",80.47486,305.12134
"2578",80.26246,305.13477
"2579",80.042725,305.14807
"2580",79.83276,305.16138
"2581",79.62768,305.1748
"2582",79.43481,305.1881
"2583",79.24681,305.20142
"2584",79.078354,305.21472
"2585",78.922104,305.22803
"2586",78.785385,305.24146
"2587",78.66819,305.25476
"2588",78.57053,305.26807
"2589",78.48997,305.2815
"2590",78.42161,305.2948
"2591",78.363014,305.3081
"2592",78.30442,305.3214
"2593",78.24582,305.33472
"2594",78.187225,305.34814
"2595",78.12619,305.36145
"2596",78.07004,305.37476
"2597",78.01877,305.38818
"2598",77.9675,305.4015
"2599",77.91867,305.4148
"2600",77.872284,305.4281
"2601",77.8259,305.4414
"2602",77.78195,305.45483
"2603",77.74044,305.46814
"2604",77.70138,305.48145
"2605",77.6672,305.49487
"2606",77.642784,305.50818
"2607",77.628136,305.52148
"2608",77.61837,305.5348
"2609",77.60616,305.5481
"2610",77.59884,305.56152
"2611",77.58907,305.57483
"2612",77.574425,305.58813
"2613",77.56222,305.60156
"2614",77.54757,305.61487
"2615",77.53536,305.62817
"2616",77.55489,305.64148
"2617",77.66476,305.6548
"2618",77.962616,305.6682
"2619",78.521706,305.68152
"2620",79.35668,305.69482
"2621",80.40894,305.70825
"2622",81.55398,305.72156
"2623",82.62821,305.73486
"2624",83.4876,305.74817
"2625",84.05646,305.76147
"2626",84.3299,305.7749
"2627",84.35432,305.7882
"2628",84.2005,305.8015
"2629",83.93927,305.81494
"2630",83.64141,305.82825
"2631",83.36065,305.84155
"2632",83.123825,305.85486
"2633",82.94316,305.86816
"2634",82.80156,305.8816
"2635",82.67704,305.8949
"2636",82.54032,305.9082
"2637",82.36698,305.92163
"2638",82.16434,305.93494
"2639",81.951935,305.94824
"2640",81.75906,305.96155
"2641",81.602806,305.97485
"2642",81.48318,305.98828
"2643",81.392845,306.0016
"2644",81.31228,306.0149
"2645",81.21217,306.02832
"2646",81.08278,306.04163
"2647",80.92409,306.05493
"2648",80.740974,306.06824
"2649",80.533455,306.08154
"2650",80.31861,306.09497
"2651",80.10132,306.10828
"2652",79.888916,306.12158
"2653",79.676506,306.135
"2654",79.47143,306.14832
"2655",79.27856,306.16162
"2656",79.10033,306.17493
"2657",78.93919,306.18823
"2658",78.79515,306.20166
"2659",78.675514,306.21497
"2660",78.572975,306.22827
"2661",78.485085,306.2417
"2662",78.4094,306.255
"2663",78.35081,306.2683
"2664",78.29954,306.28162
"2665",78.25071,306.29492
"2666",78.20187,306.30835
"2667",78.14816,306.32166
"2668",78.08469,306.33496
"2669",78.01633,306.3484
"2670",77.95529,306.3617
"2671",77.8967,306.375
"2672",77.84543,306.3883
"2673",77.79904,306.4016
"2674",77.75754,306.41504
"2675",77.713585,306.42834
"2676",77.67452,306.44165
"2677",77.64034,306.45508
"2678",77.61593,306.46838
"2679",77.60128,306.4817
"2680",77.58907,306.495
"2681",77.576866,306.5083
"2682",77.56222,306.52173
"2683",77.54757,306.53503
"2684",77.53048,306.54834
"2685",77.51339,306.56177
"2686",77.4963,306.57507
"2687",77.49874,306.58838
"2688",77.5671,306.60168
"2689",77.786835,306.615
"2690",78.24338,306.62842
"2691",78.98314,306.64172
"2692",79.97925,306.65503
"2693",81.13405,306.66846
"2694",82.29374,306.68176
"2695",83.29717,306.69507
"2696",84.0296,306.70837
"2697",84.44953,306.72168
"2698",84.58625,306.7351
"2699",84.505684,306.7484
"2700",84.29084,306.76172
"2701",84.02716,306.77515
"2702",83.76837,306.78845
"2703",83.55596,306.80176
"2704",83.39971,306.81506
"2705",83.282524,306.82837
"2706",83.18242,306.8418
"2707",83.070114,306.8551
"2708",82.92119,306.8684
"2709",82.72343,306.88184
"2710",82.48905,306.89514
"2711",82.2449,306.90845
"2712",82.01541,306.92175
"2713",81.815216,306.93506
"2714",81.65652,306.9485
"2715",81.52468,306.9618
"2716",81.40017,306.9751
"2717",81.27322,306.98853
"2718",81.129166,307.00183
"2719",80.96559,307.01514
"2720",80.77516,307.02844
"2721",80.56519,307.04175
"2722",80.3357,307.05518
"2723",80.10132,307.06848
"2724",79.86694,307.0818
"2725",79.63744,307.0952
"2726",79.42748,307.10852
"2727",79.23216,307.12183
"2728",79.05638,307.13513
"2729",78.89769,307.14844
"2730",78.75853,307.16187
"2731",78.63645,307.17517
"2732",78.53147,307.18848
"2733",78.43626,307.2019
"2734",78.35325,307.2152
"2735",78.28001,307.22852
"2736",78.21164,307.24182
"2737",78.14572,307.25513
"2738",78.08713,307.26855
"2739",78.02609,307.28186
"2740",77.960175,307.29517
"2741",77.89426,307.3086
"2742",77.82834,307.3219
"2743",77.76242,307.3352
"2744",77.70138,307.3485
"2745",77.64767,307.36182
"2746",77.5964,307.37524
"2747",77.55001,307.38855
"2748",77.506065,307.40186
"2749",77.471886,307.41528
"2750",77.44259,307.4286
"2751",77.418175,307.4419
"2752",77.39864,307.4552
"2753",77.38644,307.4685
"2754",77.38155,307.48193
"2755",77.383995,307.49524
"2756",77.39376,307.50854
"2757",77.40353,307.52197
"2758",77.40841,307.53528
"2759",77.40841,307.54858
"2760",77.39864,307.5619
"2761",77.38644,307.5752
"2762",77.40353,307.58862
"2763",77.51095,307.60193
"2764",77.80148,307.61523
"2765",78.35325,307.62866
"2766",79.202866,307.64197
"2767",80.30396,307.65527
"2768",81.53689,307.66858
"2769",82.73319,307.6819
"2770",83.734184,307.6953
"2771",84.43488,307.70862
"2772",84.81087,307.72192
"2773",84.90608,307.73535
"2774",84.80354,307.74866
"2775",84.58625,307.76196
"2776",84.332344,307.77527
"2777",84.09796,307.78857
"2778",83.90997,307.802
"2779",83.775696,307.8153
"2780",83.682915,307.8286
"2781",83.60479,307.84204
"2782",83.509575,307.85535
"2783",83.370415,307.86865
"2784",83.17998,307.88196
"2785",82.948044,307.89526
"2786",82.70634,307.9087
"2787",82.48173,307.922
"2788",82.286415,307.9353
"2789",82.127716,307.94873
"2790",81.988556,307.96204
"2791",81.85916,307.97534
"2792",81.71999,307.98865
"2793",81.5613,308.00195
"2794",81.375755,308.01538
"2795",81.16579,308.0287
"2796",80.938736,308.042
"2797",80.69703,308.05542
"2798",80.448006,308.06873
"2799",80.201416,308.08203
"2800",79.95972,308.09534
"2801",79.7351,308.10864
"2802",79.5227,308.12207
"2803",79.33227,308.13538
"2804",79.15892,308.14868
"2805",79.00511,308.1621
"2806",78.86107,308.1754
"2807",78.73899,308.18872
"2808",78.63157,308.20203
"2809",78.54124,308.21533
"2810",78.45823,308.22876
"2811",78.38987,308.24207
"2812",78.32395,308.25537
"2813",78.25315,308.2688
"2814",78.184784,308.2821
"2815",78.12375,308.2954
"2816",78.06271,308.30872
"2817",77.99924,308.32202
"2818",77.9382,308.33545
"2819",77.874725,308.34875
"2820",77.81369,308.36206
"2821",77.75021,308.3755
"2822",77.69405,308.3888
"2823",77.65011,308.4021
"2824",77.61593,308.4154
"2825",77.58907,308.4287
"2826",77.56466,308.44214
"2827",77.54513,308.45544
"2828",77.5256,308.46875
"2829",77.503624,308.48218
"2830",77.47921,308.49548
"2831",77.44991,308.5088
"2832",77.4255,308.5221
"2833",77.42794,308.5354
"2834",77.51827,308.54883
"2835",77.78439,308.56213
"2836",78.30686,308.57544
"2837",79.10765,308.58887
"2838",80.15259,308.60217
"2839",81.322044,308.61548
"2840",82.459755,308.62878
"2841",83.41192,308.6421
"2842",84.088196,308.65552
"2843",84.4593,308.66882
"2844",84.56428,308.68213
"2845",84.47639,308.69556
"2846",84.27131,308.70886
"2847",84.02472,308.72217
"2848",83.78058,308.73547
"2849",83.577934,308.74878
"2850",83.4168,308.7622
"2851",83.284966,308.7755
"2852",83.160446,308.78882
"2853",83.018845,308.80225
"2854",82.83818,308.81555
"2855",82.62821,308.82886
"2856",82.4036,308.84216
"2857",82.19119,308.85547
"2858",82.01053,308.8689
"2859",81.87137,308.8822
"2860",81.761505,308.8955
"2861",81.66384,308.90894
"2862",81.5613,308.92224
"2863",81.43679,308.93555
"2864",81.28054,308.94885
"2865",81.092545,308.96216
"2866",80.87282,308.9756
"2867",80.63111,308.9889
"2868",80.37476,309.0022
"2869",80.11597,309.01562
"2870",79.8645,309.02893
"2871",79.62524,309.04224
"2872",79.40551,309.05554
"2873",79.20775,309.06885
"2874",79.027084,309.08228
"2875",78.86595,309.09558
"2876",78.72434,309.1089
"2877",78.60227,309.1223
"2878",78.49729,309.13562
"2879",78.40452,309.14893
"2880",78.32151,309.16223
"2881",78.238495,309.17554
"2882",78.16037,309.18896
"2883",78.08713,309.20227
"2884",78.02121,309.21558
"2885",77.95529,309.229
"2886",77.88693,309.2423
"2887",77.81369,309.2556
"2888",77.738,309.26892
"2889",77.66964,309.28223
"2890",77.611046,309.29565
"2891",77.56466,309.30896
"2892",77.52071,309.32227
"2893",77.47433,309.3357
"2894",77.4255,309.349
"2895",77.36446,309.3623
"2896",77.30099,309.3756
"2897",77.2546,309.38892
"2898",77.27169,309.40234
"2899",77.42306,309.41565
"2900",77.79172,309.42896
"2901",78.4387,309.44238
"2902",79.35912,309.4557
"2903",80.479744,309.469
"2904",81.66384,309.4823
"2905",82.76494,309.4956
"2906",83.648735,309.50903
"2907",84.24933,309.52234
"2908",84.57404,309.53564
"2909",84.65949,309.54907
"2910",84.58381,309.56238
"2911",84.42512,309.57568
"2912",84.244446,309.589
"2913",84.08331,309.6023
"2914",83.96124,309.61572
"2915",83.87335,309.62903
"2916",83.79767,309.64233
"2917",83.70733,309.65576
"2918",83.56817,309.66907
"2919",83.38018,309.68237
"2920",83.140915,309.69568
"2921",82.8748,309.70898
"2922",82.6038,309.7224
"2923",82.35233,309.73572
"2924",82.125275,309.74902
"2925",81.92752,309.76245
"2926",81.75418,309.77576
"2927",81.5906,309.78906
"2928",81.4197,309.80237
"2929",81.22682,309.81567
"2930",81.00221,309.8291
"2931",80.74586,309.8424
"2932",80.465096,309.8557
"2933",80.17456,309.86914
"2934",79.886475,309.88245
"2935",79.605705,309.89575
"2936",79.34203,309.90906
"2937",79.097885,309.92236
"2938",78.870834,309.9358
"2939",78.66575,309.9491
"2940",78.4802,309.9624
"2941",78.311745,309.97583
"2942",78.16525,309.98914
"2943",78.03586,310.00244
"2944",77.92111,310.01575
"2945",77.81613,310.02905
"2946",77.71603,310.04248
"2947",77.62081,310.0558
"2948",77.53048,310.0691
"2949",77.44015,310.08252
"2950",77.3547,310.09583
"2951",77.27169,310.10913
"2952",77.19356,310.12244
"2953",77.120316,310.13574
"2954",77.0544,310.14917
"2955",76.98848,310.16248
"2956",76.929886,310.17578
"2957",76.87373,310.1892
"2958",76.824905,310.2025
"2959",76.7834,310.21582
"2960",76.74189,310.22913
"2961",76.700386,310.24243
"2962",76.65888,310.25586
"2963",76.65156,310.26917
"2964",76.74189,310.28247
"2965",77.02266,310.2959
"2966",77.57198,310.3092
"2967",78.41428,310.3225
"2968",79.50317,310.33582
"2969",80.71412,310.34912
"2970",81.89334,310.36255
"2971",82.89189,310.37585
"2972",83.617,310.38916
"2973",84.04669,310.4026
"2974",84.224915,310.4159
"2975",84.21759,310.4292
"2976",84.11017,310.4425
"2977",83.97101,310.4558
"2978",83.84161,310.46924
"2979",83.74883,310.48254
"2980",83.6878,310.49585
"2981",83.63653,310.50928
"2982",83.563286,310.52258
"2983",83.438774,310.5359
"2984",83.24101,310.5492
"2985",82.97246,310.5625
"2986",82.66483,310.57593
"2987",82.34989,310.58923
"2988",82.05936,310.60254
"2989",81.80789,310.61597
"2990",81.59792,310.62927
"2991",81.41482,310.64258
"2992",81.24147,310.65588
"2993",81.06569,310.6692
"2994",80.87526,310.68262
"2995",80.66529,310.69592
"2996",80.430916,310.70923
"2997",80.17456,310.72266
"2998",79.89624,310.73596
"2999",79.605705,310.74927
"3000",79.31762,310.76257
"3001",79.04173,310.77588
"3002",78.77806,310.7893
"3003",78.538795,310.8026
"3004",78.32151,310.81592
"3005",78.133514,310.82935
"3006",77.962616,310.84265
"3007",77.81369,310.85596
"3008",77.68673,310.86926
"3009",77.56954,310.88257
"3010",77.46212,310.896
"3011",77.35958,310.9093
"3012",77.26925,310.9226
"3013",77.18135,310.93604
"3014",77.103226,310.94934
"3015",77.03487,310.96265
"3016",76.97383,310.97595
"3017",76.91768,310.98926
"3018",76.86397,311.0027
"3019",76.81514,311.016
"3020",76.76631,311.0293
"3021",76.71992,311.04272
"3022",76.67841,311.05603
"3023",76.64179,311.06934
"3024",76.60517,311.08264
"3025",76.57099,311.09595
"3026",76.544136,311.10938
"3027",76.50996,311.12268
"3028",76.473335,311.136
"3029",76.44404,311.1494
"3030",76.46357,311.16272
"3031",76.58564,311.17603
"3032",76.90059,311.18933
"3033",77.47677,311.20264
"3034",78.33616,311.21606
"3035",79.415276,311.22937
"3036",80.584724,311.24268
"3037",81.69314,311.2561
"3038",82.59159,311.2694
"3039",83.20195,311.2827
"3040",83.51934,311.29602
"3041",83.597466,311.30933
"3042",83.51446,311.32275
"3043",83.346,311.33606
"3044",83.158005,311.34937
"3045",82.98955,311.3628
"3046",82.85771,311.3761
"3047",82.7625,311.3894
"3048",82.6746,311.4027
"3049",82.562294,311.41602
"3050",82.408485,311.42944
"3051",82.20096,311.44275
"3052",81.95438,311.45605
"3053",81.69802,311.46948
"3054",81.461205,311.4828
"3055",81.26101,311.4961
"3056",81.09987,311.5094
"3057",80.970474,311.5227
"3058",80.85329,311.53613
"3059",80.73365,311.54944
"3060",80.59205,311.56274
"3061",80.430916,311.57617
"3062",80.24048,311.58948
"3063",80.025635,311.60278
"3064",79.7937,311.6161
"3065",79.54955,311.6294
"3066",79.30297,311.64282
"3067",79.05882,311.65613
"3068",78.82933,311.66943
"3069",78.61936,311.68286
"3070",78.433815,311.69617
"3071",78.27512,311.70947
"3072",78.14084,311.72278
"3073",78.028534,311.73608
"3074",77.92844,311.7495
"3075",77.838104,311.76282
"3076",77.75754,311.77612
"3077",77.68185,311.78955
"3078",77.608604,311.80286
"3079",77.54513,311.81616
"3080",77.488976,311.82947
"3081",77.44015,311.84277
"3082",77.39132,311.8562
"3083",77.349815,311.8695
"3084",77.31075,311.8828
"3085",77.27169,311.89624
"3086",77.23262,311.90955
"3087",77.19356,311.92285
"3088",77.15694,311.93616
"3089",77.12276,311.94946
"3090",77.08858,311.9629
"3091",77.05928,311.9762
"3092",77.032425,311.9895
"3093",77.01778,312.00293
"3094",77.04463,312.01624
"3095",77.17403,312.02954
"3096",77.49874,312.04285
"3097",78.07248,312.05615
"3098",78.905014,312.06958
"3099",79.94263,312.0829
"3100",81.058365,312.0962
"3101",82.091095,312.10962
"3102",82.91875,312.12292
"3103",83.46807,312.13623
"3104",83.74395,312.14954
"3105",83.792786,312.16284
"3106",83.69756,312.17627
"3107",83.53887,312.18958
"3108",83.372856,312.20288
"3109",83.23613,312.2163
"3110",83.13847,312.2296
"3111",83.072556,312.24292
"3112",83.01152,312.25623
"3113",82.92119,312.26953
"3114",82.77959,312.28296
"3115",82.57206,312.29626
"3116",82.30595,312.30957
"3117",82.01541,312.323
"3118",81.72976,312.3363
"3119",81.480736,312.3496
"3120",81.2781,312.3629
"3121",81.11696,312.37622
"3122",80.9778,312.38965
"3123",80.848404,312.40295
"3124",80.709236,312.41626
"3125",80.54566,312.4297
"3126",80.35523,312.443
"3127",80.1355,312.4563
"3128",79.89868,312.4696
"3129",79.64721,312.4829
"3130",79.398186,312.49634
"3131",79.166245,312.50964
"3132",78.9514,312.52295
"3133",78.75365,312.53638
"3134",78.5803,312.54968
"3135",78.42649,312.563
"3136",78.28733,312.5763
"3137",78.16525,312.5896
"3138",78.06271,312.60303
"3139",77.97238,312.61633
"3140",77.89426,312.62964
"3141",77.81857,312.64307
"3142",77.747765,312.65637
"3143",77.67452,312.66968
"3144",77.60128,312.68298
"3145",77.53292,312.6963
"3146",77.47433,312.70972
"3147",77.42794,312.72302
"3148",77.38888,312.73633
"3149",77.35226,312.74976
"3150",77.315636,312.76306
"3151",77.279015,312.77637
"3152",77.24971,312.78967
"3153",77.22774,312.80298
"3154",77.21309,312.8164
"3155",77.19844,312.8297
"3156",77.19112,312.84302
"3157",77.18379,312.85645
"3158",77.17647,312.86975
"3159",77.1667,312.88306
"3160",77.15938,312.89636
"3161",77.14473,312.90967
"3162",77.13252,312.9231
"3163",77.1252,312.9364
"3164",77.171585,312.9497
"3165",77.33761,312.96313
"3166",77.713585,312.97644
"3167",78.365456,312.98975
"3168",79.290764,313.00305
"3169",80.42359,313.01636
"3170",81.62234,313.0298
"3171",82.718544,313.0431
"3172",83.57549,313.0564
"3173",84.122375,313.06982
"3174",84.37385,313.08313
"3175",84.3885,313.09644
"3176",84.25666,313.10974
"3177",84.05646,313.12305
"3178",83.8587,313.13647
"3179",83.69512,313.14978
"3180",83.57549,313.1631
"3181",83.49493,313.1765
"3182",83.43633,313.18982
"3183",83.36553,313.20312
"3184",83.250786,313.21643
"3185",83.07744,313.22974
"3186",82.84306,313.24316
"3187",82.5745,313.25647
"3188",82.29862,313.26978
"3189",82.05203,313.2832
"3190",81.849396,313.2965
"3191",81.685814,313.3098
"3192",81.54665,313.32312
"3193",81.41482,313.33643
"3194",81.27322,313.34985
"3195",81.109634,313.36316
"3196",80.91676,313.37646
"3197",80.70435,313.3899
"3198",80.46998,313.4032
"3199",80.22339,313.4165
"3200",79.97681,313.4298
"3201",79.7351,313.4431
"3202",79.50805,313.45654
"3203",79.29565,313.46985
"3204",79.10033,313.48315
"3205",78.924545,313.49658
"3206",78.77562,313.5099
"3207",78.64866,313.5232
"3208",78.536354,313.5365
"3209",78.43626,313.5498
"3210",78.345924,313.56323
"3211",78.25803,313.57654
"3212",78.17746,313.58984
"3213",78.1091,313.60327
"3214",78.05051,313.61658
"3215",77.996796,313.62988
"3216",77.943085,313.6432
"3217",77.88937,313.6565
"3218",77.82834,313.66992
"3219",77.7673,313.68323
"3220",77.70626,313.69653
"3221",77.65499,313.70996
"3222",77.608604,313.72327
"3223",77.5671,313.73657
"3224",77.53048,313.74988
"3225",77.503624,313.76318
"3226",77.47921,313.7766
"3227",77.46212,313.78992
"3228",77.452354,313.80322
"3229",77.44747,313.81665
"3230",77.44503,313.82996
"3231",77.44503,313.84326
"3232",77.435265,313.85657
"3233",77.42306,313.86987
"3234",77.40841,313.8833
"3235",77.40841,313.8966
"3236",77.46456,313.9099
"3237",77.65743,313.92334
"3238",78.07004,313.93665
"3239",78.75365,313.94995
"3240",79.691154,313.96326
"3241",80.79469,313.97656
"3242",81.92996,313.99
"3243",82.930954,314.0033
"3244",83.67071,314.0166
"3245",84.105286,314.03003
"3246",84.24933,314.04333
"3247",84.16144,314.05664
"3248",83.93683,314.06995
"3249",83.6585,314.08325
"3250",83.39239,314.09668
"3251",83.17021,314.11
"3252",83.004196,314.1233
"3253",82.87724,314.13672
"3254",82.7625,314.15002
"3255",82.62821,314.16333
"3256",82.45487,314.17664
"3257",82.2449,314.18994
"3258",82.00809,314.20337
"3259",81.77371,314.21667
"3260",81.57107,314.22998
"3261",81.40749,314.2434
"3262",81.28542,314.2567
"3263",81.18776,314.27002
"3264",81.092545,314.28333
"3265",80.98268,314.29663
"3266",80.85329,314.31006
"3267",80.69703,314.32336
"3268",80.51392,314.33667
"3269",80.30152,314.3501
"3270",80.07446,314.3634
"3271",79.83765,314.3767
"3272",79.603264,314.39
"3273",79.381096,314.40332
"3274",79.17845,314.41675
"3275",79.00267,314.43005
"3276",78.84886,314.44336
"3277",78.71702,314.4568
"3278",78.59983,314.4701
"3279",78.49729,314.4834
"3280",78.4094,314.4967
"3281",78.331276,314.51
"3282",78.2678,314.52344
"3283",78.20676,314.53674
"3284",78.14816,314.55005
"3285",78.09201,314.56348
"3286",78.05051,314.57678
"3287",78.013885,314.5901
"3288",77.979706,314.6034
"3289",77.94797,314.6167
"3290",77.91135,314.63013
"3291",77.86984,314.64343
"3292",77.823456,314.65674
"3293",77.77707,314.67017
"3294",77.738,314.68347
"3295",77.70138,314.69678
"3296",77.6672,314.71008
"3297",77.63302,314.7234
"3298",77.60616,314.73682
"3299",77.58175,314.75012
"3300",77.55489,314.76343
"3301",77.523155,314.77686
"3302",77.4963,314.79016
"3303",77.48409,314.80347
"3304",77.53536,314.81677
"3305",77.72579,314.83008
"3306",78.1384,314.8435
"3307",78.82201,314.8568
"3308",79.76929,314.87012
"3309",80.88014,314.88354
"3310",82.003204,314.89685
"3311",82.97734,314.91016
"3312",83.67803,314.92346
"3313",84.0589,314.93677
"3314",84.159,314.9502
"3315",84.054016,314.9635
"3316",83.82941,314.9768
"3317",83.560844,314.99023
"3318",83.3045,315.00354
"3319",83.08232,315.01685
"3320",82.90898,315.03015
"3321",82.777145,315.04346
"3322",82.667274,315.0569
"3323",82.55253,315.0702
"3324",82.4036,315.0835
"3325",82.210724,315.09692
"3326",81.971466,315.11023
"3327",81.71755,315.12354
"3328",81.480736,315.13684
"3329",81.28298,315.15015
"3330",81.13405,315.16357
"3331",81.02174,315.17688
"3332",80.92653,315.1902
"3333",80.82399,315.2036
"3334",80.70191,315.21692
"3335",80.550545,315.23022
"3336",80.37476,315.24353
"3337",80.17944,315.25684
"3338",79.974365,315.27026
"3339",79.764404,315.28357
"3340",79.551994,315.29688
"3341",79.33959,315.3103
"3342",79.13939,315.3236
"3343",78.95628,315.3369
"3344",78.79271,315.35022
"3345",78.65598,315.36353
"3346",78.54368,315.37695
"3347",78.44846,315.39026
"3348",78.3679,315.40356
"3349",78.2971,315.417
"3350",78.23361,315.4303
"3351",78.1799,315.4436
"3352",78.13107,315.4569
"3353",78.08713,315.4702
"3354",78.048065,315.48364
"3355",78.011444,315.49695
"3356",77.96994,315.51025
"3357",77.93332,315.52368
"3358",77.90158,315.537
"3359",77.86496,315.5503
"3360",77.82834,315.5636
"3361",77.789276,315.5769
"3362",77.752655,315.59033
"3363",77.71603,315.60364
"3364",77.68429,315.61694
"3365",77.662315,315.63037
"3366",77.65011,315.64368
"3367",77.6379,315.65698
"3368",77.62081,315.6703
"3369",77.5964,315.6836
"3370",77.56954,315.69702
"3371",77.54757,315.71033
"3372",77.52804,315.72363
"3373",77.52804,315.73706
"3374",77.58907,315.75037
"3375",77.789276,315.76367
"3376",78.221405,315.77698
"3377",78.93431,315.79028
"3378",79.91333,315.8037
"3379",81.06081,315.81702
"3380",82.21805,315.83032
"3381",83.20683,315.84375
"3382",83.91974,315.85706
"3383",84.31281,315.87036
"3384",84.41291,315.88367
"3385",84.2884,315.89697
"3386",84.03204,315.9104
"3387",83.72198,315.9237
"3388",83.4168,315.937
"3389",83.16289,315.95044
"3390",82.97734,315.96375
"3391",82.847946,315.97705
"3392",82.7454,315.99036
"3393",82.64286,316.00366
"3394",82.50858,316.0171
"3395",82.33036,316.0304
"3396",82.11307,316.0437
"3397",81.883575,316.05713
"3398",81.65896,316.07043
"3399",81.461205,316.08374
"3400",81.30251,316.09705
"3401",81.18288,316.11035
"3402",81.08278,316.12378
"3403",80.99489,316.1371
"3404",80.902115,316.1504
"3405",80.78737,316.16382
"3406",80.64088,316.17712
"3407",80.465096,316.19043
"3408",80.26978,316.20374
"3409",80.0647,316.21704
"3410",79.852295,316.23047
"3411",79.64965,316.24377
"3412",79.45922,316.25708
"3413",79.28344,316.2705
"3414",79.12718,316.2838
"3415",78.992905,316.29712
"3416",78.87572,316.31042
"3417",78.77318,316.32373
"3418",78.68284,316.33716
"3419",78.60471,316.35046
"3420",78.538795,316.36377
"3421",78.487526,316.3772
"3422",78.45335,316.3905
"3423",78.42893,316.4038
"3424",78.40696,316.4171
"3425",78.382545,316.43042
"3426",78.35569,316.44385
"3427",78.32151,316.45715
"3428",78.28489,316.47046
"3429",78.24582,316.4839
"3430",78.21164,316.4972
"3431",78.187225,316.5105
"3432",78.16525,316.5238
"3433",78.14084,316.5371
"3434",78.11398,316.55054
"3435",78.07736,316.56384
"3436",78.02365,316.57715
"3437",77.9675,316.59058
"3438",77.93088,316.60388
"3439",77.95773,316.6172
"3440",78.13107,316.6305
"3441",78.53147,316.6438
"3442",79.200424,316.65723
"3443",80.111084,316.67053
"3444",81.163345,316.68384
"3445",82.213165,316.69727
"3446",83.09941,316.71057
"3447",83.72198,316.72388
"3448",84.04425,316.73718
"3449",84.105286,316.7505
"3450",83.96857,316.76392
"3451",83.70733,316.77722
"3452",83.39727,316.79053
"3453",83.087204,316.80396
"3454",82.81621,316.81726
"3455",82.59647,316.83057
"3456",82.42069,316.84387
"3457",82.269325,316.85718
"3458",82.11551,316.8706
"3459",81.94705,316.8839
"3460",81.761505,316.89722
"3461",81.57595,316.91064
"3462",81.40505,316.92395
"3463",81.26589,316.93726
"3464",81.15846,316.95056
"3465",81.08522,316.96387
"3466",81.02663,316.9773
"3467",80.96803,316.9906
"3468",80.88991,317.0039
"3469",80.78493,317.01733
"3470",80.64088,317.03064
"3471",80.46021,317.04395
"3472",80.26002,317.05725
"3473",80.042725,317.07056
"3474",79.82544,317.08398
"3475",79.61547,317.0973
"3476",79.4226,317.1106
"3477",79.24681,317.12402
"3478",79.09544,317.13733
"3479",78.96361,317.15063
"3480",78.856186,317.16394
"3481",78.76341,317.17725
"3482",78.68772,317.19067
"3483",78.624245,317.20398
"3484",78.572975,317.2173
"3485",78.52903,317.2307
"3486",78.49241,317.24402
"3487",78.46311,317.25732
"3488",78.44114,317.27063
"3489",78.42161,317.28394
"3490",78.40208,317.29736
"3491",78.380104,317.31067
"3492",78.35325,317.32397
"3493",78.31663,317.3374
"3494",78.27024,317.3507
"3495",78.21408,317.364
"3496",78.15793,317.37732
"3497",78.118866,317.39062
"3498",78.14572,317.40405
"3499",78.31907,317.41736
"3500",78.71458,317.43066
"3501",79.37133,317.4441
"3502",80.26002,317.4574
"3503",81.28542,317.4707
"3504",82.30595,317.484
"3505",83.177536,317.4973
"3506",83.792786,317.51074
"3507",84.12726,317.52405
"3508",84.21759,317.53735
"3509",84.13458,317.55078
"3510",83.95148,317.5641
"3511",83.72442,317.5774
"3512",83.509575,317.5907
"3513",83.32403,317.604
"3514",83.175095,317.61743
"3515",83.05058,317.63074
"3516",82.933395,317.64404
"3517",82.80156,317.65747
"3518",82.633095,317.67078
"3519",82.42069,317.68408
"3520",82.18387,317.6974
"3521",81.95682,317.7107
"3522",81.761505,317.72412
"3523",81.61013,317.73743
"3524",81.49294,317.75073
"3525",81.40017,317.76416
"3526",81.307396,317.77747
"3527",81.197525,317.79077
"3528",81.06325,317.80408
"3529",80.89723,317.81738
"3530",80.70435,317.8308
"3531",80.48463,317.84412
"3532",80.25025,317.85742
"3533",80.01343,317.87085
"3534",79.78882,317.88416
"3535",79.58129,317.89746
"3536",79.3933,317.91077
"3537",79.22728,317.92407
"3538",79.07591,317.9375
"3539",78.93431,317.9508
"3540",78.79759,317.9641
"3541",78.677956,317.97754
"3542",78.5803,317.99084
"3543",78.504616,318.00415
"3544",78.44602,318.01746
"3545",78.40208,318.03076
"3546",78.363014,318.0442
"3547",78.32395,318.0575
"3548",78.28001,318.0708
"3549",78.23117,318.08423
"3550",78.17746,318.09753
"3551",78.12619,318.11084
"3552",78.0676,318.12415
"3553",78.00168,318.13745
"3554",77.93576,318.15088
"3555",77.8674,318.16418
"3556",77.7966,318.1775
"3557",77.730675,318.19092
"3558",77.70382,318.20422
"3559",77.78195,318.21753
"3560",78.05051,318.23083
"3561",78.57053,318.24414
"3562",79.35424,318.25757
"3563",80.34058,318.27087
"3564",81.40749,318.28418
"3565",82.39872,318.2976
"3566",83.18242,318.3109
"3567",83.685356,318.32422
"3568",83.914856,318.33752
"3569",83.91974,318.35083
"3570",83.775696,318.36426
"3571",83.563286,318.37756
"3572",83.346,318.39087
"3573",83.16777,318.4043
"3574",83.04082,318.4176
"3575",82.95293,318.4309
"3576",82.8748,318.4442
"3577",82.77226,318.45752
"3578",82.62089,318.47095
"3579",82.408485,318.48425
"3580",82.14725,318.49756
"3581",81.8616,318.511
"3582",81.58816,318.5243
"3583",81.35378,318.5376
"3584",81.16579,318.5509
"3585",81.01686,318.5642
"3586",80.89723,318.57764
"3587",80.780045,318.59094
"3588",80.64332,318.60425
"3589",80.4773,318.61768
"3590",80.28687,318.63098
"3591",80.07446,318.6443
"3592",79.852295,318.6576
"3593",79.62524,318.6709
"3594",79.40063,318.68433
"3595",79.18089,318.69763
"3596",78.9807,318.71094
"3597",78.79759,318.72437
"3598",78.63401,318.73767
"3599",78.48997,318.75098
"3600",78.35813,318.76428
"3601",78.238495,318.7776
"3602",78.13107,318.79102
"3603",78.03342,318.80432
"3604",77.95285,318.81763
"3605",77.88693,318.83105
"3606",77.83078,318.84436
"3607",77.78195,318.85767
"3608",77.73556,318.87097
"3609",77.68917,318.88428
"3610",77.645226,318.8977
"3611",77.60128,318.911
"3612",77.557335,318.92432
"3613",77.51827,318.93774
"3614",77.48409,318.95105
"3615",77.44259,318.96436
"3616",77.38888,318.97766
"3617",77.330284,318.99097
"3618",77.281456,319.0044
"3619",77.281456,319.0177
"3620",77.40841,319.031
"3621",77.74288,319.04443
"3622",78.32639,319.05774
"3623",79.13695,319.07104
"3624",80.09155,319.08435
"3625",81.05104,319.09766
"3626",81.86893,319.11108
"3627",82.44022,319.1244
"3628",82.735634,319.1377
"3629",82.794235,319.15112
"3630",82.684364,319.16443
"3631",82.47929,319.17773
"3632",82.25712,319.19104
"3633",82.05936,319.20435
"3634",81.90311,319.21777
"3635",81.79324,319.23108
"3636",81.70779,319.2444
"3637",81.61501,319.2578
"3638",81.48562,319.27112
"3639",81.31472,319.28442
"3640",81.112076,319.29773
"3641",80.88991,319.31104
"3642",80.68482,319.32446
"3643",80.51392,319.33777
"3644",80.39185,319.35107
"3645",80.30396,319.3645
"3646",80.235596,319.3778
"3647",80.16724,319.3911
"3648",80.08667,319.40442
"3649",79.97925,319.41772
"3650",79.84009,319.43115
"3651",79.67895,319.44446
"3652",79.50317,319.45776
"3653",79.31274,319.4712
"3654",79.114975,319.4845
"3655",78.91966,319.4978
"3656",78.73655,319.5111
"3657",78.572975,319.5244
"3658",78.4387,319.53784
"3659",78.328835,319.55115
"3660",78.24338,319.56445
"3661",78.17746,319.57788
"3662",78.12131,319.5912
"3663",78.07248,319.6045
"3664",78.03586,319.6178
"3665",78.00168,319.6311
"3666",77.97482,319.64453
"3667",77.95041,319.65784
"3668",77.92844,319.67114
"3669",77.90646,319.68457
"3670",77.88449,319.69788
"3671",77.85275,319.71118
"3672",77.81369,319.7245
"3673",77.7673,319.7378
"3674",77.71114,319.75122
"3675",77.65255,319.76453
"3676",77.61593,319.77783
"3677",77.642784,319.79126
"3678",77.7966,319.80457
"3679",78.150604,319.81787
"3680",78.73167,319.83118
"3681",79.51293,319.84448
"3682",80.40894,319.8579
"3683",81.29519,319.87122
"3684",82.0325,319.88452
"3685",82.53544,319.89795
"3686",82.78203,319.91125
"3687",82.80888,319.92456
"3688",82.68925,319.93787
"3689",82.5037,319.95117
"3690",82.31327,319.9646
"3691",82.15457,319.9779
"3692",82.04227,319.9912
"3693",81.9617,320.00464
"3694",81.8909,320.01794
"3695",81.80545,320.03125
"3696",81.67605,320.04456
"3697",81.495384,320.05786
"3698",81.26833,320.0713
"3699",81.0193,320.0846
"3700",80.78493,320.0979
"3701",80.59449,320.11133
"3702",80.46021,320.12463
"3703",80.37232,320.13794
"3704",80.306404,320.15125
"3705",80.24292,320.16455
"3706",80.15991,320.17798
"3707",80.045166,320.19128
"3708",79.89868,320.2046
"3709",79.73266,320.21802
"3710",79.54955,320.23132
"3711",79.36645,320.24463
"3712",79.185776,320.25793
"3713",79.01732,320.27124
"3714",78.86839,320.28467
"3715",78.73655,320.29797
"3716",78.624245,320.31128
"3717",78.52659,320.3247
"3718",78.44358,320.338
"3719",78.37278,320.35132
"3720",78.3093,320.36462
"3721",78.25315,320.37793
"3722",78.2092,320.39136
"3723",78.170135,320.40466
"3724",78.133514,320.41797
"3725",78.10422,320.4314
"3726",78.07492,320.4447
"3727",78.04562,320.458
"3728",78.013885,320.4713
"3729",77.979706,320.48462
"3730",77.95041,320.49805
"3731",77.925995,320.51135
"3732",77.90646,320.52466
"3733",77.88693,320.5381
"3734",77.86984,320.5514
"3735",77.85031,320.5647
"3736",77.83322,320.578
"3737",77.81125,320.5913
"3738",77.789276,320.60474
"3739",77.7673,320.61804
"3740",77.747765,320.63135
"3741",77.75998,320.64478
"3742",77.86252,320.65808
"3743",78.133514,320.6714
"3744",78.63889,320.6847
"3745",79.38598,320.698
"3746",80.32105,320.71143
"3747",81.322044,320.72473
"3748",82.23758,320.73804
"3749",82.93828,320.75146
"3750",83.36797,320.76477
"3751",83.53155,320.77808
"3752",83.49737,320.79138
"3753",83.34844,320.8047
"3754",83.16289,320.8181
"3755",82.99199,320.83142
"3756",82.86748,320.84473
"3757",82.78203,320.85815
"3758",82.718544,320.87146
"3759",82.652626,320.88477
"3760",82.562294,320.89807
"3761",82.423134,320.91138
"3762",82.22781,320.9248
"3763",81.98367,320.9381
"3764",81.70779,320.95142
"3765",81.43923,320.96484
"3766",81.20973,320.97815
"3767",81.03151,320.99146
"3768",80.89723,321.00476
"3769",80.797134,321.01807
"3770",80.709236,321.0315
"3771",80.61158,321.0448
"3772",80.49195,321.0581
"3773",80.35279,321.07153
"3774",80.19653,321.08484
"3775",80.01587,321.09814
"3776",79.823,321.11145
"3777",79.62768,321.12476
"3778",79.43969,321.13818
"3779",79.26635,321.1515
"3780",79.11253,321.1648
"3781",78.975815,321.17822
"3782",78.856186,321.19153
"3783",78.75365,321.20483
"3784",78.66575,321.21814
"3785",78.590065,321.23145
"3786",78.521706,321.24487
"3787",78.46311,321.25818
"3788",78.41917,321.27148
"3789",78.382545,321.2849
"3790",78.345924,321.29822
"3791",78.314186,321.31152
"3792",78.28001,321.32483
"3793",78.24094,321.33813
"3794",78.19943,321.35156
"3795",78.153046,321.36487
"3796",78.1091,321.37817
"3797",78.07492,321.3916
"3798",78.05051,321.4049
"3799",78.028534,321.4182
"3800",78.011444,321.43152
"3801",78.00168,321.44482
"3802",77.99924,321.45825
"3803",77.996796,321.47156
"3804",77.996796,321.48486
"3805",77.99191,321.4983
"3806",77.98459,321.5116
"3807",77.962616,321.5249
"3808",77.93088,321.5382
"3809",77.908905,321.5515
"3810",77.93576,321.56494
"3811",78.07248,321.57825
"3812",78.39231,321.59155
"3813",78.94896,321.60498
"3814",79.73022,321.6183
"3815",80.67506,321.6316
"3816",81.64675,321.6449
"3817",82.50126,321.6582
"3818",83.12138,321.67163
"3819",83.46319,321.68494
"3820",83.546196,321.69824
"3821",83.43633,321.71167
"3822",83.2166,321.72498
"3823",82.967575,321.73828
"3824",82.74052,321.7516
"3825",82.564735,321.7649
"3826",82.442665,321.77832
"3827",82.3621,321.79163
"3828",82.2913,321.80493
"3829",82.19119,321.81836
"3830",82.04471,321.83167
"3831",81.846954,321.84497
"3832",81.61501,321.85828
"3833",81.3782,321.87158
"3834",81.17311,321.885
"3835",81.0193,321.89832
"3836",80.919205,321.91162
"3837",80.85329,321.92505
"3838",80.79225,321.93835
"3839",80.71656,321.95166
"3840",80.61402,321.96497
"3841",80.47242,321.97827
"3842",80.29908,321.9917
"3843",80.113525,322.005
"3844",79.92798,322.0183
"3845",79.744865,322.03174
"3846",79.56664,322.04504
"3847",79.40307,322.05835
"3848",79.24925,322.07166
"3849",79.114975,322.08496
"3850",78.99779,322.0984
"3851",78.905014,322.1117
"3852",78.83421,322.125
"3853",78.77806,322.13843
"3854",78.72678,322.15173
"3855",78.67307,322.16504
"3856",78.624245,322.17834
"3857",78.572975,322.19165
"3858",78.52903,322.20508
"3859",78.487526,322.21838
"3860",78.44846,322.2317
"3861",78.41428,322.24512
"3862",78.382545,322.25842
"3863",78.35081,322.27173
"3864",78.31663,322.28503
"3865",78.28245,322.29834
"3866",78.24582,322.31177
"3867",78.204315,322.32507
"3868",78.16281,322.33838
"3869",78.12863,322.3518
"3870",78.101776,322.3651
"3871",78.07736,322.37842
"3872",78.05051,322.39172
"3873",78.02609,322.40503
"3874",78.02609,322.41846
"3875",78.118866,322.43176
"3876",78.38743,322.44507
"3877",78.89769,322.4585
"3878",79.65942,322.4718
"3879",80.604256,322.4851
"3880",81.59304,322.4984
"3881",82.47196,322.51172
"3882",83.11406,322.52515
"3883",83.47051,322.53845
"3884",83.56573,322.55176
"3885",83.47051,322.5652
"3886",83.27276,322.5785
"3887",83.04326,322.5918
"3888",82.83574,322.6051
"3889",82.6746,322.6184
"3890",82.55741,322.63184
"3891",82.476845,322.64514
"3892",82.39872,322.65845
"3893",82.29862,322.67188
"3894",82.15701,322.68518
"3895",81.96414,322.6985
"3896",81.73708,322.7118
"3897",81.497826,322.7251
"3898",81.27322,322.73853
"3899",81.08522,322.75183
"3900",80.94606,322.76514
"3901",80.83864,322.77856
"3902",80.74586,322.79187
"3903",80.6482,322.80518
"3904",80.54566,322.81848
"3905",80.42603,322.8318
"3906",80.291756,322.8452
"3907",80.147705,322.85852
"3908",79.98657,322.87183
"3909",79.80347,322.88525
"3910",79.60082,322.89856
"3911",79.3933,322.91187
"3912",79.200424,322.92517
"3913",79.03197,322.93848
"3914",78.89769,322.9519
"3915",78.79027,322.9652
"3916",78.70237,322.97852
"3917",78.62913,322.99194
"3918",78.56565,323.00525
"3919",78.504616,323.01855
"3920",78.450905,323.03186
"3921",78.40696,323.04517
"3922",78.365456,323.0586
"3923",78.32151,323.0719
"3924",78.27512,323.0852
"3925",78.23117,323.09863
"3926",78.184784,323.11194
"3927",78.14084,323.12524
"3928",78.09689,323.13855
"3929",78.05539,323.15186
"3930",78.00656,323.16528
"3931",77.95285,323.1786
"3932",77.90402,323.1919
"3933",77.86252,323.20532
"3934",77.83322,323.21863
"3935",77.81369,323.23193
"3936",77.80881,323.24524
"3937",77.80881,323.25854
"3938",77.80881,323.27197
"3939",77.806366,323.28528
"3940",77.7966,323.29858
"3941",77.78439,323.312
"3942",77.769745,323.32532
"3943",77.75998,323.33862
"3944",77.76242,323.35193
"3945",77.8259,323.36523
"3946",78.01877,323.37866
"3947",78.42405,323.39197
"3948",79.097885,323.40527
"3949",80.0354,323.4187
"3950",81.13893,323.432
"3951",82.262,323.4453
"3952",83.226364,323.45862
"3953",83.914856,323.47192
"3954",84.2884,323.48535
"3955",84.37385,323.49866
"3956",84.24689,323.51196
"3957",84.00763,323.5254
"3958",83.736626,323.5387
"3959",83.4876,323.552
"3960",83.29717,323.5653
"3961",83.177536,323.5786
"3962",83.106735,323.59204
"3963",83.055466,323.60535
"3964",82.984665,323.61865
"3965",82.862595,323.63208
"3966",82.68192,323.6454
"3967",82.44999,323.6587
"3968",82.196075,323.672
"3969",81.94949,323.6853
"3970",81.739525,323.69873
"3971",81.57839,323.71204
"3972",81.45388,323.72534
"3973",81.356224,323.73877
"3974",81.25857,323.75208
"3975",81.14137,323.76538
"3976",80.99977,323.7787
"3977",80.833755,323.792
"3978",80.64576,323.80542
"3979",80.44312,323.81873
"3980",80.233154,323.83203
"3981",80.02319,323.84546
"3982",79.81323,323.85876
"3983",79.60815,323.87207
"3984",79.4226,323.88538
"3985",79.25414,323.89868
"3986",79.10521,323.9121
"3987",78.9807,323.9254
"3988",78.87572,323.93872
"3989",78.78294,323.95215
"3990",78.70481,323.96545
"3991",78.63401,323.97876
"3992",78.57542,323.99207
"3993",78.521706,324.00537
"3994",78.47288,324.0188
"3995",78.42893,324.0321
"3996",78.38499,324.0454
"3997",78.3386,324.05884
"3998",78.294655,324.07214
"3999",78.24582,324.08545
"4000",78.19943,324.09875
"4001",78.150604,324.11206
"4002",78.099335,324.1255
"4003",78.048065,324.1388
"4004",78.00168,324.1521
"4005",77.962616,324.16553
"4006",77.92844,324.17883
"4007",77.89914,324.19214
"4008",77.874725,324.20544
"4009",77.85275,324.21875
"4010",77.83322,324.23218
"4011",77.80881,324.24548
"4012",77.786835,324.2588
"4013",77.7673,324.27222
"4014",77.75021,324.28552
"4015",77.77707,324.29883
"4016",77.92355,324.31213
"4017",78.28489,324.32544
"4018",78.92943,324.33887
"4019",79.84497,324.35217
"4020",80.94362,324.36548
"4021",82.08133,324.3789
"4022",83.07988,324.3922
"4023",83.807434,324.40552
"4024",84.21759,324.41882
"4025",84.33723,324.43213
"4026",84.224915,324.44556
"4027",83.966125,324.45886
"4028",83.64141,324.47217
"4029",83.31426,324.4856
"4030",83.03349,324.4989
"4031",82.81377,324.5122
"4032",82.650185,324.5255
"4033",82.51591,324.53882
"4034",82.37919,324.55225
"4035",82.213165,324.56555
"4036",82.020294,324.57886
"4037",81.80789,324.5923
"4038",81.60525,324.6056
"4039",81.42947,324.6189
"4040",81.29763,324.6322
"4041",81.19997,324.6455
"4042",81.129166,324.65894
"4043",81.06081,324.67224
"4044",80.9778,324.68555
"4045",80.86549,324.69897
"4046",80.719,324.71228
"4047",80.53834,324.7256
"4048",80.33082,324.7389
"4049",80.1062,324.7522
"4050",79.87671,324.76562
"4051",79.64233,324.77893
"4052",79.41772,324.79224
"4053",79.20775,324.80566
"4054",79.02464,324.81897
"4055",78.870834,324.83228
"4056",78.74387,324.84558
"4057",78.643776,324.8589
"4058",78.56321,324.8723
"4059",78.49241,324.88562
"4060",78.42893,324.89893
"4061",78.37522,324.91235
"4062",78.32151,324.92566
"4063",78.27512,324.93896
"4064",78.22629,324.95227
"4065",78.17746,324.96558
"4066",78.13107,324.979
"4067",78.08713,324.9923
"4068",78.04318,325.0056
"4069",78.00412,325.01904
"4070",77.96994,325.03235
"4071",77.93088,325.04565
"4072",77.88693,325.05896
"4073",77.840546,325.07227
"4074",77.79416,325.0857
"4075",77.74532,325.099
"4076",77.696495,325.1123
"4077",77.65011,325.12573
"4078",77.60372,325.13904
"4079",77.5671,325.15234
"4080",77.57931,325.16565
"4081",77.72091,325.17896
"4082",78.082245,325.19238
"4083",78.729225,325.2057
"4084",79.6643,325.219
"4085",80.80446,325.23242
"4086",81.99344,325.24573
"4087",83.06279,325.25903
"4088",83.86847,325.27234
"4089",84.34455,325.28564
"4090",84.51545,325.29907
"4091",84.439766,325.31238
"4092",84.20538,325.32568
"4093",83.895325,325.3391
"4094",83.580376,325.35242
"4095",83.31182,325.36572
"4096",83.10918,325.37903
"4097",82.96513,325.39233
"4098",82.85527,325.40576
"4099",82.7454,325.41907
"4100",82.59647,325.43237
"4101",82.39384,325.4458
"4102",82.15213,325.4591
"4103",81.88602,325.4724
"4104",81.636986,325.48572
"4105",81.427025,325.49902
"4106",81.26345,325.51245
"4107",81.13405,325.52576
"4108",81.02907,325.53906
"4109",80.92897,325.5525
"4110",80.816666,325.5658
"4111",80.67994,325.5791
"4112",80.51148,325.5924
"4113",80.31129,325.6057
"4114",80.08911,325.61914
"4115",79.84985,325.63245
"4116",79.61059,325.64575
"4117",79.378654,325.65918
"4118",79.15892,325.6725
"4119",78.95628,325.6858
"4120",78.77318,325.6991
"4121",78.61448,325.7124
"4122",78.4802,325.72583
"4123",78.363014,325.73914
"4124",78.26292,325.75244
"4125",78.1799,325.76587
"4126",78.11154,325.77917
"4127",78.048065,325.79248
"4128",77.98947,325.8058
"4129",77.925995,325.8191
"4130",77.86252,325.83252
"4131",77.79416,325.84583
"4132",77.733116,325.85913
"4133",77.679405,325.87256
"4134",77.63546,325.88586
"4135",77.5964,325.89917
"4136",77.55489,325.91248
"4137",77.51339,325.92578
"4138",77.46456,325.9392
"4139",77.418175,325.9525
"4140",77.37667,325.96582
"4141",77.34249,325.97925
"4142",77.31808,325.99255
"4143",77.298546,326.00586
"4144",77.279015,326.01917
"4145",77.2546,326.03247
"4146",77.222855,326.0459
"4147",77.18623,326.0592
"4148",77.171585,326.0725
"4149",77.24483,326.08594
"4150",77.503624,326.09924
"4151",78.0383,326.11255
"4152",78.89525,326.12585
"4153",80.03296,326.13916
"4154",81.3196,326.1526
"4155",82.581825,326.1659
"4156",83.64141,326.1792
"4157",84.37873,326.19263
"4158",84.76692,326.20593
"4159",84.84505,326.21924
"4160",84.69123,326.23254
"4161",84.4007,326.24585
"4162",84.06134,326.25928
"4163",83.73907,326.27258
"4164",83.47051,326.2859
"4165",83.267876,326.29932
"4166",83.11406,326.31262
"4167",82.98222,326.32593
"4168",82.84306,326.33923
"4169",82.67948,326.35254
"4170",82.47929,326.36597
"4171",82.25712,326.37927
"4172",82.02762,326.39258
"4173",81.81766,326.406
"4174",81.63943,326.4193
"4175",81.495384,326.43262
"4176",81.38064,326.44592
"4177",81.2781,326.45923
"4178",81.163345,326.47266
"4179",81.02907,326.48596
"4180",80.867935,326.49927
"4181",80.67506,326.5127
"4182",80.46021,326.526
"4183",80.22583,326.5393
"4184",79.98169,326.5526
"4185",79.73266,326.56592
"4186",79.48852,326.57935
"4187",79.259026,326.59265
"4188",79.04906,326.60596
"4189",78.86107,326.6194
"4190",78.695045,326.6327
"4191",78.555885,326.646
"4192",78.4387,326.6593
"4193",78.3386,326.6726
"4194",78.25559,326.68604
"4195",78.18234,326.69934
"4196",78.12131,326.71265
"4197",78.07004,326.72607
"4198",78.02121,326.73938
"4199",77.97482,326.7527
"4200",77.93332,326.766
"4201",77.88937,326.7793
"4202",77.838104,326.79272
"4203",77.78195,326.80603
"4204",77.72823,326.81934
"4205",77.67208,326.83276
"4206",77.628136,326.84607
"4207",77.591515,326.85938
"4208",77.56466,326.87268
"4209",77.53536,326.886
"4210",77.506065,326.8994
"4211",77.469444,326.91272
"4212",77.435265,326.92603
"4213",77.401085,326.93945
"4214",77.37179,326.95276
"4215",77.349815,326.96606
"4216",77.349815,326.97937
"4217",77.44503,326.99268
"4218",77.72335,327.0061
"4219",78.2678,327.0194
"4220",79.10521,327.0327
"4221",80.18921,327.04614
"4222",81.38064,327.05945
"4223",82.513466,327.07275
"4224",83.4168,327.08606
"4225",83.99786,327.09937
"4226",84.23956,327.1128
"4227",84.19318,327.1261
"4228",83.946594,327.1394
"4229",83.58282,327.15283
"4230",83.18486,327.16614
"4231",82.811325,327.17944
"4232",82.493935,327.19275
"4233",82.24002,327.20605
"4234",82.03494,327.21948
"4235",81.85672,327.2328
"4236",81.685814,327.2461
"4237",81.50759,327.25952
"4238",81.31716,327.27283
"4239",81.13649,327.28613
"4240",80.987564,327.29944
"4241",80.87282,327.31274
"4242",80.78981,327.32617
"4243",80.723885,327.33948
"4244",80.66041,327.35278
"4245",80.5774,327.3662
"4246",80.46998,327.37952
"4247",80.33326,327.39282
"4248",80.16968,327.40613
"4249",79.97681,327.41943
"4250",79.764404,327.43286
"4251",79.53979,327.44617
"4252",79.31274,327.45947
"4253",79.093,327.4729
"4254",78.89281,327.4862
"4255",78.71458,327.4995
"4256",78.56077,327.51282
"4257",78.42649,327.52612
"4258",78.311745,327.53955
"4259",78.21652,327.55286
"4260",78.14084,327.56616
"4261",78.07736,327.5796
"4262",78.030975,327.5929
"4263",77.99191,327.6062
"4264",77.962616,327.6195
"4265",77.93576,327.6328
"4266",77.908905,327.64624
"4267",77.88205,327.65955
"4268",77.857635,327.67285
"4269",77.83566,327.68628
"4270",77.803925,327.6996
"4271",77.769745,327.7129
"4272",77.738,327.7262
"4273",77.71114,327.7395
"4274",77.68673,327.75293
"4275",77.6672,327.76624
"4276",77.64767,327.77954
"4277",77.625694,327.79297
"4278",77.593956,327.80627
"4279",77.557335,327.81958
"4280",77.53536,327.8329
"4281",77.576866,327.8462
"4282",77.76486,327.85962
"4283",78.18967,327.87292
"4284",78.91478,327.88623
"4285",79.91333,327.89966
"4286",81.08034,327.91296
"4287",82.2449,327.92627
"4288",83.23857,327.93958
"4289",83.94171,327.95288
"4290",84.30549,327.9663
"4291",84.368965,327.9796
"4292",84.207825,327.99292
"4293",83.90509,328.00635
"4294",83.543755,328.01965
"4295",83.194626,328.03296
"4296",82.899216,328.04626
"4297",82.67216,328.05957
"4298",82.50858,328.073
"4299",82.37675,328.0863
"4300",82.24246,328.0996
"4301",82.08377,328.11304
"4302",81.89578,328.12634
"4303",81.68093,328.13965
"4304",81.45876,328.15295
"4305",81.25124,328.16626
"4306",81.075455,328.1797
"4307",80.93141,328.193
"4308",80.81178,328.2063
"4309",80.70435,328.21973
"4310",80.601814,328.23303
"4311",80.48951,328.24634
"4312",80.35523,328.25964
"4313",80.198975,328.27295
"4314",80.01587,328.28638
"4315",79.815674,328.29968
"4316",79.60082,328.313
"4317",79.38598,328.32642
"4318",79.17845,328.33972
"4319",78.98802,328.35303
"4320",78.81468,328.36633
"4321",78.66575,328.37964
"4322",78.54124,328.39307
"4323",78.4387,328.40637
"4324",78.35081,328.41968
"4325",78.28001,328.4331
"4326",78.221405,328.4464
"4327",78.17258,328.45972
"4328",78.12863,328.47302
"4329",78.09445,328.48633
"4330",78.06027,328.49976
"4331",78.028534,328.51306
"4332",77.994354,328.52637
"4333",77.962616,328.5398
"4334",77.92844,328.5531
"4335",77.8967,328.5664
"4336",77.8674,328.5797
"4337",77.840546,328.59302
"4338",77.81125,328.60645
"4339",77.78195,328.61975
"4340",77.75754,328.63306
"4341",77.733116,328.64648
"4342",77.71114,328.6598
"4343",77.69161,328.6731
"4344",77.67452,328.6864
"4345",77.65499,328.6997
"4346",77.625694,328.71313
"4347",77.59884,328.72644
"4348",77.63058,328.73975
"4349",77.821014,328.75317
"4350",78.260475,328.76648
"4351",79.00511,328.7798
"4352",80.04028,328.7931
"4353",81.24635,328.8064
"4354",82.44511,328.81982
"4355",83.455864,328.83313
"4356",84.156555,328.84644
"4357",84.505684,328.85986
"4358",84.54475,328.87317
"4359",84.351875,328.88647
"4360",84.02228,328.89978
"4361",83.64385,328.9131
"4362",83.282524,328.9265
"4363",82.9749,328.93982
"4364",82.74052,328.95312
"4365",82.57206,328.96655
"4366",82.44022,328.97986
"4367",82.31327,328.99316
"4368",82.16922,329.00647
"4369",81.991,329.01978
"4370",81.78836,329.0332
"4371",81.57839,329.0465
"4372",81.3782,329.0598
"4373",81.214615,329.07324
"4374",81.08034,329.08655
"4375",80.970474,329.09985
"4376",80.8777,329.11316
"4377",80.78737,329.12646
"4378",80.68482,329.1399
"4379",80.56275,329.1532
"4380",80.42359,329.1665
"4381",80.26246,329.17993
"4382",80.08667,329.19324
"4383",79.89624,329.20654
"4384",79.693596,329.21985
"4385",79.48852,329.23315
"4386",79.293205,329.24658
"4387",79.114975,329.2599
"4388",78.958725,329.2732
"4389",78.82933,329.28662
"4390",78.72678,329.29993
"4391",78.63889,329.31323
"4392",78.55833,329.32654
"4393",78.48997,329.33984
"4394",78.44114,329.35327
"4395",78.399635,329.36658
"4396",78.3679,329.37988
"4397",78.34348,329.3933
"4398",78.31907,329.40662
"4399",78.294655,329.41992
"4400",78.27024,329.43323
"4401",78.24338,329.44653
"4402",78.21408,329.45996
"4403",78.184784,329.47327
"4404",78.150604,329.48657
"4405",78.11398,329.5
"4406",78.0798,329.5133
"4407",78.05051,329.5266
"4408",78.02609,329.53992
"4409",78.00168,329.55322
"4410",77.979706,329.56665
"4411",77.945526,329.57996
"4412",77.91135,329.59326
"4413",77.88449,329.6067
"4414",77.92111,329.62
"4415",78.09445,329.6333
"4416",78.50706,329.6466
"4417",79.20775,329.6599
"4418",80.177,329.67334
"4419",81.31716,329.68665
"4420",82.4622,329.69995
"4421",83.438774,329.71338
"4422",84.11749,329.72668
"4423",84.45197,329.74
"4424",84.48127,329.7533
"4425",84.2884,329.7666
"4426",83.963684,329.78003
"4427",83.59014,329.79333
"4428",83.23369,329.80664
"4429",82.92851,329.82007
"4430",82.684364,329.83337
"4431",82.48661,329.84668
"4432",82.32304,329.86
"4433",82.16678,329.8733
"4434",81.99344,329.88672
"4435",81.80545,329.90002
"4436",81.619896,329.91333
"4437",81.45632,329.92676
"4438",81.33181,329.94006
"4439",81.253685,329.95337
"4440",81.20485,329.96667
"4441",81.160904,329.97998
"4442",81.109634,329.9934
"4443",81.02663,330.0067
"4444",80.90944,330.02002
"4445",80.75319,330.03345
"4446",80.56031,330.04675
"4447",80.34791,330.06006
"4448",80.12085,330.07336
"4449",79.89624,330.08667
"4450",79.68139,330.1001
"4451",79.48852,330.1134
"4452",79.31274,330.1267
"4453",79.15648,330.14014
"4454",79.027084,330.15344
"4455",78.922104,330.16675
"4456",78.83177,330.18005
"4457",78.76097,330.19336
"4458",78.70237,330.2068
"4459",78.6511,330.2201
"4460",78.60471,330.2334
"4461",78.56565,330.24683
"4462",78.52903,330.26013
"4463",78.49485,330.27344
"4464",78.46311,330.28674
"4465",78.433815,330.30005
"4466",78.399635,330.31348
"4467",78.363014,330.32678
"4468",78.32151,330.3401
"4469",78.27268,330.35352
"4470",78.21408,330.36682
"4471",78.153046,330.38013
"4472",78.09201,330.39343
"4473",78.03342,330.40674
"4474",77.98459,330.42017
"4475",77.977264,330.43347
"4476",78.0676,330.44678
"4477",78.348366,330.4602
"4478",78.887924,330.4735
"4479",79.710686,330.48682
"4480",80.762955,330.50012
"4481",81.917755,330.51343
"4482",83.001755,330.52686
"4483",83.86847,330.54016
"4484",84.43244,330.55347
"4485",84.68879,330.5669
"4486",84.68391,330.5802
"4487",84.5008,330.5935
"4488",84.22247,330.6068
"4489",83.91974,330.62012
"4490",83.65118,330.63354
"4491",83.441216,330.64685
"4492",83.29229,330.66016
"4493",83.18486,330.67358
"4494",83.08476,330.6869
"4495",82.95781,330.7002
"4496",82.78203,330.7135
"4497",82.55985,330.7268
"4498",82.31571,330.74023
"4499",82.07645,330.75354
"4500",81.87381,330.76685
"4501",81.71511,330.78027
"4502",81.59304,330.79358
"4503",81.4905,330.8069
"4504",81.38552,330.8202
"4505",81.26101,330.8335
"4506",81.10719,330.84692
"4507",80.921646,330.86023
"4508",80.71168,330.87354
"4509",80.482185,330.88696
"4510",80.23804,330.90027
"4511",79.991455,330.91357
"4512",79.75464,330.92688
"4513",79.52758,330.9402
"4514",79.31762,330.9536
"4515",79.12962,330.96692
"4516",78.96117,330.98022
"4517",78.80736,330.99365
