"","ppg","time"
"1",80.95827,1072.4241
"2",80.81911,1072.4375
"3",80.689705,1072.4509
"4",80.57984,1072.4641
"5",80.48463,1072.4773
"6",80.41627,1072.4907
"7",80.38209,1072.5042
"8",80.37965,1072.5173
"9",80.40162,1072.5305
"10",80.4358,1072.544
"11",80.46998,1072.5574
"12",80.49195,1072.5706
"13",80.48951,1072.5837
"14",80.45045,1072.5972
"15",80.377205,1072.6106
"16",80.26734,1072.6238
"17",80.13794,1072.637
"18",80.0061,1072.6504
"19",79.89136,1072.6638
"20",79.79126,1072.677
"21",79.710686,1072.6902
"22",79.64233,1072.7036
"23",79.58129,1072.717
"24",79.52758,1072.7302
"25",79.48608,1072.7434
"26",79.45678,1072.7568
"27",79.432365,1072.7703
"28",79.412834,1072.7834
"29",79.40063,1072.7966
"30",79.39086,1072.81
"31",79.38842,1072.8235
"32",79.3933,1072.8367
"33",79.40307,1072.8499
"34",79.40551,1072.8633
"35",79.40063,1072.8767
"36",79.38842,1072.8899
"37",79.36645,1072.9031
"38",79.33471,1072.9165
"39",79.30053,1072.9299
"40",79.281,1072.9431
"41",79.30053,1072.9563
"42",79.41039,1072.9697
"43",79.65209,1072.9832
"44",80.03296,1072.9963
"45",80.52857,1073.0095
"46",81.07057,1073.023
"47",81.57351,1073.0364
"48",81.9617,1073.0496
"49",82.193634,1073.0627
"50",82.266884,1073.0762
"51",82.210724,1073.0896
"52",82.06424,1073.1028
"53",81.86893,1073.116
"54",81.66384,1073.1294
"55",81.47585,1073.1428
"56",81.31228,1073.156
"57",81.17067,1073.1692
"58",81.03883,1073.1826
"59",80.91188,1073.196
"60",80.782486,1073.2092
"61",80.66285,1073.2224
"62",80.567635,1073.2358
"63",80.5066,1073.2493
"64",80.479744,1073.2625
"65",80.48707,1073.2756
"66",80.51148,1073.2891
"67",80.5359,1073.3025
"68",80.54322,1073.3157
"69",80.52369,1073.3289
"70",80.46998,1073.3423
"71",80.38453,1073.3557
"72",80.272224,1073.3689
"73",80.14526,1073.3821
"74",80.01343,1073.3955
"75",79.888916,1073.4089
"76",79.77661,1073.4221
"77",79.674065,1073.4353
"78",79.5935,1073.4487
"79",79.52514,1073.4622
"80",79.466545,1073.4753
"81",79.415276,1073.4885
"82",79.37377,1073.502
"83",79.33959,1073.5154
"84",79.31518,1073.5286
"85",79.293205,1073.5417
"86",79.276115,1073.5552
"87",79.259026,1073.5686
"88",79.234604,1073.5818
"89",79.202866,1073.595
"90",79.166245,1073.6084
"91",79.12718,1073.6218
"92",79.09056,1073.635
"93",79.080795,1073.6482
"94",79.13451,1073.6616
"95",79.30785,1073.675
"96",79.622795,1073.6882
"97",80.07446,1073.7014
"98",80.61402,1073.7148
"99",81.163345,1073.7283
"100",81.634544,1073.7415
"101",81.9617,1073.7546
"102",82.11795,1073.7681
"103",82.127716,1073.7815
"104",82.0325,1073.7947
"105",81.87625,1073.8079
"106",81.705345,1073.8213
"107",81.55154,1073.8347
"108",81.42458,1073.8479
"109",81.322044,1073.8611
"110",81.234146,1073.8745
"111",81.146255,1073.888
"112",81.041275,1073.9011
"113",80.91432,1073.9143
"114",80.782486,1073.9277
"115",80.655525,1073.9412
"116",80.5481,1073.9543
"117",80.4773,1073.9675
"118",80.43824,1073.981
"119",80.41627,1073.9944
"120",80.39918,1074.0076
"121",80.377205,1074.0208
"122",80.3357,1074.0342
"123",80.272224,1074.0476
"124",80.181885,1074.0608
"125",80.06958,1074.074
"126",79.9353,1074.0874
"127",79.798584,1074.1008
"128",79.6643,1074.114
"129",79.53979,1074.1272
"130",79.429924,1074.1406
"131",79.33471,1074.154
"132",79.25414,1074.1672
"133",79.183334,1074.1804
"134",79.12474,1074.1938
"135",79.078354,1074.2073
"136",79.046616,1074.2205
"137",79.0222,1074.2336
"138",79.00267,1074.2471
"139",78.98314,1074.2605
"140",78.958725,1074.2737
"141",78.92699,1074.2869
"142",78.89281,1074.3003
"143",78.856186,1074.3137
"144",78.82201,1074.3269
"145",78.79271,1074.3401
"146",78.7805,1074.3535
"147",78.81712,1074.367
"148",78.95384,1074.3801
"149",79.23949,1074.3933
"150",79.676506,1074.4067
"151",80.235596,1074.4202
"152",80.848404,1074.4333
"153",81.41482,1074.4465
"154",81.84451,1074.46
"155",82.10574,1074.4734
"156",82.20096,1074.4866
"157",82.16678,1074.4998
"158",82.05203,1074.5132
"159",81.90799,1074.5266
"160",81.76883,1074.5398
"161",81.6614,1074.553
"162",81.583275,1074.5664
"163",81.53689,1074.5798
"164",81.50027,1074.593
"165",81.446556,1074.6062
"166",81.35134,1074.6196
"167",81.214615,1074.633
"168",81.05348,1074.6462
"169",80.88258,1074.6594
"170",80.73121,1074.6729
"171",80.61402,1074.6863
"172",80.52613,1074.6995
"173",80.45777,1074.7126
"174",80.394295,1074.7261
"175",80.32838,1074.7395
"176",80.25269,1074.7527
"177",80.16235,1074.7659
"178",80.05737,1074.7793
"179",79.937744,1074.7927
"180",79.80591,1074.8059
"181",79.66674,1074.8191
"182",79.52758,1074.8325
"183",79.3933,1074.846
"184",79.26391,1074.8591
"185",79.151596,1074.8723
"186",79.04906,1074.8857
"187",78.958725,1074.8992
"188",78.88304,1074.9124
"189",78.82201,1074.9255
"190",78.77074,1074.939
"191",78.729225,1074.9524
"192",78.68772,1074.9656
"193",78.6511,1074.9788
"194",78.61448,1074.9922
"195",78.58274,1075.0056
"196",78.551,1075.0188
"197",78.52415,1075.032
"198",78.49241,1075.0454
"199",78.45579,1075.0588
"200",78.41428,1075.072
"201",78.37034,1075.0852
"202",78.33372,1075.0986
"203",78.328835,1075.112
"204",78.40696,1075.1252
"205",78.61692,1075.1384
"206",78.98802,1075.1519
"207",79.51293,1075.1653
"208",80.13306,1075.1785
"209",80.75563,1075.1917
"210",81.287865,1075.2051
"211",81.6614,1075.2185
"212",81.85672,1075.2317
"213",81.898224,1075.2449
"214",81.83719,1075.2583
"215",81.71999,1075.2717
"216",81.59548,1075.2849
"217",81.49294,1075.2981
"218",81.42458,1075.3115
"219",81.38308,1075.325
"220",81.358665,1075.3381
"221",81.31716,1075.3513
"222",81.24391,1075.3647
"223",81.1194,1075.3782
"224",80.9485,1075.3914
"225",80.75563,1075.4045
"226",80.56519,1075.418
"227",80.40406,1075.4314
"228",80.27955,1075.4446
"229",80.18921,1075.4578
"230",80.12085,1075.4712
"231",80.05737,1075.4846
"232",79.9939,1075.4978
"233",79.91821,1075.511
"234",79.82788,1075.5244
"235",79.72045,1075.5378
"236",79.603264,1075.551
"237",79.47631,1075.5642
"238",79.344475,1075.5776
"239",79.217514,1075.5911
"240",79.09544,1075.6042
"241",78.97826,1075.6174
"242",78.873276,1075.6309
"243",78.7805,1075.6443
"244",78.69993,1075.6575
"245",78.63401,1075.6707
"246",78.57786,1075.6841
"247",78.52903,1075.6975
"248",78.49241,1075.7107
"249",78.45823,1075.7239
"250",78.42893,1075.7373
"251",78.399635,1075.7507
"252",78.3679,1075.7639
"253",78.33372,1075.7771
"254",78.29954,1075.7905
"255",78.27024,1075.804
"256",78.24582,1075.8171
"257",78.221405,1075.8303
"258",78.20187,1075.8438
"259",78.184784,1075.8572
"260",78.170135,1075.8704
"261",78.15549,1075.8835
"262",78.14572,1075.897
"263",78.13107,1075.9104
"264",78.11398,1075.9236
"265",78.09689,1075.9368
"266",78.09201,1075.9502
"267",78.133514,1075.9636
"268",78.277565,1075.9768
"269",78.57053,1075.99
"270",79.03441,1076.0034
"271",79.639885,1076.0168
"272",80.32105,1076.03
"273",80.970474,1076.0432
"274",81.48806,1076.0566
"275",81.82254,1076.0701
"276",81.97391,1076.0833
"277",81.97391,1076.0964
"278",81.88602,1076.1099
"279",81.76395,1076.1233
"280",81.64675,1076.1365
"281",81.5613,1076.1497
"282",81.514915,1076.1631
"283",81.50027,1076.1765
"284",81.49294,1076.1897
"285",81.47097,1076.2029
"286",81.41238,1076.2163
"287",81.304955,1076.2297
"288",81.146255,1076.2429
"289",80.96071,1076.2561
"290",80.77516,1076.2695
"291",80.61158,1076.283
"292",80.479744,1076.2961
"293",80.38453,1076.3093
"294",80.31373,1076.3228
"295",80.255135,1076.3362
"296",80.19165,1076.3494
"297",80.11597,1076.3625
"298",80.028076,1076.376
"299",79.92798,1076.3894
"300",79.815674,1076.4026
"301",79.69604,1076.4158
"302",79.57641,1076.4292
"303",79.45678,1076.4426
"304",79.33959,1076.4558
"305",79.23216,1076.469
"306",79.13939,1076.4824
"307",79.06615,1076.4958
"308",79.012436,1076.509
"309",78.975815,1076.5222
"310",78.94652,1076.5356
"311",78.91722,1076.5491
"312",78.887924,1076.5623
"313",78.85863,1076.5754
"314",78.82201,1076.5889
"315",78.78783,1076.6023
"316",78.75609,1076.6155
"317",78.71946,1076.6287
"318",78.6804,1076.6421
"319",78.64622,1076.6555
"320",78.61692,1076.6687
"321",78.59251,1076.6819
"322",78.56565,1076.6953
"323",78.536354,1076.7087
"324",78.50706,1076.7219
"325",78.47288,1076.7351
"326",78.44114,1076.7485
"327",78.416725,1076.762
"328",78.40452,1076.7751
"329",78.40452,1076.7883
"330",78.41184,1076.8018
"331",78.41917,1076.8152
"332",78.42893,1076.8284
"333",78.4387,1076.8416
"334",78.44114,1076.855
"335",78.4387,1076.8684
"336",78.43626,1076.8816
"337",78.43137,1076.8948
"338",78.43626,1076.9082
"339",78.47288,1076.9216
"340",78.59251,1076.9348
"341",78.853745,1076.948
"342",79.28832,1076.9614
"343",79.87915,1076.9749
"344",80.567635,1076.988
"345",81.25613,1077.0012
"346",81.83475,1077.0146
"347",82.22537,1077.0281
"348",82.41337,1077.0413
"349",82.425575,1077.0544
"350",82.320595,1077.0679
"351",82.159454,1077.0813
"352",82.003204,1077.0945
"353",81.87625,1077.1077
"354",81.79813,1077.1211
"355",81.76395,1077.1345
"356",81.75662,1077.1477
"357",81.74441,1077.1609
"358",81.7029,1077.1743
"359",81.61257,1077.1877
"360",81.47341,1077.2009
"361",81.30007,1077.2141
"362",81.1194,1077.2275
"363",80.953384,1077.241
"364",80.82155,1077.2542
"365",80.723885,1077.2673
"366",80.65308,1077.2808
"367",80.59937,1077.2942
"368",80.54566,1077.3074
"369",80.482185,1077.3206
"370",80.40406,1077.334
"371",80.308846,1077.3474
"372",80.198975,1077.3606
"373",80.079346,1077.3738
"374",79.957275,1077.3872
"375",79.835205,1077.4006
"376",79.72045,1077.4138
"377",79.61791,1077.427
"378",79.52758,1077.4404
"379",79.447014,1077.4539
"380",79.37377,1077.467
"381",79.30541,1077.4802
"382",79.24193,1077.4937
"383",79.183334,1077.5071
"384",79.132065,1077.5203
"385",79.09056,1077.5334
"386",79.05638,1077.5469
"387",79.02464,1077.5603
"388",78.992905,1077.5735
"389",78.96605,1077.5867
"390",78.93675,1077.6001
"391",78.9099,1077.6135
"392",78.8806,1077.6267
"393",78.8513,1077.6399
"394",78.82201,1077.6533
"395",78.79027,1077.6667
"396",78.75853,1077.6799
"397",78.729225,1077.6931
"398",78.70237,1077.7065
"399",78.677956,1077.72
"400",78.660866,1077.7332
"401",78.6511,1077.7463
"402",78.64866,1077.7598
"403",78.6511,1077.7732
"404",78.6511,1077.7864
"405",78.6511,1077.7996
"406",78.64866,1077.813
"407",78.643776,1077.8264
"408",78.641335,1077.8396
"409",78.64622,1077.8528
"410",78.65354,1077.8662
"411",78.66575,1077.8796
"412",78.677956,1077.8928
"413",78.68772,1077.906
"414",78.692604,1077.9194
"415",78.692604,1077.9329
"416",78.69016,1077.946
"417",78.695045,1077.9592
"418",78.72678,1077.9727
"419",78.82445,1077.9861
"420",79.04906,1077.9993
"421",79.44457,1078.0125
"422",80.01099,1078.0259
"423",80.69459,1078.0393
"424",81.40017,1078.0525
"425",82.01541,1078.0657
"426",82.44755,1078.0791
"427",82.65995,1078.0925
"428",82.67948,1078.1057
"429",82.55985,1078.1189
"430",82.3621,1078.1323
"431",82.14725,1078.1458
"432",81.95682,1078.1589
"433",81.81766,1078.1721
"434",81.72976,1078.1855
"435",81.68093,1078.199
"436",81.64187,1078.2122
"437",81.58816,1078.2253
"438",81.50027,1078.2388
"439",81.38064,1078.2522
"440",81.24147,1078.2654
"441",81.10719,1078.2786
"442",80.99489,1078.292
"443",80.91432,1078.3054
"444",80.86061,1078.3186
"445",80.816666,1078.3318
"446",80.77272,1078.3452
"447",80.719,1078.3586
"448",80.65064,1078.3718
"449",80.56519,1078.385
"450",80.462654,1078.3984
"451",80.34547,1078.4119
"452",80.22095,1078.425
"453",80.096436,1078.4382
"454",79.974365,1078.4517
"455",79.85718,1078.4651
"456",79.7522,1078.4783
"457",79.656975,1078.4915
"458",79.57397,1078.5049
"459",79.500725,1078.5183
"460",79.43969,1078.5315
"461",79.38354,1078.5447
"462",79.33715,1078.5581
"463",79.29809,1078.5715
"464",79.27123,1078.5847
"465",79.25414,1078.5979
"466",79.234604,1078.6113
"467",79.217514,1078.6248
"468",79.19798,1078.638
"469",79.17113,1078.6511
"470",79.14183,1078.6646
"471",79.11253,1078.678
"472",79.080795,1078.6912
"473",79.04906,1078.7043
"474",79.01488,1078.7178
"475",78.98314,1078.7312
"476",78.95384,1078.7444
"477",78.92699,1078.7576
"478",78.905014,1078.771
"479",78.88548,1078.7844
"480",78.870834,1078.7976
"481",78.85863,1078.8108
"482",78.84398,1078.8242
"483",78.83177,1078.8376
"484",78.82445,1078.8508
"485",78.819565,1078.864
"486",78.81712,1078.8774
"487",78.81712,1078.8909
"488",78.819565,1078.904
"489",78.82201,1078.9172
"490",78.82445,1078.9307
"491",78.82933,1078.9441
"492",78.83421,1078.9573
"493",78.839096,1078.9705
"494",78.84886,1078.9839
"495",78.85863,1078.9973
"496",78.88304,1079.0105
"497",78.9514,1079.0237
"498",79.12718,1079.0371
"499",79.466545,1079.0505
"500",79.97925,1079.0637
"501",80.62867,1079.0769
"502",81.32693,1079.0903
"503",81.9617,1079.1038
"504",82.44022,1079.117
"505",82.70878,1079.1301
"506",82.78203,1079.1436
"507",82.69413,1079.157
"508",82.50858,1079.1702
"509",82.27177,1079.1833
"510",82.0325,1079.1968
"511",81.82498,1079.2102
"512",81.66384,1079.2234
"513",81.54665,1079.2366
"514",81.45388,1079.25
"515",81.37087,1079.2634
"516",81.28542,1079.2766
"517",81.1902,1079.2898
"518",81.0901,1079.3032
"519",80.99489,1079.3167
"520",80.919205,1079.3298
"521",80.87038,1079.343
"522",80.83864,1079.3564
"523",80.82155,1079.3699
"524",80.797134,1079.383
"525",80.75807,1079.3962
"526",80.69459,1079.4097
"527",80.604256,1079.4231
"528",80.49683,1079.4363
"529",80.37232,1079.4495
"530",80.24292,1079.4629
"531",80.111084,1079.4763
"532",79.98657,1079.4895
"533",79.8645,1079.5027
"534",79.75464,1079.5161
"535",79.65453,1079.5295
"536",79.571526,1079.5427
"537",79.50317,1079.5559
"538",79.44457,1079.5693
"539",79.395744,1079.5828
"540",79.35668,1079.596
"541",79.32006,1079.6091
"542",79.290764,1079.6226
"543",79.26391,1079.636
"544",79.23949,1079.6492
"545",79.217514,1079.6624
"546",79.19554,1079.6758
"547",79.17113,1079.6892
"548",79.14671,1079.7024
"549",79.11986,1079.7156
"550",79.09544,1079.729
"551",79.07591,1079.7424
"552",79.05394,1079.7556
"553",79.029526,1079.7688
"554",79.009995,1079.7822
"555",78.992905,1079.7957
"556",78.975815,1079.8088
"557",78.96117,1079.822
"558",78.9514,1079.8354
"559",78.94408,1079.8489
"560",78.93187,1079.862
"561",78.922104,1079.8752
"562",78.91478,1079.8887
"563",78.91234,1079.9021
"564",78.91722,1079.9153
"565",78.924545,1079.9285
"566",78.93187,1079.9419
"567",78.93919,1079.9553
"568",78.93919,1079.9685
"569",78.93431,1079.9817
"570",78.922104,1079.9951
"571",78.91478,1080.0085
"572",78.91722,1080.0217
"573",78.96849,1080.0349
"574",79.12962,1080.0483
"575",79.45678,1080.0618
"576",79.96216,1080.075
"577",80.61402,1080.0881
"578",81.32693,1080.1016
"579",81.988556,1080.115
"580",82.50126,1080.1282
"581",82.80888,1080.1414
"582",82.913864,1080.1548
"583",82.847946,1080.1682
"584",82.66483,1080.1814
"585",82.41581,1080.1946
"586",82.14969,1080.208
"587",81.898224,1080.2214
"588",81.685814,1080.2346
"589",81.5198,1080.2478
"590",81.3904,1080.2612
"591",81.28054,1080.2747
"592",81.17799,1080.2878
"593",81.077896,1080.301
"594",80.98024,1080.3145
"595",80.89967,1080.3279
"596",80.848404,1080.3411
"597",80.82643,1080.3542
"598",80.82399,1080.3677
"599",80.82643,1080.3811
"600",80.816666,1080.3943
"601",80.78737,1080.4075
"602",80.72877,1080.4209
"603",80.6482,1080.4343
"604",80.552986,1080.4475
"605",80.43824,1080.4607
"606",80.31129,1080.4741
"607",80.184326,1080.4875
"608",80.05737,1080.5007
"609",79.937744,1080.5139
"610",79.835205,1080.5273
"611",79.744865,1080.5408
"612",79.6643,1080.554
"613",79.59594,1080.5671
"614",79.53002,1080.5806
"615",79.47143,1080.594
"616",79.42504,1080.6072
"617",79.38598,1080.6204
"618",79.3518,1080.6338
"619",79.31762,1080.6472
"620",79.28832,1080.6604
"621",79.26391,1080.6736
"622",79.24681,1080.687
"623",79.237045,1080.7004
"624",79.23216,1080.7136
"625",79.22728,1080.7268
"626",79.21507,1080.7402
"627",79.19798,1080.7537
"628",79.17601,1080.7668
"629",79.15404,1080.78
"630",79.132065,1080.7935
"631",79.11009,1080.8069
"632",79.08812,1080.8201
"633",79.06859,1080.8333
"634",79.05394,1080.8467
"635",79.04173,1080.8601
"636",79.03685,1080.8733
"637",79.03197,1080.8865
"638",79.027084,1080.8999
"639",79.0222,1080.9133
"640",79.01488,1080.9265
"641",79.009995,1080.9397
"642",79.00267,1080.9531
"643",78.99046,1080.9666
"644",78.98314,1080.9797
"645",78.99046,1080.9929
"646",79.044174,1081.0063
"647",79.202866,1081.0198
"648",79.517815,1081.033
"649",79.99634,1081.0461
"650",80.601814,1081.0596
"651",81.25857,1081.073
"652",81.866486,1081.0862
"653",82.33524,1081.0994
"654",82.616005,1081.1128
"655",82.71122,1081.1262
"656",82.64774,1081.1394
"657",82.476845,1081.1526
"658",82.24246,1081.166
"659",81.991,1081.1794
"660",81.74441,1081.1926
"661",81.52712,1081.2058
"662",81.33669,1081.2192
"663",81.17067,1081.2327
"664",81.024185,1081.2458
"665",80.89723,1081.259
"666",80.79225,1081.2725
"667",80.71412,1081.2859
"668",80.67017,1081.2991
"669",80.66773,1081.3123
"670",80.70191,1081.3257
"671",80.76051,1081.3391
"672",80.82399,1081.3523
"673",80.867935,1081.3655
"674",80.88258,1081.3789
"675",80.85329,1081.3923
"676",80.780045,1081.4055
"677",80.672615,1081.4187
"678",80.54322,1081.4321
"679",80.40162,1081.4456
"680",80.257576,1081.4587
"681",80.12085,1081.4719
"682",79.9939,1081.4854
"683",79.88159,1081.4988
"684",79.781494,1081.512
"685",79.691154,1081.5251
"686",79.61059,1081.5386
"687",79.54955,1081.552
"688",79.50317,1081.5652
"689",79.47143,1081.5784
"690",79.449455,1081.5918
"691",79.43481,1081.6052
"692",79.42504,1081.6184
"693",79.412834,1081.6316
"694",79.40063,1081.645
"695",79.38842,1081.6584
"696",79.37377,1081.6716
"697",79.35668,1081.6848
"698",79.33715,1081.6982
"699",79.31762,1081.7117
"700",79.290764,1081.7249
"701",79.26147,1081.738
"702",79.22484,1081.7515
"703",79.185776,1081.7649
"704",79.15892,1081.7781
"705",79.185776,1081.7913
"706",79.310295,1081.8047
"707",79.57885,1081.8181
"708",79.9939,1081.8313
"709",80.52369,1081.8445
"710",81.10475,1081.8579
"711",81.64919,1081.8713
"712",82.07156,1081.8845
"713",82.3328,1081.8977
"714",82.43046,1081.9111
"715",82.391396,1081.9246
"716",82.25712,1081.9377
"717",82.06668,1081.9509
"718",81.85672,1081.9644
"719",81.65652,1081.9778
"720",81.46609,1081.991
"721",81.29519,1082.0042
"722",81.13649,1082.0176
"723",80.987564,1082.031
"724",80.850845,1082.0442
"725",80.73365,1082.0574
"726",80.65064,1082.0708
"727",80.6067,1082.0842
"728",80.6067,1082.0974
"729",80.64576,1082.1106
"730",80.69703,1082.124
"731",80.74586,1082.1375
"732",80.77516,1082.1506
"733",80.77272,1082.1638
"734",80.73853,1082.1772
"735",80.672615,1082.1907
"736",80.57496,1082.2039
"737",80.45777,1082.217
"738",80.323494,1082.2305
"739",80.17944,1082.2439
"740",80.03052,1082.2571
"741",79.8938,1082.2703
"742",79.766846,1082.2837
"743",79.65942,1082.2971
"744",79.571526,1082.3103
"745",79.49828,1082.3235
"746",79.44213,1082.3369
"747",79.398186,1082.3503
"748",79.35912,1082.3635
"749",79.33227,1082.3767
"750",79.30785,1082.3901
"751",79.28832,1082.4036
"752",79.26635,1082.4167
"753",79.24437,1082.4299
"754",79.21507,1082.4434
"755",79.183334,1082.4568
"756",79.151596,1082.47
"757",79.14183,1082.4832
"758",79.19798,1082.4966
"759",79.37133,1082.51
"760",79.69848,1082.5232
"761",80.17456,1082.5364
"762",80.75807,1082.5498
"763",81.373314,1082.5632
"764",81.92752,1082.5764
"765",82.34989,1082.5896
"766",82.60624,1082.603
"767",82.70634,1082.6165
"768",82.67704,1082.6296
"769",82.562294,1082.6428
"770",82.40116,1082.6562
"771",82.2327,1082.6697
"772",82.074005,1082.6829
"773",81.934845,1082.696
"774",81.81033,1082.7095
"775",81.69558,1082.7229
"776",81.57351,1082.7361
"777",81.444115,1082.7493
"778",81.30984,1082.7627
"779",81.19264,1082.7761
"780",81.09987,1082.7893
"781",81.04372,1082.8025
"782",81.0193,1082.8159
"783",81.01442,1082.8293
"784",81.01198,1082.8425
"785",80.99977,1082.8557
"786",80.96803,1082.8691
"787",80.907,1082.8826
"788",80.81178,1082.8958
"789",80.68482,1082.9089
"790",80.53101,1082.9224
"791",80.36256,1082.9358
"792",80.18921,1082.949
"793",80.02319,1082.9622
"794",79.871826,1082.9756
"795",79.7351,1082.989
"796",79.61547,1083.0022
"797",79.51049,1083.0154
"798",79.415276,1083.0288
"799",79.33227,1083.0422
"800",79.26147,1083.0554
"801",79.19798,1083.0686
"802",79.14427,1083.082
"803",79.093,1083.0955
"804",79.03441,1083.1086
"805",78.97337,1083.1218
"806",78.907455,1083.1353
"807",78.84398,1083.1487
"808",78.79515,1083.1619
"809",78.79515,1083.175
"810",78.89281,1083.1885
"811",79.14183,1083.2019
"812",79.55932,1083.2151
"813",80.12573,1083.2283
"814",80.780045,1083.2417
"815",81.427025,1083.2551
"816",81.97635,1083.2683
"817",82.371864,1083.2815
"818",82.59647,1083.2949
"819",82.667274,1083.3083
"820",82.62333,1083.3215
"821",82.50858,1083.3347
"822",82.36454,1083.3481
"823",82.22293,1083.3616
"824",82.10574,1083.3748
"825",82.01541,1083.388
"826",81.93729,1083.4014
"827",81.846954,1083.4148
"828",81.72976,1083.428
"829",81.57351,1083.4412
"830",81.38552,1083.4546
"831",81.19508,1083.468
"832",81.02174,1083.4812
"833",80.885025,1083.4944
"834",80.78493,1083.5078
"835",80.71168,1083.5212
"836",80.65064,1083.5344
"837",80.58228,1083.5476
"838",80.49683,1083.561
"839",80.38941,1083.5745
"840",80.255135,1083.5876
"841",80.096436,1083.6008
"842",79.923096,1083.6143
"843",79.73998,1083.6277
"844",79.551994,1083.6409
"845",79.36889,1083.654
"846",79.19066,1083.6675
"847",79.0222,1083.6809
"848",78.86595,1083.6941
"849",78.73167,1083.7073
"850",78.61692,1083.7207
"851",78.521706,1083.7341
"852",78.4387,1083.7473
"853",78.365456,1083.7605
"854",78.2971,1083.7739
"855",78.23361,1083.7874
"856",78.170135,1083.8005
"857",78.1091,1083.8137
"858",78.048065,1083.8271
"859",77.98459,1083.8406
"860",77.93088,1083.8538
"861",77.91623,1083.867
"862",77.98459,1083.8804
"863",78.19943,1083.8938
"864",78.590065,1083.907
"865",79.14183,1083.9202
"866",79.80591,1083.9336
"867",80.49195,1083.947
"868",81.092545,1083.9602
"869",81.54177,1083.9734
"870",81.82254,1083.9868
"871",81.93973,1084.0002
"872",81.934845,1084.0134
"873",81.85672,1084.0266
"874",81.74685,1084.04
"875",81.63943,1084.0535
"876",81.54665,1084.0667
"877",81.478294,1084.0798
"878",81.42214,1084.0933
"879",81.356224,1084.1067
"880",81.253685,1084.1199
"881",81.112076,1084.133
"882",80.936295,1084.1465
"883",80.743416,1084.1599
"884",80.55543,1084.1731
"885",80.38941,1084.1863
"886",80.26002,1084.1997
"887",80.15747,1084.2131
"888",80.06958,1084.2263
"889",79.98657,1084.2395
"890",79.89624,1084.2529
"891",79.7937,1084.2664
"892",79.66674,1084.2795
"893",79.52514,1084.2927
"894",79.36645,1084.3062
"895",79.19798,1084.3196
"896",79.02464,1084.3328
"897",78.85863,1084.346
"898",78.69749,1084.3594
"899",78.54612,1084.3728
"900",78.40208,1084.386
"901",78.27268,1084.3992
"902",78.15549,1084.4126
"903",78.05783,1084.426
"904",77.977264,1084.4392
"905",77.91623,1084.4524
"906",77.8674,1084.4658
"907",77.81857,1084.4792
"908",77.77219,1084.4924
"909",77.733116,1084.5056
"910",77.696495,1084.519
"911",77.659874,1084.5325
"912",77.628136,1084.5457
"913",77.593956,1084.5588
"914",77.54757,1084.5723
"915",77.49874,1084.5857
"916",77.452354,1084.5989
"917",77.43038,1084.612
"918",77.48165,1084.6255
"919",77.65743,1084.6389
"920",78.00412,1084.6521
"921",78.52659,1084.6653
"922",79.183334,1084.6787
"923",79.89136,1084.6921
"924",80.55787,1084.7053
"925",81.08766,1084.7185
"926",81.444115,1084.7319
"927",81.62234,1084.7454
"928",81.66384,1084.7585
"929",81.61501,1084.7717
"930",81.52224,1084.7852
"931",81.42947,1084.7986
"932",81.356224,1084.8118
"933",81.30984,1084.825
"934",81.28298,1084.8384
"935",81.25857,1084.8518
"936",81.20729,1084.865
"937",81.109634,1084.8782
"938",80.96071,1084.8916
"939",80.77516,1084.905
"940",80.57496,1084.9182
"941",80.38941,1084.9314
"942",80.235596,1084.9448
"943",80.11597,1084.9583
"944",80.02319,1084.9714
"945",79.94995,1084.9846
"946",79.87915,1084.998
"947",79.79614,1085.0115
"948",79.69848,1085.0247
"949",79.586174,1085.0378
"950",79.45678,1085.0513
"951",79.31762,1085.0647
"952",79.17357,1085.0779
"953",79.029526,1085.0911
"954",78.887924,1085.1045
"955",78.751205,1085.1179
"956",78.626686,1085.1311
"957",78.51438,1085.1443
"958",78.41917,1085.1577
"959",78.3386,1085.1711
"960",78.260475,1085.1843
"961",78.19211,1085.1975
"962",78.135956,1085.2109
"963",78.08713,1085.2244
"964",78.04562,1085.2375
"965",78.009,1085.2507
"966",77.977264,1085.2642
"967",77.94797,1085.2776
"968",77.91867,1085.2908
"969",77.891815,1085.304
"970",77.86984,1085.3174
"971",77.84543,1085.3308
"972",77.823456,1085.344
"973",77.80148,1085.3572
"974",77.77951,1085.3706
"975",77.75998,1085.384
"976",77.74288,1085.3972
"977",77.72823,1085.4104
"978",77.713585,1085.4238
"979",77.70382,1085.4373
"980",77.70382,1085.4504
"981",77.75754,1085.4636
"982",77.91867,1085.477
"983",78.24094,1085.4905
"984",78.74387,1085.5037
"985",79.398186,1085.5168
"986",80.12573,1085.5303
"987",80.82399,1085.5437
"988",81.3904,1085.5569
"989",81.77615,1085.5701
"990",81.971466,1085.5835
"991",82.01541,1085.5969
"992",81.95926,1085.6101
"993",81.8616,1085.6233
"994",81.76395,1085.6367
"995",81.6907,1085.6501
"996",81.654076,1085.6633
"997",81.63943,1085.6765
"998",81.62966,1085.69
"999",81.602806,1085.7034
"1000",81.532005,1085.7166
"1001",81.41482,1085.7297
"1002",81.248795,1085.7432
"1003",81.058365,1085.7566
"1004",80.87038,1085.7698
"1005",80.706795,1085.783
"1006",80.5774,1085.7964
"1007",80.479744,1085.8098
"1008",80.4065,1085.823
"1009",80.34058,1085.8362
"1010",80.26978,1085.8496
"1011",80.181885,1085.863
"1012",80.076904,1085.8762
"1013",79.954834,1085.8894
"1014",79.818115,1085.9028
"1015",79.67895,1085.9163
"1016",79.537346,1085.9294
"1017",79.40063,1085.9426
"1018",79.26879,1085.956
"1019",79.149155,1085.9695
"1020",79.03929,1085.9827
"1021",78.93919,1085.9958
"1022",78.853745,1086.0093
"1023",78.77562,1086.0227
"1024",78.709694,1086.0359
"1025",78.6511,1086.0491
"1026",78.60471,1086.0625
"1027",78.55833,1086.0759
"1028",78.51682,1086.0891
"1029",78.4802,1086.1023
"1030",78.44602,1086.1157
"1031",78.41428,1086.1292
"1032",78.382545,1086.1423
"1033",78.345924,1086.1555
"1034",78.311745,1086.169
"1035",78.28001,1086.1824
"1036",78.25071,1086.1956
"1037",78.22873,1086.2087
"1038",78.21652,1086.2222
"1039",78.21164,1086.2356
"1040",78.204315,1086.2488
"1041",78.19455,1086.262
"1042",78.187225,1086.2754
"1043",78.18234,1086.2888
"1044",78.17746,1086.302
"1045",78.17502,1086.3152
"1046",78.17258,1086.3286
"1047",78.184784,1086.342
"1048",78.24582,1086.3552
"1049",78.40452,1086.3684
"1050",78.7219,1086.3818
"1051",79.21507,1086.3953
"1052",79.85718,1086.4084
"1053",80.57496,1086.4216
"1054",81.26101,1086.435
"1055",81.8201,1086.4485
"1056",82.19119,1086.4617
"1057",82.371864,1086.4749
"1058",82.39872,1086.4883
"1059",82.32548,1086.5017
"1060",82.210724,1086.5149
"1061",82.1033,1086.5281
"1062",82.02518,1086.5415
"1063",81.98367,1086.5549
"1064",81.969025,1086.5681
"1065",81.95926,1086.5813
"1066",81.934845,1086.5947
"1067",81.87381,1086.6082
"1068",81.75906,1086.6213
"1069",81.59304,1086.6345
"1070",81.40017,1086.648
"1071",81.197525,1086.6614
"1072",81.00954,1086.6746
"1073",80.85573,1086.6877
"1074",80.743416,1086.7012
"1075",80.655525,1086.7146
"1076",80.587166,1086.7278
"1077",80.51392,1086.741
"1078",80.43336,1086.7544
"1079",80.34058,1086.7678
"1080",80.23804,1086.781
"1081",80.12085,1086.7942
"1082",79.99634,1086.8076
"1083",79.869385,1086.821
"1084",79.73998,1086.8342
"1085",79.61059,1086.8474
"1086",79.48852,1086.8608
"1087",79.378654,1086.8743
"1088",79.27856,1086.8875
"1089",79.19066,1086.9006
"1090",79.11009,1086.9141
"1091",79.03929,1086.9275
"1092",78.96849,1086.9407
"1093",78.905014,1086.9539
"1094",78.84642,1086.9673
"1095",78.80003,1086.9807
"1096",78.75853,1086.9939
"1097",78.72678,1087.0071
"1098",78.69749,1087.0205
"1099",78.67307,1087.0339
"1100",78.643776,1087.0471
"1101",78.61204,1087.0603
"1102",78.5803,1087.0737
"1103",78.54856,1087.0872
"1104",78.519264,1087.1003
"1105",78.49241,1087.1135
"1106",78.470436,1087.127
"1107",78.45579,1087.1404
"1108",78.44114,1087.1536
"1109",78.42649,1087.1667
"1110",78.41428,1087.1802
"1111",78.40208,1087.1936
"1112",78.39475,1087.2068
"1113",78.39475,1087.22
"1114",78.399635,1087.2334
"1115",78.4094,1087.2468
"1116",78.416725,1087.26
"1117",78.41917,1087.2732
"1118",78.416725,1087.2866
"1119",78.4094,1087.3
"1120",78.4094,1087.3132
"1121",78.44602,1087.3264
"1122",78.56565,1087.3398
"1123",78.82933,1087.3533
"1124",79.27123,1087.3665
"1125",79.87915,1087.3796
"1126",80.59449,1087.3931
"1127",81.31716,1087.4065
"1128",81.93973,1087.4197
"1129",82.38163,1087.4329
"1130",82.62089,1087.4463
"1131",82.68192,1087.4597
"1132",82.616005,1087.4729
"1133",82.48173,1087.4861
"1134",82.3328,1087.4995
"1135",82.20828,1087.513
"1136",82.125275,1087.5261
"1137",82.08621,1087.5393
"1138",82.07645,1087.5527
"1139",82.06668,1087.5662
"1140",82.03494,1087.5793
"1141",81.951935,1087.5925
"1142",81.81766,1087.606
"1143",81.63943,1087.6194
"1144",81.44167,1087.6326
"1145",81.24635,1087.6458
"1146",81.08278,1087.6592
"1147",80.955826,1087.6726
"1148",80.867935,1087.6858
"1149",80.80202,1087.699
"1150",80.743416,1087.7124
"1151",80.67506,1087.7258
"1152",80.58961,1087.739
"1153",80.48707,1087.7522
"1154",80.36988,1087.7656
"1155",80.24292,1087.779
"1156",80.111084,1087.7922
"1157",79.971924,1087.8054
"1158",79.835205,1087.8188
"1159",79.70336,1087.8323
"1160",79.586174,1087.8455
"1161",79.483635,1087.8586
"1162",79.40063,1087.8721
"1163",79.327385,1087.8855
"1164",79.26147,1087.8987
"1165",79.19554,1087.9119
"1166",79.13451,1087.9253
"1167",79.080795,1087.9387
"1168",79.03441,1087.9519
"1169",79.00023,1087.9651
"1170",78.96849,1087.9785
"1171",78.941635,1087.992
"1172",78.91234,1088.0051
"1173",78.87816,1088.0183
"1174",78.84154,1088.0317
"1175",78.802475,1088.0452
"1176",78.768295,1088.0583
"1177",78.73655,1088.0715
"1178",78.70725,1088.085
"1179",78.6804,1088.0984
"1180",78.658424,1088.1116
"1181",78.63889,1088.1248
"1182",78.6218,1088.1382
"1183",78.60227,1088.1516
"1184",78.58762,1088.1648
"1185",78.57542,1088.178
"1186",78.56565,1088.1914
"1187",78.555885,1088.2048
"1188",78.551,1088.218
"1189",78.551,1088.2312
"1190",78.551,1088.2446
"1191",78.555885,1088.258
"1192",78.56077,1088.2712
"1193",78.56321,1088.2844
"1194",78.56565,1088.2979
"1195",78.57053,1088.3113
"1196",78.57053,1088.3245
"1197",78.572975,1088.3376
"1198",78.59739,1088.3511
"1199",78.675514,1088.3645
"1200",78.86107,1088.3777
"1201",79.21263,1088.3909
"1202",79.73754,1088.4043
"1203",80.396736,1088.4177
"1204",81.109634,1088.4309
"1205",81.77127,1088.4441
"1206",82.28153,1088.4575
"1207",82.58915,1088.471
"1208",82.69901,1088.4841
"1209",82.65507,1088.4973
"1210",82.50614,1088.5107
"1211",82.31083,1088.5242
"1212",82.11795,1088.5374
"1213",81.9617,1088.5505
"1214",81.85428,1088.564
"1215",81.78836,1088.5774
"1216",81.74685,1088.5906
"1217",81.705345,1088.6038
"1218",81.64187,1088.6172
"1219",81.54177,1088.6306
"1220",81.40749,1088.6438
"1221",81.25613,1088.657
"1222",81.109634,1088.6704
"1223",80.98268,1088.6838
"1224",80.88258,1088.697
"1225",80.81178,1088.7102
"1226",80.75807,1088.7236
"1227",80.70435,1088.737
"1228",80.64088,1088.7502
"1229",80.56031,1088.7634
"1230",80.46021,1088.7769
"1231",80.343025,1088.7903
"1232",80.21118,1088.8035
"1233",80.076904,1088.8167
"1234",79.940186,1088.8301
"1235",79.80591,1088.8435
"1236",79.68383,1088.8567
"1237",79.57641,1088.8699
"1238",79.47875,1088.8833
"1239",79.398186,1088.8967
"1240",79.33227,1088.9099
"1241",79.273674,1088.9231
"1242",79.2224,1088.9365
"1243",79.18089,1088.95
"1244",79.14671,1088.9631
"1245",79.114975,1088.9763
"1246",79.08568,1088.9897
"1247",79.05882,1089.0032
"1248",79.029526,1089.0164
"1249",78.99779,1089.0295
"1250",78.96605,1089.043
"1251",78.93431,1089.0564
"1252",78.90257,1089.0696
"1253",78.873276,1089.0828
"1254",78.84642,1089.0962
"1255",78.82689,1089.1096
"1256",78.80736,1089.1228
"1257",78.78783,1089.136
"1258",78.77318,1089.1494
"1259",78.75853,1089.1628
"1260",78.74143,1089.176
"1261",78.72434,1089.1892
"1262",78.712135,1089.2026
"1263",78.70237,1089.2161
"1264",78.69016,1089.2292
"1265",78.68284,1089.2424
"1266",78.6804,1089.2559
"1267",78.6804,1089.2693
"1268",78.6804,1089.2825
"1269",78.6804,1089.2957
"1270",78.6804,1089.3091
"1271",78.68284,1089.3225
"1272",78.69016,1089.3357
"1273",78.69993,1089.3489
"1274",78.712135,1089.3623
"1275",78.73899,1089.3757
"1276",78.8098,1089.3889
"1277",78.99046,1089.4021
"1278",79.33715,1089.4155
"1279",79.8645,1089.429
"1280",80.52613,1089.4421
"1281",81.24147,1089.4553
"1282",81.89334,1089.4688
"1283",82.37919,1089.4822
"1284",82.652626,1089.4954
"1285",82.718544,1089.5085
"1286",82.62821,1089.522
"1287",82.43534,1089.5354
"1288",82.19119,1089.5486
"1289",81.94949,1089.5618
"1290",81.74441,1089.5752
"1291",81.58816,1089.5886
"1292",81.480736,1089.6018
"1293",81.40505,1089.615
"1294",81.341576,1089.6284
"1295",81.270775,1089.6418
"1296",81.180435,1089.655
"1297",81.075455,1089.6682
"1298",80.96803,1089.6816
"1299",80.8777,1089.6951
"1300",80.81178,1089.7083
"1301",80.76784,1089.7214
"1302",80.73853,1089.7349
"1303",80.706795,1089.7483
"1304",80.66529,1089.7615
"1305",80.6067,1089.7747
"1306",80.52857,1089.7881
"1307",80.4358,1089.8015
"1308",80.32838,1089.8147
"1309",80.2063,1089.8279
"1310",80.08179,1089.8413
"1311",79.954834,1089.8547
"1312",79.83032,1089.8679
"1313",79.71801,1089.8811
"1314",79.61791,1089.8945
"1315",79.53246,1089.908
"1316",79.45922,1089.9211
"1317",79.40063,1089.9343
"1318",79.34936,1089.9478
"1319",79.31274,1089.9612
"1320",79.281,1089.9744
"1321",79.2517,1089.9875
"1322",79.2224,1090.001
"1323",79.19554,1090.0144
"1324",79.17357,1090.0276
"1325",79.15404,1090.0408
"1326",79.13939,1090.0542
"1327",79.12474,1090.0676
"1328",79.11009,1090.0808
"1329",79.09544,1090.094
"1330",79.07591,1090.1074
"1331",79.05394,1090.1208
"1332",79.03197,1090.134
"1333",79.01488,1090.1472
"1334",78.99779,1090.1606
"1335",78.975815,1090.1741
"1336",78.9514,1090.1873
"1337",78.924545,1090.2004
"1338",78.90013,1090.2139
"1339",78.8806,1090.2273
"1340",78.870834,1090.2405
"1341",78.86351,1090.2537
"1342",78.86595,1090.2671
"1343",78.86839,1090.2805
"1344",78.87572,1090.2937
"1345",78.8806,1090.3069
"1346",78.88548,1090.3203
"1347",78.890366,1090.3337
"1348",78.89525,1090.3469
"1349",78.90257,1090.3601
"1350",78.91234,1090.3735
"1351",78.924545,1090.387
"1352",78.93919,1090.4001
"1353",78.97093,1090.4133
"1354",79.07347,1090.4268
"1355",79.30785,1090.4402
"1356",79.71557,1090.4534
"1357",80.2942,1090.4666
"1358",80.987564,1090.48
"1359",81.69314,1090.4934
"1360",82.30106,1090.5066
"1361",82.72587,1090.5198
"1362",82.94072,1090.5332
"1363",82.96025,1090.5466
"1364",82.828415,1090.5598
"1365",82.60136,1090.573
"1366",82.33036,1090.5864
"1367",82.06668,1090.5999
"1368",81.83719,1090.613
"1369",81.64919,1090.6262
"1370",81.50515,1090.6396
"1371",81.39529,1090.6531
"1372",81.29763,1090.6663
"1373",81.20485,1090.6794
"1374",81.109634,1090.6929
"1375",81.024185,1090.7063
"1376",80.953384,1090.7195
"1377",80.90456,1090.7327
"1378",80.8777,1090.7461
"1379",80.87038,1090.7595
"1380",80.867935,1090.7727
"1381",80.85329,1090.7859
"1382",80.81911,1090.7993
"1383",80.75807,1090.8127
"1384",80.67506,1090.8259
"1385",80.567635,1090.8391
"1386",80.448006,1090.8525
"1387",80.31861,1090.866
"1388",80.18677,1090.8792
"1389",80.05493,1090.8923
"1390",79.9353,1090.9058
"1391",79.82788,1090.9192
"1392",79.73266,1090.9324
"1393",79.65209,1090.9456
"1394",79.58373,1090.959
"1395",79.5227,1090.9724
"1396",79.46899,1090.9856
"1397",79.4226,1090.9988
"1398",79.381096,1091.0122
"1399",79.34936,1091.0256
"1400",79.3225,1091.0388
"1401",79.30053,1091.052
"1402",79.27856,1091.0654
"1403",79.259026,1091.0789
"1404",79.24437,1091.092
"1405",79.22728,1091.1052
"1406",79.21263,1091.1187
"1407",79.19798,1091.1321
"1408",79.18089,1091.1453
"1409",79.15892,1091.1584
"1410",79.13939,1091.1719
"1411",79.114975,1091.1853
"1412",79.09056,1091.1985
"1413",79.06859,1091.2117
"1414",79.046616,1091.2251
"1415",79.02464,1091.2385
"1416",79.00755,1091.2517
"1417",78.99046,1091.2649
"1418",78.9807,1091.2783
"1419",78.975815,1091.2917
"1420",78.97093,1091.3049
"1421",78.96849,1091.3181
"1422",78.97093,1091.3315
"1423",78.96849,1091.345
"1424",78.96361,1091.3582
"1425",78.958725,1091.3713
"1426",78.95384,1091.3848
"1427",78.94408,1091.3982
"1428",78.94408,1091.4114
"1429",78.97826,1091.4246
"1430",79.10521,1091.438
"1431",79.38842,1091.4514
"1432",79.852295,1091.4646
"1433",80.48707,1091.4778
"1434",81.21706,1091.4912
"1435",81.92996,1091.5046
"1436",82.51591,1091.5178
"1437",82.9041,1091.531
"1438",83.075,1091.5444
"1439",83.06279,1091.5579
"1440",82.90898,1091.571
"1441",82.67216,1091.5842
"1442",82.39628,1091.5977
"1443",82.13016,1091.6111
"1444",81.88846,1091.6243
"1445",81.69314,1091.6375
"1446",81.54177,1091.6509
"1447",81.41726,1091.6643
"1448",81.30984,1091.6775
"1449",81.21217,1091.6907
"1450",81.12428,1091.7041
"1451",81.05104,1091.7175
"1452",81.00221,1091.7307
"1453",80.9778,1091.7439
"1454",80.972916,1091.7573
"1455",80.98024,1091.7708
"1456",80.987564,1091.7839
"1457",80.98268,1091.7971
"1458",80.9485,1091.8105
"1459",80.885025,1091.824
"1460",80.79469,1091.8372
"1461",80.67506,1091.8503
"1462",80.54078,1091.8638
"1463",80.39918,1091.8772
"1464",80.26002,1091.8904
"1465",80.12573,1091.9036
"1466",79.99878,1091.917
"1467",79.88159,1091.9304
"1468",79.77417,1091.9436
"1469",79.68627,1091.9568
"1470",79.61547,1091.9702
"1471",79.55932,1091.9836
"1472",79.51293,1091.9968
"1473",79.47387,1092.01
"1474",79.43969,1092.0234
"1475",79.40307,1092.0369
"1476",79.37377,1092.05
"1477",79.34692,1092.0632
"1478",79.32006,1092.0767
"1479",79.29565,1092.0901
"1480",79.273674,1092.1033
"1481",79.2517,1092.1165
"1482",79.22972,1092.1299
"1483",79.20531,1092.1433
"1484",79.183334,1092.1565
"1485",79.15404,1092.1697
"1486",79.1223,1092.1831
"1487",79.093,1092.1965
"1488",79.06859,1092.2097
"1489",79.044174,1092.2229
"1490",79.01976,1092.2363
"1491",79.00267,1092.2498
"1492",78.99046,1092.263
"1493",78.9807,1092.2761
"1494",78.97337,1092.2896
"1495",78.96605,1092.303
"1496",78.95628,1092.3162
"1497",78.94896,1092.3293
"1498",78.93675,1092.3428
"1499",78.92699,1092.3562
"1500",78.91722,1092.3694
"1501",78.905014,1092.3826
"1502",78.90257,1092.396
"1503",78.958725,1092.4094
"1504",79.132065,1092.4226
"1505",79.48119,1092.4358
"1506",80.01831,1092.4492
"1507",80.70435,1092.4626
"1508",81.45144,1092.4758
"1509",82.142365,1092.489
"1510",82.67704,1092.5024
"1511",83.00908,1092.5159
"1512",83.140915,1092.529
"1513",83.09697,1092.5422
"1514",82.93584,1092.5557
"1515",82.701454,1092.5691
"1516",82.44755,1092.5823
"1517",82.19852,1092.5955
"1518",81.988556,1092.6089
"1519",81.8201,1092.6223
"1520",81.688255,1092.6355
"1521",81.58083,1092.6487
"1522",81.48318,1092.6621
"1523",81.38796,1092.6755
"1524",81.30251,1092.6887
"1525",81.234146,1092.7019
"1526",81.19264,1092.7153
"1527",81.17799,1092.7288
"1528",81.18532,1092.742
"1529",81.19997,1092.7551
"1530",81.19997,1092.7686
"1531",81.180435,1092.782
"1532",81.13649,1092.7952
"1533",81.058365,1092.8083
"1534",80.95094,1092.8218
"1535",80.82155,1092.8352
"1536",80.6775,1092.8484
"1537",80.52613,1092.8616
"1538",80.37965,1092.875
"1539",80.23804,1092.8884
"1540",80.10376,1092.9016
"1541",79.97681,1092.9148
"1542",79.86694,1092.9282
"1543",79.766846,1092.9417
"1544",79.68383,1092.9548
"1545",79.61791,1092.968
"1546",79.5642,1092.9814
"1547",79.517815,1092.9949
"1548",79.47631,1093.008
"1549",79.43969,1093.0212
"1550",79.40795,1093.0347
"1551",79.381096,1093.0481
"1552",79.35424,1093.0613
"1553",79.33227,1093.0745
"1554",79.310295,1093.0879
"1555",79.28344,1093.1013
"1556",79.256584,1093.1145
"1557",79.23216,1093.1277
"1558",79.202866,1093.1411
"1559",79.168686,1093.1545
"1560",79.13451,1093.1677
"1561",79.10521,1093.1809
"1562",79.06859,1093.1943
"1563",79.03441,1093.2078
"1564",79.00267,1093.221
"1565",78.975815,1093.2341
"1566",78.94652,1093.2476
"1567",78.922104,1093.261
"1568",78.89525,1093.2742
"1569",78.873276,1093.2874
"1570",78.86107,1093.3008
"1571",78.905014,1093.3142
"1572",79.061264,1093.3274
"1573",79.378654,1093.3406
"1574",79.869385,1093.354
"1575",80.49439,1093.3674
"1576",81.17799,1093.3806
"1577",81.815216,1093.3938
"1578",82.31571,1093.4072
"1579",82.62577,1093.4207
"1580",82.74784,1093.4338
"1581",82.7161,1093.447
"1582",82.56962,1093.4604
"1583",82.3621,1093.4739
"1584",82.13016,1093.487
"1585",81.90799,1093.5002
"1586",81.70779,1093.5137
"1587",81.529564,1093.5271
"1588",81.37087,1093.5403
"1589",81.22438,1093.5535
"1590",81.08766,1093.5669
"1591",80.96559,1093.5803
"1592",80.87282,1093.5935
"1593",80.81911,1093.6067
"1594",80.80934,1093.6201
"1595",80.83864,1093.6335
"1596",80.88991,1093.6467
"1597",80.94362,1093.6599
"1598",80.972916,1093.6733
"1599",80.970474,1093.6868
"1600",80.92653,1093.7
"1601",80.84108,1093.7131
"1602",80.72144,1093.7266
"1603",80.5774,1093.74
"1604",80.41627,1093.7532
"1605",80.25269,1093.7664
"1606",80.093994,1093.7798
"1607",79.94507,1093.7932
"1608",79.80591,1093.8064
"1609",79.68139,1093.8196
"1610",79.571526,1093.833
"1611",79.47631,1093.8464
"1612",79.395744,1093.8596
"1613",79.33227,1093.8728
"1614",79.28344,1093.8862
"1615",79.24681,1093.8997
"1616",79.217514,1093.9128
"1617",79.1931,1093.926
"1618",79.168686,1093.9395
"1619",79.149155,1093.9529
"1620",79.132065,1093.9661
"1621",79.11009,1093.9792
"1622",79.078354,1093.9927
"1623",79.03441,1094.0061
"1624",78.975815,1094.0193
"1625",78.905014,1094.0325
"1626",78.84398,1094.0459
"1627",78.819565,1094.0593
"1628",78.873276,1094.0725
"1629",79.05882,1094.0857
"1630",79.40795,1094.0991
"1631",79.90845,1094.1125
"1632",80.50904,1094.1257
"1633",81.13405,1094.1389
"1634",81.6907,1094.1523
"1635",82.09842,1094.1658
"1636",82.33036,1094.179
"1637",82.39872,1094.1921
"1638",82.337685,1094.2056
"1639",82.18387,1094.219
"1640",81.986115,1094.2322
"1641",81.778595,1094.2454
"1642",81.58572,1094.2588
"1643",81.409935,1094.2722
"1644",81.253685,1094.2854
"1645",81.10719,1094.2986
"1646",80.96315,1094.312
"1647",80.82399,1094.3254
"1648",80.69703,1094.3386
"1649",80.604256,1094.3518
"1650",80.552986,1094.3652
"1651",80.53834,1094.3787
"1652",80.55787,1094.3918
"1653",80.58228,1094.405
"1654",80.59693,1094.4185
"1655",80.584724,1094.4319
"1656",80.54078,1094.4451
"1657",80.462654,1094.4583
"1658",80.35279,1094.4717
"1659",80.216064,1094.4851
"1660",80.062256,1094.4983
"1661",79.90112,1094.5115
"1662",79.73998,1094.5249
"1663",79.59106,1094.5383
"1664",79.449455,1094.5515
"1665",79.3225,1094.5647
"1666",79.20775,1094.5781
"1667",79.10765,1094.5916
"1668",79.01976,1094.6047
"1669",78.95384,1094.6179
"1670",78.90257,1094.6313
"1671",78.86107,1094.6448
"1672",78.82933,1094.658
"1673",78.80003,1094.6711
"1674",78.77074,1094.6846
"1675",78.73899,1094.698
"1676",78.69749,1094.7112
"1677",78.65354,1094.7244
"1678",78.6096,1094.7378
"1679",78.59251,1094.7512
"1680",78.64866,1094.7644
"1681",78.839096,1094.7776
"1682",79.1931,1094.791
"1683",79.7058,1094.8044
"1684",80.33082,1094.8176
"1685",80.987564,1094.8308
"1686",81.57595,1094.8442
"1687",82.02762,1094.8577
"1688",82.30839,1094.8708
"1689",82.425575,1094.884
"1690",82.406044,1094.8975
"1691",82.2913,1094.9109
"1692",82.125275,1094.9241
"1693",81.94461,1094.9373
"1694",81.77615,1094.9507
"1695",81.634544,1094.9641
"1696",81.51736,1094.9773
"1697",81.41482,1094.9905
"1698",81.304955,1095.0039
"1699",81.17799,1095.0173
"1700",81.03639,1095.0305
"1701",80.89723,1095.0437
"1702",80.77516,1095.0571
"1703",80.68482,1095.0706
"1704",80.63111,1095.0837
"1705",80.59937,1095.0969
"1706",80.57984,1095.1104
"1707",80.550545,1095.1238
"1708",80.50416,1095.137
"1709",80.42603,1095.1501
"1710",80.31373,1095.1636
"1711",80.17212,1095.177
"1712",80.00366,1095.1902
"1713",79.823,1095.2034
"1714",79.64477,1095.2168
"1715",79.47875,1095.2302
"1716",79.327385,1095.2434
"1717",79.18822,1095.2566
"1718",79.06859,1095.27
"1719",78.96361,1095.2834
"1720",78.873276,1095.2966
"1721",78.79271,1095.3098
"1722",78.729225,1095.3232
"1723",78.67307,1095.3367
"1724",78.624245,1095.3499
"1725",78.57542,1095.363
"1726",78.52659,1095.3765
"1727",78.47776,1095.3899
"1728",78.42405,1095.4031
"1729",78.37278,1095.4163
"1730",78.35569,1095.4297
"1731",78.416725,1095.4431
"1732",78.6096,1095.4563
"1733",78.96849,1095.4695
"1734",79.4934,1095.4829
"1735",80.1355,1095.4963
"1736",80.8069,1095.5095
"1737",81.41238,1095.5227
"1738",81.87869,1095.5361
"1739",82.16922,1095.5496
"1740",82.2913,1095.5627
"1741",82.28397,1095.5759
"1742",82.193634,1095.5894
"1743",82.06912,1095.6028
"1744",81.94461,1095.616
"1745",81.83719,1095.6292
"1746",81.75418,1095.6426
"1747",81.688255,1095.656
"1748",81.61501,1095.6692
"1749",81.5198,1095.6824
"1750",81.38796,1095.6958
"1751",81.22438,1095.7092
"1752",81.04372,1095.7224
"1753",80.867935,1095.7356
"1754",80.723885,1095.749
"1755",80.618904,1095.7625
"1756",80.54078,1095.7756
"1757",80.4773,1095.7888
"1758",80.40894,1095.8022
"1759",80.323494,1095.8157
"1760",80.216064,1095.8289
"1761",80.08911,1095.842
"1762",79.94507,1095.8555
"1763",79.78638,1095.8689
"1764",79.62035,1095.8821
"1765",79.447014,1095.8953
"1766",79.26879,1095.9087
"1767",79.09544,1095.9221
"1768",78.93919,1095.9353
"1769",78.802475,1095.9485
"1770",78.68528,1095.9619
"1771",78.590065,1095.9753
"1772",78.51194,1095.9885
"1773",78.44114,1096.0017
"1774",78.37522,1096.0151
"1775",78.311745,1096.0286
"1776",78.25559,1096.0417
"1777",78.20676,1096.0549
"1778",78.15549,1096.0684
"1779",78.099335,1096.0818
"1780",78.04318,1096.095
"1781",77.994354,1096.1082
"1782",77.98215,1096.1216
"1783",78.05783,1096.135
"1784",78.27268,1096.1482
"1785",78.65354,1096.1614
"1786",79.1931,1096.1748
"1787",79.83765,1096.1882
"1788",80.50416,1096.2014
"1789",81.092545,1096.2146
"1790",81.53933,1096.228
"1791",81.815216,1096.2415
"1792",81.93729,1096.2546
"1793",81.94217,1096.2678
"1794",81.87625,1096.2812
"1795",81.78836,1096.2947
"1796",81.705345,1096.3079
"1797",81.64187,1096.321
"1798",81.602806,1096.3345
"1799",81.57351,1096.3479
"1800",81.529564,1096.3611
"1801",81.446556,1096.3743
"1802",81.31228,1096.3877
"1803",81.12428,1096.4011
"1804",80.907,1096.4143
"1805",80.68726,1096.4275
"1806",80.49683,1096.4409
"1807",80.35035,1096.4543
"1808",80.23804,1096.4675
"1809",80.147705,1096.4807
"1810",80.0647,1096.4941
"1811",79.96948,1096.5076
"1812",79.852295,1096.5208
"1813",79.71801,1096.5339
"1814",79.569084,1096.5474
"1815",79.40551,1096.5608
"1816",79.237045,1096.574
"1817",79.07103,1096.5872
"1818",78.907455,1096.6006
"1819",78.75365,1096.614
"1820",78.6096,1096.6272
"1821",78.4802,1096.6404
"1822",78.365456,1096.6538
"1823",78.26292,1096.6672
"1824",78.17746,1096.6804
"1825",78.101776,1096.6936
"1826",78.03342,1096.707
"1827",77.977264,1096.7205
"1828",77.92844,1096.7336
"1829",77.88937,1096.7468
"1830",77.85275,1096.7603
"1831",77.81857,1096.7737
"1832",77.77951,1096.7869
"1833",77.738,1096.8
"1834",77.68917,1096.8135
"1835",77.6379,1096.8269
"1836",77.58907,1096.8401
"1837",77.55001,1096.8533
"1838",77.523155,1096.8667
"1839",77.5256,1096.8801
"1840",77.60372,1096.8933
"1841",77.806366,1096.9065
"1842",78.17258,1096.9199
"1843",78.70481,1096.9333
"1844",79.35912,1096.9465
"1845",80.042725,1096.9597
"1846",80.66041,1096.9731
"1847",81.13649,1096.9866
"1848",81.43923,1096.9998
"1849",81.583275,1097.013
"1850",81.61013,1097.0264
"1851",81.56863,1097.0398
"1852",81.50759,1097.053
"1853",81.45144,1097.0662
"1854",81.42214,1097.0796
"1855",81.42214,1097.093
"1856",81.43191,1097.1062
"1857",81.41726,1097.1194
"1858",81.36599,1097.1328
"1859",81.25857,1097.1462
"1860",81.092545,1097.1594
"1861",80.885025,1097.1726
"1862",80.66773,1097.186
"1863",80.47242,1097.1995
"1864",80.31373,1097.2126
"1865",80.198975,1097.2258
"1866",80.11597,1097.2393
"1867",80.05005,1097.2527
"1868",79.97925,1097.2659
"1869",79.8938,1097.279
"1870",79.79126,1097.2925
"1871",79.6643,1097.3059
"1872",79.52514,1097.3191
"1873",79.37621,1097.3323
"1874",79.22728,1097.3457
"1875",79.08324,1097.3591
"1876",78.94896,1097.3723
"1877",78.82933,1097.3855
"1878",78.71458,1097.3989
"1879",78.607155,1097.4124
"1880",78.51194,1097.4255
"1881",78.42649,1097.4387
"1882",78.35569,1097.4521
"1883",78.29954,1097.4656
"1884",78.25559,1097.4788
"1885",78.21652,1097.492
"1886",78.18234,1097.5054
"1887",78.14816,1097.5188
"1888",78.116425,1097.532
"1889",78.082245,1097.5452
"1890",78.048065,1097.5586
"1891",78.01633,1097.572
"1892",77.98215,1097.5852
"1893",77.95285,1097.5984
"1894",77.925995,1097.6118
"1895",77.90402,1097.6252
"1896",77.88449,1097.6384
"1897",77.872284,1097.6516
"1898",77.86496,1097.665
"1899",77.86496,1097.6785
"1900",77.86984,1097.6917
"1901",77.87717,1097.7048
"1902",77.88693,1097.7183
"1903",77.89914,1097.7317
"1904",77.908905,1097.7449
"1905",77.92111,1097.758
"1906",77.92844,1097.7715
"1907",77.9382,1097.7849
"1908",77.943085,1097.7981
"1909",77.95285,1097.8113
"1910",77.96994,1097.8247
"1911",78.02609,1097.8381
"1912",78.167694,1097.8513
"1913",78.450905,1097.8645
"1914",78.905014,1097.8779
"1915",79.51537,1097.8914
"1916",80.216064,1097.9045
"1917",80.91432,1097.9177
"1918",81.50515,1097.9312
"1919",81.92752,1097.9446
"1920",82.161896,1097.9578
"1921",82.23758,1097.971
"1922",82.20828,1097.9844
"1923",82.125275,1097.9978
"1924",82.04227,1098.011
"1925",81.98123,1098.0242
"1926",81.95926,1098.0376
"1927",81.971466,1098.051
"1928",81.99588,1098.0642
"1929",82.01053,1098.0774
"1930",81.98367,1098.0908
"1931",81.898224,1098.1042
"1932",81.74197,1098.1174
"1933",81.53933,1098.1306
"1934",81.31472,1098.144
"1935",81.10719,1098.1575
"1936",80.93385,1098.1707
"1937",80.80934,1098.1838
"1938",80.723885,1098.1973
"1939",80.65797,1098.2107
"1940",80.59205,1098.2239
"1941",80.51881,1098.237
"1942",80.428474,1098.2505
"1943",80.32105,1098.2639
"1944",80.201416,1098.2771
"1945",80.07446,1098.2903
"1946",79.94507,1098.3037
"1947",79.815674,1098.3171
"1948",79.691154,1098.3303
"1949",79.57397,1098.3435
"1950",79.466545,1098.3569
"1951",79.364006,1098.3704
"1952",79.273674,1098.3835
"1953",79.19798,1098.3967
"1954",79.12962,1098.4102
"1955",79.07103,1098.4236
"1956",79.0222,1098.4368
"1957",78.9807,1098.45
"1958",78.93675,1098.4634
"1959",78.89281,1098.4768
"1960",78.853745,1098.49
"1961",78.81712,1098.5032
"1962",78.7805,1098.5166
"1963",78.74876,1098.53
"1964",78.71946,1098.5432
"1965",78.69016,1098.5564
"1966",78.660866,1098.5698
"1967",78.63157,1098.5833
"1968",78.60471,1098.5964
"1969",78.57786,1098.6096
"1970",78.555885,1098.623
"1971",78.536354,1098.6365
"1972",78.521706,1098.6497
"1973",78.51194,1098.6628
"1974",78.50706,1098.6763
"1975",78.5095,1098.6897
"1976",78.51682,1098.7029
"1977",78.52659,1098.7161
"1978",78.538795,1098.7295
"1979",78.551,1098.7429
"1980",78.555885,1098.7561
"1981",78.56077,1098.7693
"1982",78.56321,1098.7827
"1983",78.56565,1098.7961
"1984",78.57053,1098.8093
"1985",78.57542,1098.8225
"1986",78.58274,1098.8359
"1987",78.60471,1098.8494
"1988",78.677956,1098.8625
"1989",78.85863,1098.8757
"1990",79.19798,1098.8892
"1991",79.70336,1098.9026
"1992",80.34058,1098.9158
"1993",81.02663,1098.929
"1994",81.64675,1098.9424
"1995",82.11795,1098.9558
"1996",82.40116,1098.969
"1997",82.5037,1098.9822
"1998",82.4744,1098.9956
"1999",82.374306,1099.009
"2000",82.24979,1099.0222
"2001",82.13748,1099.0354
"2002",82.0618,1099.0488
"2003",82.020294,1099.0623
"2004",82.003204,1099.0754
"2005",81.99588,1099.0886
"2006",81.97879,1099.102
"2007",81.9202,1099.1155
"2008",81.812775,1099.1287
"2009",81.651634,1099.1418
"2010",81.446556,1099.1553
"2011",81.23659,1099.1687
"2012",81.0486,1099.1819
"2013",80.90456,1099.1951
"2014",80.80446,1099.2085
"2015",80.740974,1099.2219
"2016",80.68726,1099.2351
"2017",80.63111,1099.2483
"2018",80.56031,1099.2617
"2019",80.46998,1099.2751
"2020",80.36256,1099.2883
"2021",80.2478,1099.3015
"2022",80.12085,1099.315
"2023",79.99634,1099.3284
"2024",79.87427,1099.3416
"2025",79.76196,1099.3547
"2026",79.66186,1099.3682
"2027",79.569084,1099.3816
"2028",79.483635,1099.3948
"2029",79.41039,1099.408
"2030",79.34203,1099.4214
"2031",79.281,1099.4348
"2032",79.22972,1099.448
"2033",79.19066,1099.4612
"2034",79.15648,1099.4746
"2035",79.12718,1099.488
"2036",79.097885,1099.5012
"2037",79.07103,1099.5144
"2038",79.04173,1099.5278
"2039",79.012436,1099.5413
"2040",78.98558,1099.5544
"2041",78.95628,1099.5676
"2042",78.92699,1099.581
"2043",78.89769,1099.5945
"2044",78.86595,1099.6077
"2045",78.83421,1099.6208
"2046",78.8098,1099.6343
"2047",78.79271,1099.6477
"2048",78.77806,1099.6609
"2049",78.768295,1099.6741
"2050",78.75853,1099.6875
"2051",78.751205,1099.7009
"2052",78.74387,1099.7141
"2053",78.74143,1099.7273
"2054",78.74143,1099.7407
"2055",78.73899,1099.7542
"2056",78.74143,1099.7673
"2057",78.74387,1099.7805
"2058",78.74876,1099.794
"2059",78.75609,1099.8074
"2060",78.77074,1099.8206
"2061",78.78294,1099.8337
"2062",78.785385,1099.8472
"2063",78.785385,1099.8606
"2064",78.785385,1099.8738
"2065",78.802475,1099.887
"2066",78.870834,1099.9004
"2067",79.05394,1099.9138
"2068",79.38842,1099.927
"2069",79.88159,1099.9402
"2070",80.50416,1099.9536
"2071",81.17311,1099.967
"2072",81.778595,1099.9802
"2073",82.2327,1099.9934
"2074",82.49882,1100.0068
"2075",82.58671,1100.0203
"2076",82.53788,1100.0334
"2077",82.41093,1100.0466
"2078",82.25468,1100.06
"2079",82.1033,1100.0735
"2080",81.98123,1100.0867
"2081",81.898224,1100.0999
"2082",81.849396,1100.1133
"2083",81.82498,1100.1267
"2084",81.79324,1100.1399
"2085",81.73464,1100.1531
"2086",81.62966,1100.1665
"2087",81.47585,1100.1799
"2088",81.287865,1100.1931
"2089",81.09743,1100.2063
"2090",80.92653,1100.2197
"2091",80.797134,1100.2332
"2092",80.706795,1100.2463
"2093",80.64332,1100.2595
"2094",80.58961,1100.273
"2095",80.5359,1100.2864
"2096",80.46754,1100.2996
"2097",80.38697,1100.3127
"2098",80.2942,1100.3262
"2099",80.18677,1100.3396
"2100",80.07202,1100.3528
"2101",79.954834,1100.366
"2102",79.83765,1100.3794
"2103",79.725334,1100.3928
"2104",79.622795,1100.406
"2105",79.534904,1100.4192
"2106",79.45678,1100.4326
"2107",79.38842,1100.446
"2108",79.32983,1100.4592
"2109",79.27856,1100.4724
"2110",79.23949,1100.4858
"2111",79.202866,1100.4993
"2112",79.17845,1100.5125
"2113",79.15648,1100.5256
"2114",79.13695,1100.5391
"2115",79.114975,1100.5525
"2116",79.09056,1100.5657
"2117",79.06615,1100.5789
"2118",79.03929,1100.5923
"2119",79.012436,1100.6057
"2120",78.98802,1100.6189
"2121",78.96361,1100.6321
"2122",78.941635,1100.6455
"2123",78.924545,1100.6589
"2124",78.9099,1100.6721
"2125",78.89769,1100.6853
"2126",78.88548,1100.6987
"2127",78.873276,1100.7122
"2128",78.85863,1100.7253
"2129",78.84886,1100.7385
"2130",78.84154,1100.752
"2131",78.84154,1100.7654
"2132",78.84398,1100.7786
"2133",78.84886,1100.7917
"2134",78.853745,1100.8052
"2135",78.85863,1100.8186
"2136",78.86595,1100.8318
"2137",78.870834,1100.845
"2138",78.87572,1100.8584
"2139",78.87816,1100.8718
"2140",78.8806,1100.885
"2141",78.8806,1100.8982
"2142",78.88548,1100.9116
"2143",78.905014,1100.925
"2144",78.97093,1100.9382
"2145",79.13939,1100.9514
"2146",79.45434,1100.9648
"2147",79.93042,1100.9783
"2148",80.5359,1100.9915
"2149",81.19508,1101.0046
"2150",81.80545,1101.0181
"2151",82.27421,1101.0315
"2152",82.55253,1101.0447
"2153",82.6453,1101.0579
"2154",82.598915,1101.0713
"2155",82.45731,1101.0847
"2156",82.28153,1101.0979
"2157",82.108185,1101.1111
"2158",81.9617,1101.1245
"2159",81.846954,1101.138
"2160",81.76883,1101.1511
"2161",81.71999,1101.1643
"2162",81.68093,1101.1777
"2163",81.62478,1101.1912
"2164",81.532005,1101.2043
"2165",81.39529,1101.2175
"2166",81.231705,1101.231
"2167",81.06081,1101.2444
"2168",80.90456,1101.2576
"2169",80.78493,1101.2708
"2170",80.69947,1101.2842
"2171",80.635994,1101.2976
"2172",80.57984,1101.3108
"2173",80.52613,1101.324
"2174",80.465096,1101.3374
"2175",80.394295,1101.3508
"2176",80.308846,1101.364
"2177",80.21362,1101.3772
"2178",80.111084,1101.3906
"2179",79.99878,1101.404
"2180",79.88159,1101.4172
"2181",79.766846,1101.4304
"2182",79.65453,1101.4438
"2183",79.54955,1101.4573
"2184",79.45922,1101.4705
"2185",79.38842,1101.4836
"2186",79.33227,1101.4971
"2187",79.28832,1101.5105
"2188",79.256584,1101.5237
"2189",79.23216,1101.5369
"2190",79.21263,1101.5503
"2191",79.19798,1101.5637
"2192",79.185776,1101.5769
"2193",79.17113,1101.5901
"2194",79.151596,1101.6035
"2195",79.12474,1101.617
"2196",79.09544,1101.6301
"2197",79.06859,1101.6433
"2198",79.046616,1101.6567
"2199",79.029526,1101.6702
"2200",79.01488,1101.6833
"2201",79.00267,1101.6965
"2202",78.98802,1101.71
"2203",78.96849,1101.7234
"2204",78.94652,1101.7366
"2205",78.924545,1101.7498
"2206",78.907455,1101.7632
"2207",78.89525,1101.7766
"2208",78.890366,1101.7898
"2209",78.890366,1101.803
"2210",78.89525,1101.8164
"2211",78.90013,1101.8298
"2212",78.907455,1101.843
"2213",78.91478,1101.8562
"2214",78.922104,1101.8696
"2215",78.924545,1101.883
"2216",78.92699,1101.8962
"2217",78.922104,1101.9094
"2218",78.91722,1101.9229
"2219",78.91722,1101.9363
"2220",78.92699,1101.9495
"2221",78.958725,1101.9626
"2222",79.04906,1101.9761
"2223",79.25414,1101.9895
"2224",79.61059,1102.0027
"2225",80.12329,1102.0159
"2226",80.75319,1102.0293
"2227",81.409935,1102.0427
"2228",81.99588,1102.0559
"2229",82.423134,1102.0691
"2230",82.65751,1102.0825
"2231",82.71366,1102.096
"2232",82.63798,1102.1091
"2233",82.46952,1102.1223
"2234",82.25956,1102.1357
"2235",82.054474,1102.1492
"2236",81.87869,1102.1624
"2237",81.74441,1102.1755
"2238",81.654076,1102.189
"2239",81.5906,1102.2024
"2240",81.53689,1102.2156
"2241",81.46853,1102.2288
"2242",81.373314,1102.2422
"2243",81.24635,1102.2556
"2244",81.10231,1102.2688
"2245",80.95827,1102.282
"2246",80.831314,1102.2954
"2247",80.726326,1102.3088
"2248",80.6482,1102.322
"2249",80.587166,1102.3352
"2250",80.54078,1102.3486
"2251",80.49195,1102.362
"2252",80.43824,1102.3752
"2253",80.36988,1102.3884
"2254",80.28687,1102.4019
"2255",80.184326,1102.4153
"2256",80.0647,1102.4285
"2257",79.937744,1102.4417
"2258",79.81323,1102.4551
"2259",79.693596,1102.4685
"2260",79.588615,1102.4817
"2261",79.49584,1102.4949
"2262",79.42016,1102.5083
"2263",79.35668,1102.5217
"2264",79.30053,1102.5349
"2265",79.24925,1102.5481
"2266",79.20775,1102.5615
"2267",79.17113,1102.575
"2268",79.14183,1102.5881
"2269",79.11986,1102.6013
"2270",79.10521,1102.6147
"2271",79.093,1102.6282
"2272",79.078354,1102.6414
"2273",79.05882,1102.6545
"2274",79.04173,1102.668
"2275",79.029526,1102.6814
"2276",79.00755,1102.6946
"2277",78.99046,1102.7078
"2278",78.97093,1102.7212
"2279",78.9514,1102.7346
"2280",78.92943,1102.7478
"2281",78.91234,1102.761
"2282",78.89525,1102.7744
"2283",78.88304,1102.7878
"2284",78.873276,1102.801
"2285",78.86595,1102.8142
"2286",78.856186,1102.8276
"2287",78.84886,1102.8411
"2288",78.84154,1102.8542
"2289",78.83177,1102.8674
"2290",78.82201,1102.8809
"2291",78.819565,1102.8943
"2292",78.82201,1102.9075
"2293",78.82689,1102.9207
"2294",78.836655,1102.9341
"2295",78.84642,1102.9475
"2296",78.853745,1102.9607
"2297",78.85863,1102.9739
"2298",78.86595,1102.9873
"2299",78.887924,1103.0007
"2300",78.97826,1103.0139
"2301",79.200424,1103.0271
"2302",79.5935,1103.0405
"2303",80.15747,1103.054
"2304",80.83864,1103.0671
"2305",81.53933,1103.0803
"2306",82.15213,1103.0938
"2307",82.59159,1103.1072
"2308",82.82597,1103.1204
"2309",82.879684,1103.1335
"2310",82.794235,1103.147
"2311",82.61845,1103.1604
"2312",82.406044,1103.1736
"2313",82.19852,1103.1868
"2314",82.01785,1103.2002
"2315",81.881134,1103.2136
"2316",81.78836,1103.2268
"2317",81.72732,1103.24
"2318",81.68093,1103.2534
"2319",81.62234,1103.2668
"2320",81.53689,1103.28
"2321",81.42214,1103.2932
"2322",81.28054,1103.3066
"2323",81.13161,1103.3201
"2324",80.990005,1103.3333
"2325",80.867935,1103.3464
"2326",80.77272,1103.3599
"2327",80.69459,1103.3733
"2328",80.62623,1103.3865
"2329",80.56031,1103.3997
"2330",80.48707,1103.4131
"2331",80.39918,1103.4265
"2332",80.29908,1103.4397
"2333",80.18677,1103.4529
"2334",80.06714,1103.4663
"2335",79.94263,1103.4797
"2336",79.823,1103.4929
"2337",79.7058,1103.5061
"2338",79.59594,1103.5195
"2339",79.49096,1103.533
"2340",79.398186,1103.5461
"2341",79.31762,1103.5593
"2342",79.24681,1103.5728
"2343",79.1931,1103.5862
"2344",79.149155,1103.5994
"2345",79.114975,1103.6125
"2346",79.08324,1103.626
"2347",79.05882,1103.6394
"2348",79.03685,1103.6526
"2349",79.0222,1103.6658
"2350",79.00511,1103.6792
"2351",78.99046,1103.6926
"2352",78.97337,1103.7058
"2353",78.9514,1103.719
"2354",78.92699,1103.7324
"2355",78.907455,1103.7458
"2356",78.890366,1103.759
"2357",78.870834,1103.7722
"2358",78.86107,1103.7856
"2359",78.8513,1103.7991
"2360",78.84642,1103.8123
"2361",78.839096,1103.8254
"2362",78.83177,1103.8389
"2363",78.819565,1103.8523
"2364",78.80492,1103.8655
"2365",78.79027,1103.8787
"2366",78.77806,1103.8921
"2367",78.768295,1103.9055
"2368",78.75853,1103.9187
"2369",78.75365,1103.9319
"2370",78.75609,1103.9453
"2371",78.765854,1103.9587
"2372",78.7805,1103.9719
"2373",78.80003,1103.9851
"2374",78.81712,1103.9985
"2375",78.82689,1104.012
"2376",78.839096,1104.0251
"2377",78.88548,1104.0383
"2378",79.0222,1104.0518
"2379",79.30053,1104.0652
"2380",79.75464,1104.0784
"2381",80.365,1104.0916
"2382",81.06325,1104.105
"2383",81.739525,1104.1184
"2384",82.2913,1104.1316
"2385",82.65507,1104.1448
"2386",82.81865,1104.1582
"2387",82.80644,1104.1716
"2388",82.669716,1104.1848
"2389",82.46464,1104.198
"2390",82.23514,1104.2114
"2391",82.01785,1104.2249
"2392",81.84451,1104.238
"2393",81.71999,1104.2512
"2394",81.634544,1104.2646
"2395",81.57595,1104.2781
"2396",81.52224,1104.2913
"2397",81.45632,1104.3044
"2398",81.36355,1104.3179
"2399",81.25124,1104.3313
"2400",81.12428,1104.3445
"2401",80.99733,1104.3577
"2402",80.88991,1104.3711
"2403",80.80446,1104.3845
"2404",80.740974,1104.3977
"2405",80.69215,1104.4109
"2406",80.64332,1104.4243
"2407",80.584724,1104.4377
"2408",80.51392,1104.4509
"2409",80.42359,1104.4641
"2410",80.31861,1104.4775
"2411",80.20386,1104.491
"2412",80.08179,1104.5042
"2413",79.96216,1104.5173
"2414",79.84741,1104.5308
"2415",79.73754,1104.5442
"2416",79.635,1104.5574
"2417",79.54711,1104.5706
"2418",79.46899,1104.584
"2419",79.41039,1104.5974
"2420",79.364006,1104.6106
"2421",79.32494,1104.6238
"2422",79.293205,1104.6372
"2423",79.26879,1104.6506
"2424",79.24437,1104.6638
"2425",79.22484,1104.677
"2426",79.202866,1104.6904
"2427",79.18089,1104.7039
"2428",79.15404,1104.717
"2429",79.12962,1104.7302
"2430",79.10521,1104.7437
"2431",79.08324,1104.7571
"2432",79.05882,1104.7703
"2433",79.03685,1104.7834
"2434",79.01976,1104.7969
"2435",79.00267,1104.8103
"2436",78.99046,1104.8235
"2437",78.9807,1104.8367
"2438",78.96849,1104.8501
"2439",78.95628,1104.8635
"2440",78.94408,1104.8767
"2441",78.93187,1104.8899
"2442",78.922104,1104.9033
"2443",78.91722,1104.9167
"2444",78.91234,1104.9299
"2445",78.91478,1104.9431
"2446",78.91722,1104.9565
"2447",78.922104,1104.97
"2448",78.92943,1104.9832
"2449",78.93675,1104.9963
"2450",78.93919,1105.0098
"2451",78.94652,1105.0232
"2452",78.94652,1105.0364
"2453",78.94896,1105.0496
"2454",78.9514,1105.063
"2455",78.97093,1105.0764
"2456",79.03197,1105.0896
"2457",79.19554,1105.1028
"2458",79.51293,1105.1162
"2459",80.00122,1105.1296
"2460",80.62623,1105.1428
"2461",81.30984,1105.156
"2462",81.94461,1105.1694
"2463",82.42802,1105.1829
"2464",82.71122,1105.196
"2465",82.78935,1105.2092
"2466",82.701454,1105.2227
"2467",82.49882,1105.2361
"2468",82.24002,1105.2493
"2469",81.969025,1105.2625
"2470",81.722435,1105.2759
"2471",81.52224,1105.2893
"2472",81.373314,1105.3025
"2473",81.26833,1105.3157
"2474",81.18776,1105.3291
"2475",81.112076,1105.3425
"2476",81.02663,1105.3557
"2477",80.936295,1105.3689
"2478",80.83864,1105.3823
"2479",80.7483,1105.3958
"2480",80.6775,1105.4089
"2481",80.62867,1105.4221
"2482",80.59205,1105.4355
"2483",80.56275,1105.449
"2484",80.52613,1105.4622
"2485",80.482185,1105.4753
"2486",80.41627,1105.4888
"2487",80.33814,1105.5022
"2488",80.2478,1105.5154
"2489",80.147705,1105.5286
"2490",80.04028,1105.542
"2491",79.93042,1105.5554
"2492",79.82544,1105.5686
"2493",79.72045,1105.5818
"2494",79.622795,1105.5952
"2495",79.534904,1105.6086
"2496",79.45678,1105.6218
"2497",79.39086,1105.635
"2498",79.33715,1105.6484
"2499",79.30053,1105.6619
"2500",79.27123,1105.675
"2501",79.24437,1105.6882
"2502",79.2224,1105.7017
"2503",79.202866,1105.7151
"2504",79.183334,1105.7283
"2505",79.166245,1105.7415
"2506",79.15648,1105.7549
"2507",79.14671,1105.7683
"2508",79.13695,1105.7815
"2509",79.12474,1105.7947
"2510",79.11253,1105.8081
"2511",79.10033,1105.8215
"2512",79.08812,1105.8347
"2513",79.07103,1105.8479
"2514",79.05394,1105.8613
"2515",79.03929,1105.8748
"2516",79.02464,1105.888
"2517",79.012436,1105.9011
"2518",79.00511,1105.9146
"2519",79.00267,1105.928
"2520",79.00023,1105.9412
"2521",78.99779,1105.9543
"2522",78.99779,1105.9678
"2523",79.00023,1105.9812
"2524",79.00267,1105.9944
"2525",79.00511,1106.0076
"2526",79.00511,1106.021
"2527",79.00755,1106.0344
"2528",79.009995,1106.0476
"2529",79.009995,1106.0608
"2530",79.012436,1106.0742
"2531",79.012436,1106.0876
"2532",79.009995,1106.1008
"2533",79.01488,1106.114
"2534",79.03685,1106.1274
"2535",79.11742,1106.1409
"2536",79.31762,1106.154
"2537",79.68139,1106.1672
"2538",80.2063,1106.1807
"2539",80.84596,1106.1941
"2540",81.514915,1106.2073
"2541",82.09598,1106.2205
"2542",82.5037,1106.2339
"2543",82.703896,1106.2473
"2544",82.71366,1106.2605
"2545",82.56962,1106.2737
"2546",82.3328,1106.2871
"2547",82.056915,1106.3005
"2548",81.78836,1106.3137
"2549",81.55154,1106.3269
"2550",81.358665,1106.3403
"2551",81.20973,1106.3538
"2552",81.09743,1106.367
"2553",81.007095,1106.3801
"2554",80.921646,1106.3936
"2555",80.8362,1106.407
"2556",80.75563,1106.4202
"2557",80.67994,1106.4333
"2558",80.62379,1106.4468
"2559",80.59449,1106.4602
"2560",80.58961,1106.4734
"2561",80.59449,1106.4866
"2562",80.59937,1106.5
"2563",80.58228,1106.5134
"2564",80.53834,1106.5266
"2565",80.47242,1106.5398
"2566",80.38209,1106.5532
"2567",80.274666,1106.5667
"2568",80.15991,1106.5798
"2569",80.05005,1106.593
"2570",79.94263,1106.6064
"2571",79.84253,1106.6199
"2572",79.7522,1106.633
"2573",79.674065,1106.6462
"2574",79.61059,1106.6597
"2575",79.55688,1106.6731
"2576",79.51049,1106.6863
"2577",79.47143,1106.6995
"2578",79.43725,1106.7129
"2579",79.40307,1106.7263
"2580",79.37377,1106.7395
"2581",79.34936,1106.7527
"2582",79.33227,1106.7661
"2583",79.3225,1106.7795
"2584",79.31274,1106.7927
"2585",79.30297,1106.8059
"2586",79.29809,1106.8193
"2587",79.290764,1106.8328
"2588",79.281,1106.846
"2589",79.273674,1106.8591
"2590",79.26147,1106.8726
"2591",79.24437,1106.886
"2592",79.22728,1106.8992
"2593",79.21019,1106.9124
"2594",79.1931,1106.9258
"2595",79.17845,1106.9392
"2596",79.166245,1106.9524
"2597",79.15404,1106.9656
"2598",79.14427,1106.979
"2599",79.13451,1106.9924
"2600",79.1223,1107.0056
"2601",79.11742,1107.0188
"2602",79.11986,1107.0322
"2603",79.11986,1107.0457
"2604",79.11986,1107.0588
"2605",79.1223,1107.072
"2606",79.11986,1107.0854
"2607",79.11253,1107.0989
"2608",79.10521,1107.112
"2609",79.10765,1107.1252
"2610",79.13939,1107.1387
"2611",79.24681,1107.1521
"2612",79.4934,1107.1653
"2613",79.90845,1107.1785
"2614",80.479744,1107.1919
"2615",81.13161,1107.2053
"2616",81.77371,1107.2185
"2617",82.29374,1107.2317
"2618",82.62577,1107.2451
"2619",82.74784,1107.2585
"2620",82.69413,1107.2717
"2621",82.513466,1107.2849
"2622",82.25468,1107.2983
"2623",81.97391,1107.3118
"2624",81.705345,1107.325
"2625",81.47585,1107.3381
"2626",81.29763,1107.3516
"2627",81.15846,1107.365
"2628",81.0486,1107.3782
"2629",80.955826,1107.3914
"2630",80.867935,1107.4048
"2631",80.78493,1107.4182
"2632",80.709236,1107.4314
"2633",80.65308,1107.4446
"2634",80.62379,1107.458
"2635",80.61402,1107.4714
"2636",80.618904,1107.4846
"2637",80.62867,1107.4978
"2638",80.63111,1107.5112
"2639",80.60914,1107.5247
"2640",80.56031,1107.5378
"2641",80.48463,1107.551
"2642",80.38697,1107.5645
"2643",80.272224,1107.5779
"2644",80.15015,1107.5911
"2645",80.03296,1107.6042
"2646",79.923096,1107.6177
"2647",79.82056,1107.6311
"2648",79.72045,1107.6443
"2649",79.63012,1107.6575
"2650",79.54955,1107.6709
"2651",79.47631,1107.6843
"2652",79.41772,1107.6975
"2653",79.37621,1107.7107
"2654",79.34936,1107.7241
"2655",79.32983,1107.7375
"2656",79.31762,1107.7507
"2657",79.310295,1107.7639
"2658",79.30297,1107.7773
"2659",79.29565,1107.7908
"2660",79.290764,1107.804
"2661",79.28588,1107.8171
"2662",79.281,1107.8306
"2663",79.273674,1107.844
"2664",79.26635,1107.8572
"2665",79.256584,1107.8704
"2666",79.24437,1107.8838
"2667",79.237045,1107.8972
"2668",79.234604,1107.9104
"2669",79.234604,1107.9236
"2670",79.22972,1107.937
"2671",79.22728,1107.9504
"2672",79.2224,1107.9636
"2673",79.21019,1107.9768
"2674",79.1931,1107.9902
"2675",79.18089,1108.0037
"2676",79.1638,1108.0168
"2677",79.149155,1108.03
"2678",79.13939,1108.0435
"2679",79.151596,1108.0569
"2680",79.22728,1108.0701
"2681",79.42016,1108.0833
"2682",79.77173,1108.0967
"2683",80.26734,1108.1101
"2684",80.85817,1108.1233
"2685",81.45388,1108.1365
"2686",81.95926,1108.1499
"2687",82.29862,1108.1633
"2688",82.45487,1108.1765
"2689",82.44999,1108.1897
"2690",82.320595,1108.2031
"2691",82.11795,1108.2166
"2692",81.87869,1108.2297
"2693",81.64187,1108.2429
"2694",81.42458,1108.2563
"2695",81.23659,1108.2698
"2696",81.08278,1108.283
"2697",80.953384,1108.2961
"2698",80.8362,1108.3096
"2699",80.73609,1108.323
"2700",80.65064,1108.3362
"2701",80.59449,1108.3494
"2702",80.567635,1108.3628
"2703",80.5774,1108.3762
"2704",80.61158,1108.3894
"2705",80.655525,1108.4026
"2706",80.69459,1108.416
"2707",80.71656,1108.4294
"2708",80.71168,1108.4426
"2709",80.67994,1108.4558
"2710",80.618904,1108.4692
"2711",80.52857,1108.4827
"2712",80.41627,1108.4958
"2713",80.291756,1108.509
"2714",80.16235,1108.5225
"2715",80.03784,1108.5359
"2716",79.920654,1108.5491
"2717",79.815674,1108.5623
"2718",79.72289,1108.5757
"2719",79.64233,1108.5891
"2720",79.57885,1108.6023
"2721",79.53002,1108.6155
"2722",79.49828,1108.6289
"2723",79.48119,1108.6423
"2724",79.47387,1108.6555
"2725",79.47631,1108.6687
"2726",79.483635,1108.6821
"2727",79.48608,1108.6956
"2728",79.48852,1108.7087
"2729",79.483635,1108.7219
"2730",79.47875,1108.7354
"2731",79.466545,1108.7488
"2732",79.447014,1108.762
"2733",79.42016,1108.7751
"2734",79.38598,1108.7886
"2735",79.34936,1108.802
"2736",79.31762,1108.8152
"2737",79.30785,1108.8284
"2738",79.3518,1108.8418
"2739",79.49828,1108.8552
"2740",79.781494,1108.8684
"2741",80.19653,1108.8816
"2742",80.71412,1108.895
"2743",81.25857,1108.9084
"2744",81.74441,1108.9216
"2745",82.09842,1108.9348
"2746",82.29374,1108.9482
"2747",82.337685,1108.9617
"2748",82.25956,1108.9749
"2749",82.09842,1108.988
"2750",81.898224,1109.0015
"2751",81.688255,1109.0149
"2752",81.4905,1109.0281
"2753",81.31716,1109.0413
"2754",81.16823,1109.0547
"2755",81.041275,1109.0681
"2756",80.93141,1109.0813
"2757",80.833755,1109.0945
"2758",80.75807,1109.1079
"2759",80.70435,1109.1213
"2760",80.6775,1109.1345
"2761",80.6775,1109.1477
"2762",80.70435,1109.1611
"2763",80.743416,1109.1746
"2764",80.780045,1109.1877
"2765",80.797134,1109.2009
"2766",80.78981,1109.2144
"2767",80.75075,1109.2278
"2768",80.6775,1109.241
"2769",80.5774,1109.2542
"2770",80.46021,1109.2676
"2771",80.33326,1109.281
"2772",80.201416,1109.2942
"2773",80.07446,1109.3074
"2774",79.957275,1109.3208
"2775",79.852295,1109.3342
"2776",79.75708,1109.3474
"2777",79.676506,1109.3606
"2778",79.605705,1109.374
"2779",79.54955,1109.3875
"2780",79.51293,1109.4006
"2781",79.49096,1109.4138
"2782",79.47631,1109.4272
"2783",79.47143,1109.4407
"2784",79.4641,1109.4539
"2785",79.44457,1109.467
"2786",79.41039,1109.4805
"2787",79.36645,1109.4939
"2788",79.3225,1109.5071
"2789",79.27856,1109.5203
"2790",79.26147,1109.5337
"2791",79.31274,1109.5471
"2792",79.47875,1109.5603
"2793",79.78638,1109.5735
"2794",80.24048,1109.5869
"2795",80.79469,1109.6003
"2796",81.373314,1109.6135
"2797",81.88602,1109.6267
"2798",82.262,1109.6401
"2799",82.47196,1109.6536
"2800",82.530556,1109.6667
"2801",82.46952,1109.6799
"2802",82.3328,1109.6934
"2803",82.16434,1109.7068
"2804",81.99832,1109.72
"2805",81.85428,1109.7332
"2806",81.73708,1109.7466
"2807",81.636986,1109.76
"2808",81.54665,1109.7732
"2809",81.45632,1109.7864
"2810",81.35378,1109.7998
"2811",81.24635,1109.8132
"2812",81.146255,1109.8264
"2813",81.06813,1109.8396
"2814",81.01442,1109.853
"2815",80.987564,1109.8665
"2816",80.98024,1109.8796
"2817",80.97536,1109.8928
"2818",80.955826,1109.9062
"2819",80.907,1109.9197
"2820",80.831314,1109.9329
"2821",80.726326,1109.946
"2822",80.59693,1109.9595
"2823",80.45045,1109.9729
"2824",80.29908,1109.9861
"2825",80.147705,1109.9993
"2826",79.99634,1110.0127
"2827",79.84985,1110.0261
"2828",79.71801,1110.0393
"2829",79.60082,1110.0525
"2830",79.50317,1110.0659
"2831",79.42504,1110.0793
"2832",79.364006,1110.0925
"2833",79.31274,1110.1057
"2834",79.27123,1110.1191
"2835",79.23216,1110.1326
"2836",79.19554,1110.1458
"2837",79.15648,1110.1589
"2838",79.11253,1110.1724
"2839",79.063705,1110.1858
"2840",79.009995,1110.199
"2841",78.96117,1110.2122
"2842",78.94652,1110.2256
"2843",79.00267,1110.239
"2844",79.18822,1110.2522
"2845",79.53002,1110.2654
"2846",80.02075,1110.2788
"2847",80.60914,1110.2922
"2848",81.21217,1110.3054
"2849",81.74197,1110.3186
"2850",82.125275,1110.332
"2851",82.34257,1110.3455
"2852",82.406044,1110.3586
"2853",82.354774,1110.3718
"2854",82.23514,1110.3853
"2855",82.09354,1110.3987
"2856",81.95682,1110.4119
"2857",81.846954,1110.425
"2858",81.76639,1110.4385
"2859",81.71023,1110.4519
"2860",81.651634,1110.4651
"2861",81.57595,1110.4783
"2862",81.463646,1110.4917
"2863",81.322044,1110.5051
"2864",81.15846,1110.5183
"2865",80.99977,1110.5315
"2866",80.86061,1110.5449
"2867",80.75319,1110.5583
"2868",80.672615,1110.5715
"2869",80.61158,1110.5847
"2870",80.5481,1110.5981
"2871",80.47242,1110.6116
"2872",80.37965,1110.6248
"2873",80.2649,1110.638
"2874",80.130615,1110.6514
"2875",79.98169,1110.6648
"2876",79.82788,1110.678
"2877",79.66918,1110.6912
"2878",79.51049,1110.7046
"2879",79.34936,1110.718
"2880",79.19554,1110.7312
"2881",79.05882,1110.7444
"2882",78.93675,1110.7578
"2883",78.82933,1110.7712
"2884",78.746315,1110.7844
"2885",78.6804,1110.7976
"2886",78.6218,1110.811
"2887",78.56565,1110.8245
"2888",78.51194,1110.8376
"2889",78.45823,1110.8508
"2890",78.399635,1110.8643
"2891",78.33616,1110.8777
"2892",78.27512,1110.8909
"2893",78.21164,1110.904
"2894",78.16037,1110.9175
"2895",78.153046,1110.9309
"2896",78.23605,1110.9441
"2897",78.45579,1110.9573
"2898",78.839096,1110.9707
"2899",79.35912,1110.9841
"2900",79.95239,1110.9973
"2901",80.53834,1111.0105
"2902",81.024185,1111.0239
"2903",81.35378,1111.0374
"2904",81.51736,1111.0505
"2905",81.54421,1111.0637
"2906",81.478294,1111.0771
"2907",81.37087,1111.0906
"2908",81.26101,1111.1038
"2909",81.16823,1111.117
"2910",81.09743,1111.1304
"2911",81.04372,1111.1438
"2912",80.987564,1111.157
"2913",80.919205,1111.1702
"2914",80.81911,1111.1836
"2915",80.68726,1111.197
"2916",80.533455,1111.2102
"2917",80.37232,1111.2234
"2918",80.22339,1111.2368
"2919",80.09888,1111.2502
"2920",80.008545,1111.2634
"2921",79.94263,1111.2766
"2922",79.886475,1111.29
"2923",79.823,1111.3035
"2924",79.74731,1111.3167
"2925",79.65453,1111.3298
"2926",79.54711,1111.3433
"2927",79.42504,1111.3567
"2928",79.293205,1111.3699
"2929",79.15892,1111.383
"2930",79.02464,1111.3965
"2931",78.890366,1111.4099
"2932",78.76341,1111.4231
"2933",78.641335,1111.4363
"2934",78.53391,1111.4497
"2935",78.4387,1111.4631
"2936",78.36057,1111.4763
"2937",78.29954,1111.4895
"2938",78.24826,1111.5029
"2939",78.2092,1111.5164
"2940",78.17502,1111.5295
"2941",78.14084,1111.5427
"2942",78.11154,1111.5562
"2943",78.08713,1111.5696
"2944",78.06271,1111.5828
"2945",78.03586,1111.596
"2946",78.00168,1111.6094
"2947",77.96506,1111.6228
"2948",77.92111,1111.636
"2949",77.87961,1111.6492
"2950",77.838104,1111.6626
"2951",77.803925,1111.676
"2952",77.789276,1111.6892
"2953",77.821014,1111.7024
"2954",77.95041,1111.7158
"2955",78.22873,1111.7292
"2956",78.675514,1111.7424
"2957",79.26147,1111.7556
"2958",79.91821,1111.769
"2959",80.5481,1111.7825
"2960",81.06081,1111.7957
"2961",81.40017,1111.8088
"2962",81.56374,1111.8223
"2963",81.583275,1111.8357
"2964",81.51003,1111.8489
"2965",81.39773,1111.862
"2966",81.287865,1111.8755
"2967",81.20485,1111.8889
"2968",81.15846,1111.9021
"2969",81.143814,1111.9153
"2970",81.13893,1111.9287
"2971",81.11452,1111.9421
"2972",81.05592,1111.9553
"2973",80.94606,1111.9685
"2974",80.797134,1111.9819
"2975",80.63111,1111.9954
"2976",80.46998,1112.0085
"2977",80.33326,1112.0217
"2978",80.23071,1112.0352
"2979",80.15747,1112.0486
"2980",80.10132,1112.0618
"2981",80.04761,1112.075
"2982",79.98901,1112.0884
"2983",79.91333,1112.1018
"2984",79.818115,1112.115
"2985",79.7058,1112.1282
"2986",79.58129,1112.1416
"2987",79.449455,1112.155
"2988",79.31762,1112.1682
"2989",79.18822,1112.1814
"2990",79.07347,1112.1948
"2991",78.96849,1112.2083
"2992",78.873276,1112.2214
"2993",78.78783,1112.2346
"2994",78.712135,1112.248
"2995",78.641335,1112.2615
"2996",78.58274,1112.2747
"2997",78.53147,1112.2878
"2998",78.49241,1112.3013
"2999",78.46555,1112.3147
"3000",78.4387,1112.3279
"3001",78.41428,1112.3411
"3002",78.38987,1112.3545
"3003",78.35813,1112.3679
"3004",78.328835,1112.3811
"3005",78.30442,1112.3943
"3006",78.28001,1112.4077
"3007",78.260475,1112.4211
"3008",78.24338,1112.4343
"3009",78.22385,1112.4475
"3010",78.204315,1112.4609
"3011",78.187225,1112.4744
"3012",78.170135,1112.4875
"3013",78.15793,1112.5007
"3014",78.14816,1112.5142
"3015",78.14084,1112.5276
"3016",78.12863,1112.5408
"3017",78.11398,1112.554
"3018",78.10666,1112.5674
"3019",78.116425,1112.5808
"3020",78.1799,1112.594
"3021",78.35325,1112.6072
"3022",78.68284,1112.6206
"3023",79.18089,1112.634
"3024",79.81323,1112.6472
"3025",80.499275,1112.6604
"3026",81.14137,1112.6738
"3027",81.64431,1112.6873
"3028",81.9617,1112.7004
"3029",82.09842,1112.7136
"3030",82.09598,1112.727
"3031",82.01297,1112.7405
"3032",81.900665,1112.7537
"3033",81.80301,1112.7668
"3034",81.74197,1112.7803
"3035",81.71755,1112.7937
"3036",81.71511,1112.8069
"3037",81.71755,1112.8201
"3038",81.7029,1112.8335
"3039",81.64675,1112.8469
"3040",81.54177,1112.8601
"3041",81.392845,1112.8733
"3042",81.21706,1112.8867
"3043",81.03883,1112.9001
"3044",80.8777,1112.9133
"3045",80.75319,1112.9265
"3046",80.66285,1112.94
"3047",80.59449,1112.9534
"3048",80.53834,1112.9666
"3049",80.479744,1112.9797
"3050",80.40406,1112.9932
"3051",80.31129,1113.0066
"3052",80.201416,1113.0198
"3053",80.076904,1113.033
"3054",79.94507,1113.0464
"3055",79.80591,1113.0598
"3056",79.674065,1113.073
"3057",79.54467,1113.0862
"3058",79.42748,1113.0996
"3059",79.32006,1113.113
"3060",79.22972,1113.1262
"3061",79.15404,1113.1394
"3062",79.093,1113.1528
"3063",79.03685,1113.1663
"3064",78.98802,1113.1794
"3065",78.941635,1113.1926
"3066",78.89525,1113.206
"3067",78.853745,1113.2195
"3068",78.819565,1113.2327
"3069",78.78783,1113.2458
"3070",78.75365,1113.2593
"3071",78.7219,1113.2727
"3072",78.69016,1113.2859
"3073",78.65598,1113.2991
"3074",78.61936,1113.3125
"3075",78.58518,1113.3259
"3076",78.55833,1113.3391
"3077",78.52903,1113.3523
"3078",78.504616,1113.3657
"3079",78.485085,1113.3792
"3080",78.46555,1113.3923
"3081",78.44602,1113.4055
"3082",78.42893,1113.419
"3083",78.41184,1113.4324
"3084",78.39475,1113.4456
"3085",78.380104,1113.4587
"3086",78.37034,1113.4722
"3087",78.36057,1113.4856
"3088",78.36057,1113.4988
"3089",78.37522,1113.512
"3090",78.43137,1113.5254
"3091",78.57053,1113.5388
"3092",78.84886,1113.552
"3093",79.28588,1113.5652
"3094",79.8645,1113.5786
"3095",80.52613,1113.592
"3096",81.17555,1113.6052
"3097",81.71511,1113.6184
"3098",82.07645,1113.6318
"3099",82.25956,1113.6453
"3100",82.28886,1113.6584
"3101",82.21561,1113.6716
"3102",82.091095,1113.685
"3103",81.971466,1113.6985
"3104",81.87869,1113.7117
"3105",81.82254,1113.7249
"3106",81.80057,1113.7383
"3107",81.79813,1113.7517
"3108",81.7908,1113.7649
"3109",81.75906,1113.7781
"3110",81.68093,1113.7915
"3111",81.55398,1113.8049
"3112",81.38796,1113.8181
"3113",81.20485,1113.8313
"3114",81.03151,1113.8447
"3115",80.88991,1113.8582
"3116",80.782486,1113.8713
"3117",80.70191,1113.8845
"3118",80.638435,1113.898
"3119",80.5774,1113.9114
"3120",80.50904,1113.9246
"3121",80.42603,1113.9377
"3122",80.32838,1113.9512
"3123",80.21362,1113.9646
"3124",80.093994,1113.9778
"3125",79.96216,1113.991
"3126",79.83276,1114.0044
"3127",79.710686,1114.0178
"3128",79.59594,1114.031
"3129",79.483635,1114.0442
"3130",79.38354,1114.0576
"3131",79.293205,1114.071
"3132",79.217514,1114.0842
"3133",79.151596,1114.0974
"3134",79.09544,1114.1108
"3135",79.044174,1114.1243
"3136",79.00023,1114.1375
"3137",78.96361,1114.1506
"3138",78.92943,1114.1641
"3139",78.90257,1114.1775
"3140",78.8806,1114.1907
"3141",78.856186,1114.2039
"3142",78.82933,1114.2173
"3143",78.79759,1114.2307
"3144",78.76097,1114.2439
"3145",78.7219,1114.2571
"3146",78.677956,1114.2705
"3147",78.63889,1114.2839
"3148",78.6096,1114.2971
"3149",78.590065,1114.3103
"3150",78.57542,1114.3237
"3151",78.56565,1114.3372
"3152",78.55833,1114.3503
"3153",78.555885,1114.3635
"3154",78.54856,1114.377
"3155",78.54368,1114.3904
"3156",78.538795,1114.4036
"3157",78.53391,1114.4167
"3158",78.52415,1114.4302
"3159",78.51438,1114.4436
"3160",78.504616,1114.4568
"3161",78.49485,1114.47
"3162",78.49241,1114.4834
"3163",78.52415,1114.4968
"3164",78.63645,1114.51
"3165",78.887924,1114.5232
"3166",79.30297,1114.5366
"3167",79.87671,1114.55
"3168",80.5481,1114.5632
"3169",81.2195,1114.5764
"3170",81.78836,1114.5898
"3171",82.18631,1114.6033
"3172",82.39628,1114.6165
"3173",82.43534,1114.6296
"3174",82.357216,1114.6431
"3175",82.21561,1114.6565
"3176",82.06424,1114.6697
"3177",81.92996,1114.6829
"3178",81.84207,1114.6963
"3179",81.79324,1114.7097
"3180",81.77615,1114.7229
"3181",81.761505,1114.7361
"3182",81.7322,1114.7495
"3183",81.66384,1114.763
"3184",81.549095,1114.7761
"3185",81.39529,1114.7893
"3186",81.22438,1114.8027
"3187",81.05104,1114.8162
"3188",80.902115,1114.8293
"3189",80.78737,1114.8425
"3190",80.70191,1114.856
"3191",80.635994,1114.8694
"3192",80.57984,1114.8826
"3193",80.516365,1114.8958
"3194",80.44312,1114.9092
"3195",80.34791,1114.9226
"3196",80.24292,1114.9358
"3197",80.12085,1114.949
"3198",79.9939,1114.9624
"3199",79.85962,1114.9758
"3200",79.73022,1114.989
"3201",79.605705,1115.0022
"3202",79.49096,1115.0156
"3203",79.38842,1115.029
"3204",79.29809,1115.0422
"3205",79.2224,1115.0554
"3206",79.15648,1115.0688
"3207",79.097885,1115.0823
"3208",79.0515,1115.0955
"3209",79.012436,1115.1086
"3210",78.975815,1115.1221
"3211",78.93675,1115.1355
"3212",78.89769,1115.1487
"3213",78.86107,1115.1619
"3214",78.82689,1115.1753
"3215",78.79271,1115.1887
"3216",78.76341,1115.2019
"3217",78.73411,1115.2151
"3218",78.709694,1115.2285
"3219",78.677956,1115.242
"3220",78.64866,1115.2551
"3221",78.61936,1115.2683
"3222",78.59251,1115.2817
"3223",78.56565,1115.2952
"3224",78.54612,1115.3083
"3225",78.53391,1115.3215
"3226",78.52659,1115.335
"3227",78.519264,1115.3484
"3228",78.51194,1115.3616
"3229",78.504616,1115.3748
"3230",78.502174,1115.3882
"3231",78.504616,1115.4016
"3232",78.51194,1115.4148
"3233",78.521706,1115.428
"3234",78.53391,1115.4414
"3235",78.54124,1115.4548
"3236",78.54368,1115.468
"3237",78.551,1115.4812
"3238",78.57542,1115.4946
"3239",78.6511,1115.508
"3240",78.839096,1115.5212
"3241",79.18822,1115.5344
"3242",79.708244,1115.5479
"3243",80.365,1115.5613
"3244",81.07301,1115.5745
"3245",81.73464,1115.5876
"3246",82.247345,1115.6011
"3247",82.56962,1115.6145
"3248",82.701454,1115.6277
"3249",82.684364,1115.6409
"3250",82.56962,1115.6543
"3251",82.408485,1115.6677
"3252",82.247345,1115.6809
"3253",82.11551,1115.6941
"3254",82.03006,1115.7075
"3255",81.98367,1115.721
"3256",81.96414,1115.7341
"3257",81.94949,1115.7473
"3258",81.917755,1115.7607
"3259",81.84207,1115.7742
"3260",81.722435,1115.7874
"3261",81.56374,1115.8005
"3262",81.38796,1115.814
"3263",81.21706,1115.8274
"3264",81.07057,1115.8406
"3265",80.95827,1115.8538
"3266",80.867935,1115.8672
"3267",80.797134,1115.8806
"3268",80.72877,1115.8938
"3269",80.65308,1115.907
"3270",80.56519,1115.9204
"3271",80.46998,1115.9338
"3272",80.35767,1115.947
"3273",80.233154,1115.9602
"3274",80.10132,1115.9736
"3275",79.96704,1115.987
"3276",79.83765,1116.0002
"3277",79.71313,1116.0134
"3278",79.59594,1116.0269
"3279",79.4934,1116.0403
"3280",79.40307,1116.0535
"3281",79.3225,1116.0667
"3282",79.2517,1116.0801
"3283",79.1931,1116.0935
"3284",79.13939,1116.1067
"3285",79.09544,1116.1199
"3286",79.05638,1116.1333
"3287",79.01976,1116.1467
"3288",78.98802,1116.1599
"3289",78.96117,1116.1731
"3290",78.93675,1116.1865
"3291",78.907455,1116.2
"3292",78.87816,1116.2131
"3293",78.84398,1116.2263
"3294",78.80492,1116.2397
"3295",78.77074,1116.2532
"3296",78.73411,1116.2664
"3297",78.70481,1116.2795
"3298",78.6804,1116.293
"3299",78.66575,1116.3064
"3300",78.65354,1116.3196
"3301",78.643776,1116.3328
"3302",78.63889,1116.3462
"3303",78.63157,1116.3596
"3304",78.6218,1116.3728
"3305",78.6096,1116.386
"3306",78.60227,1116.3994
"3307",78.59983,1116.4128
"3308",78.59983,1116.426
"3309",78.60227,1116.4392
"3310",78.60471,1116.4526
"3311",78.6096,1116.4661
"3312",78.61204,1116.4792
"3313",78.61692,1116.4924
"3314",78.624245,1116.5059
"3315",78.63157,1116.5193
"3316",78.63889,1116.5325
"3317",78.641335,1116.5457
"3318",78.66575,1116.5591
"3319",78.75365,1116.5725
"3320",78.97093,1116.5857
"3321",79.364006,1116.5989
"3322",79.9353,1116.6123
"3323",80.63111,1116.6257
"3324",81.356224,1116.6389
"3325",81.991,1116.6521
"3326",82.45243,1116.6655
"3327",82.701454,1116.679
"3328",82.75273,1116.6921
"3329",82.65751,1116.7053
"3330",82.4744,1116.7188
"3331",82.25712,1116.7322
"3332",82.054474,1116.7454
"3333",81.89578,1116.7585
"3334",81.78836,1116.772
"3335",81.72488,1116.7854
"3336",81.688255,1116.7986
"3337",81.651634,1116.8118
"3338",81.59548,1116.8252
"3339",81.50271,1116.8386
"3340",81.37087,1116.8518
"3341",81.21706,1116.865
"3342",81.058365,1116.8784
"3343",80.91676,1116.8918
"3344",80.80202,1116.905
"3345",80.71412,1116.9182
"3346",80.64576,1116.9316
"3347",80.587166,1116.9451
"3348",80.52613,1116.9583
"3349",80.45045,1116.9714
"3350",80.36256,1116.9849
"3351",80.2649,1116.9983
"3352",80.15259,1117.0115
"3353",80.03296,1117.0247
"3354",79.91333,1117.0381
"3355",79.79614,1117.0515
"3356",79.68383,1117.0647
"3357",79.57641,1117.0779
"3358",79.47631,1117.0913
"3359",79.38598,1117.1047
"3360",79.30785,1117.1179
"3361",79.24193,1117.1311
"3362",79.19066,1117.1445
"3363",79.149155,1117.158
"3364",79.11253,1117.1711
"3365",79.078354,1117.1843
"3366",79.04173,1117.1978
"3367",79.00511,1117.2112
"3368",78.97337,1117.2244
"3369",78.94896,1117.2375
"3370",78.924545,1117.251
"3371",78.905014,1117.2644
"3372",78.887924,1117.2776
"3373",78.870834,1117.2908
"3374",78.853745,1117.3042
"3375",78.83421,1117.3176
"3376",78.81712,1117.3308
"3377",78.80003,1117.344
"3378",78.785385,1117.3574
"3379",78.768295,1117.3708
"3380",78.75365,1117.384
"3381",78.73655,1117.3972
"3382",78.71458,1117.4106
"3383",78.695045,1117.4241
"3384",78.6804,1117.4373
"3385",78.675514,1117.4504
"3386",78.677956,1117.4639
"3387",78.68528,1117.4773
"3388",78.695045,1117.4905
"3389",78.70237,1117.5037
"3390",78.70481,1117.5171
"3391",78.709694,1117.5305
"3392",78.71702,1117.5437
"3393",78.73167,1117.5569
"3394",78.746315,1117.5703
"3395",78.76097,1117.5837
"3396",78.77074,1117.5969
"3397",78.7805,1117.6101
"3398",78.78783,1117.6235
"3399",78.81224,1117.637
"3400",78.887924,1117.6501
"3401",79.07591,1117.6633
"3402",79.42504,1117.6768
"3403",79.94751,1117.6902
"3404",80.6067,1117.7034
"3405",81.31472,1117.7166
"3406",81.96414,1117.73
"3407",82.45731,1117.7434
"3408",82.74296,1117.7566
"3409",82.82353,1117.7698
"3410",82.738075,1117.7832
"3411",82.54276,1117.7966
"3412",82.29618,1117.8098
"3413",82.037384,1117.823
"3414",81.79813,1117.8364
"3415",81.60769,1117.8499
"3416",81.47097,1117.863
"3417",81.3782,1117.8762
"3418",81.30984,1117.8896
"3419",81.248795,1117.9031
"3420",81.17311,1117.9163
"3421",81.077896,1117.9294
"3422",80.970474,1117.9429
"3423",80.86549,1117.9563
"3424",80.780045,1117.9695
"3425",80.71656,1117.9827
"3426",80.67017,1117.9961
"3427",80.63111,1118.0095
"3428",80.587166,1118.0227
"3429",80.53834,1118.0359
"3430",80.47486,1118.0493
"3431",80.394295,1118.0627
"3432",80.29664,1118.0759
"3433",80.184326,1118.0891
"3434",80.0647,1118.1025
"3435",79.94263,1118.116
"3436",79.82788,1118.1292
"3437",79.71801,1118.1423
"3438",79.61791,1118.1558
"3439",79.53246,1118.1692
"3440",79.46166,1118.1824
"3441",79.40307,1118.1956
"3442",79.35668,1118.209
"3443",79.31762,1118.2224
"3444",79.28344,1118.2356
"3445",79.2517,1118.2488
"3446",79.2224,1118.2622
"3447",79.19798,1118.2756
"3448",79.17845,1118.2888
"3449",79.1638,1118.302
"3450",79.151596,1118.3154
"3451",79.13939,1118.3289
"3452",79.12718,1118.342
"3453",79.114975,1118.3552
"3454",79.10277,1118.3687
"3455",79.08812,1118.3821
"3456",79.07347,1118.3953
"3457",79.0515,1118.4084
"3458",79.03197,1118.4219
"3459",79.012436,1118.4353
"3460",79.00267,1118.4485
"3461",78.992905,1118.4617
"3462",78.98802,1118.4751
"3463",78.98802,1118.4885
"3464",78.98558,1118.5017
"3465",78.9807,1118.5149
"3466",78.975815,1118.5283
"3467",78.97337,1118.5417
"3468",78.96849,1118.5549
"3469",78.96849,1118.5681
"3470",78.97093,1118.5815
"3471",78.97826,1118.595
"3472",78.98802,1118.6082
"3473",78.99779,1118.6213
"3474",79.00755,1118.6348
"3475",79.012436,1118.6482
"3476",79.009995,1118.6614
"3477",79.012436,1118.6746
"3478",79.04173,1118.688
"3479",79.149155,1118.7014
"3480",79.39086,1118.7146
"3481",79.80591,1118.7278
"3482",80.394295,1118.7412
"3483",81.08034,1118.7546
"3484",81.76395,1118.7678
"3485",82.337685,1118.781
"3486",82.72831,1118.7944
"3487",82.90166,1118.8079
"3488",82.88457,1118.821
"3489",82.73075,1118.8342
"3490",82.48661,1118.8477
"3491",82.20584,1118.8611
"3492",81.92752,1118.8743
"3493",81.68337,1118.8875
"3494",81.4905,1118.9009
"3495",81.35378,1118.9143
"3496",81.25124,1118.9275
"3497",81.16579,1118.9407
"3498",81.08034,1118.9541
"3499",80.99489,1118.9675
"3500",80.91188,1118.9807
"3501",80.84596,1118.9939
"3502",80.799576,1119.0073
"3503",80.7776,1119.0208
"3504",80.76784,1119.0339
"3505",80.76051,1119.0471
"3506",80.743416,1119.0605
"3507",80.709236,1119.074
"3508",80.65064,1119.0872
"3509",80.57252,1119.1003
"3510",80.47486,1119.1138
"3511",80.360115,1119.1272
"3512",80.233154,1119.1404
"3513",80.10864,1119.1536
"3514",79.98657,1119.167
"3515",79.871826,1119.1804
"3516",79.766846,1119.1936
"3517",79.676506,1119.2068
"3518",79.59838,1119.2202
"3519",79.53246,1119.2336
"3520",79.47875,1119.2468
"3521",79.43969,1119.26
"3522",79.40795,1119.2734
"3523",79.381096,1119.2869
"3524",79.35912,1119.3
"3525",79.33715,1119.3132
"3526",79.31518,1119.3267
"3527",79.293205,1119.3401
"3528",79.27123,1119.3533
"3529",79.24681,1119.3665
"3530",79.22728,1119.3799
"3531",79.21263,1119.3933
"3532",79.19798,1119.4065
"3533",79.183334,1119.4197
"3534",79.168686,1119.4331
"3535",79.15648,1119.4465
"3536",79.14427,1119.4597
"3537",79.13939,1119.4729
"3538",79.13695,1119.4863
"3539",79.13695,1119.4998
"3540",79.12962,1119.513
"3541",79.11742,1119.5261
"3542",79.10033,1119.5396
"3543",79.08812,1119.553
"3544",79.078354,1119.5662
"3545",79.07347,1119.5793
"3546",79.07591,1119.5928
"3547",79.080795,1119.6062
"3548",79.08812,1119.6194
"3549",79.093,1119.6326
"3550",79.10033,1119.646
"3551",79.10765,1119.6594
"3552",79.11253,1119.6726
"3553",79.11253,1119.6858
"3554",79.114975,1119.6992
"3555",79.13451,1119.7126
"3556",79.217514,1119.7258
"3557",79.42504,1119.739
"3558",79.80591,1119.7524
"3559",80.360115,1119.7659
"3560",81.03395,1119.779
"3561",81.739525,1119.7922
"3562",82.35966,1119.8057
"3563",82.80156,1119.8191
"3564",83.03349,1119.8323
"3565",83.070114,1119.8455
"3566",82.948044,1119.8589
"3567",82.720985,1119.8723
"3568",82.44755,1119.8855
"3569",82.1741,1119.8987
"3570",81.92264,1119.9121
"3571",81.71511,1119.9255
"3572",81.549095,1119.9387
"3573",81.41726,1119.9519
"3574",81.29763,1119.9653
"3575",81.19264,1119.9788
"3576",81.09743,1119.992
"3577",81.01686,1120.0051
"3578",80.955826,1120.0186
"3579",80.919205,1120.032
"3580",80.90456,1120.0452
"3581",80.90456,1120.0583
"3582",80.90456,1120.0718
"3583",80.89967,1120.0852
"3584",80.87038,1120.0984
"3585",80.814224,1120.1116
"3586",80.73121,1120.125
"3587",80.621346,1120.1384
"3588",80.49683,1120.1516
"3589",80.365,1120.1648
"3590",80.23071,1120.1782
"3591",80.10376,1120.1917
"3592",79.98413,1120.2048
"3593",79.871826,1120.218
"3594",79.77417,1120.2314
"3595",79.68627,1120.2449
"3596",79.60815,1120.258
"3597",79.54223,1120.2712
"3598",79.49096,1120.2847
"3599",79.447014,1120.2981
"3600",79.415276,1120.3113
"3601",79.3933,1120.3245
"3602",79.37621,1120.3379
"3603",79.361565,1120.3513
"3604",79.34936,1120.3645
"3605",79.32983,1120.3777
"3606",79.30541,1120.3911
"3607",79.281,1120.4045
"3608",79.259026,1120.4177
"3609",79.237045,1120.4309
"3610",79.219955,1120.4443
"3611",79.202866,1120.4578
"3612",79.183334,1120.471
"3613",79.1638,1120.4841
"3614",79.14671,1120.4976
"3615",79.13451,1120.511
"3616",79.12474,1120.5242
"3617",79.114975,1120.5374
"3618",79.10033,1120.5508
"3619",79.07591,1120.5642
"3620",79.046616,1120.5774
"3621",79.01732,1120.5906
"3622",79.01732,1120.604
"3623",79.093,1120.6174
"3624",79.30053,1120.6306
"3625",79.67162,1120.6438
"3626",80.20386,1120.6572
"3627",80.83864,1120.6707
"3628",81.4905,1120.6838
"3629",82.056915,1120.697
"3630",82.45487,1120.7104
"3631",82.65507,1120.7239
"3632",82.6746,1120.737
"3633",82.55497,1120.7502
"3634",82.34257,1120.7637
"3635",82.09598,1120.7771
"3636",81.85184,1120.7903
"3637",81.62966,1120.8035
"3638",81.444115,1120.8169
"3639",81.290306,1120.8303
"3640",81.160904,1120.8435
"3641",81.04616,1120.8567
"3642",80.94118,1120.8701
"3643",80.850845,1120.8835
"3644",80.782486,1120.8967
"3645",80.740974,1120.9099
"3646",80.72877,1120.9233
"3647",80.740974,1120.9368
"3648",80.76051,1120.95
"3649",80.77272,1120.9631
"3650",80.76784,1120.9766
"3651",80.740974,1120.99
"3652",80.68238,1121.0032
"3653",80.59693,1121.0164
"3654",80.48951,1121.0298
"3655",80.365,1121.0432
"3656",80.233154,1121.0564
"3657",80.096436,1121.0696
"3658",79.9646,1121.083
"3659",79.83765,1121.0964
"3660",79.71801,1121.1096
"3661",79.61303,1121.1228
"3662",79.5227,1121.1362
"3663",79.44457,1121.1497
"3664",79.37621,1121.1628
"3665",79.32006,1121.176
"3666",79.276115,1121.1895
"3667",79.237045,1121.2029
"3668",79.20775,1121.2161
"3669",79.185776,1121.2292
"3670",79.168686,1121.2427
"3671",79.15404,1121.2561
"3672",79.13939,1121.2693
"3673",79.1223,1121.2825
"3674",79.10521,1121.2959
"3675",79.09056,1121.3093
"3676",79.078354,1121.3225
"3677",79.06859,1121.3357
"3678",79.05882,1121.3491
"3679",79.046616,1121.3625
"3680",79.029526,1121.3757
"3681",79.009995,1121.3889
"3682",78.99046,1121.4023
"3683",78.97337,1121.4158
"3684",78.958725,1121.429
"3685",78.941635,1121.4421
"3686",78.92699,1121.4556
"3687",78.9099,1121.469
"3688",78.89281,1121.4822
"3689",78.88304,1121.4954
"3690",78.91234,1121.5088
"3691",79.029526,1121.5222
"3692",79.290764,1121.5354
"3693",79.72045,1121.5486
"3694",80.29908,1121.562
"3695",80.96315,1121.5754
"3696",81.619896,1121.5886
"3697",82.16678,1121.6018
"3698",82.54276,1121.6152
"3699",82.72587,1121.6287
"3700",82.73319,1121.6418
"3701",82.60868,1121.655
"3702",82.39628,1121.6685
"3703",82.142365,1121.6819
"3704",81.8909,1121.6951
"3705",81.668724,1121.7083
"3706",81.48562,1121.7217
"3707",81.341576,1121.7351
"3708",81.22194,1121.7483
"3709",81.1194,1121.7615
"3710",81.02663,1121.7749
"3711",80.94606,1121.7883
"3712",80.88747,1121.8015
"3713",80.85817,1121.8147
"3714",80.85817,1121.8281
"3715",80.88258,1121.8416
"3716",80.91676,1121.8547
"3717",80.936295,1121.8679
"3718",80.93385,1121.8813
"3719",80.907,1121.8948
"3720",80.850845,1121.908
"3721",80.762955,1121.9211
"3722",80.65308,1121.9346
"3723",80.52369,1121.948
"3724",80.37476,1121.9612
"3725",80.218506,1121.9744
"3726",80.06714,1121.9878
"3727",79.92798,1122.0012
"3728",79.80835,1122.0144
"3729",79.710686,1122.0276
"3730",79.62768,1122.041
"3731",79.54955,1122.0544
"3732",79.48119,1122.0676
"3733",79.4226,1122.0808
"3734",79.37377,1122.0942
"3735",79.33715,1122.1077
"3736",79.31762,1122.1208
"3737",79.30297,1122.134
"3738",79.293205,1122.1475
"3739",79.27856,1122.1609
"3740",79.26147,1122.1741
"3741",79.24437,1122.1873
"3742",79.22728,1122.2007
"3743",79.20775,1122.2141
"3744",79.185776,1122.2273
"3745",79.16136,1122.2405
"3746",79.132065,1122.2539
"3747",79.093,1122.2673
"3748",79.046616,1122.2805
"3749",78.995346,1122.2937
"3750",78.94408,1122.3071
"3751",78.905014,1122.3206
"3752",78.91234,1122.3337
"3753",79.012436,1122.3469
"3754",79.24437,1122.3604
"3755",79.62524,1122.3738
"3756",80.14038,1122.387
"3757",80.723885,1122.4001
"3758",81.290306,1122.4136
"3759",81.75906,1122.427
"3760",82.074005,1122.4402
"3761",82.22293,1122.4534
"3762",82.21805,1122.4668
"3763",82.10574,1122.4802
"3764",81.92752,1122.4934
"3765",81.71755,1122.5066
"3766",81.50271,1122.52
"3767",81.30251,1122.5334
"3768",81.11696,1122.5466
"3769",80.94362,1122.5598
"3770",80.782486,1122.5732
"3771",80.64332,1122.5867
"3772",80.533455,1122.5999
"3773",80.46021,1122.613
"3774",80.428474,1122.6265
"3775",80.43824,1122.6399
"3776",80.482185,1122.6531
"3777",80.53834,1122.6663
"3778",80.59205,1122.6797
"3779",80.63111,1122.6931
"3780",80.64088,1122.7063
"3781",80.61158,1122.7195
"3782",80.54566,1122.7329
"3783",80.445564,1122.7463
"3784",80.31861,1122.7595
"3785",80.177,1122.7727
"3786",80.03296,1122.7861
"3787",79.886475,1122.7996
"3788",79.744865,1122.8127
"3789",79.61059,1122.8259
"3790",79.48852,1122.8394
"3791",79.378654,1122.8528
"3792",79.28588,1122.866
"3793",79.21019,1122.8792
"3794",79.15404,1122.8926
"3795",79.11253,1122.906
"3796",79.080795,1122.9192
"3797",79.063705,1122.9324
"3798",79.05394,1122.9458
"3799",79.044174,1122.9592
"3800",79.03197,1122.9724
"3801",79.01732,1122.9856
"3802",78.99046,1122.999
"3803",78.95384,1123.0125
"3804",78.91722,1123.0256
"3805",78.89525,1123.0388
"3806",78.93919,1123.0522
"3807",79.08812,1123.0657
"3808",79.38354,1123.0789
"3809",79.83032,1123.092
"3810",80.394295,1123.1055
"3811",80.99977,1123.1189
"3812",81.55642,1123.1321
"3813",81.99344,1123.1453
"3814",82.27177,1123.1587
"3815",82.388954,1123.1721
"3816",82.36698,1123.1853
"3817",82.252235,1123.1985
"3818",82.08133,1123.2119
"3819",81.88846,1123.2253
"3820",81.70046,1123.2385
"3821",81.53445,1123.2517
"3822",81.38796,1123.2651
"3823",81.25124,1123.2786
"3824",81.1194,1123.2917
"3825",80.987564,1123.3049
"3826",80.87038,1123.3184
"3827",80.77516,1123.3318
"3828",80.71168,1123.345
"3829",80.68726,1123.3582
"3830",80.69215,1123.3716
"3831",80.706795,1123.385
"3832",80.719,1123.3982
"3833",80.71412,1123.4114
"3834",80.68238,1123.4248
"3835",80.618904,1123.4382
"3836",80.52369,1123.4514
"3837",80.40162,1123.4646
"3838",80.26246,1123.478
"3839",80.10864,1123.4915
"3840",79.94507,1123.5046
"3841",79.78638,1123.5178
"3842",79.63256,1123.5312
"3843",79.48608,1123.5447
"3844",79.3518,1123.5579
"3845",79.237045,1123.571
"3846",79.14427,1123.5845
"3847",79.06859,1123.5979
"3848",79.012436,1123.6111
"3849",78.97093,1123.6243
"3850",78.93675,1123.6377
"3851",78.90013,1123.6511
"3852",78.86595,1123.6643
"3853",78.82201,1123.6775
"3854",78.77074,1123.6909
"3855",78.71702,1123.7043
"3856",78.675514,1123.7175
"3857",78.677956,1123.7307
"3858",78.77074,1123.7441
"3859",79.00755,1123.7576
"3860",79.412834,1123.7708
"3861",79.971924,1123.7839
"3862",80.63111,1123.7974
"3863",81.304955,1123.8108
"3864",81.898224,1123.824
"3865",82.337685,1123.8372
"3866",82.598915,1123.8506
"3867",82.69657,1123.864
"3868",82.667274,1123.8772
"3869",82.55497,1123.8904
"3870",82.408485,1123.9038
"3871",82.25956,1123.9172
"3872",82.125275,1123.9304
"3873",82.01297,1123.9436
"3874",81.91287,1123.957
"3875",81.815216,1123.9705
"3876",81.69802,1123.9836
"3877",81.56863,1123.9968
"3878",81.42458,1124.0103
"3879",81.28054,1124.0237
"3880",81.15846,1124.0369
"3881",81.06569,1124.05
"3882",80.99733,1124.0635
"3883",80.94606,1124.0769
"3884",80.89479,1124.0901
"3885",80.82887,1124.1033
"3886",80.74586,1124.1167
"3887",80.64088,1124.1301
"3888",80.51392,1124.1433
"3889",80.365,1124.1565
"3890",80.19653,1124.1699
"3891",80.01343,1124.1833
"3892",79.82544,1124.1965
"3893",79.63744,1124.2097
"3894",79.45434,1124.2231
"3895",79.28588,1124.2366
"3896",79.13451,1124.2498
"3897",78.99779,1124.263
"3898",78.87816,1124.2764
"3899",78.77806,1124.2898
"3900",78.695045,1124.303
"3901",78.624245,1124.3162
"3902",78.56565,1124.3296
"3903",78.51194,1124.343
"3904",78.45823,1124.3562
"3905",78.399635,1124.3694
"3906",78.33372,1124.3828
"3907",78.260475,1124.3962
"3908",78.18967,1124.4094
"3909",78.1384,1124.4226
"3910",78.153046,1124.436
"3911",78.28977,1124.4495
"3912",78.60227,1124.4626
"3913",79.097885,1124.4758
"3914",79.744865,1124.4893
"3915",80.46998,1124.5027
"3916",81.17311,1124.5159
"3917",81.75418,1124.529
"3918",82.161896,1124.5425
"3919",82.38651,1124.5559
"3920",82.45731,1124.5691
"3921",82.41337,1124.5823
"3922",82.31083,1124.5957
"3923",82.18875,1124.6091
"3924",82.074005,1124.6223
"3925",81.97879,1124.6355
"3926",81.90799,1124.6489
"3927",81.84207,1124.6624
"3928",81.76395,1124.6755
"3929",81.651634,1124.6887
"3930",81.50515,1124.7021
"3931",81.32937,1124.7156
"3932",81.13893,1124.7288
"3933",80.96315,1124.742
"3934",80.816666,1124.7554
"3935",80.69703,1124.7688
"3936",80.59937,1124.782
"3937",80.50416,1124.7952
"3938",80.39918,1124.8086
"3939",80.28199,1124.822
"3940",80.15015,1124.8352
"3941",80.00366,1124.8484
"3942",79.84253,1124.8618
"3943",79.66918,1124.8752
"3944",79.483635,1124.8884
"3945",79.29565,1124.9016
"3946",79.10277,1124.915
"3947",78.91234,1124.9285
"3948",78.73167,1124.9417
"3949",78.56809,1124.9548
"3950",78.42161,1124.9683
"3951",78.29221,1124.9817
"3952",78.18234,1124.9949
"3953",78.08957,1125.008
"3954",78.011444,1125.0215
"3955",77.94797,1125.0349
"3956",77.891815,1125.0481
"3957",77.84543,1125.0613
"3958",77.806366,1125.0747
"3959",77.76242,1125.0881
"3960",77.713585,1125.1013
"3961",77.662315,1125.1145
"3962",77.60616,1125.1279
"3963",77.54513,1125.1414
"3964",77.488976,1125.1545
"3965",77.43038,1125.1677
"3966",77.38155,1125.1812
"3967",77.36202,1125.1946
"3968",77.420616,1125.2078
"3969",77.61593,1125.221
"3970",77.996796,1125.2344
"3971",78.57053,1125.2478
"3972",79.29565,1125.261
"3973",80.08423,1125.2742
"3974",80.82887,1125.2876
"3975",81.43679,1125.301
"3976",81.85184,1125.3142
"3977",82.074005,1125.3274
"3978",82.13504,1125.3408
"3979",82.08377,1125.3542
"3980",81.971466,1125.3674
"3981",81.849396,1125.3806
"3982",81.74441,1125.394
"3983",81.668724,1125.4075
"3984",81.619896,1125.4207
"3985",81.583275,1125.4338
"3986",81.52712,1125.4473
"3987",81.43679,1125.4607
"3988",81.30007,1125.4739
"3989",81.126724,1125.487
"3990",80.93141,1125.5005
"3991",80.743416,1125.5139
"3992",80.584724,1125.5271
"3993",80.45289,1125.5403
"3994",80.35035,1125.5537
"3995",80.257576,1125.5671
"3996",80.16235,1125.5803
"3997",80.05249,1125.5935
"3998",79.923096,1125.6069
"3999",79.77417,1125.6204
"4000",79.60815,1125.6335
"4001",79.429924,1125.6467
"4002",79.24193,1125.6602
"4003",79.05638,1125.6736
"4004",78.87816,1125.6868
"4005",78.709694,1125.7
"4006",78.555885,1125.7134
"4007",78.41184,1125.7268
"4008",78.28489,1125.74
"4009",78.167694,1125.7532
"4010",78.065155,1125.7666
"4011",77.98215,1125.78
"4012",77.91623,1125.7932
"4013",77.857635,1125.8064
"4014",77.806366,1125.8198
"4015",77.752655,1125.8333
"4016",77.70138,1125.8464
"4017",77.65011,1125.8596
"4018",77.60128,1125.873
"4019",77.55978,1125.8865
"4020",77.52804,1125.8997
"4021",77.50118,1125.9128
"4022",77.47433,1125.9263
"4023",77.452354,1125.9397
"4024",77.435265,1125.9529
"4025",77.41329,1125.9661
"4026",77.38888,1125.9795
"4027",77.366905,1125.9929
"4028",77.349815,1126.0061
"4029",77.332726,1126.0193
"4030",77.315636,1126.0327
"4031",77.30343,1126.0461
"4032",77.30587,1126.0593
"4033",77.347374,1126.0725
"4034",77.49386,1126.0859
"4035",77.806366,1126.0994
"4036",78.314186,1126.1125
"4037",79.00023,1126.1257
"4038",79.79614,1126.1392
"4039",80.59205,1126.1526
"4040",81.28054,1126.1658
"4041",81.78348,1126.179
"4042",82.08133,1126.1924
"4043",82.196075,1126.2058
"4044",82.1741,1126.219
"4045",82.07645,1126.2322
"4046",81.951935,1126.2456
"4047",81.84207,1126.259
"4048",81.76639,1126.2722
"4049",81.722435,1126.2854
"4050",81.7029,1126.2988
"4051",81.68093,1126.3123
"4052",81.62966,1126.3254
"4053",81.532005,1126.3386
"4054",81.38796,1126.352
"4055",81.21217,1126.3655
"4056",81.02907,1126.3787
"4057",80.86305,1126.3918
"4058",80.72877,1126.4053
"4059",80.62379,1126.4187
"4060",80.54322,1126.4319
"4061",80.46998,1126.4451
"4062",80.38941,1126.4585
"4063",80.291756,1126.4719
"4064",80.17944,1126.4851
"4065",80.042725,1126.4983
"4066",79.8938,1126.5117
"4067",79.73266,1126.5251
"4068",79.57397,1126.5383
"4069",79.415276,1126.5515
"4070",79.26391,1126.565
"4071",79.11986,1126.5784
"4072",78.99046,1126.5916
"4073",78.87572,1126.6047
"4074",78.77318,1126.6182
"4075",78.68284,1126.6316
"4076",78.607155,1126.6448
"4077",78.54612,1126.658
"4078",78.49241,1126.6714
"4079",78.44358,1126.6848
"4080",78.39475,1126.698
"4081",78.348366,1126.7112
"4082",78.30198,1126.7246
"4083",78.26292,1126.738
"4084",78.22629,1126.7512
"4085",78.19699,1126.7644
"4086",78.16525,1126.7778
"4087",78.135956,1126.7913
"4088",78.10422,1126.8044
"4089",78.07248,1126.8176
"4090",78.0383,1126.831
"4091",78.011444,1126.8445
"4092",77.98947,1126.8577
"4093",77.977264,1126.8708
"4094",77.97238,1126.8843
"4095",77.97482,1126.8977
"4096",77.98215,1126.9109
"4097",77.98703,1126.9241
"4098",77.99191,1126.9375
"4099",77.994354,1126.9509
"4100",77.996796,1126.9641
"4101",77.99924,1126.9773
"4102",78.00656,1126.9907
"4103",78.02609,1127.0042
"4104",78.10422,1127.0173
"4105",78.2971,1127.0305
"4106",78.658424,1127.044
"4107",79.202866,1127.0574
"4108",79.90112,1127.0706
"4109",80.67506,1127.0837
"4110",81.41482,1127.0972
"4111",82.01785,1127.1106
"4112",82.42802,1127.1238
"4113",82.6453,1127.137
"4114",82.69413,1127.1504
"4115",82.62577,1127.1638
"4116",82.493935,1127.177
"4117",82.34501,1127.1902
"4118",82.213165,1127.2036
"4119",82.11307,1127.217
"4120",82.04715,1127.2302
"4121",82.00809,1127.2434
"4122",81.971466,1127.2568
"4123",81.91287,1127.2703
"4124",81.81766,1127.2834
"4125",81.68093,1127.2966
"4126",81.5198,1127.31
"4127",81.35134,1127.3235
"4128",81.20241,1127.3367
"4129",81.08034,1127.3499
"4130",80.98268,1127.3633
"4131",80.902115,1127.3767
"4132",80.82643,1127.3899
"4133",80.743416,1127.4031
"4134",80.655525,1127.4165
"4135",80.552986,1127.4299
"4136",80.43824,1127.4431
"4137",80.31129,1127.4563
"4138",80.16724,1127.4697
"4139",80.01099,1127.4832
"4140",79.85474,1127.4963
"4141",79.70092,1127.5095
"4142",79.55688,1127.523
"4143",79.42504,1127.5364
"4144",79.30541,1127.5496
"4145",79.200424,1127.5627
"4146",79.11253,1127.5762
"4147",79.04173,1127.5896
"4148",78.98314,1127.6028
"4149",78.93431,1127.616
"4150",78.89281,1127.6294
"4151",78.853745,1127.6428
"4152",78.8098,1127.656
"4153",78.768295,1127.6692
"4154",78.72434,1127.6826
"4155",78.68772,1127.696
"4156",78.6511,1127.7092
"4157",78.6218,1127.7224
"4158",78.59495,1127.7358
"4159",78.56809,1127.7493
"4160",78.54124,1127.7625
"4161",78.51438,1127.7756
"4162",78.48997,1127.7891
"4163",78.467995,1127.8025
"4164",78.44358,1127.8157
"4165",78.42405,1127.8289
"4166",78.40696,1127.8423
"4167",78.397194,1127.8557
"4168",78.38743,1127.8689
"4169",78.38987,1127.8821
"4170",78.39231,1127.8955
"4171",78.399635,1127.9089
"4172",78.40696,1127.9221
"4173",78.4094,1127.9353
"4174",78.40696,1127.9487
"4175",78.40696,1127.9622
"4176",78.41184,1127.9753
"4177",78.46067,1127.9885
"4178",78.61448,1128.002
"4179",78.93187,1128.0154
"4180",79.43481,1128.0286
"4181",80.10864,1128.0417
"4182",80.87282,1128.0552
"4183",81.62478,1128.0686
"4184",82.25468,1128.0818
"4185",82.69657,1128.095
"4186",82.93584,1128.1084
"4187",82.99199,1128.1218
"4188",82.91875,1128.135
"4189",82.76738,1128.1482
"4190",82.58915,1128.1616
"4191",82.42069,1128.175
"4192",82.28886,1128.1882
"4193",82.2034,1128.2014
"4194",82.15213,1128.2148
"4195",82.11063,1128.2283
"4196",82.056915,1128.2415
"4197",81.97391,1128.2546
"4198",81.849396,1128.2681
"4199",81.70046,1128.2815
"4200",81.53689,1128.2947
"4201",81.38796,1128.3079
"4202",81.26345,1128.3213
"4203",81.163345,1128.3347
"4204",81.08522,1128.3479
"4205",81.01686,1128.3611
"4206",80.94362,1128.3745
"4207",80.85817,1128.388
"4208",80.75563,1128.4011
"4209",80.635994,1128.4143
"4210",80.50416,1128.4277
"4211",80.360115,1128.4412
"4212",80.216064,1128.4543
"4213",80.06958,1128.4675
"4214",79.92554,1128.481
"4215",79.78882,1128.4944
"4216",79.66186,1128.5076
"4217",79.54467,1128.5208
"4218",79.44213,1128.5342
"4219",79.3518,1128.5476
"4220",79.273674,1128.5608
"4221",79.20775,1128.574
"4222",79.149155,1128.5874
"4223",79.097885,1128.6008
"4224",79.0515,1128.614
"4225",79.012436,1128.6272
"4226",78.97826,1128.6406
"4227",78.94408,1128.654
"4228",78.907455,1128.6672
"4229",78.870834,1128.6804
"4230",78.83421,1128.6938
"4231",78.80492,1128.7073
"4232",78.77806,1128.7205
"4233",78.75609,1128.7336
"4234",78.73167,1128.7471
"4235",78.70481,1128.7605
"4236",78.675514,1128.7737
"4237",78.64622,1128.7869
"4238",78.61692,1128.8003
"4239",78.59251,1128.8137
"4240",78.57053,1128.8269
"4241",78.551,1128.8401
"4242",78.536354,1128.8535
"4243",78.53147,1128.867
"4244",78.52903,1128.8801
"4245",78.53147,1128.8933
"4246",78.538795,1128.9067
"4247",78.54124,1128.9202
"4248",78.54368,1128.9333
"4249",78.551,1128.9465
"4250",78.55833,1128.96
"4251",78.57053,1128.9734
"4252",78.60471,1128.9866
"4253",78.70237,1128.9998
"4254",78.922104,1129.0132
"4255",79.31518,1129.0266
"4256",79.8938,1129.0398
"4257",80.61158,1129.053
"4258",81.3904,1129.0664
"4259",82.11551,1129.0798
"4260",82.686806,1129.093
"4261",83.053024,1129.1062
"4262",83.21904,1129.1196
"4263",83.21904,1129.133
"4264",83.104294,1129.1462
"4265",82.92851,1129.1594
"4266",82.738075,1129.1729
"4267",82.57206,1129.1863
"4268",82.442665,1129.1995
"4269",82.35233,1129.2126
"4270",82.28886,1129.2261
"4271",82.2327,1129.2395
"4272",82.15701,1129.2527
"4273",82.054474,1129.2659
"4274",81.917755,1129.2793
"4275",81.76395,1129.2927
"4276",81.60769,1129.3059
"4277",81.47341,1129.3191
"4278",81.36355,1129.3325
"4279",81.27566,1129.346
"4280",81.19997,1129.3591
"4281",81.12184,1129.3723
"4282",81.02907,1129.3857
"4283",80.92409,1129.3992
"4284",80.8069,1129.4124
"4285",80.67994,1129.4255
"4286",80.54566,1129.439
"4287",80.40406,1129.4524
"4288",80.257576,1129.4656
"4289",80.1062,1129.4788
"4290",79.954834,1129.4922
"4291",79.80835,1129.5056
"4292",79.67162,1129.5188
"4293",79.54955,1129.532
"4294",79.43969,1129.5454
"4295",79.34936,1129.5588
"4296",79.273674,1129.572
"4297",79.20775,1129.5852
"4298",79.151596,1129.5986
"4299",79.10033,1129.612
"4300",79.05638,1129.6252
"4301",79.012436,1129.6384
"4302",78.96849,1129.6519
"4303",78.92699,1129.6653
"4304",78.88304,1129.6785
"4305",78.84154,1129.6917
"4306",78.79759,1129.7051
"4307",78.76097,1129.7185
"4308",78.729225,1129.7317
"4309",78.695045,1129.7449
"4310",78.660866,1129.7583
"4311",78.626686,1129.7717
"4312",78.59251,1129.7849
"4313",78.56077,1129.7981
"4314",78.53147,1129.8115
"4315",78.504616,1129.825
"4316",78.48264,1129.8381
"4317",78.46555,1129.8513
"4318",78.450905,1129.8647
"4319",78.44358,1129.8782
"4320",78.4387,1129.8914
"4321",78.433815,1129.9045
"4322",78.42649,1129.918
"4323",78.42161,1129.9314
"4324",78.416725,1129.9446
"4325",78.41428,1129.9578
"4326",78.41184,1129.9712
"4327",78.41184,1129.9846
"4328",78.44114,1129.9978
"4329",78.555885,1130.011
"4330",78.81712,1130.0244
"4331",79.26147,1130.0378
"4332",79.88159,1130.051
"4333",80.61646,1130.0642
"4334",81.36111,1130.0776
"4335",82.005646,1130.0911
"4336",82.4744,1130.1042
"4337",82.73319,1130.1174
"4338",82.80644,1130.1309
"4339",82.735634,1130.1443
"4340",82.57206,1130.1575
"4341",82.36698,1130.1707
"4342",82.161896,1130.1841
"4343",81.98123,1130.1975
"4344",81.83719,1130.2107
"4345",81.7322,1130.2239
"4346",81.65652,1130.2373
"4347",81.58816,1130.2507
"4348",81.50515,1130.2639
"4349",81.39773,1130.2771
"4350",81.26833,1130.2905
"4351",81.129166,1130.304
"4352",80.99733,1130.3171
"4353",80.88258,1130.3303
"4354",80.78981,1130.3438
"4355",80.71412,1130.3572
"4356",80.64332,1130.3704
"4357",80.57496,1130.3835
"4358",80.50172,1130.397
"4359",80.41627,1130.4104
"4360",80.31861,1130.4236
"4361",80.20386,1130.4368
"4362",80.06958,1130.4502
"4363",79.92798,1130.4636
"4364",79.78638,1130.4768
"4365",79.64721,1130.49
"4366",79.51537,1130.5034
"4367",79.395744,1130.5168
"4368",79.28832,1130.53
"4369",79.19554,1130.5432
"4370",79.11742,1130.5566
"4371",79.05394,1130.5701
"4372",79.00511,1130.5833
"4373",78.96849,1130.5964
"4374",78.93431,1130.6099
"4375",78.90257,1130.6233
"4376",78.870834,1130.6365
"4377",78.836655,1130.6497
"4378",78.802475,1130.6631
"4379",78.77074,1130.6765
"4380",78.73899,1130.6897
"4381",78.712135,1130.7029
"4382",78.68284,1130.7163
"4383",78.658424,1130.7297
"4384",78.63157,1130.7429
"4385",78.607155,1130.7561
"4386",78.58274,1130.7695
"4387",78.56565,1130.783
"4388",78.54612,1130.7961
"4389",78.52903,1130.8093
"4390",78.51438,1130.8228
"4391",78.502174,1130.8362
"4392",78.49241,1130.8494
"4393",78.487526,1130.8625
"4394",78.485085,1130.876
"4395",78.48997,1130.8894
"4396",78.49241,1130.9026
"4397",78.49241,1130.9158
"4398",78.49241,1130.9292
"4399",78.49485,1130.9426
"4400",78.49729,1130.9558
"4401",78.502174,1130.969
"4402",78.51194,1130.9824
"4403",78.521706,1130.9958
"4404",78.536354,1131.009
"4405",78.58518,1131.0222
"4406",78.7219,1131.0356
"4407",79.00755,1131.0491
"4408",79.47631,1131.0623
"4409",80.11597,1131.0754
"4410",80.85329,1131.0889
"4411",81.58816,1131.1023
"4412",82.213165,1131.1155
"4413",82.650185,1131.1287
"4414",82.8748,1131.1421
"4415",82.90654,1131.1555
"4416",82.794235,1131.1687
"4417",82.59403,1131.1819
"4418",82.354774,1131.1953
"4419",82.12283,1131.2087
"4420",81.92752,1131.2219
"4421",81.78348,1131.2351
"4422",81.68337,1131.2485
"4423",81.619896,1131.262
"4424",81.5613,1131.2751
"4425",81.4905,1131.2883
"4426",81.3904,1131.3018
"4427",81.26589,1131.3152
"4428",81.126724,1131.3284
"4429",80.99489,1131.3416
"4430",80.88991,1131.355
"4431",80.80934,1131.3684
"4432",80.75075,1131.3816
"4433",80.69703,1131.3948
"4434",80.638435,1131.4082
"4435",80.56519,1131.4216
"4436",80.4773,1131.4348
"4437",80.37476,1131.448
"4438",80.26002,1131.4614
"4439",80.1355,1131.4749
"4440",80.00122,1131.488
"4441",79.8645,1131.5012
"4442",79.73266,1131.5146
"4443",79.61059,1131.5281
"4444",79.50317,1131.5413
"4445",79.41039,1131.5544
"4446",79.33227,1131.5679
"4447",79.26635,1131.5813
"4448",79.20775,1131.5945
"4449",79.15648,1131.6077
"4450",79.114975,1131.6211
"4451",79.08324,1131.6345
"4452",79.05882,1131.6477
"4453",79.03685,1131.6609
"4454",79.01976,1131.6743
"4455",79.00511,1131.6877
"4456",78.98314,1131.7009
"4457",78.958725,1131.7141
"4458",78.93431,1131.7275
"4459",78.91234,1131.741
"4460",78.890366,1131.7542
"4461",78.873276,1131.7673
"4462",78.853745,1131.7808
"4463",78.83421,1131.7942
"4464",78.81224,1131.8074
"4465",78.78783,1131.8206
"4466",78.765854,1131.834
"4467",78.74876,1131.8474
"4468",78.73411,1131.8606
"4469",78.7219,1131.8738
"4470",78.71702,1131.8872
"4471",78.71702,1131.9006
"4472",78.71946,1131.9138
"4473",78.72434,1131.927
"4474",78.73411,1131.9404
"4475",78.746315,1131.9539
"4476",78.75365,1131.967
"4477",78.75853,1131.9802
"4478",78.75853,1131.9937
"4479",78.75609,1132.0071
"4480",78.75365,1132.0203
"4481",78.75365,1132.0334
"4482",78.768295,1132.0469
