"","ppg","time"
"1",80.13794,519.583
"2",80.201416,519.59644
"3",80.22339,519.60974
"4",80.184326,519.62305
"5",80.07446,519.63635
"6",79.903564,519.6498
"7",79.68383,519.6631
"8",79.429924,519.6764
"9",79.15892,519.6897
"10",78.89281,519.7031
"11",78.643776,519.71643
"12",78.41917,519.72974
"13",78.21652,519.74304
"14",78.04318,519.7565
"15",77.8967,519.7698
"16",77.77219,519.7831
"17",77.66476,519.7964
"18",77.5671,519.8098
"19",77.471886,519.8231
"20",77.38155,519.8364
"21",77.30343,519.84973
"22",77.24727,519.86316
"23",77.24971,519.87646
"24",77.39132,519.8898
"25",77.77219,519.9031
"26",78.49241,519.9165
"27",79.57397,519.9298
"28",80.938736,519.9431
"29",82.41825,519.9564
"30",83.7879,519.96985
"31",84.84505,519.98315
"32",85.47494,519.99646
"33",85.67025,520.00977
"34",85.49447,520.0232
"35",85.05257,520.0365
"36",84.44709,520.0498
"37",83.78058,520.0631
"38",83.123825,520.07654
"39",82.52567,520.08984
"40",82.01053,520.10315
"41",81.58816,520.11646
"42",81.22438,520.1299
"43",80.89967,520.1432
"44",80.59205,520.1565
"45",80.306404,520.1698
"46",80.05249,520.1832
"47",79.85718,520.19653
"48",79.73998,520.20984
"49",79.70336,520.22314
"50",79.73998,520.2366
"51",79.815674,520.2499
"52",79.90112,520.2632
"53",79.96216,520.2765
"54",79.974365,520.2899
"55",79.91821,520.3032
"56",79.78638,520.3165
"57",79.59594,520.32983
"58",79.364006,520.34326
"59",79.11009,520.35657
"60",78.84886,520.3699
"61",78.59739,520.3832
"62",78.363014,520.3966
"63",78.150604,520.4099
"64",77.962616,520.4232
"65",77.79904,520.4365
"66",77.65743,520.44995
"67",77.53048,520.46326
"68",77.418175,520.47656
"69",77.31808,520.48987
"70",77.23262,520.5033
"71",77.15938,520.5166
"72",77.103226,520.5299
"73",77.07149,520.5432
"74",77.11543,520.55664
"75",77.33517,520.56995
"76",77.85031,520.58325
"77",78.74876,520.59656
"78",80.01099,520.61
"79",81.514915,520.6233
"80",83.05058,520.6366
"81",84.3885,520.6499
"82",85.347984,520.6633
"83",85.85092,520.67664
"84",85.92905,520.68994
"85",85.65804,520.70325
"86",85.14534,520.7167
"87",84.49592,520.73
"88",83.80255,520.7433
"89",83.12871,520.7566
"90",82.52567,520.77
"91",82.00809,520.7833
"92",81.5613,520.79663
"93",81.163345,520.80994
"94",80.80202,520.82336
"95",80.46998,520.8367
"96",80.16968,520.85
"97",79.920654,520.8633
"98",79.74975,520.8767
"99",79.66186,520.89
"100",79.64965,520.9033
"101",79.69848,520.9166
"102",79.783936,520.93005
"103",79.8645,520.94336
"104",79.91089,520.95667
"105",79.89868,520.97
"106",79.823,520.9834
"107",79.674065,520.9967
"108",79.4641,521.01
"109",79.21263,521.0233
"110",78.93675,521.03674
"111",78.65598,521.05005
"112",78.380104,521.06335
"113",78.12131,521.07666
"114",77.87717,521.0901
"115",77.65255,521.1034
"116",77.44991,521.1167
"117",77.26925,521.13
"118",77.11055,521.14343
"119",76.97383,521.15674
"120",76.85176,521.17004
"121",76.73701,521.18335
"122",76.64179,521.1968
"123",76.595406,521.2101
"124",76.67109,521.2234
"125",76.981155,521.2367
"126",77.659874,521.2501
"127",78.751205,521.2634
"128",80.18921,521.27673
"129",81.80545,521.29004
"130",83.372856,521.30347
"131",84.647285,521.3168
"132",85.47982,521.3301
"133",85.838715,521.3434
"134",85.77768,521.3568
"135",85.38949,521.3701
"136",84.78157,521.3834
"137",84.0589,521.3967
"138",83.30694,521.41016
"139",82.58915,521.42346
"140",81.95438,521.43677
"141",81.40749,521.4501
"142",80.936295,521.4635
"143",80.52369,521.4768
"144",80.15503,521.4901
"145",79.83276,521.5034
"146",79.57885,521.51685
"147",79.415276,521.53015
"148",79.35424,521.54346
"149",79.398186,521.55676
"150",79.5227,521.5702
"151",79.69848,521.5835
"152",79.86206,521.5968
"153",79.98169,521.6101
"154",80.03052,521.62354
"155",79.99634,521.63684
"156",79.87427,521.65015
"157",79.676506,521.66345
"158",79.42748,521.6769
"159",79.13939,521.6902
"160",78.82689,521.7035
"161",78.504616,521.7168
"162",78.19455,521.7302
"163",77.90158,521.7435
"164",77.63546,521.75684
"165",77.3962,521.77014
"166",77.188675,521.78357
"167",77.00313,521.7969
"168",76.83711,521.8102
"169",76.69062,521.8235
"170",76.56611,521.8369
"171",76.49287,521.8502
"172",76.5539,521.8635
"173",76.88106,521.87683
"174",77.60372,521.89026
"175",78.765854,521.90356
"176",80.289314,521.9169
"177",81.99832,521.9302
"178",83.63409,521.9436
"179",84.964676,521.9569
"180",85.82895,521.9702
"181",86.1976,521.9835
"182",86.134125,521.99695
"183",85.73861,522.01025
"184",85.11604,522.02356
"185",84.37873,522.03687
"186",83.617,522.0503
"187",82.88701,522.0636
"188",82.230255,522.0769
"189",81.65652,522.0902
"190",81.160904,522.10364
"191",80.723885,522.11694
"192",80.32838,522.13025
"193",79.98169,522.14355
"194",79.69848,522.157
"195",79.50317,522.1703
"196",79.42016,522.1836
"197",79.45678,522.1969
"198",79.588615,522.2103
"199",79.764404,522.22363
"200",79.937744,522.23694
"201",80.062256,522.25024
"202",80.09888,522.2637
"203",80.04028,522.277
"204",79.89136,522.2903
"205",79.67162,522.3036
"206",79.3933,522.317
"207",79.078354,522.3303
"208",78.73655,522.3436
"209",78.38743,522.35693
"210",78.05051,522.37036
"211",77.74532,522.38367
"212",77.469444,522.397
"213",77.225296,522.4103
"214",77.00313,522.4237
"215",76.80293,522.437
"216",76.610054,522.4503
"217",76.453804,522.4636
"218",76.37812,522.47705
"219",76.48798,522.49036
"220",76.92012,522.50366
"221",77.79172,522.51697
"222",79.12474,522.5304
"223",80.814224,522.5437
"224",82.650185,522.557
"225",84.35676,522.5703
"226",85.70199,522.58374
"227",86.554054,522.59705
"228",86.8983,522.61035
"229",86.7982,522.62366
"230",86.3563,522.6371
"231",85.68978,522.6504
"232",84.90852,522.6637
"233",84.105286,522.677
"234",83.353325,522.6904
"235",82.69657,522.70374
"236",82.13016,522.71704
"237",81.634544,522.73035
"238",81.180435,522.7438
"239",80.75319,522.7571
"240",80.35279,522.7704
"241",80.0061,522.7837
"242",79.74975,522.7971
"243",79.61303,522.8104
"244",79.60082,522.8237
"245",79.68627,522.83704
"246",79.82788,522.85046
"247",79.974365,522.8638
"248",80.07446,522.8771
"249",80.093994,522.8904
"250",80.01587,522.9038
"251",79.84253,522.9171
"252",79.59106,522.9304
"253",79.28588,522.9437
"254",78.94896,522.95715
"255",78.60227,522.97046
"256",78.25315,522.98376
"257",77.91135,522.9971
"258",77.58663,523.0105
"259",77.2839,523.0238
"260",77.01045,523.0371
"261",76.76875,523.0504
"262",76.541695,523.06384
"263",76.33173,523.07715
"264",76.155945,523.09045
"265",76.07782,523.10376
"266",76.22919,523.1172
"267",76.756546,523.1305
"268",77.76242,523.1438
"269",79.22728,523.1571
"270",80.99245,523.17053
"271",82.82353,523.18384
"272",84.44709,523.19714
"273",85.64095,523.21045
"274",86.30991,523.2239
"275",86.47105,523.2372
"276",86.20737,523.2505
"277",85.64095,523.2638
"278",84.89876,523.2772
"279",84.09064,523.2905
"280",83.3045,523.30383
"281",82.581825,523.31714
"282",81.94949,523.33057
"283",81.3904,523.3439
"284",80.88747,523.3572
"285",80.413826,523.3705
"286",79.96948,523.3839
"287",79.55932,523.3972
"288",79.22484,523.4105
"289",78.99046,523.4238
"290",78.87572,523.43726
"291",78.86839,523.45056
"292",78.94896,523.46387
"293",79.061264,523.4772
"294",79.1638,523.4906
"295",79.21019,523.5039
"296",79.17845,523.5172
"297",79.05394,523.5305
"298",78.84886,523.54395
"299",78.57542,523.55725
"300",78.26536,523.57056
"301",77.9382,523.58386
"302",77.60616,523.5973
"303",77.28634,523.6106
"304",76.981155,523.6239
"305",76.70283,523.6372
"306",76.44892,523.65063
"307",76.224304,523.66394
"308",76.02411,523.67725
"309",75.84833,523.69055
"310",75.69451,523.704
"311",75.579765,523.7173
"312",75.55535,523.7306
"313",75.73846,523.7439
"314",76.27314,523.7573
"315",77.264366,523.7706
"316",78.695045,523.78394
"317",80.430916,523.79724
"318",82.22537,523.81067
"319",83.809875,523.824
"320",84.964676,523.8373
"321",85.60189,523.8506
"322",85.74593,523.864
"323",85.47738,523.8773
"324",84.91829,523.8906
"325",84.18097,523.90393
"326",83.3753,523.91736
"327",82.581825,523.93066
"328",81.85428,523.944
"329",81.214615,523.9573
"330",80.66041,523.9707
"331",80.16235,523.984
"332",79.7058,523.9973
"333",79.290764,524.0106
"334",78.92943,524.02405
"335",78.65598,524.03735
"336",78.49485,524.05066
"337",78.46311,524.06396
"338",78.54612,524.0774
"339",78.70481,524.0907
"340",78.887924,524.104
"341",79.044174,524.1173
"342",79.132065,524.13074
"343",79.1223,524.14404
"344",79.012436,524.15735
"345",78.8098,524.17065
"346",78.54368,524.1841
"347",78.24338,524.1974
"348",77.93332,524.2107
"349",77.63058,524.224
"350",77.349815,524.2374
"351",77.09102,524.25073
"352",76.859085,524.26404
"353",76.654,524.27734
"354",76.473335,524.2908
"355",76.31953,524.3041
"356",76.190125,524.3174
"357",76.08026,524.3307
"358",75.98505,524.3441
"359",75.914246,524.3574
"360",75.88983,524.3707
"361",75.982605,524.38403
"362",76.32441,524.39746
"363",77.03731,524.41077
"364",78.184784,524.4241
"365",79.710686,524.4374
"366",81.449,524.4508
"367",83.14824,524.4641
"368",84.559395,524.4774
"369",85.51644,524.4907
"370",85.96567,524.50415
"371",85.95346,524.51746
"372",85.57015,524.53076
"373",84.94026,524.54407
"374",84.1712,524.5575
"375",83.35577,524.5708
"376",82.57694,524.5841
"377",81.86893,524.5974
"378",81.24391,524.61084
"379",80.68482,524.62415
"380",80.17944,524.63745
"381",79.72289,524.65076
"382",79.32494,524.6642
"383",79.01488,524.6775
"384",78.82445,524.6908
"385",78.77562,524.7041
"386",78.86595,524.7175
"387",79.05638,524.73083
"388",79.290764,524.74414
"389",79.51049,524.75745
"390",79.66674,524.7709
"391",79.725334,524.7842
"392",79.67895,524.7975
"393",79.534904,524.8108
"394",79.31274,524.8242
"395",79.03197,524.8375
"396",78.709694,524.8508
"397",78.37278,524.86414
"398",78.030975,524.87756
"399",77.7087,524.89087
"400",77.41085,524.9042
"401",77.14717,524.9175
"402",76.929886,524.9309
"403",76.76143,524.9442
"404",76.646675,524.9575
"405",76.578316,524.9708
"406",76.544136,524.98425
"407",76.524605,524.99756
"408",76.5124,525.01086
"409",76.49287,525.0242
"410",76.470894,525.0376
"411",76.44648,525.0509
"412",76.439156,525.0642
"413",76.490425,525.0775
"414",76.70527,525.09094
"415",77.2375,525.10425
"416",78.19211,525.11755
"417",79.58129,525.13086
"418",81.290306,525.1443
"419",83.09697,525.1576
"420",84.72297,525.1709
"421",85.94858,525.1842
"422",86.65659,525.19763
"423",86.84947,525.21094
"424",86.60532,525.22424
"425",86.03647,525.23755
"426",85.26498,525.251
"427",84.39582,525.2643
"428",83.51446,525.2776
"429",82.68192,525.2909
"430",81.92508,525.3043
"431",81.24147,525.3176
"432",80.62623,525.33093
"433",80.079346,525.34424
"434",79.61059,525.35767
"435",79.24925,525.371
"436",79.029526,525.3843
"437",78.975815,525.3976
"438",79.08812,525.411
"439",79.33227,525.4243
"440",79.64721,525.4376
"441",79.95972,525.4509
"442",80.21362,525.46436
"443",80.35767,525.47766
"444",80.38209,525.49097
"445",80.29664,525.5043
"446",80.111084,525.5177
"447",79.84253,525.531
"448",79.51293,525.5443
"449",79.14183,525.5576
"450",78.746315,525.57104
"451",78.35325,525.58435
"452",77.977264,525.59766
"453",77.63546,525.61096
"454",77.332726,525.6244
"455",77.07637,525.6377
"456",76.86397,525.651
"457",76.70527,525.6643
"458",76.58808,525.67773
"459",76.507515,525.69104
"460",76.456245,525.70435
"461",76.422066,525.71765
"462",76.39765,525.7311
"463",76.383,525.7444
"464",76.39277,525.7577
"465",76.48554,525.771
"466",76.790726,525.7844
"467",77.44991,525.7977
"468",78.551,525.81104
"469",80.059814,525.82434
"470",81.82254,525.83777
"471",83.58526,525.8511
"472",85.084305,525.8644
"473",86.1268,525.8777
"474",86.65171,525.8911
"475",86.68833,525.9044
"476",86.33677,525.9177
"477",85.70199,525.931
"478",84.893875,525.94446
"479",84.00275,525.95776
"480",83.106735,525.97107
"481",82.252235,525.9844
"482",81.461205,525.9978
"483",80.73609,526.0111
"484",80.06958,526.0244
"485",79.47631,526.0377
"486",78.98314,526.05115
"487",78.63401,526.06445
"488",78.47288,526.07776
"489",78.52659,526.09106
"490",78.77562,526.1044
"491",79.16136,526.1177
"492",79.5935,526.131
"493",79.991455,526.1443
"494",80.289314,526.1576
"495",80.445564,526.1709
"496",80.45289,526.1842
"497",80.325935,526.1975
"498",80.08911,526.2108
"499",79.76929,526.2241
"500",79.38598,526.2374
"501",78.97093,526.25073
"502",78.54612,526.26404
"503",78.135956,526.27734
"504",77.747765,526.29065
"505",77.401085,526.30396
"506",77.100784,526.31726
"507",76.84444,526.33057
"508",76.63935,526.3439
"509",76.48554,526.3572
"510",76.38056,526.3705
"511",76.31953,526.3838
"512",76.30488,526.3971
"513",76.32441,526.4104
"514",76.36347,526.4237
"515",76.40986,526.437
"516",76.46113,526.4503
"517",76.52216,526.4636
"518",76.65644,526.4769
"519",77.01289,526.49023
"520",77.747765,526.50354
"521",78.94408,526.51685
"522",80.56519,526.53015
"523",82.442665,526.54346
"524",84.30549,526.55676
"525",85.872894,526.57007
"526",86.95445,526.5834
"527",87.484245,526.5967
"528",87.50622,526.61
"529",87.11803,526.6233
"530",86.42954,526.6366
"531",85.54818,526.6499
"532",84.5716,526.6632
"533",83.57305,526.6765
"534",82.60136,526.6898
"535",81.6907,526.7031
"536",80.84596,526.71643
"537",80.079346,526.72974
"538",79.40307,526.74304
"539",78.84886,526.75635
"540",78.46067,526.76965
"541",78.28245,526.78296
"542",78.33616,526.79626
"543",78.607155,526.8096
"544",79.03197,526.8229
"545",79.52514,526.8362
"546",79.98901,526.8495
"547",80.35035,526.8628
"548",80.56519,526.8761
"549",80.61402,526.8894
"550",80.516365,526.9027
"551",80.2942,526.916
"552",79.97681,526.9293
"553",79.59594,526.9426
"554",79.18089,526.95593
"555",78.751205,526.96924
"556",78.33616,526.98254
"557",77.95041,526.99585
"558",77.611046,527.00916
"559",77.32052,527.02246
"560",77.07881,527.03577
"561",76.88594,527.0491
"562",76.732124,527.0624
"563",76.61494,527.0757
"564",76.524605,527.089
"565",76.456245,527.1023
"566",76.404976,527.1156
"567",76.368355,527.1289
"568",76.34882,527.1422
"569",76.36591,527.1555
"570",76.48798,527.1688
"571",76.87129,527.1821
"572",77.67452,527.19543
"573",78.975815,527.20874
"574",80.72144,527.22205
"575",82.72343,527.23535
"576",84.68879,527.24866
"577",86.32212,527.26196
"578",87.430534,527.27527
"579",87.96277,527.2886
"580",87.97009,527.3019
"581",87.552605,527.3152
"582",86.81529,527.3285
"583",85.855804,527.3418
"584",84.74494,527.3551
"585",83.55596,527.3684
"586",82.357216,527.3817
"587",81.20241,527.395
"588",80.130615,527.4083
"589",79.17845,527.42163
"590",78.365456,527.43494
"591",77.71603,527.44824
"592",77.25704,527.46155
"593",77.02022,527.47485
"594",77.04219,527.48816
"595",77.32296,527.50146
"596",77.8259,527.5148
"597",78.44846,527.5281
"598",79.078354,527.5414
"599",79.62524,527.5547
"600",80.01099,527.568
"601",80.198975,527.5813
"602",80.198975,527.5946
"603",80.05005,527.6079
"604",79.781494,527.6212
"605",79.42748,527.6345
"606",79.01732,527.6478
"607",78.5803,527.66113
"608",78.135956,527.67444
"609",77.70382,527.68774
"610",77.298546,527.70105
"611",76.93477,527.71436
"612",76.61494,527.72766
"613",76.33906,527.74097
"614",76.10956,527.7543
"615",75.92157,527.7676
"616",75.76532,527.7809
"617",75.631035,527.7942
"618",75.511406,527.8075
"619",75.39422,527.8208
"620",75.27947,527.8341
"621",75.17937,527.8474
"622",75.123215,527.8607
"623",75.17937,527.874
"624",75.528496,527.8873
"625",76.385445,527.90063
"626",77.88205,527.91394
"627",79.971924,527.92725
"628",82.41581,527.94055
"629",84.85481,527.95386
"630",86.908066,527.96716
"631",88.3119,527.98047
"632",89.007706,527.9938
"633",89.08583,528.0071
"634",88.690315,528.0204
"635",87.957886,528.0337
"636",86.99596,528.047
"637",85.90219,528.0603
"638",84.76204,528.0736
"639",83.64629,528.0869
"640",82.59403,528.1002
"641",81.617455,528.1135
"642",80.73609,528.12683
"643",79.94751,528.14014
"644",79.273674,528.15344
"645",78.75609,528.16675
"646",78.45579,528.18005
"647",78.4094,528.19336
"648",78.61936,528.20667
"649",79.04906,528.22
"650",79.61303,528.2333
"651",80.201416,528.2466
"652",80.709236,528.2599
"653",81.06081,528.2732
"654",81.214615,528.2865
"655",81.17311,528.2998
"656",80.97536,528.3131
"657",80.66041,528.3264
"658",80.257576,528.3397
"659",79.81079,528.353
"660",79.33715,528.36633
"661",78.85863,528.37964
"662",78.382545,528.39294
"663",77.93576,528.40625
"664",77.5256,528.41956
"665",77.15694,528.43286
"666",76.83711,528.44617
"667",76.561226,528.4595
"668",76.334175,528.4728
"669",76.15106,528.4861
"670",75.999695,528.4994
"671",75.87274,528.5127
"672",75.7702,528.526
"673",75.69207,528.5393
"674",75.667656,528.5526
"675",75.79706,528.5659
"676",76.27802,528.5792
"677",77.30099,528.5925
"678",78.92943,528.60583
"679",81.03883,528.61914
"680",83.34356,528.63245
"681",85.49203,528.64575
"682",87.14244,528.65906
"683",88.13611,528.67236
"684",88.48524,528.68567
"685",88.31434,528.699
"686",87.75769,528.7123
"687",86.93248,528.7256
"688",85.94858,528.7389
"689",84.88167,528.7522
"690",83.80011,528.7655
"691",82.757614,528.7788
"692",81.78348,528.7921
"693",80.88014,528.8054
"694",80.0647,528.8187
"695",79.35424,528.83203
"696",78.77562,528.84534
"697",78.37522,528.85864
"698",78.20187,528.87195
"699",78.27512,528.88525
"700",78.57053,528.89856
"701",79.03441,528.91187
"702",79.57885,528.9252
"703",80.09888,528.9385
"704",80.51392,528.9518
"705",80.77516,528.9651
"706",80.86061,528.9784
"707",80.77516,528.9917
"708",80.54566,529.005
"709",80.2063,529.0183
"710",79.79126,529.0316
"711",79.327385,529.0449
"712",78.84886,529.0582
"713",78.37034,529.07153
"714",77.91135,529.08484
"715",77.47921,529.09814
"716",77.09346,529.11145
"717",76.754105,529.12476
"718",76.46601,529.13806
"719",76.23407,529.15137
"720",76.04852,529.1647
"721",75.8996,529.178
"722",75.78485,529.1913
"723",75.69451,529.2046
"724",75.62859,529.2179
"725",75.59441,529.2312
"726",75.62615,529.2445
"727",75.83856,529.2578
"728",76.42451,529.2711
"729",77.55001,529.2844
"730",79.24437,529.2977
"731",81.36111,529.31104
"732",83.631645,529.32434
"733",85.70443,529.33765
"734",87.28405,529.35095
"735",88.22644,529.36426
"736",88.55604,529.37756
"737",88.3827,529.39087
"738",87.833374,529.4042
"739",87.02281,529.4175
"740",86.05112,529.4308
"741",85.01106,529.4441
"742",83.97345,529.4574
"743",82.97734,529.4707
"744",82.04959,529.484
"745",81.20729,529.4973
"746",80.45533,529.5106
"747",79.798584,529.5239
"748",79.26635,529.53723
"749",78.90013,529.55054
"750",78.729225,529.56384
"751",78.77318,529.57715
"752",79.01976,529.59045
"753",79.412834,529.60376
"754",79.87427,529.61707
"755",80.31129,529.6304
"756",80.65064,529.6437
"757",80.84352,529.657
"758",80.87038,529.6703
"759",80.73853,529.6836
"760",80.47242,529.6969
"761",80.10376,529.7102
"762",79.66674,529.7235
"763",79.19066,529.7368
"764",78.692604,529.7501
"765",78.204315,529.7634
"766",77.74532,529.77673
"767",77.32052,529.79004
"768",76.944534,529.80334
"769",76.62226,529.81665
"770",76.35859,529.82996
"771",76.14618,529.84326
"772",75.982605,529.85657
"773",75.860535,529.8699
"774",75.76776,529.8832
"775",75.68963,529.8965
"776",75.62127,529.9098
"777",75.56756,529.9231
"778",75.56512,529.9364
"779",75.718925,529.9497
"780",76.224304,529.963
"781",77.25948,529.9763
"782",78.8806,529.9896
"783",80.96315,530.0029
"784",83.25323,530.01624
"785",85.401695,530.02954
"786",87.096054,530.04285
"787",88.16785,530.05615
"788",88.621956,530.06946
"789",88.55848,530.08276
"790",88.094604,530.09607
"791",87.34753,530.1094
"792",86.414894,530.1227
"793",85.38949,530.136
"794",84.34699,530.1493
"795",83.34356,530.1626
"796",82.41337,530.1759
"797",81.57351,530.1892
"798",80.82643,530.2025
"799",80.17944,530.2158
"800",79.639885,530.2291
"801",79.2517,530.24243
"802",79.044174,530.25574
"803",79.04173,530.26904
"804",79.234604,530.28235
"805",79.57641,530.29565
"806",79.98413,530.30896
"807",80.37965,530.32227
"808",80.689705,530.3356
"809",80.86305,530.3489
"810",80.88747,530.3622
"811",80.765396,530.3755
"812",80.52125,530.3888
"813",80.17212,530.4021
"814",79.74731,530.4154
"815",79.27123,530.4287
"816",78.77074,530.442
"817",78.27024,530.4553
"818",77.79416,530.4686
"819",77.35958,530.48193
"820",76.97627,530.49524
"821",76.65156,530.50854
"822",76.39033,530.52185
"823",76.18524,530.53516
"824",76.03143,530.54846
"825",75.91913,530.56177
"826",75.83612,530.5751
"827",75.76776,530.5884
"828",75.7116,530.6017
"829",75.66277,530.615
"830",75.63348,530.6283
"831",75.665215,530.6416
"832",75.89227,530.6549
"833",76.51484,530.6682
"834",77.68673,530.6815
"835",79.42748,530.6948
"836",81.5906,530.7081
"837",83.90021,530.72144
"838",86.00473,530.73474
"839",87.61852,530.74805
"840",88.60975,530.76135
"841",88.990616,530.77466
"842",88.85634,530.78796
"843",88.32166,530.8013
"844",87.50378,530.8146
"845",86.519875,530.8279
"846",85.46761,530.8412
"847",84.420235,530.8545
"848",83.42901,530.8678
"849",82.52079,530.8811
"850",81.7029,530.8944
"851",80.972916,530.9077
"852",80.33814,530.921
"853",79.818115,530.9343
"854",79.447014,530.94763
"855",79.25414,530.96094
"856",79.24925,530.97424
"857",79.42016,530.98755
"858",79.710686,531.00085
"859",80.05249,531.01416
"860",80.36744,531.02747
"861",80.59693,531.0408
"862",80.69947,531.0541
"863",80.66041,531.0674
"864",80.48463,531.0807
"865",80.19165,531.094
"866",79.80835,531.1073
"867",79.364006,531.1206
"868",78.887924,531.1339
"869",78.40452,531.1472
"870",77.93576,531.1605
"871",77.49874,531.1738
"872",77.103226,531.18713
"873",76.756546,531.20044
"874",76.45869,531.21375
"875",76.21698,531.22705
"876",76.02655,531.24036
"877",75.88495,531.25366
"878",75.77997,531.26697
"879",75.70428,531.2803
"880",75.64324,531.2936
"881",75.58221,531.3069
"882",75.53338,531.3202
"883",75.543144,531.3335
"884",75.74578,531.3468
"885",76.33173,531.3601
"886",77.44503,531.3734
"887",79.10521,531.3867
"888",81.180435,531.4
"889",83.39483,531.4133
"890",85.42611,531.42664
"891",87.00328,531.43994
"892",87.98718,531.45325
"893",88.38026,531.46655
"894",88.25819,531.47986
"895",87.725945,531.49316
"896",86.905624,531.5065
"897",85.90463,531.5198
"898",84.82796,531.5331
"899",83.76349,531.5464
"900",82.76494,531.5597
"901",81.8616,531.573
"902",81.05592,531.5863
"903",80.343025,531.5996
"904",79.72289,531.6129
"905",79.20531,531.6262
"906",78.82689,531.6395
"907",78.61936,531.65283
"908",78.59983,531.66614
"909",78.75853,531.67944
"910",79.04173,531.69275
"911",79.37377,531.70605
"912",79.68871,531.71936
"913",79.923096,531.73267
"914",80.03784,531.746
"915",80.02319,531.7593
"916",79.88159,531.7726
"917",79.622795,531.7859
"918",79.27123,531.7992
"919",78.856186,531.8125
"920",78.40452,531.8258
"921",77.943085,531.8391
"922",77.4963,531.8524
"923",77.08125,531.8657
"924",76.70527,531.879
"925",76.37324,531.89233
"926",76.085144,531.90564
"927",75.843445,531.91895
"928",75.64324,531.93225
"929",75.47967,531.94556
"930",75.34539,531.95886
"931",75.23308,531.97217
"932",75.13786,531.9855
"933",75.06462,531.9988
"934",75.05974,532.0121
"935",75.2404,532.0254
"936",75.79706,532.0387
"937",76.88838,532.052
"938",78.54612,532.0653
"939",80.65797,532.0786
"940",82.96513,532.0919
"941",85.14046,532.1052
"942",86.88365,532.1185
"943",88.026245,532.13184
"944",88.54627,532.14514
"945",88.51942,532.15845
"946",88.043335,532.17175
"947",87.2401,532.18506
"948",86.236664,532.19836
"949",85.14778,532.2117
"950",84.06134,532.225
"951",83.04082,532.2383
"952",82.12283,532.2516
"953",81.31472,532.2649
"954",80.6067,532.2782
"955",79.99634,532.2915
"956",79.48852,532.3048
"957",79.11009,532.3181
"958",78.89769,532.3314
"959",78.86107,532.3447
"960",78.98802,532.35803
"961",79.23949,532.37134
"962",79.54955,532.38464
"963",79.84741,532.39795
"964",80.07446,532.41125
"965",80.19409,532.42456
"966",80.184326,532.43787
"967",80.05005,532.4512
"968",79.80347,532.4645
"969",79.47387,532.4778
"970",79.08324,532.4911
"971",78.66575,532.5044
"972",78.24094,532.5177
"973",77.823456,532.531
"974",77.42306,532.5443
"975",77.049515,532.5576
"976",76.70771,532.5709
"977",76.404976,532.5842
"978",76.138855,532.59753
"979",75.90448,532.61084
"980",75.69695,532.62415
"981",75.508965,532.63745
"982",75.335625,532.65076
"983",75.18669,532.66406
"984",75.11589,532.67737
"985",75.26238,532.6907
"986",75.81659,532.704
"987",76.944534,532.7173
"988",78.658424,532.7306
"989",80.82399,532.7439
"990",83.16777,532.7572
"991",85.3431,532.7705
"992",87.05455,532.7838
"993",88.14343,532.7971
"994",88.60975,532.8104
"995",88.534065,532.8237
"996",88.026245,532.83704
"997",87.2108,532.85034
"998",86.222015,532.86365
"999",85.16731,532.87695
"1000",84.13458,532.89026
"1001",83.18242,532.90356
"1002",82.337685,532.9169
"1003",81.59792,532.9302
"1004",80.94606,532.9435
"1005",80.37476,532.9568
"1006",79.89136,532.9701
"1007",79.520256,532.9834
"1008",79.28832,532.9967
"1009",79.21507,533.01
"1010",79.273674,533.0233
"1011",79.42748,533.0366
"1012",79.62768,533.0499
"1013",79.823,533.06323
"1014",79.957275,533.07654
"1015",79.99878,533.08984
"1016",79.93042,533.10315
"1017",79.7522,533.11646
"1018",79.47143,533.12976
"1019",79.10765,533.14307
"1020",78.692604,533.1564
"1021",78.25559,533.1697
"1022",77.81369,533.183
"1023",77.38644,533.1963
"1024",76.99092,533.2096
"1025",76.629585,533.2229
"1026",76.30976,533.2362
"1027",76.02655,533.2495
"1028",75.78485,533.2628
"1029",75.58221,533.2761
"1030",75.41131,533.2894
"1031",75.26238,533.30273
"1032",75.13298,533.31604
"1033",75.02312,533.32935
"1034",74.95476,533.34265
"1035",75.01091,533.35596
"1036",75.36248,533.36926
"1037",76.19745,533.38257
"1038",77.61837,533.3959
"1039",79.57397,533.4092
"1040",81.88602,533.4225
"1041",84.242004,533.4358
"1042",86.30747,533.4491
"1043",87.82849,533.4624
"1044",88.71717,533.4757
"1045",88.99794,533.489
"1046",88.75868,533.5023
"1047",88.13367,533.5156
"1048",87.26696,533.52893
"1049",86.29038,533.54224
"1050",85.30892,533.55554
"1051",84.3885,533.56885
"1052",83.57305,533.58215
"1053",82.86015,533.59546
"1054",82.230255,533.60876
"1055",81.65652,533.6221
"1056",81.11696,533.6354
"1057",80.618904,533.6487
"1058",80.18677,533.662
"1059",79.852295,533.6753
"1060",79.635,533.6886
"1061",79.53246,533.7019
"1062",79.52514,533.7152
"1063",79.571526,533.7285
"1064",79.63012,533.7418
"1065",79.656975,533.7551
"1066",79.61059,533.76843
"1067",79.47387,533.78174
"1068",79.24925,533.79504
"1069",78.94408,533.80835
"1070",78.57542,533.82166
"1071",78.16281,533.83496
"1072",77.74044,533.84827
"1073",77.32296,533.8616
"1074",76.92256,533.8749
"1075",76.54902,533.8882
"1076",76.224304,533.9015
"1077",75.94354,533.9148
"1078",75.69695,533.9281
"1079",75.48455,533.9414
"1080",75.30877,533.9547
"1081",75.159836,533.968
"1082",75.03044,533.9813
"1083",74.91325,533.9946
"1084",74.80827,534.00793
"1085",74.73014,534.02124
"1086",74.72282,534.03455
"1087",74.92546,534.04785
"1088",75.52361,534.06116
"1089",76.66865,534.07446
"1090",78.38743,534.08777
"1091",80.552986,534.1011
"1092",82.90898,534.1144
"1093",85.1136,534.1277
"1094",86.85924,534.141
"1095",87.98474,534.1543
"1096",88.465706,534.1676
"1097",88.39002,534.1809
"1098",87.87488,534.1942
"1099",87.0692,534.2075
"1100",86.1268,534.2208
"1101",85.172195,534.23413
"1102",84.283516,534.24744
"1103",83.50469,534.26074
"1104",82.847946,534.27405
"1105",82.27909,534.28735
"1106",81.75174,534.30066
"1107",81.234146,534.31396
"1108",80.71656,534.3273
"1109",80.21362,534.3406
"1110",79.75952,534.3539
"1111",79.39086,534.3672
"1112",79.13695,534.3805
"1113",78.99779,534.3938
"1114",78.9514,534.4071
"1115",78.958725,534.4204
"1116",78.98314,534.4337
"1117",78.97337,534.447
"1118",78.905014,534.4603
"1119",78.75853,534.47363
"1120",78.52903,534.48694
"1121",78.22629,534.50024
"1122",77.86984,534.51355
"1123",77.48165,534.52686
"1124",77.08125,534.54016
"1125",76.68818,534.55347
"1126",76.3122,534.5668
"1127",75.95819,534.5801
"1128",75.6408,534.5934
"1129",75.36248,534.6067
"1130",75.13542,534.62
"1131",74.95232,534.6333
"1132",74.810715,534.6466
"1133",74.6984,534.6599
"1134",74.60563,534.6732
"1135",74.52018,534.6865
"1136",74.442055,534.6998
"1137",74.36881,534.71313
"1138",74.3151,534.72644
"1139",74.3151,534.73975
"1140",74.46891,534.75305
"1141",74.94743,534.76636
"1142",75.93866,534.77966
"1143",77.52804,534.79297
"1144",79.64721,534.8063
"1145",82.074005,534.8196
"1146",84.49592,534.8329
"1147",86.55894,534.8462
"1148",88.0238,534.8595
"1149",88.814835,534.8728
"1150",88.98085,534.8861
"1151",88.639046,534.8994
"1152",87.940796,534.9127
"1153",87.044785,534.926
"1154",86.080414,534.93933
"1155",85.155106,534.95264
"1156",84.317696,534.96594
"1157",83.59258,534.97925
"1158",82.967575,534.99255
"1159",82.4036,535.00586
"1160",81.8616,535.01917
"1161",81.3196,535.0325
"1162",80.78737,535.0458
"1163",80.2942,535.0591
"1164",79.88159,535.0724
"1165",79.586174,535.0857
"1166",79.412834,535.099
"1167",79.33959,535.1123
"1168",79.33959,535.1256
"1169",79.364006,535.1389
"1170",79.37621,535.1522
"1171",79.33715,535.1655
"1172",79.22728,535.17883
"1173",79.03929,535.19214
"1174",78.77318,535.20544
"1175",78.4387,535.21875
"1176",78.05539,535.23206
"1177",77.645226,535.24536
"1178",77.22774,535.25867
"1179",76.822464,535.272
"1180",76.4416,535.2853
"1181",76.087585,535.2986
"1182",75.77753,535.3119
"1183",75.511406,535.3252
"1184",75.28924,535.3385
"1185",75.11345,535.3518
"1186",74.986496,535.3651
"1187",74.89128,535.3784
"1188",74.813156,535.3917
"1189",74.75212,535.405
"1190",74.70084,535.41833
"1191",74.65446,535.43164
"1192",74.617836,535.44495
"1193",74.62272,535.45825
"1194",74.75212,535.47156
"1195",75.16716,535.48486
"1196",76.06073,535.49817
"1197",77.53048,535.5115
"1198",79.52758,535.5248
"1199",81.846954,535.5381
"1200",84.18341,535.5514
"1201",86.19516,535.5647
"1202",87.63561,535.578
"1203",88.42176,535.5913
"1204",88.59998,535.6046
"1205",88.2826,535.6179
"1206",87.61364,535.6312
"1207",86.74204,535.64453
"1208",85.79477,535.65784
"1209",84.86702,535.67114
"1210",84.02228,535.68445
"1211",83.282524,535.69775
"1212",82.63065,535.71106
"1213",82.039825,535.72437
"1214",81.47585,535.7377
"1215",80.93141,535.751
"1216",80.40406,535.7643
"1217",79.92798,535.7776
"1218",79.54711,535.7909
"1219",79.28832,535.8042
"1220",79.149155,535.8175
"1221",79.11253,535.8308
"1222",79.14427,535.8441
"1223",79.200424,535.8574
"1224",79.22972,535.8707
"1225",79.1931,535.88403
"1226",79.08324,535.89734
"1227",78.88548,535.91064
"1228",78.6096,535.92395
"1229",78.27268,535.93726
"1230",77.88937,535.95056
"1231",77.47433,535.96387
"1232",77.04707,535.9772
"1233",76.62226,535.9905
"1234",76.22186,536.0038
"1235",75.85809,536.0171
"1236",75.53826,536.0304
"1237",75.267265,536.0437
"1238",75.04265,536.057
"1239",74.85954,536.0703
"1240",74.70817,536.0836
"1241",74.59342,536.0969
"1242",74.50553,536.1102
"1243",74.43961,536.12354
"1244",74.390785,536.13684
"1245",74.356606,536.15015
"1246",74.339516,536.16345
"1247",74.356606,536.17676
"1248",74.46403,536.19006
"1249",74.793625,536.20337
"1250",75.55535,536.2167
"1251",76.895706,536.23
"1252",78.82445,536.2433
"1253",81.18288,536.2566
"1254",83.67071,536.2699
"1255",85.926605,536.2832
"1256",87.64294,536.2965
"1257",88.670784,536.3098
"1258",89.024796,536.3231
"1259",88.814835,536.3364
"1260",88.18494,536.34973
"1261",87.28161,536.36304
"1262",86.25376,536.37634
"1263",85.21614,536.38965
"1264",84.24689,536.40295
"1265",83.38262,536.41626
"1266",82.63554,536.42957
"1267",81.97635,536.4429
"1268",81.3782,536.4562
"1269",80.816666,536.4695
"1270",80.308846,536.4828
"1271",79.88403,536.4961
"1272",79.58129,536.5094
"1273",79.42504,536.5227
"1274",79.42016,536.536
"1275",79.53979,536.5493
"1276",79.71557,536.5626
"1277",79.8938,536.5759
"1278",80.02075,536.58923
"1279",80.05005,536.60254
"1280",79.9646,536.61584
"1281",79.764404,536.62915
"1282",79.46166,536.64246
"1283",79.080795,536.65576
"1284",78.64866,536.66907
"1285",78.18967,536.6824
"1286",77.72335,536.6957
"1287",77.26925,536.709
"1288",76.84444,536.7223
"1289",76.45869,536.7356
"1290",76.112,536.7489
"1291",75.80682,536.7622
"1292",75.53094,536.7755
"1293",75.2868,536.7888
"1294",75.0695,536.8021
"1295",74.87663,536.8154
"1296",74.70573,536.82874
"1297",74.56168,536.84204
"1298",74.461586,536.85535
"1299",74.44694,536.86865
"1300",74.64469,536.88196
"1301",75.26238,536.89526
"1302",76.473335,536.90857
"1303",78.31663,536.9219
"1304",80.65064,536.9352
"1305",83.18242,536.9485
"1306",85.540855,536.9618
"1307",87.38659,536.9751
"1308",88.534065,536.9884
"1309",88.98329,537.0017
"1310",88.83681,537.015
"1311",88.233765,537.0283
"1312",87.32311,537.0416
"1313",86.25376,537.05493
"1314",85.15022,537.06824
"1315",84.1004,537.08154
"1316",83.15312,537.09485
"1317",82.32548,537.10815
"1318",81.59304,537.12146
"1319",80.93385,537.13477
"1320",80.33082,537.1481
"1321",79.801025,537.1614
"1322",79.381096,537.1747
"1323",79.11742,537.188
"1324",79.029526,537.2013
"1325",79.11742,537.2146
"1326",79.32983,537.2279
"1327",79.603264,537.2412
"1328",79.86206,537.2545
"1329",80.04761,537.2678
"1330",80.111084,537.2811
"1331",80.04028,537.29443
"1332",79.83765,537.30774
"1333",79.52514,537.32104
"1334",79.12474,537.33435
"1335",78.66575,537.34766
"1336",78.1799,537.36096
"1337",77.68917,537.37427
"1338",77.208206,537.3876
"1339",76.75899,537.4009
"1340",76.34882,537.4142
"1341",75.9704,537.4275
"1342",75.62371,537.4408
"1343",75.301445,537.4541
"1344",75.001144,537.4674
"1345",74.720375,537.4807
"1346",74.46891,537.494
"1347",74.26627,537.5073
"1348",74.16373,537.5206
"1349",74.27116,537.53394
"1350",74.80827,537.54724
"1351",75.96796,537.56055
"1352",77.821014,537.57385
"1353",80.25025,537.58716
"1354",82.97246,537.60046
"1355",85.58724,537.6138
"1356",87.711296,537.6271
"1357",89.11757,537.6404
"1358",89.767,537.6537
"1359",89.75235,537.667
"1360",89.22499,537.6803
"1361",88.34852,537.6936
"1362",87.27184,537.7069
"1363",86.13168,537.7202
"1364",85.02571,537.7335
"1365",84.017395,537.7468
"1366",83.12871,537.76013
"1367",82.34745,537.77344
"1368",81.64431,537.78674
"1369",80.99245,537.80005
"1370",80.38941,537.81335
"1371",79.85962,537.82666
"1372",79.447014,537.83997
"1373",79.20531,537.8533
"1374",79.14183,537.8666
"1375",79.24437,537.8799
"1376",79.45434,537.8932
"1377",79.7058,537.9065
"1378",79.923096,537.9198
"1379",80.045166,537.9331
"1380",80.03784,537.9464
"1381",79.88403,537.9597
"1382",79.59838,537.973
"1383",79.200424,537.9863
"1384",78.72678,537.99963
"1385",78.2092,538.01294
"1386",77.67696,538.02625
"1387",77.14961,538.03955
"1388",76.63691,538.05286
"1389",76.14862,538.06616
"1390",75.68963,538.07947
"1391",75.25994,538.0928
"1392",74.864426,538.1061
"1393",74.50553,538.1194
"1394",74.19302,538.1327
"1395",73.92935,538.146
"1396",73.763336,538.1593
"1397",73.81705,538.1726
"1398",74.30778,538.1859
"1399",75.44549,538.1992
"1400",77.32784,538.2125
"1401",79.83765,538.2258
"1402",82.669716,538.23914
"1403",85.40902,538.25244
"1404",87.6527,538.26575
"1405",89.15175,538.27905
"1406",89.85733,538.29236
"1407",89.87198,538.30566
"1408",89.36172,538.319
"1409",88.495,538.3323
"1410",87.430534,538.3456
"1411",86.30991,538.3589
"1412",85.23079,538.3722
"1413",84.25178,538.3855
"1414",83.387505,538.3988
"1415",82.62333,538.4121
"1416",81.91531,538.4254
"1417",81.24147,538.4387
"1418",80.59693,538.452
"1419",80.01587,538.46533
"1420",79.54711,538.47864
"1421",79.237045,538.49194
"1422",79.10765,538.50525
"1423",79.14183,538.51855
"1424",79.293205,538.53186
"1425",79.49096,538.54517
"1426",79.6643,538.5585
"1427",79.74731,538.5718
"1428",79.7058,538.5851
"1429",79.52514,538.5984
"1430",79.219955,538.6117
"1431",78.81712,538.625
"1432",78.34348,538.6383
"1433",77.8259,538.6516
"1434",77.29366,538.6649
"1435",76.76631,538.6782
"1436",76.25117,538.6915
"1437",75.76288,538.70483
"1438",75.299,538.71814
"1439",74.85954,538.73145
"1440",74.442055,538.74475
"1441",74.05142,538.75806
"1442",73.70229,538.77136
"1443",73.41421,538.78467
"1444",73.26528,538.798
"1445",73.428856,538.8113
"1446",74.144196,538.8246
"1447",75.5993,538.8379
"1448",77.7966,538.8512
"1449",80.533455,538.8645
"1450",83.43389,538.8778
"1451",86.05356,538.8911
"1452",88.02869,538.9044
"1453",89.195694,538.9177
"1454",89.58633,538.931
"1455",89.342186,538.94434
"1456",88.63172,538.95764
"1457",87.62829,538.97095
"1458",86.47837,538.98425
"1459",85.30892,538.99756
"1460",84.207825,539.01086
"1461",83.21416,539.0242
"1462",82.33036,539.0375
"1463",81.532005,539.0508
"1464",80.79225,539.0641
"1465",80.093994,539.0774
"1466",79.45434,539.0907
"1467",78.91966,539.104
"1468",78.54368,539.1173
"1469",78.365456,539.1306
"1470",78.38743,539.1439
"1471",78.56565,539.1572
"1472",78.839096,539.17053
"1473",79.11742,539.18384
"1474",79.32983,539.19714
"1475",79.4226,539.21045
"1476",79.37133,539.22375
"1477",79.17113,539.23706
"1478",78.84154,539.25037
"1479",78.41184,539.2637
"1480",77.91867,539.277
"1481",77.39376,539.2903
"1482",76.86641,539.3036
"1483",76.33906,539.3169
"1484",75.826355,539.3302
"1485",75.338066,539.3435
"1486",74.8864,539.3568
"1487",74.46891,539.3701
"1488",74.09781,539.3834
"1489",73.77554,539.3967
"1490",73.49233,539.41003
"1491",73.270164,539.42334
"1492",73.19203,539.43665
"1493",73.44106,539.44995
"1494",74.27116,539.46326
"1495",75.862976,539.47656
"1496",78.20187,539.48987
"1497",81.058365,539.5032
"1498",84.03204,539.5165
"1499",86.66636,539.5298
"1500",88.59266,539.5431
"1501",89.66689,539.5564
"1502",89.94522,539.5697
"1503",89.58877,539.583
"1504",88.77333,539.5963
"1505",87.68444,539.6096
"1506",86.46372,539.6229
"1507",85.22835,539.6362
"1508",84.0589,539.64954
"1509",82.99931,539.66284
"1510",82.04471,539.67615
"1511",81.17555,539.68945
"1512",80.37232,539.70276
"1513",79.64233,539.71606
"1514",79.01976,539.7294
"1515",78.54124,539.7427
"1516",78.26536,539.756
"1517",78.21896,539.7693
"1518",78.38499,539.7826
"1519",78.69749,539.7959
"1520",79.06859,539.8092
"1521",79.415276,539.8225
"1522",79.65942,539.8358
"1523",79.73998,539.8491
"1524",79.64477,539.8624
"1525",79.38842,539.87573
"1526",79.00023,539.88904
"1527",78.519264,539.90234
"1528",77.98215,539.91565
"1529",77.42306,539.92896
"1530",76.86641,539.94226
"1531",76.32929,539.95557
"1532",75.81903,539.9689
"1533",75.34539,539.9822
"1534",74.91081,539.9955
"1535",74.52018,540.0088
"1536",74.16861,540.0221
"1537",73.85855,540.0354
"1538",73.59487,540.0487
"1539",73.38003,540.062
"1540",73.26528,540.0753
"1541",73.38247,540.0886
"1542",73.968414,540.1019
"1543",75.23796,540.11523
"1544",77.26925,540.12854
"1545",79.93042,540.14185
"1546",82.89189,540.15515
"1547",85.69955,540.16846
"1548",87.93347,540.18176
"1549",89.359276,540.19507
"1550",89.9501,540.2084
"1551",89.83292,540.2217
"1552",89.181046,540.235
"1553",88.18005,540.2483
"1554",86.98131,540.2616
"1555",85.71908,540.2749
"1556",84.47883,540.2882
"1557",83.32647,540.3015
"1558",82.27421,540.3148
"1559",81.31472,540.3281
"1560",80.4358,540.34143
"1561",79.64233,540.35474
"1562",78.958725,540.36804
"1563",78.44358,540.38135
"1564",78.14816,540.39465
"1565",78.09445,540.40796
"1566",78.27268,540.42126
"1567",78.61692,540.4346
"1568",79.03685,540.4479
"1569",79.432365,540.4612
"1570",79.72045,540.4745
"1571",79.83765,540.4878
"1572",79.76196,540.5011
"1573",79.51537,540.5144
"1574",79.12962,540.5277
"1575",78.64866,540.541
"1576",78.116425,540.5543
"1577",77.55489,540.5676
"1578",76.98848,540.58093
"1579",76.43183,540.59424
"1580",75.90448,540.60754
"1581",75.423515,540.62085
"1582",74.99626,540.63416
"1583",74.6276,540.64746
"1584",74.319984,540.66077
"1585",74.06607,540.6741
"1586",73.85855,540.6874
"1587",73.69009,540.7007
"1588",73.55337,540.714
"1589",73.445946,540.7273
"1590",73.39468,540.7406
"1591",73.51186,540.7539
"1592",74.00748,540.7672
"1593",75.140305,540.7805
"1594",77.032425,540.7938
"1595",79.588615,540.8071
"1596",82.5037,540.82043
"1597",85.350426,540.83374
"1598",87.691765,540.84705
"1599",89.249405,540.86035
"1600",89.9794,540.87366
"1601",89.99161,540.88696
"1602",89.45205,540.90027
"1603",88.52674,540.9136
"1604",87.35973,540.9269
"1605",86.07797,540.9402
"1606",84.78401,540.9535
"1607",83.55352,540.9668
"1608",82.41337,540.9801
"1609",81.375755,540.9934
"1610",80.43336,541.0067
"1611",79.59106,541.02
"1612",78.87572,541.0333
"1613",78.3386,541.04663
"1614",78.02365,541.05994
"1615",77.9675,541.07324
"1616",78.16525,541.08655
"1617",78.56321,541.09985
"1618",79.063705,541.11316
"1619",79.56664,541.12646
"1620",79.974365,541.1398
"1621",80.21362,541.1531
"1622",80.255135,541.1664
"1623",80.111084,541.1797
"1624",79.80591,541.193
"1625",79.378654,541.2063
"1626",78.86595,541.2196
"1627",78.30198,541.2329
"1628",77.7087,541.2462
"1629",77.120316,541.2595
"1630",76.54902,541.2728
"1631",76.02167,541.28613
"1632",75.55291,541.29944
"1633",75.14763,541.31274
"1634",74.80827,541.32605
"1635",74.53483,541.33936
"1636",74.322426,541.35266
"1637",74.1564,541.36597
"1638",74.019684,541.3793
"1639",73.900055,541.3926
"1640",73.80728,541.4059
"1641",73.75845,541.4192
"1642",73.85855,541.4325
"1643",74.322426,541.4458
"1644",75.41131,541.4591
"1645",77.25704,541.4724
"1646",79.76929,541.4857
"1647",82.64286,541.499
"1648",85.45052,541.5123
"1649",87.74792,541.52563
"1650",89.25918,541.53894
"1651",89.94278,541.55225
"1652",89.92813,541.56555
"1653",89.38125,541.57886
"1654",88.45838,541.59216
"1655",87.291374,541.60547
"1656",86.00961,541.6188
"1657",84.70344,541.6321
"1658",83.4461,541.6454
"1659",82.27421,541.6587
"1660",81.19997,541.672
"1661",80.22095,541.6853
"1662",79.35424,541.6986
"1663",78.6218,541.7119
"1664",78.07492,541.7252
"1665",77.77707,541.7385
"1666",77.75998,541.75183
"1667",78.02121,541.76514
"1668",78.50706,541.77844
"1669",79.114975,541.79175
"1670",79.71801,541.80505
"1671",80.21118,541.81836
"1672",80.51148,541.83167
"1673",80.59205,541.845
"1674",80.465096,541.8583
"1675",80.16235,541.8716
"1676",79.73266,541.8849
"1677",79.21507,541.8982
"1678",78.65354,541.9115
"1679",78.07492,541.9248
"1680",77.50851,541.9381
"1681",76.96651,541.9514
"1682",76.46357,541.9647
"1683",76.00458,541.978
"1684",75.5993,541.99133
"1685",75.24773,542.00464
"1686",74.94255,542.01794
"1687",74.69108,542.03125
"1688",74.48844,542.04456
"1689",74.322426,542.05786
"1690",74.18814,542.07117
"1691",74.092926,542.0845
"1692",74.03433,542.0978
"1693",74.04898,542.1111
"1694",74.26383,542.1244
"1695",74.91325,542.1377
"1696",76.23895,542.151
"1697",78.3093,542.1643
"1698",80.96315,542.1776
"1699",83.83185,542.1909
"1700",86.47105,542.2042
"1701",88.482796,542.2175
"1702",89.671776,542.23083
"1703",90.06729,542.24414
"1704",89.84268,542.25745
"1705",89.1664,542.27075
"1706",88.182495,542.28406
"1707",87.010605,542.29736
"1708",85.748375,542.31067
"1709",84.47639,542.324
"1710",83.250786,542.3373
"1711",82.09598,542.3506
"1712",81.03151,542.3639
"1713",80.062256,542.3772
"1714",79.217514,542.3905
"1715",78.52659,542.4038
"1716",78.04074,542.4171
"1717",77.821014,542.4304
"1718",77.89426,542.4437
"1719",78.24582,542.45703
"1720",78.81224,542.47034
"1721",79.483635,542.48364
"1722",80.1355,542.49695
"1723",80.655525,542.51025
"1724",80.970474,542.52356
"1725",81.05592,542.53687
"1726",80.921646,542.5502
"1727",80.60914,542.5635
"1728",80.16235,542.5768
"1729",79.63256,542.5901
"1730",79.061264,542.6034
"1731",78.47776,542.6167
"1732",77.91135,542.63
"1733",77.38155,542.6433
"1734",76.89815,542.6566
"1735",76.470894,542.6699
"1736",76.09735,542.6832
"1737",75.775085,542.69653
"1738",75.50652,542.70984
"1739",75.29168,542.72314
"1740",75.11833,542.73645
"1741",74.97429,542.74976
"1742",74.861984,542.76306
"1743",74.77898,542.77637
"1744",74.759445,542.7897
"1745",74.93767,542.803
"1746",75.55779,542.8163
"1747",76.85664,542.8296
"1748",78.89769,542.8429
"1749",81.50271,542.8562
"1750",84.30793,542.8695
"1751",86.871445,542.8828
"1752",88.80263,542.8961
"1753",89.915924,542.9094
"1754",90.26261,542.9227
"1755",90.01358,542.93604
"1756",89.33242,542.94934
"1757",88.34608,542.96265
"1758",87.17174,542.97595
"1759",85.89731,542.98926
"1760",84.60822,543.00256
"1761",83.35821,543.01587
"1762",82.18143,543.0292
"1763",81.092545,543.0425
"1764",80.10376,543.0558
"1765",79.22972,543.0691
"1766",78.50706,543.0824
"1767",77.98703,543.0957
"1768",77.72335,543.109
"1769",77.74532,543.1223
"1770",78.04562,543.1356
"1771",78.56565,543.1489
"1772",79.20775,543.16223
"1773",79.85474,543.17554
"1774",80.396736,543.18884
"1775",80.75807,543.20215
"1776",80.89967,543.21545
"1777",80.831314,543.22876
"1778",80.5774,543.24207
"1779",80.18921,543.2554
"1780",79.7058,543.2687
"1781",79.17113,543.282
"1782",78.6096,543.2953
"1783",78.048065,543.3086
"1784",77.506065,543.3219
"1785",76.998245,543.3352
"1786",76.53925,543.3485
"1787",76.12909,543.3618
"1788",75.77753,543.3751
"1789",75.47723,543.3884
"1790",75.21843,543.40173
"1791",74.9987,543.41504
"1792",74.8156,543.42834
"1793",74.66178,543.44165
"1794",74.54459,543.45496
"1795",74.495766,543.46826
"1796",74.64225,543.48157
"1797",75.21599,543.4949
"1798",76.47822,543.5082
"1799",78.51438,543.5215
"1800",81.163345,543.5348
"1801",84.0589,543.5481
"1802",86.74937,543.5614
"1803",88.8246,543.5747
"1804",90.06485,543.588
"1805",90.50675,543.6013
"1806",90.32609,543.6146
"1807",89.69619,543.6279
"1808",88.744026,543.64124
"1809",87.5819,543.65454
"1810",86.30259,543.66785
"1811",84.98665,543.68115
"1812",83.69512,543.69446
"1813",82.459755,543.70776
"1814",81.30251,543.72107
"1815",80.23071,543.7344
"1816",79.26391,543.7477
"1817",78.43626,543.761
"1818",77.79904,543.7743
"1819",77.420616,543.7876
"1820",77.34493,543.8009
"1821",77.56954,543.8142
"1822",78.048065,543.8275
"1823",78.69016,543.8408
"1824",79.37621,543.8541
"1825",79.98901,543.86743
"1826",80.43824,543.88074
"1827",80.67994,543.89404
"1828",80.70191,543.90735
"1829",80.52369,543.92065
"1830",80.18677,543.93396
"1831",79.73754,543.94727
"1832",79.217514,543.9606
"1833",78.65598,543.9739
"1834",78.082245,543.9872
"1835",77.52804,544.0005
"1836",77.01045,544.0138
"1837",76.53925,544.0271
"1838",76.12909,544.0404
"1839",75.77997,544.0537
"1840",75.48699,544.067
"1841",75.24284,544.0803
"1842",75.04265,544.0936
"1843",74.87663,544.10693
"1844",74.74235,544.12024
"1845",74.63737,544.13354
"1846",74.61295,544.14685
"1847",74.80339,544.16016
"1848",75.4699,544.17346
"1849",76.86885,544.18677
"1850",79.061264,544.2001
"1851",81.846954,544.2134
"1852",84.83772,544.2267
"1853",87.55749,544.24
"1854",89.59609,544.2533
"1855",90.76799,544.2666
"1856",91.13176,544.2799
"1857",90.87541,544.2932
"1858",90.16983,544.3065
"1859",89.14931,544.3198
"1860",87.923706,544.3331
"1861",86.598,544.34644
"1862",85.243,544.35974
"1863",83.90997,544.37305
"1864",82.6453,544.38635
"1865",81.46853,544.39966
"1866",80.394295,544.41296
"1867",79.447014,544.4263
"1868",78.66819,544.4396
"1869",78.1091,544.4529
"1870",77.821014,544.4662
"1871",77.83566,544.4795
"1872",78.14328,544.4928
"1873",78.68284,544.5061
"1874",79.35912,544.5194
"1875",80.05005,544.5327
"1876",80.64576,544.546
"1877",81.05348,544.5593
"1878",81.231705,544.57263
"1879",81.17555,544.58594
"1880",80.919205,544.59924
"1881",80.50904,544.61255
"1882",79.99634,544.62585
"1883",79.42016,544.63916
"1884",78.81224,544.65247
"1885",78.20187,544.6658
"1886",77.60616,544.6791
"1887",77.03975,544.6924
"1888",76.51484,544.7057
"1889",76.03876,544.719
"1890",75.60906,544.7323
"1891",75.23552,544.7456
"1892",74.91081,544.7589
"1893",74.634926,544.7722
"1894",74.40055,544.7855
"1895",74.22232,544.7988
"1896",74.141754,544.81213
"1897",74.30778,544.82544
"1898",74.97917,544.83875
"1899",76.39765,544.85205
"1900",78.607155,544.86536
"1901",81.40505,544.87866
"1902",84.403145,544.89197
"1903",87.13023,544.9053
"1904",89.18349,544.9186
"1905",90.38468,544.9319
"1906",90.78996,544.9452
"1907",90.57023,544.9585
"1908",89.89395,544.9718
"1909",88.88808,544.9851
"1910",87.67712,544.9984
"1911",86.363625,545.0117
"1912",85.02815,545.025
"1913",83.736626,545.0383
"1914",82.52079,545.05164
"1915",81.39773,545.06494
"1916",80.37232,545.07825
"1917",79.45922,545.09155
"1918",78.69749,545.10486
"1919",78.14084,545.11816
"1920",77.838104,545.1315
"1921",77.81369,545.1448
"1922",78.06027,545.1581
"1923",78.52415,545.1714
"1924",79.10765,545.1847
"1925",79.70092,545.198
"1926",80.19653,545.2113
"1927",80.51881,545.2246
"1928",80.61646,545.2379
"1929",80.49683,545.2512
"1930",80.18921,545.2645
"1931",79.7522,545.27783
"1932",79.234604,545.29114
"1933",78.66575,545.30444
"1934",78.07492,545.31775
"1935",77.48409,545.33105
"1936",76.90791,545.34436
"1937",76.3708,545.35767
"1938",75.880066,545.371
"1939",75.44305,545.3843
"1940",75.0573,545.3976
"1941",74.71549,545.4109
"1942",74.40543,545.4242
"1943",74.13443,545.4375
"1944",73.91226,545.4508
"1945",73.7731,545.4641
"1946",73.84146,545.4774
"1947",74.34684,545.4907
"1948",75.562675,545.504
"1949",77.593956,545.51733
"1950",80.308846,545.53064
"1951",83.36065,545.54395
"1952",86.2855,545.55725
"1953",88.64149,545.57056
"1954",90.162506,545.58386
"1955",90.84123,545.59717
"1956",90.811935,545.6105
"1957",90.252846,545.6238
"1958",89.31289,545.6371
"1959",88.14099,545.6504
"1960",86.84459,545.6637
"1961",85.53109,545.677
"1962",84.26887,545.6903
"1963",83.09941,545.7036
"1964",82.02762,545.7169
"1965",81.05104,545.7302
"1966",80.18677,545.7435
"1967",79.45678,545.75684
"1968",78.89769,545.77014
"1969",78.555885,545.78345
"1970",78.467995,545.79675
"1971",78.641335,545.81006
"1972",79.029526,545.82336
"1973",79.54467,545.8367
"1974",80.07202,545.85
"1975",80.50904,545.8633
"1976",80.77028,545.8766
"1977",80.82155,545.8899
"1978",80.67017,545.9032
"1979",80.34791,545.9165
"1980",79.90112,545.9298
"1981",79.37377,545.9431
"1982",78.79515,545.9564
"1983",78.18967,545.9697
"1984",77.576866,545.98303
"1985",76.97383,545.99634
"1986",76.39765,546.00964
"1987",75.87518,546.02295
"1988",75.40887,546.03625
"1989",75.003586,546.04956
"1990",74.666664,546.06287
"1991",74.39323,546.0762
"1992",74.16861,546.0895
"1993",73.99283,546.1028
"1994",73.882965,546.1161
"1995",73.88785,546.1294
"1996",74.158844,546.1427
"1997",74.94255,546.156
"1998",76.4416,546.1693
"1999",78.675514,546.1826
"2000",81.449,546.1959
"2001",84.39338,546.2092
"2002",87.061874,546.22253
"2003",89.08827,546.23584
"2004",90.29923,546.24915
"2005",90.72648,546.26245
"2006",90.50919,546.27576
"2007",89.8085,546.28906
"2008",88.77333,546.30237
"2009",87.5404,546.3157
"2010",86.22934,546.329
"2011",84.93294,546.3423
"2012",83.72198,546.3556
"2013",82.62089,546.3689
"2014",81.634544,546.3822
"2015",80.75075,546.3955
"2016",79.96948,546.4088
"2017",79.31518,546.4221
"2018",78.836655,546.4354
"2019",78.57542,546.4487
"2020",78.54856,546.46204
"2021",78.73167,546.47534
"2022",79.05638,546.48865
"2023",79.429924,546.50195
"2024",79.766846,546.51526
"2025",79.99878,546.52856
"2026",80.08423,546.5419
"2027",80.00122,546.5552
"2028",79.75952,546.5685
"2029",79.381096,546.5818
"2030",78.90257,546.5951
"2031",78.363014,546.6084
"2032",77.79904,546.6217
"2033",77.23018,546.635
"2034",76.67841,546.6483
"2035",76.15106,546.6616
"2036",75.665215,546.6749
"2037",75.22331,546.68823
"2038",74.83513,546.70154
"2039",74.49821,546.71484
"2040",74.212555,546.72815
"2041",73.968414,546.74146
"2042",73.763336,546.75476
"2043",73.59487,546.76807
"2044",73.460594,546.7814
"2045",73.411766,546.7947
"2046",73.58999,546.808
"2047",74.229645,546.8213
"2048",75.54803,546.8346
"2049",77.611046,546.8479
"2050",80.26002,546.8612
"2051",83.158005,546.8745
"2052",85.86801,546.8878
"2053",88.00183,546.9011
"2054",89.35195,546.9144
"2055",89.91348,546.92773
"2056",89.80606,546.94104
"2057",89.18837,546.95435
"2058",88.21423,546.96765
"2059",87.03258,546.98096
"2060",85.77524,546.99426
"2061",84.542305,547.00757
"2062",83.40215,547.0209
"2063",82.38163,547.0342
"2064",81.47585,547.0475
"2065",80.66773,547.0608
"2066",79.957275,547.0741
"2067",79.35424,547.0874
"2068",78.89281,547.1007
"2069",78.6096,547.114
"2070",78.52659,547.1273
"2071",78.63889,547.1406
"2072",78.89281,547.15393
"2073",79.21019,547.16724
"2074",79.517815,547.18054
"2075",79.74731,547.19385
"2076",79.84985,547.20715
"2077",79.80591,547.22046
"2078",79.61547,547.23376
"2079",79.293205,547.2471
"2080",78.86351,547.2604
"2081",78.35569,547.2737
"2082",77.80148,547.287
"2083",77.23018,547.3003
"2084",76.66865,547.3136
"2085",76.13153,547.3269
"2086",75.631035,547.3402
"2087",75.18181,547.3535
"2088",74.78874,547.3668
"2089",74.44694,547.3801
"2090",74.158844,547.39343
"2091",73.919586,547.40674
"2092",73.724266,547.42004
"2093",73.565575,547.43335
"2094",73.45327,547.44666
"2095",73.392235,547.45996
"2096",73.44106,547.47327
"2097",73.72671,547.4866
"2098",74.459145,547.4999
"2099",75.84589,547.5132
"2100",77.95529,547.5265
"2101",80.6482,547.5398
"2102",83.577934,547.5531
"2103",86.329445,547.5664
"2104",88.514534,547.5797
"2105",89.901276,547.593
"2106",90.46769,547.6063
"2107",90.34318,547.6196
"2108",89.70107,547.63293
"2109",88.70496,547.64624
"2110",87.51354,547.65955
"2111",86.2562,547.67285
"2112",85.03548,547.68616
"2113",83.91974,547.69946
"2114",82.930954,547.71277
"2115",82.05936,547.7261
"2116",81.290306,547.7394
"2117",80.604256,547.7527
"2118",80.01343,547.766
"2119",79.537346,547.7793
"2120",79.217514,547.7926
"2121",79.080795,547.8059
"2122",79.12474,547.8192
"2123",79.30297,547.8325
"2124",79.54711,547.8458
"2125",79.78638,547.85913
"2126",79.957275,547.87244
"2127",80.008545,547.88574
"2128",79.93286,547.89905
"2129",79.73022,547.91235
"2130",79.40795,547.92566
"2131",78.9807,547.93896
"2132",78.47288,547.9523
"2133",77.91623,547.9656
"2134",77.330284,547.9789
"2135",76.74433,547.9922
"2136",76.18524,548.0055
"2137",75.665215,548.0188
"2138",75.18669,548.0321
"2139",74.76677,548.0454
"2140",74.4152,548.0587
"2141",74.127106,548.072
"2142",73.9025,548.0853
"2143",73.724266,548.09863
"2144",73.582664,548.11194
"2145",73.46548,548.12524
"2146",73.38003,548.13855
"2147",73.35317,548.15186
"2148",73.47524,548.16516
"2149",73.92935,548.17847
"2150",74.95232,548.1918
"2151",76.70771,548.2051
"2152",79.17357,548.2184
"2153",82.09598,548.2317
"2154",85.07454,548.245
"2155",87.67712,548.2583
"2156",89.566795,548.2716
"2157",90.60929,548.2849
"2158",90.86076,548.2982
"2159",90.48966,548.3115
"2160",89.669334,548.3248
"2161",88.55848,548.33813
"2162",87.308464,548.35144
"2163",86.05112,548.36475
"2164",84.874344,548.37805
"2165",83.82941,548.39136
"2166",82.92363,548.40466
"2167",82.13748,548.41797
"2168",81.43923,548.4313
"2169",80.80202,548.4446
"2170",80.22583,548.4579
"2171",79.742424,548.4712
"2172",79.38842,548.4845
"2173",79.18822,548.4978
"2174",79.13695,548.5111
"2175",79.20531,548.5244
"2176",79.33715,548.5377
"2177",79.47143,548.551
"2178",79.54711,548.56433
"2179",79.534904,548.57764
"2180",79.412834,548.59094
"2181",79.17845,548.60425
"2182",78.836655,548.61755
"2183",78.41184,548.63086
"2184",77.92355,548.64417
"2185",77.39132,548.6575
"2186",76.83223,548.6708
"2187",76.26826,548.6841
"2188",75.716484,548.6974
"2189",75.19646,548.7107
"2190",74.7277,548.724
"2191",74.322426,548.7373
"2192",73.99039,548.7506
"2193",73.72915,548.7639
"2194",73.52651,548.7772
"2195",73.37026,548.7905
"2196",73.253075,548.80383
"2197",73.16518,548.81714
"2198",73.10414,548.83044
"2199",73.08461,548.84375
"2200",73.18227,548.85706
"2201",73.54604,548.87036
"2202",74.4152,548.88367
"2203",75.99725,548.897
"2204",78.33616,548.9103
"2205",81.23903,548.9236
"2206",84.32014,548.9369
"2207",87.12535,548.9502
"2208",89.27627,548.9635
"2209",90.56779,548.9768
"2210",91.0219,548.9901
"2211",90.79729,549.0034
"2212",90.08682,549.0167
"2213",89.05409,549.03
"2214",87.84802,549.04333
"2215",86.598,549.05664
"2216",85.40658,549.06995
"2217",84.332344,549.08325
"2218",83.39483,549.09656
"2219",82.58427,549.10986
"2220",81.86893,549.12317
"2221",81.214615,549.1365
"2222",80.6067,549.1498
"2223",80.06714,549.1631
"2224",79.63012,549.1764
"2225",79.33227,549.1897
"2226",79.19066,549.203
"2227",79.18089,549.2163
"2228",79.26635,549.2296
"2229",79.38842,549.2429
"2230",79.49096,549.2562
"2231",79.53246,549.26953
"2232",79.48119,549.28284
"2233",79.31518,549.29614
"2234",79.03197,549.30945
"2235",78.641335,549.32275
"2236",78.16525,549.33606
"2237",77.62325,549.34937
"2238",77.03975,549.3627
"2239",76.436714,549.376
"2240",75.841,549.3893
"2241",75.27215,549.4026
"2242",74.74967,549.4159
"2243",74.288246,549.4292
"2244",73.89517,549.4425
"2245",73.5729,549.4558
"2246",73.31655,549.4691
"2247",73.11635,549.4824
"2248",72.972305,549.4957
"2249",72.87709,549.50903
"2250",72.8185,549.52234
"2251",72.78432,549.53564
"2252",72.77699,549.54895
"2253",72.816055,549.56226
"2254",72.99184,549.57556
"2255",73.477684,549.58887
"2256",74.52018,549.6022
"2257",76.32441,549.6155
"2258",78.905014,549.6288
"2259",82.02762,549.6421
"2260",85.26742,549.6554
"2261",88.145874,549.6687
"2262",90.27482,549.682
"2263",91.473564,549.6953
"2264",91.79828,549.7086
"2265",91.43694,549.7219
"2266",90.599525,549.7352
"2267",89.45693,549.74854
"2268",88.17029,549.76184
"2269",86.85924,549.77515
"2270",85.6141,549.78845
"2271",84.49592,549.80176
"2272",83.51934,549.81506
"2273",82.66483,549.82837
"2274",81.89578,549.8417
"2275",81.18776,549.855
"2276",80.52857,549.8683
"2277",79.937744,549.8816
"2278",79.45678,549.8949
"2279",79.12962,549.9082
"2280",78.97337,549.9215
"2281",78.97826,549.9348
"2282",79.10277,549.9481
"2283",79.28344,549.9614
"2284",79.449455,549.97473
"2285",79.54467,549.98804
"2286",79.53002,550.00134
"2287",79.38354,550.01465
"2288",79.10033,550.02795
"2289",78.692604,550.04126
"2290",78.187225,550.05457
"2291",77.60372,550.0679
"2292",76.981155,550.0812
"2293",76.351265,550.0945
"2294",75.74578,550.1078
"2295",75.18181,550.1211
"2296",74.68131,550.1344
"2297",74.24429,550.1477
"2298",73.87808,550.161
"2299",73.58022,550.1743
"2300",73.35561,550.1876
"2301",73.196915,550.2009
"2302",73.091934,550.21423
"2303",73.0309,550.22754
"2304",72.99916,550.24084
"2305",72.98695,550.25415
"2306",72.99428,550.26746
"2307",73.0724,550.28076
"2308",73.34829,550.29407
"2309",74.0441,550.3074
"2310",75.406425,550.3207
"2311",77.57198,550.334
"2312",80.44312,550.3473
"2313",83.6878,550.3606
"2314",86.82994,550.3739
"2315",89.408104,550.3872
"2316",91.11711,550.4005
"2317",91.88861,550.4138
"2318",91.844666,550.4271
"2319",91.19524,550.4404
"2320",90.142975,550.45374
"2321",88.85634,550.46704
"2322",87.481804,550.48035
"2323",86.12436,550.49365
"2324",84.859695,550.50696
"2325",83.717094,550.52026
"2326",82.68925,550.53357
"2327",81.75174,550.5469
"2328",80.89235,550.5602
"2329",80.111084,550.5735
"2330",79.42748,550.5868
"2331",78.89281,550.6001
"2332",78.54368,550.6134
"2333",78.382545,550.6267
"2334",78.397194,550.64
"2335",78.54368,550.6533
"2336",78.75853,550.6666
"2337",78.97093,550.67993
"2338",79.11986,550.69324
"2339",79.16136,550.70654
"2340",79.06859,550.71985
"2341",78.836655,550.73315
"2342",78.47776,550.74646
"2343",78.01633,550.75977
"2344",77.48409,550.7731
"2345",76.90791,550.7864
"2346",76.32197,550.7997
"2347",75.75311,550.813
"2348",75.22575,550.8263
"2349",74.75212,550.8396
"2350",74.33463,550.8529
"2351",73.97574,550.8662
"2352",73.670555,550.8795
"2353",73.409325,550.8928
"2354",73.18715,550.9061
"2355",73.0016,550.91943
"2356",72.84779,550.93274
"2357",72.71351,550.94604
"2358",72.60609,550.95935
"2359",72.54505,550.97266
"2360",72.59144,550.98596
"2361",72.91615,550.99927
"2362",73.78775,551.0126
"2363",75.4699,551.0259
"2364",78.06271,551.0392
"2365",81.3904,551.0525
"2366",85.02083,551.0658
"2367",88.39002,551.0791
"2368",90.99748,551.0924
"2369",92.56489,551.1057
"2370",93.09224,551.119
"2371",92.77486,551.1323
"2372",91.87396,551.1456
"2373",90.60197,551.15894
"2374",89.127335,551.17224
"2375",87.57946,551.18555
"2376",86.05112,551.19885
"2377",84.610664,551.21216
"2378",83.28741,551.22546
"2379",82.091095,551.2388
"2380",81.01442,551.2521
"2381",79.2517,551.2787
"2382",78.6096,551.292
"2383",78.170135,551.3053
"2384",77.962616,551.3186
"2385",77.97238,551.3319
"2386",78.16525,551.3452
"2387",78.47776,551.3585
"2388",78.82689,551.3718
"2389",79.12718,551.38513
"2390",79.31274,551.39844
"2391",79.344475,551.41174
"2392",79.20775,551.42505
"2393",78.91966,551.43835
"2394",78.5095,551.45166
"2395",78.011444,551.46497
"2396",77.46456,551.4783
"2397",76.895706,551.4916
"2398",76.334175,551.5049
"2399",75.79462,551.5182
"2400",75.28191,551.5315
"2401",74.80339,551.5448
"2402",74.36637,551.5581
"2403",73.98062,551.5714
"2404",73.6437,551.5847
"2405",73.35561,551.598
"2406",73.111465,551.6113
"2407",72.90883,551.62463
"2408",72.740364,551.63794
"2409",72.63294,551.65125
"2410",72.68421,551.66455
"2411",73.09926,551.67786
"2412",74.14908,551.69116
"2413",76.06561,551.70447
"2414",78.8806,551.7178
"2415",82.354774,551.7311
"2416",85.99985,551.7444
"2417",89.23964,551.7577
"2418",91.60784,551.771
"2419",92.88716,551.7843
"2420",93.1313,551.7976
"2421",92.55756,551.8109
"2422",91.424736,551.8242
"2423",89.95743,551.8375
"2424",88.31434,551.8508
"2425",86.61021,551.86414
"2426",84.9427,551.87744
"2427",83.36797,551.89075
"2428",81.90799,551.90405
"2429",80.567635,551.91736
"2430",79.364006,551.93066
"2431",78.33372,551.944
"2432",77.506065,551.9573
"2433",76.94209,551.9706
"2434",76.69062,551.9839
"2435",76.75899,551.9972
"2436",77.0959,552.0105
"2437",77.611046,552.0238
"2438",78.20187,552.0371
"2439",78.75365,552.0504
"2440",79.17113,552.0637
"2441",79.3933,552.077
"2442",79.40795,552.09033
"2443",79.22728,552.10364
"2444",78.8806,552.11694
"2445",78.416725,552.13025
"2446",77.87961,552.14355
"2447",77.30831,552.15686
"2448",76.72968,552.17017
"2449",76.15839,552.1835
"2450",75.6115,552.1968
"2451",75.089035,552.2101
"2452",74.598305,552.2234
"2453",74.141754,552.2367
"2454",73.72671,552.25
"2455",73.36538,552.2633
"2456",73.06752,552.2766
"2457",72.884415,552.2899
"2458",72.96498,552.3032
"2459",73.58022,552.3165
"2460",75.003586,552.32983
"2461",77.39864,552.34314
"2462",80.68726,552.35645
"2463",84.49592,552.36975
"2464",88.23865,552.38306
"2465",91.3222,552.39636
"2466",93.37789,552.40967
"2467",94.28855,552.423
"2468",94.19821,552.4363
"2469",93.368126,552.4496
"2470",92.07416,552.4629
"2471",90.51652,552.4762
"2472",88.84413,552.4895
"2473",87.166855,552.5028
"2474",85.555504,552.5161
"2475",84.051575,552.5294
"2476",82.67216,552.5427
"2477",81.42458,552.556
"2478",80.323494,552.56934
"2479",79.395744,552.58264
"2480",78.68772,552.59595
"2481",78.23361,552.60925
"2482",78.06271,552.62256
"2483",78.15549,552.63586
"2484",78.45579,552.6492
"2485",78.87572,552.6625
"2486",79.31762,552.6758
"2487",79.68871,552.6891
"2488",79.91821,552.7024
"2489",79.96704,552.7157
"2490",79.835205,552.729
"2491",79.54711,552.7423
"2492",79.132065,552.7556
"2493",78.624245,552.7689
"2494",78.05783,552.7822
"2495",77.46456,552.79553
"2496",76.859085,552.80884
"2497",76.25849,552.82214
"2498",75.684746,552.83545
"2499",75.14519,552.84875
"2500",74.649574,552.86206
"2501",74.20279,552.87537
"2502",73.81705,552.8887
"2503",73.55825,552.902
"2504",73.58755,552.9153
"2505",74.19058,552.9286
"2506",75.65789,552.9419
"2507",78.118866,552.9552
"2508",81.42214,552.9685
"2509",85.135574,552.9818
"2510",88.66102,552.9951
"2511",91.44427,553.0084
"2512",93.16548,553.0217
"2513",93.80759,553.03503
"2514",93.556114,553.04834
"2515",92.679634,553.06165
"2516",91.424736,553.07495
"2517",89.97208,553.08826
"2518",88.45594,553.10156
"2519",86.97887,553.11487
"2520",85.59945,553.1282
"2521",84.332344,553.1415
"2522",83.16533,553.1548
"2523",82.07156,553.1681
"2524",81.06081,553.1814
"2525",80.15015,553.1947
"2526",79.3933,553.208
"2527",78.84154,553.2213
"2528",78.52659,553.2346
"2529",78.4387,553.2479
"2530",78.54368,553.2612
"2531",78.765854,553.27454
"2532",79.02464,553.28784
"2533",79.237045,553.30115
"2534",79.344475,553.31445
"2535",79.30541,553.32776
"2536",79.10765,553.34106
"2537",78.765854,553.3544
"2538",78.30198,553.3677
"2539",77.74532,553.381
"2540",77.14229,553.3943
"2541",76.52216,553.4076
"2542",75.90692,553.4209
"2543",75.32342,553.4342
"2544",74.78142,553.4475
"2545",74.28336,553.4608
"2546",73.83414,553.4741
"2547",73.43374,553.4874
"2548",73.12367,553.50073
"2549",73.00893,553.51404
"2550",73.323875,553.52734
"2551",74.356606,553.54065
"2552",76.3122,553.55396
"2553",79.14183,553.56726
"2554",82.528114,553.58057
"2555",85.95102,553.5939
"2556",88.86122,553.6072
"2557",90.86076,553.6205
"2558",91.825134,553.6338
"2559",91.878845,553.6471
"2560",91.25384,553.6604
"2561",90.196686,553.6737
"2562",88.90517,553.687
"2563",87.53063,553.7003
"2564",86.18295,553.7136
"2565",84.93538,553.7269
"2566",83.807434,553.74023
"2567",82.78203,553.75354
"2568",81.829865,553.76685
"2569",80.92409,553.78015
"2570",80.06714,553.79346
"2571",79.29565,553.80676
"2572",78.660866,553.82007
"2573",78.22385,553.8334
"2574",78.013885,553.8467
"2575",78.01877,553.86
"2576",78.1799,553.8733
"2577",78.42161,553.8866
"2578",78.64622,553.8999
"2579",78.77806,553.9132
"2580",78.77318,553.9265
"2581",78.61204,553.9398
"2582",78.2971,553.9531
"2583",77.857635,553.96643
"2584",77.3254,553.97974
"2585",76.734566,553.99304
"2586",76.11932,554.00635
"2587",75.508965,554.01965
"2588",74.93034,554.03296
"2589",74.38834,554.04626
"2590",73.89517,554.0596
"2591",73.45815,554.0729
"2592",73.06752,554.0862
"2593",72.740364,554.0995
"2594",72.515755,554.1128
"2595",72.50111,554.1261
"2596",72.90639,554.1394
"2597",73.99527,554.1527
"2598",75.931335,554.166
"2599",78.66331,554.1793
"2600",81.88846,554.1926
"2601",85.12337,554.20593
"2602",87.86267,554.21924
"2603",89.73769,554.23254
"2604",90.63615,554.24585
"2605",90.67033,554.25916
"2606",90.05997,554.27246
"2607",89.037,554.28577
"2608",87.79431,554.2991
"2609",86.48814,554.3124
"2610",85.21614,554.3257
"2611",84.04425,554.339
"2612",82.99199,554.3523
"2613",82.039825,554.3656
"2614",81.160904,554.3789
"2615",80.33082,554.3922
"2616",79.56176,554.4055
"2617",78.887924,554.4188
"2618",78.380104,554.4321
"2619",78.08469,554.44543
"2620",78.02121,554.45874
"2621",78.15793,554.47205
"2622",78.433815,554.48535
"2623",78.74387,554.49866
"2624",78.99779,554.51196
"2625",79.1223,554.52527
"2626",79.07591,554.5386
"2627",78.84642,554.5519
"2628",78.45335,554.5652
"2629",77.93576,554.5785
"2630",77.32784,554.5918
"2631",76.66865,554.6051
"2632",75.999695,554.6184
"2633",75.36492,554.6317
"2634",74.78386,554.645
"2635",74.28092,554.6583
"2636",73.85611,554.67163
"2637",73.50942,554.68494
"2638",73.22621,554.69824
"2639",72.99672,554.71155
"2640",72.816055,554.72485
"2641",72.674446,554.73816
"2642",72.56458,554.75146
"2643",72.49134,554.7648
"2644",72.498665,554.7781
"2645",72.71839,554.7914
"2646",73.38247,554.8047
"2647",74.75212,554.818
"2648",76.94209,554.8313
"2649",79.82788,554.8446
"2650",83.055466,554.8579
"2651",86.13168,554.8712
"2652",88.59266,554.8845
"2653",90.14542,554.8978
"2654",90.758224,554.91113
"2655",90.582436,554.92444
"2656",89.850006,554.93774
"2657",88.76112,554.95105
"2658",87.48669,554.96436
"2659",86.16342,554.97766
"2660",84.88899,554.99097
"2661",83.72442,555.0043
"2662",82.68192,555.0176
"2663",81.74197,555.0309
"2664",80.88747,555.0442
"2665",80.111084,555.0575
"2666",79.42748,555.0708
"2667",78.890366,555.0841
"2668",78.551,555.0974
"2669",78.44358,555.1107
"2670",78.55833,555.124
"2671",78.83177,555.1373
"2672",79.17357,555.15063
"2673",79.48608,555.16394
"2674",79.69604,555.17725
"2675",79.74731,555.19055
"2676",79.622795,555.20386
"2677",79.33715,555.21716
"2678",78.91722,555.23047
"2679",78.397194,555.2438
"2680",77.81613,555.2571
"2681",77.205765,555.2704
"2682",76.58808,555.2837
"2683",75.98993,555.297
"2684",75.42596,555.3103
"2685",74.91814,555.3236
"2686",74.46891,555.3369
"2687",74.08804,555.3502
"2688",73.77066,555.3635
"2689",73.51919,555.37683
"2690",73.31655,555.39014
"2691",73.15785,555.40344
"2692",73.02846,555.41675
"2693",72.935684,555.43005
"2694",72.901505,555.44336
"2695",73.01137,555.45667
"2696",73.45083,555.47
"2697",74.48112,555.4833
"2698",76.282906,555.4966
"2699",78.83177,555.5099
"2700",81.86893,555.5232
"2701",84.962234,555.5365
"2702",87.63317,555.5498
"2703",89.51064,555.5631
"2704",90.460365,555.5764
"2705",90.565346,555.5897
"2706",90.023346,555.603
"2707",89.037,555.61633
"2708",87.78943,555.62964
"2709",86.434425,555.64294
"2710",85.09163,555.65625
"2711",83.83185,555.66956
"2712",82.686806,555.68286
"2713",81.64919,555.69617
"2714",80.71168,555.7095
"2715",79.869385,555.7228
"2716",79.151596,555.7361
"2717",78.607155,555.7494
"2718",78.294655,555.7627
"2719",78.24826,555.776
"2720",78.46555,555.7893
"2721",78.870834,555.8026
"2722",79.364006,555.8159
"2723",79.82544,555.8292
"2724",80.15747,555.8425
"2725",80.29908,555.85583
"2726",80.22583,555.86914
"2727",79.954834,555.88245
"2728",79.52514,555.89575
"2729",78.97093,555.90906
"2730",78.33372,555.92236
"2731",77.65255,555.93567
"2732",76.9543,555.949
"2733",76.26826,555.9623
"2734",75.62371,555.9756
"2735",75.04509,555.9889
"2736",74.54948,556.0022
"2737",74.14664,556.0155
"2738",73.83902,556.0288
"2739",73.6144,556.0421
"2740",73.47036,556.0554
"2741",73.392235,556.0687
"2742",73.36294,556.08203
"2743",73.37026,556.09534
"2744",73.402,556.10864
"2745",73.44839,556.12195
"2746",73.49966,556.13525
"2747",73.5729,556.14856
"2748",73.721825,556.16187
"2749",74.092926,556.1752
"2750",74.92058,556.1885
"2751",76.439156,556.2018
"2752",78.729225,556.2151
"2753",81.6321,556.2284
"2754",84.76692,556.2417
"2755",87.657585,556.255
"2756",89.8793,556.2683
"2757",91.192795,556.2816
"2758",91.598076,556.2949
"2759",91.26116,556.3082
"2760",90.392006,556.32153
"2761",89.178604,556.33484
"2762",87.77722,556.34814
"2763",86.31968,556.36145
"2764",84.910965,556.37476
"2765",83.612114,556.38806
"2766",82.4329,556.40137
"2767",81.38064,556.4147
"2768",80.45533,556.428
"2769",79.67162,556.4413
"2770",79.07103,556.4546
"2771",78.712135,556.4679
"2772",78.62913,556.4812
"2773",78.81712,556.4945
"2774",79.20531,556.5078
"2775",79.693596,556.5211
"2776",80.16968,556.5344
"2777",80.533455,556.5477
"2778",80.72144,556.56104
"2779",80.709236,556.57434
"2780",80.50172,556.58765
"2781",80.12573,556.60095
"2782",79.62768,556.61426
"2783",79.04173,556.62756
"2784",78.40696,556.64087
"2785",77.75998,556.6542
"2786",77.1252,556.6675
"2787",76.51972,556.6808
"2788",75.95819,556.6941
"2789",75.46258,556.7074
"2790",75.037766,556.7207
"2791",74.68864,556.734
"2792",74.41276,556.7473
"2793",74.212555,556.7606
"2794",74.07828,556.7739
"2795",73.99527,556.78723
"2796",73.95621,556.80054
"2797",73.944,556.81384
"2798",73.94888,556.82715
"2799",73.95621,556.84045
"2800",73.97818,556.85376
"2801",74.03677,556.86707
"2802",74.212555,556.8804
"2803",74.68131,556.8937
"2804",75.67254,556.907
"2805",77.3254,556.9203
"2806",79.586174,556.9336
"2807",82.19119,556.9469
"2808",84.76448,556.9602
"2809",86.91051,556.9735
"2810",88.341194,556.9868
"2811",88.99306,557.0001
"2812",88.96376,557.0134
"2813",88.42176,557.02673
"2814",87.52331,557.04004
"2815",86.40757,557.05334
"2816",85.19417,557.06665
"2817",83.980774,557.07996
"2818",82.8333,557.09326
"2819",81.78348,557.10657
"2820",80.84108,557.1199
"2821",80.0061,557.1332
"2822",79.28588,557.1465
"2823",78.70725,557.1598
"2824",78.31907,557.1731
"2825",78.15793,557.1864
"2826",78.24094,557.1997
"2827",78.53391,557.213
"2828",78.96117,557.2263
"2829",79.42748,557.2396
"2830",79.83032,557.2529
"2831",80.10132,557.26624
"2832",80.20874,557.27954
"2833",80.14526,557.29285
"2834",79.92554,557.30615
"2835",79.57885,557.31946
"2836",79.13939,557.33276
"2837",78.63645,557.34607
"2838",78.10422,557.3594
"2839",77.574425,557.3727
"2840",77.069046,557.386
"2841",76.60761,557.3993
"2842",76.19989,557.4126
"2843",75.85321,557.4259
"2844",75.57,557.4392
"2845",75.352715,557.4525
"2846",75.1989,557.4658
"2847",75.11345,557.4791
"2848",75.08659,557.49243
"2849",75.11101,557.50574
"2850",75.16716,557.51904
"2851",75.23796,557.53235
"2852",75.30633,557.54565
"2853",75.36004,557.55896
"2854",75.40154,557.57227
"2855",75.46746,557.5856
"2856",75.650566,557.5989
"2857",76.13397,557.6122
"2858",77.09834,557.6255
"2859",78.61692,557.6388
"2860",80.587166,557.6521
"2861",82.76494,557.6654
"2862",84.81819,557.6787
"2863",86.4271,557.692
"2864",87.411,557.7053
"2865",87.76013,557.7186
"2866",87.57458,557.73193
"2867",86.98619,557.74524
"2868",86.12436,557.75854
"2869",85.1136,557.77185
"2870",84.04913,557.78516
"2871",83.00908,557.79846
"2872",82.04471,557.81177
"2873",81.17555,557.8251
"2874",80.40406,557.8384
"2875",79.7351,557.8517
"2876",79.17601,557.865
"2877",78.74387,557.8783
"2878",78.47288,557.8916
"2879",78.397194,557.9049
"2880",78.536354,557.9182
"2881",78.853745,557.9315
"2882",79.28588,557.9448
"2883",79.75464,557.9581
"2884",80.17212,557.97144
"2885",80.465096,557.98474
"2886",80.604256,557.99805
"2887",80.58961,558.01135
"2888",80.42603,558.02466
"2889",80.15015,558.03796
"2890",79.78638,558.0513
"2891",79.36645,558.0646
"2892",78.91722,558.0779
"2893",78.46067,558.0912
"2894",78.02365,558.1045
"2895",77.61593,558.1178
"2896",77.25216,558.1311
"2897",76.94209,558.1444
"2898",76.69062,558.1577
"2899",76.49531,558.171
"2900",76.34638,558.1843
"2901",76.23651,558.19763
"2902",76.155945,558.21094
"2903",76.10956,558.22424
"2904",76.087585,558.23755
"2905",76.08026,558.25085
"2906",76.0827,558.26416
"2907",76.10712,558.27747
"2908",76.192566,558.2908
"2909",76.45136,558.3041
"2910",77.07637,558.3174
"2911",78.21896,558.3307
"2912",79.87427,558.344
"2913",81.87137,558.3573
"2914",83.931946,558.3706
"2915",85.731285,558.3839
"2916",87.00816,558.3972
"2917",87.64782,558.4105
"2918",87.708855,558.4238
"2919",87.310905,558.43713
"2920",86.58579,558.45044
"2921",85.660484,558.46375
"2922",84.6424,558.47705
"2923",83.62188,558.49036
"2924",82.66483,558.50366
"2925",81.80301,558.51697
"2926",81.05348,558.5303
"2927",80.40894,558.5436
"2928",79.86206,558.5569
"2929",79.40307,558.5702
"2930",79.0515,558.5835
"2931",78.82933,558.5968
"2932",78.77562,558.6101
"2933",78.89769,558.6234
"2934",79.18089,558.6367
"2935",79.58129,558.65
"2936",80.0354,558.6633
"2937",80.445564,558.67664
"2938",80.7483,558.68994
"2939",80.902115,558.70325
"2940",80.89235,558.71655
"2941",80.726326,558.72986
"2942",80.43824,558.74316
"2943",80.06958,558.7565
"2944",79.65209,558.7698
"2945",79.21507,558.7831
"2946",78.77806,558.7964
"2947",78.36057,558.8097
"2948",77.979706,558.823
"2949",77.6379,558.8363
"2950",77.34005,558.8496
"2951",77.09102,558.8629
"2952",76.88594,558.8762
"2953",76.715034,558.8895
"2954",76.57343,558.90283
"2955",76.453804,558.91614
"2956",76.35615,558.92944
"2957",76.280464,558.94275
"2958",76.26826,558.95605
"2959",76.42939,558.96936
"2960",76.95186,558.98267
"2961",77.996796,558.996
"2962",79.57397,559.0093
"2963",81.53933,559.0226
"2964",83.612114,559.0359
"2965",85.46029,559.0492
"2966",86.79332,559.0625
"2967",87.49645,559.0758
"2968",87.61608,559.0891
"2969",87.276726,559.1024
"2970",86.60532,559.1157
"2971",85.7264,559.129
"2972",84.74006,559.14233
"2973",83.73907,559.15564
"2974",82.78203,559.16895
"2975",81.91531,559.18225
"2976",81.160904,559.19556
"2977",80.51392,559.20886
"2978",79.96216,559.22217
"2979",79.50317,559.2355
"2980",79.14427,559.2488
"2981",78.91478,559.2621
"2982",78.84886,559.2754
"2983",78.96361,559.2887
"2984",79.24193,559.302
"2985",79.63744,559.3153
"2986",80.06958,559.3286
"2987",80.462654,559.3419
"2988",80.75563,559.3552
"2989",80.902115,559.3685
"2990",80.89723,559.38184
"2991",80.75807,559.39514
"2992",80.50172,559.40845
"2993",80.16724,559.42175
"2994",79.783936,559.43506
"2995",79.37133,559.44836
"2996",78.95384,559.4617
"2997",78.555885,559.475
"2998",78.18234,559.4883
"2999",77.85031,559.5016
"3000",77.55489,559.5149
"3001",77.30343,559.5282
"3002",77.09102,559.5415
"3003",76.910355,559.5548
"3004",76.75899,559.5681
"3005",76.63203,559.5814
"3006",76.53437,559.5947
"3007",76.50019,559.60803
"3008",76.64179,559.62134
"3009",77.15938,559.63464
"3010",78.21408,559.64795
"3011",79.815674,559.66125
"3012",81.80057,559.67456
"3013",83.888,559.68787
"3014",85.731285,559.7012
"3015",87.044785,559.7145
"3016",87.708855,559.7278
"3017",87.78943,559.7411
"3018",87.41833,559.7544
"3019",86.73228,559.7677
"3020",85.85336,559.781
"3021",84.88899,559.7943
"3022",83.9173,559.8076
"3023",82.99443,559.8209
"3024",82.16434,559.8342
"3025",81.44167,559.84753
"3026",80.82155,559.86084
"3027",80.291756,559.87415
"3028",79.84741,559.88745
"3029",79.4934,559.90076
"3030",79.259026,559.91406
"3031",79.17845,559.92737
"3032",79.26147,559.9407
"3033",79.49584,559.954
"3034",79.82788,559.9673
"3035",80.19165,559.9806
"3036",80.51881,559.9939
"3037",80.75075,560.0072
"3038",80.86305,560.0205
"3039",80.8362,560.0338
"3040",80.68726,560.0471
"3041",80.43336,560.0604
"3042",80.10132,560.0737
"3043",79.71557,560.08704
"3044",79.30541,560.10034
"3045",78.90013,560.11365
"3046",78.51682,560.12695
"3047",78.16281,560.14026
"3048",77.84299,560.15356
"3049",77.56222,560.1669
"3050",77.31808,560.1802
"3051",77.10811,560.1935
"3052",76.93233,560.2068
"3053",76.7834,560.2201
"3054",76.65644,560.2334
"3055",76.54658,560.2467
"3056",76.48554,560.26
"3057",76.58564,560.2733
"3058",77.03731,560.2866
"3059",78.00412,560.2999
"3060",79.52758,560.31323
"3061",81.46609,560.32654
"3062",83.55352,560.33984
"3063",85.46273,560.35315
"3064",86.90074,560.36646
"3065",87.728386,560.37976
"3066",87.97009,560.39307
"3067",87.74059,560.4064
"3068",87.16441,560.4197
"3069",86.36118,560.433
"3070",85.4432,560.4463
"3071",84.505684,560.4596
"3072",83.612114,560.4729
"3073",82.81621,560.4862
"3074",82.127716,560.4995
"3075",81.53933,560.5128
"3076",81.03395,560.5261
"3077",80.59937,560.5394
"3078",80.233154,560.55273
"3079",79.954834,560.56604
"3080",79.79614,560.57935
"3081",79.77417,560.59265
"3082",79.89136,560.60596
"3083",80.111084,560.61926
"3084",80.38453,560.63257
"3085",80.64088,560.6459
"3086",80.82643,560.6592
"3087",80.902115,560.6725
"3088",80.85329,560.6858
"3089",80.6775,560.6991
"3090",80.396736,560.7124
"3091",80.04761,560.7257
"3092",79.65209,560.739
"3093",79.24193,560.7523
"3094",78.83421,560.7656
"3095",78.44846,560.77893
"3096",78.08957,560.79224
"3097",77.77219,560.80554
"3098",77.488976,560.81885
"3099",77.24727,560.83215
"3100",77.03487,560.84546
"3101",76.859085,560.85876
"3102",76.715034,560.8721
"3103",76.595406,560.8854
"3104",76.49775,560.8987
"3105",76.42695,560.912
"3106",76.42451,560.9253
"3107",76.610054,560.9386
"3108",77.15694,560.9519
"3109",78.20676,560.9652
"3110",79.7522,560.9785
"3111",81.651634,560.9918
"3112",83.64629,561.0051
"3113",85.43343,561.01843
"3114",86.76158,561.03174
"3115",87.52575,561.04504
"3116",87.75037,561.05835
"3117",87.52575,561.07166
"3118",86.96422,561.08496
"3119",86.17807,561.09827
"3120",85.279625,561.1116
"3121",84.3592,561.1249
"3122",83.48516,561.1382
"3123",82.70634,561.1515
"3124",82.03006,561.1648
"3125",81.446556,561.1781
"3126",80.93385,561.1914
"3127",80.482185,561.2047
"3128",80.09155,561.218
"3129",79.783936,561.2313
"3130",79.59106,561.2446
"3131",79.52514,561.25793
"3132",79.57641,561.27124
"3133",79.71801,561.28455
"3134",79.89624,561.29785
"3135",80.0647,561.31116
"3136",80.16968,561.32446
"3137",80.184326,561.33777
"3138",80.09155,561.3511
"3139",79.8938,561.3644
"3140",79.60082,561.3777
"3141",79.234604,561.391
"3142",78.82445,561.4043
"3143",78.40208,561.4176
"3144",77.98215,561.4309
"3145",77.58663,561.4442
"3146",77.23018,561.4575
"3147",76.91524,561.4708
"3148",76.64423,561.48413
"3149",76.40986,561.49744
"3150",76.2121,561.51074
"3151",76.04608,561.52405
"3152",75.911804,561.53735
"3153",75.80194,561.55066
"3154",75.7116,561.56396
"3155",75.63836,561.5773
"3156",75.58221,561.5906
"3157",75.58709,561.6039
"3158",75.757996,561.6172
"3159",76.26826,561.6305
"3160",77.24971,561.6438
"3161",78.7219,561.6571
"3162",80.567635,561.6704
"3163",82.55985,561.6837
"3164",84.39826,561.697
"3165",85.824066,561.7103
"3166",86.70542,561.72363
"3167",87.04234,561.73694
"3168",86.905624,561.75024
"3169",86.40513,561.76355
"3170",85.65804,561.77686
"3171",84.77913,561.79016
"3172",83.87335,561.80347
"3173",83.0164,561.8168
"3174",82.24979,561.8301
"3175",81.59792,561.8434
"3176",81.04616,561.8567
"3177",80.56519,561.87
"3178",80.1355,561.8833
"3179",79.75708,561.8966
"3180",79.45434,561.9099
"3181",79.24925,561.9232
"3182",79.1638,561.9365
"3183",79.19798,561.9498
"3184",79.32006,561.96313
"3185",79.48119,561.97644
"3186",79.63012,561.98975
"3187",79.727776,562.00305
"3188",79.742424,562.01636
"3189",79.65942,562.02966
"3190",79.48119,562.04297
"3191",79.2224,562.0563
"3192",78.89525,562.0696
"3193",78.52659,562.0829
"3194",78.135956,562.0962
"3195",77.74288,562.1095
"3196",77.366905,562.1228
"3197",77.02266,562.1361
"3198",76.7248,562.1494
"3199",76.473335,562.1627
"3200",76.265816,562.176
"3201",76.09979,562.18933
"3202",75.965515,562.20264
"3203",75.85809,562.21594
"3204",75.76776,562.22925
"3205",75.69207,562.24255
"3206",75.62127,562.25586
"3207",75.55535,562.26917
"3208",75.494316,562.2825
"3209",75.47234,562.2958
"3210",75.58709,562.3091
"3211",76.00214,562.3224
"3212",76.87862,562.3357
"3213",78.27512,562.349
"3214",80.113525,562.3623
"3215",82.18631,562.3756
"3216",84.2005,562.3889
"3217",85.872894,562.4022
"3218",87.02525,562.4155
"3219",87.60876,562.42883
"3220",87.66979,562.44214
"3221",87.30358,562.45544
"3222",86.63706,562.46875
"3223",85.78989,562.48206
"3224",84.88167,562.49536
"3225",83.99542,562.50867
"3226",83.18974,562.522
"3227",82.48417,562.5353
"3228",81.87869,562.5486
"3229",81.34402,562.5619
"3230",80.85817,562.5752
"3231",80.41871,562.5885
"3232",80.0354,562.6018
"3233",79.7351,562.6151
"3234",79.54223,562.6284
"3235",79.47631,562.6417
"3236",79.5227,562.655
"3237",79.64233,562.66833
"3238",79.78638,562.68164
"3239",79.90845,562.69495
"3240",79.9646,562.70825
"3241",79.93286,562.72156
"3242",79.798584,562.73486
"3243",79.57641,562.74817
"3244",79.27856,562.7615
"3245",78.93187,562.7748
"3246",78.54612,562.7881
"3247",78.14816,562.8014
"3248",77.75021,562.8147
"3249",77.366905,562.828
"3250",77.015335,562.8413
"3251",76.70283,562.8546
"3252",76.4416,562.8679
"3253",76.22919,562.8812
"3254",76.06073,562.89453
"3255",75.93378,562.90784
"3256",75.83612,562.92114
"3257",75.76532,562.93445
"3258",75.70672,562.94775
"3259",75.65789,562.96106
"3260",75.61883,562.97437
"3261",75.5993,562.9877
"3262",75.62859,563.001
"3263",75.81903,563.0143
"3264",76.33662,563.0276
"3265",77.32784,563.0409
"3266",78.84154,563.0542
"3267",80.79469,563.0675
"3268",82.967575,563.0808
"3269",85.06477,563.0941
"3270",86.800644,563.1074
"3271",87.98474,563.1207
"3272",88.57313,563.13403
"3273",88.621956,563.14734
"3274",88.22644,563.16064
"3275",87.52087,563.17395
"3276",86.63706,563.18726
"3277",85.68734,563.20056
"3278",84.76204,563.21387
"3279",83.92218,563.2272
"3280",83.1873,563.2405
"3281",82.55253,563.2538
"3282",81.991,563.2671
"3283",81.47585,563.2804
"3284",80.990005,563.2937
"3285",80.54322,563.307
"3286",80.16235,563.3203
"3287",79.87915,563.3336
"3288",79.710686,563.3469
"3289",79.64477,563.3602
"3290",79.65942,563.37354
"3291",79.70336,563.38684
"3292",79.73998,563.40015
"3293",79.73022,563.41345
"3294",79.65209,563.42676
"3295",79.48852,563.44006
"3296",79.24925,563.45337
"3297",78.941635,563.4667
"3298",78.5803,563.48
"3299",78.18967,563.4933
"3300",77.78439,563.5066
"3301",77.38155,563.5199
"3302",76.98848,563.5332
"3303",76.627144,563.5465
"3304",76.299995,563.5598
"3305",76.019226,563.5731
"3306",75.78485,563.5864
"3307",75.596855,563.59973
"3308",75.45037,563.61304
"3309",75.34051,563.62634
"3310",75.2575,563.63965
"3311",75.20134,563.65295
"3312",75.16472,563.66626
"3313",75.13786,563.67957
"3314",75.1281,563.6929
"3315",75.142746,563.7062
"3316",75.23552,563.7195
"3317",75.53094,563.7328
"3318",76.19745,563.7461
"3319",77.366905,563.7594
"3320",79.06615,563.7727
"3321",81.18288,563.786
"3322",83.47051,563.7993
"3323",85.60433,563.8126
"3324",87.30358,563.8259
"3325",88.40223,563.83923
"3326",88.868546,563.85254
"3327",88.77333,563.86584
"3328",88.24109,563.87915
"3329",87.41833,563.89246
"3330",86.451515,563.90576
"3331",85.45541,563.91907
"3332",84.505684,563.9324
"3333",83.65362,563.9457
"3334",82.91142,563.959
"3335",82.25956,563.9723
"3336",81.66628,563.9856
"3337",81.11452,563.9989
"3338",80.59937,564.0122
"3339",80.14038,564.0255
"3340",79.76196,564.0388
"3341",79.500725,564.0521
"3342",79.37133,564.0654
"3343",79.3518,564.07874
"3344",79.40795,564.09204
"3345",79.49584,564.10535
"3346",79.5642,564.11865
"3347",79.56664,564.13196
"3348",79.49096,564.14526
"3349",79.33227,564.15857
"3350",79.093,564.1719
"3351",78.7805,564.1852
"3352",78.41184,564.1985
"3353",78.011444,564.2118
"3354",77.593956,564.2251
"3355",77.171585,564.2384
"3356",76.76875,564.2517
"3357",76.39277,564.265
"3358",76.05585,564.2783
"3359",75.76776,564.2916
"3360",75.53582,564.30493
"3361",75.3576,564.31824
"3362",75.23552,564.33154
"3363",75.157394,564.34485
"3364",75.11345,564.35815
"3365",75.089035,564.37146
"3366",75.08415,564.38477
"3367",75.08659,564.3981
"3368",75.08659,564.4114
"3369",75.089035,564.4247
"3370",75.11101,564.438
"3371",75.20622,564.4513
"3372",75.51385,564.4646
"3373",76.2121,564.4779
"3374",77.43282,564.4912
"3375",79.19554,564.5045
"3376",81.38796,564.5178
"3377",83.758606,564.5311
"3378",85.97055,564.54443
"3379",87.73327,564.55774
"3380",88.89052,564.57104
"3381",89.41543,564.58435
"3382",89.35439,564.59766
"3383",88.831924,564.61096
"3384",87.99695,564.62427
"3385",86.98619,564.6376
"3386",85.907074,564.6509
"3387",84.859695,564.6642
"3388",83.90997,564.6775
"3389",83.07988,564.6908
"3390",82.35966,564.7041
"3391",81.72732,564.7174
"3392",81.15846,564.7307
"3393",80.64088,564.744
"3394",80.18921,564.7573
"3395",79.82544,564.7706
"3396",79.58129,564.78394
"3397",79.46166,564.79724
"3398",79.45434,564.81055
"3399",79.517815,564.82385
"3400",79.60815,564.83716
"3401",79.67895,564.85046
"3402",79.68871,564.8638
"3403",79.61059,564.8771
"3404",79.432365,564.8904
"3405",79.15648,564.9037
"3406",78.79271,564.917
"3407",78.36057,564.9303
"3408",77.88937,564.9436
"3409",77.41329,564.9569
"3410",76.94942,564.9702
"3411",76.51484,564.9835
"3412",76.121765,564.9968
"3413",75.77997,565.01013
"3414",75.48455,565.02344
"3415",75.2404,565.03674
"3416",75.04997,565.05005
"3417",74.90593,565.06335
"3418",74.80095,565.07666
"3419",74.7277,565.08997
"3420",74.67643,565.1033
"3421",74.64713,565.1166
"3422",74.63737,565.1299
"3423",74.64225,565.1432
"3424",74.666664,565.1565
"3425",74.75212,565.1698
"3426",75.00847,565.1831
"3427",75.60662,565.1964
"3428",76.71992,565.2097
"3429",78.41184,565.223
"3430",80.58961,565.2363
"3431",83.02373,565.24963
"3432",85.37728,565.26294
"3433",87.32311,565.27625
"3434",88.64881,565.28955
"3435",89.29824,565.30286
"3436",89.31289,565.31616
"3437",88.80751,565.32947
"3438",87.93347,565.3428
"3439",86.83238,565.3561
"3440",85.64095,565.3694
"3441",84.4593,565.3827
"3442",83.370415,565.396
"3443",82.406044,565.4093
"3444",81.56863,565.4226
"3445",80.84596,565.4359
"3446",80.218506,565.4492
"3447",79.67895,565.4625
"3448",79.237045,565.4758
"3449",78.922104,565.48914
"3450",78.75365,565.50244
"3451",78.73899,565.51575
"3452",78.84886,565.52905
"3453",79.03685,565.54236
"3454",79.24437,565.55566
"3455",79.42016,565.569
"3456",79.517815,565.5823
"3457",79.51293,565.5956
"3458",79.398186,565.6089
"3459",79.17845,565.6222
"3460",78.85863,565.6355
"3461",78.46555,565.6488
"3462",78.01633,565.6621
"3463",77.540245,565.6754
"3464",77.051956,565.6887
"3465",76.58076,565.702
"3466",76.1413,565.71533
"3467",75.74578,565.72864
"3468",75.403984,565.74194
"3469",75.11345,565.75525
"3470",74.87419,565.76855
"3471",74.67887,565.78186
"3472",74.5153,565.79517
"3473",74.38102,565.8085
"3474",74.26627,565.8218
"3475",74.17349,565.8351
"3476",74.10513,565.8484
"3477",74.07828,565.8617
"3478",74.16617,565.875
"3479",74.5568,565.8883
"3480",75.474785,565.9016
"3481",77.07393,565.9149
"3482",79.32006,565.9282
"3483",82.00076,565.9415
"3484",84.76448,565.95483
"3485",87.19859,565.96814
"3486",88.99306,565.98145
"3487",90.023346,565.99475
"3488",90.321205,566.00806
"3489",89.99649,566.02136
"3490",89.18837,566.03467
"3491",88.05798,566.048
"3492",86.75426,566.0613
"3493",85.41634,566.0746
"3494",84.14435,566.0879
"3495",83.001755,566.1012
"3496",82.005646,566.1145
"3497",81.146255,566.1278
"3498",80.396736,566.1411
"3499",79.74975,566.1544
"3500",79.219955,566.1677
"3501",78.84398,566.181
"3502",78.65598,566.19434
"3503",78.66575,566.20764
"3504",78.853745,566.22095
"3505",79.16136,566.23425
"3506",79.50561,566.24756
"3507",79.818115,566.26086
"3508",80.0354,566.2742
"3509",80.12329,566.2875
"3510",80.062256,566.3008
"3511",79.86206,566.3141
"3512",79.54223,566.3274
"3513",79.12718,566.3407
"3514",78.6511,566.354
"3515",78.1384,566.3673
"3516",77.61349,566.3806
"3517",77.09834,566.3939
"3518",76.612495,566.4072
"3519",76.16815,566.42053
"3520",75.7702,566.43384
"3521",75.41131,566.44714
"3522",75.09148,566.46045
"3523",74.80583,566.47375
"3524",74.54459,566.48706
"3525",74.31022,566.50037
"3526",74.10269,566.5137
"3527",73.92203,566.527
"3528",73.76578,566.5403
"3529",73.67544,566.5536
"3530",73.760895,566.5669
"3531",74.246735,566.5802
"3532",75.38445,566.5935
"3533",77.298546,566.6068
"3534",79.888916,566.6201
"3535",82.862595,566.6334
"3536",85.78256,566.6467
"3537",88.21179,566.66003
"3538",89.85489,566.67334
"3539",90.64347,566.68665
"3540",90.67033,566.69995
"3541",90.091705,566.71326
"3542",89.07118,566.72656
"3543",87.765015,566.73987
"3544",86.31968,566.7532
"3545",84.86458,566.7665
"3546",83.4876,566.7798
"3547",82.23514,566.7931
"3548",81.126724,566.8064
"3549",80.15259,566.8197
"3550",79.30785,566.833
"3551",78.60471,566.8463
"3552",78.08469,566.8596
"3553",77.79904,566.8729
"3554",77.77463,566.8862
"3555",77.99924,566.89954
"3556",78.42161,566.91284
"3557",78.94408,566.92615
"3558",79.4641,566.93945
"3559",79.89136,566.95276
"3560",80.17212,566.96606
"3561",80.272224,566.9794
"3562",80.18677,566.9927
"3563",79.9353,567.006
"3564",79.54711,567.0193
"3565",79.05638,567.0326
"3566",78.50706,567.0459
"3567",77.925995,567.0592
"3568",77.347374,567.0725
"3569",76.790726,567.0858
"3570",76.26826,567.0991
"3571",75.789734,567.1124
"3572",75.352715,567.12573
"3573",74.94499,567.13904
"3574",74.57145,567.15234
"3575",74.229645,567.16565
"3576",73.919586,567.17896
"3577",73.651024,567.19226
"3578",73.44839,567.20557
"3579",73.38491,567.2189
"3580",73.651024,567.2322
"3581",74.527504,567.2455
"3582",76.23651,567.2588
"3583",78.76097,567.2721
"3584",81.84207,567.2854
"3585",85.05257,567.2987
"3586",87.88953,567.312
"3587",89.95743,567.3253
"3588",91.10246,567.3386
"3589",91.393,567.3519
"3590",90.99504,567.36523
"3591",90.07706,567.37854
"3592",88.81239,567.39185
"3593",87.35973,567.40515
"3594",85.855804,567.41846
"3595",84.403145,567.43176
"3596",83.06767,567.44507
"3597",81.864044,567.4584
"3598",80.78981,567.4717
"3599",79.83032,567.485
"3600",78.99046,567.4983
"3601",78.29221,567.5116
"3602",77.7966,567.5249
"3603",77.56222,567.5382
"3604",77.61837,567.5515
"3605",77.93332,567.5648
"3606",78.43626,567.5781
"3607",79.01732,567.59143
"3608",79.55932,567.60474
"3609",79.97681,567.61804
"3610",80.21118,567.63135
"3611",80.24292,567.64465
"3612",80.08423,567.65796
"3613",79.766846,567.67126
"3614",79.327385,567.6846
"3615",78.80736,567.6979
"3616",78.24094,567.7112
"3617",77.659874,567.7245
"3618",77.08125,567.7378
"3619",76.524605,567.7511
"3620",75.999695,567.7644
"3621",75.52117,567.7777
"3622",75.08171,567.791
"3623",74.683754,567.8043
"3624",74.32975,567.8176
"3625",74.03433,567.83093
"3626",73.8439,567.84424
"3627",73.93179,567.85754
"3628",74.581215,567.87085
"3629",76.06317,567.88416
"3630",78.43626,567.89746
"3631",81.50759,567.91077
"3632",84.86458,567.9241
"3633",87.9823,567.9374
"3634",90.389565,567.9507
"3635",91.84711,567.964
"3636",92.3769,567.9773
"3637",92.140076,567.9906
"3638",91.334404,568.0039
"3639",90.13809,568.0172
"3640",88.724495,568.0305
"3641",87.235214,568.0438
"3642",85.78012,568.0571
"3643",84.42756,568.07043
"3644",83.211716,568.08374
"3645",82.13016,568.09705
"3646",81.160904,568.11035
"3647",80.291756,568.12366
"3648",79.53246,568.13696
"3649",78.922104,568.15027
"3650",78.5095,568.1636
"3651",78.32395,568.1769
"3652",78.3679,568.1902
"3653",78.6096,568.2035
"3654",78.97337,568.2168
"3655",79.36645,568.2301
"3656",79.7058,568.2434
"3657",79.920654,568.2567
"3658",79.96704,568.27
"3659",79.835205,568.2833
"3660",79.534904,568.29663
"3661",79.10033,568.30994
"3662",78.57053,568.32324
"3663",77.979706,568.33655
"3664",77.35714,568.34985
"3665",76.72724,568.36316
"3666",76.10712,568.37646
"3667",75.511406,568.3898
"3668",74.94499,568.4031
"3669",74.42252,568.4164
"3670",73.94644,568.4297
"3671",73.53872,568.443
"3672",73.24574,568.4563
"3673",73.22133,568.4696
"3674",73.73403,568.4829
"3675",75.05974,568.4962
"3676",77.30099,568.5095
"3677",80.2942,568.5228
"3678",83.648735,568.53613
"3679",86.84459,568.54944
"3680",89.38613,568.56274
"3681",90.98039,568.57605
"3682",91.615166,568.58936
"3683",91.44427,568.60266
"3684",90.67765,568.61597
"3685",89.515526,568.6293
"3686",88.13855,568.6426
"3687",86.6981,568.6559
"3688",85.30404,568.6692
"3689",84.03204,568.6825
"3690",82.9041,568.6958
"3691",81.9202,568.7091
"3692",81.041275,568.7224
"3693",80.25025,568.7357
"3694",79.54223,568.749
"3695",78.94408,568.7623
"3696",78.502174,568.77563
"3697",78.2678,568.78894
"3698",78.25071,568.80225
"3699",78.42405,568.81555
"3700",78.71458,568.82886
"3701",79.03441,568.84216
"3702",79.30297,568.85547
"3703",79.447014,568.8688
"3704",79.429924,568.8821
"3705",79.24681,568.8954
"3706",78.91722,568.9087
"3707",78.467995,568.922
"3708",77.93576,568.9353
"3709",77.35958,568.9486
"3710",76.75899,568.9619
"3711",76.16327,568.9752
"3712",75.577324,568.9885
"3713",75.01579,569.00183
"3714",74.48356,569.01514
"3715",73.987946,569.02844
"3716",73.53384,569.04175
"3717",73.13588,569.05505
"3718",72.82094,569.06836
"3719",72.66224,569.08167
"3720",72.86977,569.095
"3721",73.738914,569.1083
"3722",75.48699,569.1216
"3723",78.099335,569.1349
"3724",81.30984,569.1482
"3725",84.65949,569.1615
"3726",87.6112,569.1748
"3727",89.740135,569.1881
"3728",90.880295,569.2014
"3729",91.11223,569.2147
"3730",90.63615,569.228
"3731",89.65957,569.24133
"3732",88.38514,569.25464
"3733",86.98619,569.26794
"3734",85.59457,569.28125
"3735",84.30305,569.29456
"3736",83.15312,569.30786
"3737",82.142365,569.32117
"3738",81.248795,569.3345
"3739",80.43336,569.3478
"3740",79.68383,569.3611
"3741",79.02464,569.3744
"3742",78.502174,569.3877
"3743",78.167694,569.401
"3744",78.05783,569.4143
"3745",78.16525,569.4276
"3746",78.42893,569.4409
"3747",78.768295,569.4542
"3748",79.08812,569.4675
"3749",79.30785,569.48083
"3750",79.37377,569.49414
"3751",79.26635,569.50745
"3752",78.99046,569.52075
"3753",78.57542,569.53406
"3754",78.05783,569.54736
"3755",77.48409,569.56067
"3756",76.88594,569.574
"3757",76.29023,569.5873
"3758",75.716484,569.6006
"3759",75.18181,569.6139
"3760",74.68864,569.6272
"3761",74.23453,569.6405
"3762",73.82193,569.6538
"3763",73.44839,569.6671
"3764",73.1017,569.6804
"3765",72.80141,569.6937
"3766",72.56214,569.70703
"3767",72.427864,569.72034
"3768",72.54017,569.73364
"3769",73.16762,569.74695
"3770",74.57389,569.76025
"3771",76.8542,569.77356
"3772",79.85962,569.78687
"3773",83.209274,569.8002
"3774",86.3856,569.8135
"3775",88.90028,569.8268
"3776",90.460365,569.8401
"3777",91.053635,569.8534
"3778",90.83635,569.8667
"3779",90.03311,569.88
"3780",88.84413,569.8933
"3781",87.45983,569.9066
"3782",86.0267,569.9199
"3783",84.664375,569.9332
"3784",83.43145,569.94653
"3785",82.34501,569.95984
"3786",81.3904,569.97314
"3787",80.53834,569.98645
"3788",79.766846,569.99976
"3789",79.08812,570.01306
"3790",78.54368,570.02637
"3791",78.1799,570.0397
"3792",78.04318,570.053
"3793",78.135956,570.0663
"3794",78.416725,570.0796
"3795",78.79271,570.0929
"3796",79.166245,570.1062
"3797",79.45434,570.1195
"3798",79.588615,570.1328
"3799",79.53246,570.1461
"3800",79.293205,570.1594
"3801",78.90013,570.1727
"3802",78.38743,570.18604
"3803",77.79416,570.19934
"3804",77.16182,570.21265
"3805",76.53437,570.22595
"3806",75.9411,570.23926
"3807",75.40154,570.25256
"3808",74.9279,570.26587
"3809",74.5153,570.2792
"3810",74.158844,570.2925
"3811",73.85367,570.3058
"3812",73.582664,570.3191
"3813",73.34341,570.3324
"3814",73.13588,570.3457
"3815",72.955215,570.359
"3816",72.82094,570.3723
"3817",72.764786,570.3856
"3818",72.91615,570.3989
"3819",73.514305,570.41223
"3820",74.81804,570.42554
"3821",76.946976,570.43884
"3822",79.783936,570.45215
"3823",82.98711,570.46545
"3824",86.07065,570.47876
"3825",88.5658,570.49207
"3826",90.17471,570.5054
"3827",90.84856,570.5187
"3828",90.71671,570.532
"3829",89.98184,570.5453
"3830",88.831924,570.5586
"3831",87.450066,570.5719
"3832",85.994965,570.5852
"3833",84.58381,570.5985
"3834",83.29229,570.6118
"3835",82.14969,570.6251
"3836",81.146255,570.6384
"3837",80.257576,570.65173
"3838",79.47875,570.66504
"3839",78.82445,570.67834
"3840",78.34104,570.69165
"3841",78.07492,570.70496
"3842",78.06027,570.71826
"3843",78.29221,570.73157
"3844",78.69749,570.7449
"3845",79.18089,570.7582
"3846",79.63012,570.7715
"3847",79.957275,570.7848
"3848",80.09888,570.7981
"3849",80.04028,570.8114
"3850",79.78638,570.8247
"3851",79.35668,570.838
"3852",78.79759,570.8513
"3853",78.15793,570.8646
"3854",77.4963,570.8779
"3855",76.841995,570.89124
"3856",76.224304,570.90454
"3857",75.665215,570.91785
"3858",75.17204,570.93115
"3859",74.74235,570.94446
"3860",74.38102,570.95776
"3861",74.10025,570.97107
"3862",73.900055,570.9844
"3863",73.77066,570.9977
"3864",73.69009,571.011
"3865",73.65835,571.0243
"3866",73.65835,571.0376
"3867",73.670555,571.0509
"3868",73.6852,571.0642
"3869",73.69497,571.0775
"3870",73.69985,571.0908
"3871",73.71938,571.1041
"3872",73.863434,571.11743
"3873",74.35172,571.13074
"3874",75.491875,571.14404
"3875",77.46456,571.15735
"3876",80.22583,571.17065
"3877",83.46319,571.18396
"3878",86.70786,571.19727
"3879",89.43496,571.2106
"3880",91.268486,571.2239
"3881",92.103455,571.2372
"3882",92.05951,571.2505
"3883",91.34173,571.2638
"3884",90.14786,571.2771
"3885",88.67567,571.2904
"3886",87.08385,571.3037
"3887",85.49691,571.317
"3888",83.99542,571.3303
"3889",82.63554,571.3436
"3890",81.43191,571.35693
"3891",80.37965,571.37024
"3892",79.47387,571.38354
"3893",78.73655,571.39685
"3894",78.20676,571.41016
"3895",77.93332,571.42346
"3896",77.95285,571.43677
"3897",78.25559,571.4501
"3898",78.7805,571.4634
"3899",79.42504,571.4767
"3900",80.05737,571.49
"3901",80.56519,571.5033
"3902",80.86549,571.5166
"3903",80.919205,571.5299
"3904",80.73121,571.5432
"3905",80.343025,571.5565
"3906",79.798584,571.5698
"3907",79.15404,571.5831
"3908",78.44846,571.59644
"3909",77.72091,571.60974
"3910",77.00069,571.62305
"3911",76.3122,571.63635
"3912",75.67498,571.64966
"3913",75.106125,571.66296
"3914",74.61295,571.6763
"3915",74.20767,571.6896
"3916",73.90494,571.7029
"3917",73.71694,571.7162
"3918",73.65591,571.7295
"3919",73.72671,571.7428
"3920",73.91226,571.7561
"3921",74.175934,571.7694
"3922",74.47135,571.7827
"3923",74.74967,571.796
"3924",74.96452,571.8093
"3925",75.09148,571.82263
"3926",75.13786,571.83594
"3927",75.123215,571.84924
"3928",75.106125,571.86255
"3929",75.22575,571.87585
"3930",75.755554,571.88916
"3931",76.99336,571.90247
"3932",79.08812,571.9158
"3933",81.92508,571.9291
"3934",85.13313,571.9424
"3935",88.22156,571.9557
"3936",90.68009,571.969
"3937",92.19867,571.9823
"3938",92.72846,571.9956
"3939",92.42817,572.0089
"3940",91.50286,572.0222
"3941",90.13565,572.0355
"3942",88.50233,572.0488
"3943",86.74937,572.06213
"3944",84.996414,572.07544
"3945",83.32891,572.08875
"3946",81.795685,572.10205
"3947",80.413826,572.11536
"3948",79.19554,572.12866
"3949",78.16281,572.14197
"3950",77.35226,572.1553
"3951",76.82002,572.1686
"3952",76.61738,572.1819
"3953",76.76631,572.1952
"3954",77.23506,572.2085
"3955",77.943085,572.2218
"3956",78.78294,572.2351
"3957",79.63012,572.2484
"3958",80.360115,572.2617
"3959",80.8777,572.275
"3960",81.126724,572.2883
"3961",81.08278,572.30164
"3962",80.77516,572.31494
"3963",80.2478,572.32825
"3964",79.56664,572.34155
"3965",78.79271,572.35486
"3966",77.977264,572.36816
"3967",77.16914,572.3815
"3968",76.40742,572.3948
"3969",75.716484,572.4081
"3970",75.12077,572.4214
"3971",74.632484,572.4347
"3972",74.23941,572.448
"3973",73.92935,572.4613
"3974",73.69741,572.4746
"3975",73.531395,572.4879
"3976",73.41421,572.5012
"3977",73.34585,572.5145
"3978",73.304344,572.52783
"3979",73.287254,572.54114
"3980",73.287254,572.55444
"3981",73.30923,572.56775
"3982",73.38735,572.58105
"3983",73.62905,572.59436
"3984",74.26383,572.60767
"3985",75.62371,572.621
"3986",77.943085,572.6343
"3987",81.17555,572.6476
"3988",84.95247,572.6609
"3989",88.69764,572.6742
"3990",91.80316,572.6875
"3991",93.84177,572.7008
"3992",94.696266,572.7141
"3993",94.52781,572.7274
"3994",93.61715,572.7407
"3995",92.20599,572.754
"3996",90.47501,572.76733
"3997",88.58045,572.78064
"3998",86.64927,572.79395
"3999",84.77913,572.80725
"4000",83.038376,572.82056
"4001",81.45144,572.83386
"4002",80.03784,572.84717
"4003",78.81712,572.8605
"4004",77.83078,572.8738
"4005",77.12764,572.8871
"4006",76.76875,572.9004
"4007",76.7834,572.9137
"4008",77.16182,572.927
"4009",77.82834,572.9403
"4010",78.660866,572.9536
"4011",79.51537,572.9669
"4012",80.26246,572.9802
"4013",80.799576,572.9935
"4014",81.07301,573.00684
"4015",81.08034,573.02014
"4016",80.8362,573.03345
"4017",80.38209,573.04675
"4018",79.77173,573.06006
"4019",79.061264,573.07336
"4020",78.30442,573.0867
"4021",77.55001,573.1
"4022",76.82735,573.1133
"4023",76.16327,573.1266
"4024",75.57,573.1399
"4025",75.052414,573.1532
"4026",74.61051,573.1665
"4027",74.249176,573.1798
"4028",73.96353,573.1931
"4029",73.74868,573.2064
"4030",73.58999,573.2197
"4031",73.480125,573.23303
"4032",73.40688,573.24634
"4033",73.37026,573.25964
"4034",73.36782,573.27295
"4035",73.426414,573.28625
"4036",73.653465,573.29956
"4037",74.27116,573.31287
"4038",75.59441,573.3262
"4039",77.88205,573.3395
"4040",81.1194,573.3528
"4041",84.962234,573.3661
"4042",88.83681,573.3794
"4043",92.11566,573.3927
"4044",94.327614,573.406
"4045",95.309074,573.4193
"4046",95.201645,573.4326
"4047",94.29099,573.4459
"4048",92.843216,573.4592
"4049",91.06096,573.47253
"4050",89.10292,573.48584
"4051",87.096054,573.49915
"4052",85.138016,573.51245
"4053",83.299614,573.52576
"4054",81.60769,573.53906
"4055",80.08911,573.55237
"4056",78.751205,573.5657
"4057",77.62325,573.579
"4058",76.74677,573.5923
"4059",76.18036,573.6056
"4060",75.9704,573.6189
"4061",76.13641,573.6322
"4062",76.66132,573.6455
"4063",77.44991,573.6588
"4064",78.365456,573.6721
"4065",79.23949,573.6854
"4066",79.93042,573.6987
"4067",80.33814,573.71204
"4068",80.43336,573.72534
"4069",80.25269,573.73865
"4070",79.85474,573.75195
"4071",79.31274,573.76526
"4072",78.6804,573.77856
"4073",78.00168,573.7919
"4074",77.30831,573.8052
"4075",76.6247,573.8185
"4076",75.98016,573.8318
"4077",75.39178,573.8451
"4078",74.864426,573.8584
"4079",74.40543,573.8717
"4080",74.02457,573.885
"4081",73.71938,573.8983
"4082",73.480125,573.9116
"4083",73.3019,573.9249
"4084",73.179825,573.93823
"4085",73.10414,573.95154
"4086",73.08705,573.96484
"4087",73.18715,573.97815
"4088",73.57778,573.99146
"4089",74.564125,574.00476
"4090",76.45869,574.01807
"4091",79.38842,574.0314
"4092",83.15312,574.0447
"4093",87.24986,574.058
"4094",91.02434,574.0713
"4095",93.88327,574.0846
"4096",95.50439,574.0979
"4097",95.8999,574.1112
"4098",95.311516,574.1245
"4099",94.04196,574.1378
"4100",92.3476,574.1511
"4101",90.406654,574.1644
"4102",88.360725,574.17773
"4103",86.33189,574.19104
"4104",84.39826,574.20435
"4105",82.60624,574.21765
"4106",80.9778,574.23096
"4107",79.53002,574.24426
"4108",78.28245,574.25757
"4109",77.26681,574.2709
"4110",76.52949,574.2842
"4111",76.112,574.2975
"4112",76.0412,574.3108
"4113",76.30732,574.3241
"4114",76.87129,574.3374
"4115",77.64034,574.3507
"4116",78.48264,574.364
"4117",79.259026,574.3773
"4118",79.84253,574.3906
"4119",80.15015,574.40393
"4120",80.15747,574.41724
"4121",79.89624,574.43054
"4122",79.43725,574.44385
"4123",78.84642,574.45715
"4124",78.187225,574.47046
"4125",77.50118,574.48376
"4126",76.822464,574.4971
"4127",76.16327,574.5104
"4128",75.55047,574.5237
"4129",74.98894,574.537
"4130",74.49088,574.5503
"4131",74.06363,574.5636
"4132",73.7145,574.5769
"4133",73.43618,574.5902
"4134",73.22133,574.6035
"4135",73.06264,574.6168
"4136",72.96254,574.6301
"4137",72.94301,574.64343
"4138",73.1017,574.65674
"4139",73.66323,574.67004
"4140",74.9572,574.68335
"4141",77.25704,574.69666
"4142",80.5774,574.70996
"4143",84.596016,574.72327
"4144",88.71473,574.7366
"4145",92.26948,574.7499
"4146",94.74021,574.7632
"4147",95.91943,574.7765
"4148",95.91943,574.7898
"4149",95.03807,574.8031
"4150",93.56344,574.8164
"4151",91.72991,574.8297
"4152",89.69375,574.843
"4153",87.59899,574.8563
"4154",85.55062,574.8696
"4155",83.62676,574.88293
"4156",81.866486,574.89624
"4157",80.289314,574.90955
"4158",78.9099,574.92285
"4159",77.752655,574.93616
"4160",76.84688,574.94946
"4161",76.23407,574.96277
"4162",75.95575,574.9761
"4163",76.033875,574.9894
"4164",76.4416,575.0027
"4165",77.11299,575.016
"4166",77.9382,575.0293
"4167",78.77562,575.0426
"4168",79.47143,575.0559
"4169",79.920654,575.0692
"4170",80.0647,575.0825
"4171",79.91089,575.0958
"4172",79.51293,575.10913
"4173",78.94652,575.12244
"4174",78.277565,575.13574
"4175",77.55978,575.14905
"4176",76.82979,575.16235
"4177",76.121765,575.17566
"4178",75.46014,575.18896
"4179",74.8571,575.2023
"4180",74.32487,575.2156
"4181",73.86832,575.2289
"4182",73.49233,575.2422
"4183",73.19203,575.2555
"4184",72.96498,575.2688
"4185",72.80873,575.2821
"4186",72.72083,575.2954
"4187",72.71595,575.3087
"4188",72.87953,575.322
"4189",73.42397,575.3353
"4190",74.68864,575.34863
"4191",76.964066,575.36194
"4192",80.29908,575.37524
"4193",84.386055,575.38855
"4194",88.636604,575.40186
"4195",92.35493,575.41516
"4196",94.99901,575.42847
"4197",96.3296,575.4418
"4198",96.44434,575.4551
"4199",95.638664,575.4684
"4200",94.220184,575.4817
"4201",92.43549,575.495
"4202",90.457924,575.5083
"4203",88.42664,575.5216
"4204",86.45396,575.5349
"4205",84.61799,575.5482
"4206",82.948044,575.5615
"4207",81.45388,575.5748
"4208",80.14038,575.58813
"4209",79.02464,575.60144
"4210",78.12863,575.61475
"4211",77.50118,575.62805
"4212",77.19356,575.64136
"4213",77.23018,575.65466
"4214",77.574425,575.66797
"4215",78.1384,575.6813
"4216",78.79271,575.6946
"4217",79.40551,575.7079
"4218",79.86206,575.7212
"4219",80.096436,575.7345
"4220",80.08423,575.7478
"4221",79.84497,575.7611
"4222",79.412834,575.7744
"4223",78.83177,575.7877
"4224",78.15793,575.801
"4225",77.437706,575.81433
"4226",76.71259,575.82764
"4227",76.0119,575.84094
"4228",75.36004,575.85425
"4229",74.76189,575.86755
"4230",74.22476,575.88086
"4231",73.75357,575.89417
"4232",73.35561,575.9075
"4233",73.02602,575.9208
"4234",72.76723,575.9341
"4235",72.584114,575.9474
"4236",72.49378,575.9607
"4237",72.59632,575.974
"4238",73.145645,575.9873
"4239",74.476234,576.0006
"4240",76.85176,576.0139
"4241",80.24292,576.0272
"4242",84.29572,576.0405
"4243",88.39246,576.05383
"4244",91.861755,576.06714
"4245",94.205536,576.08044
"4246",95.27001,576.09375
"4247",95.20653,576.10706
"4248",94.31541,576.12036
"4249",92.90669,576.13367
"4250",91.20744,576.147
"4251",89.38369,576.1603
"4252",87.56725,576.1736
"4253",85.8436,576.1869
"4254",84.26154,576.2002
"4255",82.8333,576.2135
"4256",81.54665,576.2268
"4257",80.394295,576.2401
"4258",79.38598,576.2534
"4259",78.56077,576.2667
"4260",77.96506,576.28
"4261",77.64767,576.29333
"4262",77.61349,576.30664
"4263",77.83322,576.31995
"4264",78.21896,576.33325
"4265",78.68772,576.34656
"4266",79.14427,576.35986
"4267",79.50317,576.37317
"4268",79.68383,576.3865
"4269",79.64721,576.3998
"4270",79.40063,576.4131
"4271",78.96849,576.4264
"4272",78.39231,576.4397
"4273",77.738,576.453
"4274",77.066605,576.4663
"4275",76.402534,576.4796
"4276",75.755554,576.4929
"4277",75.142746,576.5062
"4278",74.57389,576.51953
"4279",74.056305,576.53284
"4280",73.58999,576.54614
"4281",73.18227,576.55945
"4282",72.82826,576.57275
"4283",72.52552,576.58606
"4284",72.2765,576.59937
"4285",72.09338,576.6127
"4286",72.027466,576.626
"4287",72.23743,576.6393
"4288",73.00893,576.6526
"4289",74.67155,576.6659
"4290",77.38155,576.6792
"4291",80.98512,576.6925
"4292",85.00862,576.7058
"4293",88.814835,576.7191
"4294",91.8056,576.7324
"4295",93.62936,576.7457
"4296",94.24704,576.75903
"4297",93.893036,576.77234
"4298",92.877396,576.78564
"4299",91.458916,576.79895
"4300",89.82559,576.81226
"4301",88.12634,576.82556
"4302",86.49302,576.83887
"4303",84.98665,576.8522
"4304",83.63409,576.8655
"4305",82.425575,576.8788
"4306",81.35134,576.8921
"4307",80.38697,576.9054
"4308",79.54223,576.9187
"4309",78.8513,576.932
"4310",78.365456,576.9453
"4311",78.116425,576.9586
"4312",78.1091,576.9719
"4313",78.29954,576.9852
"4314",78.61204,576.99854
"4315",78.94652,577.01184
"4316",79.22728,577.02515
"4317",79.381096,577.03845
"4318",79.364006,577.05176
"4319",79.15892,577.06506
"4320",78.785385,577.07837
"4321",78.27512,577.0917
"4322",77.67696,577.105
"4323",77.04219,577.1183
"4324",76.40742,577.1316
"4325",75.80438,577.1449
"4326",75.25262,577.1582
"4327",74.76433,577.1715
"4328",74.3444,577.1848
"4329",73.985504,577.1981
"4330",73.67788,577.2114
"4331",73.41421,577.22473
"4332",73.17494,577.23804
"4333",72.9601,577.25134
"4334",72.77699,577.26465
"4335",72.63538,577.27795
"4336",72.567024,577.29126
"4337",72.70374,577.30457
"4338",73.29458,577.3179
"4339",74.64469,577.3312
"4340",76.96895,577.3445
"4341",80.19653,577.3578
"4342",83.949036,577.3711
"4343",87.65514,577.3844
"4344",90.72404,577.3977
"4345",92.752884,577.411
"4346",93.64156,577.4243
"4347",93.556114,577.4376
"4348",92.76509,577.4509
"4349",91.51751,577.46423
"4350",89.98917,577.47754
"4351",88.341194,577.49084
"4352",86.70542,577.50415
"4353",85.1844,577.51746
"4354",83.84161,577.53076
"4355",82.686806,577.54407
"4356",81.6907,577.5574
"4357",80.8069,577.5707
"4358",80.01099,577.584
"4359",79.31762,577.5973
"4360",78.768295,577.6106
"4361",78.41428,577.6239
"4362",78.277565,577.6372
"4363",78.33372,577.6505
"4364",78.52415,577.6638
"4365",78.7805,577.6771
"4366",79.01488,577.6904
"4367",79.15892,577.70374
"4368",79.16136,577.71704
"4369",78.995346,577.73035
"4370",78.660866,577.74365
"4371",78.18967,577.75696
"4372",77.61593,577.77026
"4373",76.98848,577.78357
"4374",76.35615,577.7969
"4375",75.7409,577.8102
"4376",75.17937,577.8235
"4377",74.67887,577.8368
"4378",74.23941,577.8501
"4379",73.85611,577.8634
"4380",73.53384,577.8767
"4381",73.2604,577.89
"4382",73.03334,577.9033
"4383",72.84779,577.9166
"4384",72.708626,577.92993
"4385",72.60609,577.94324
"4386",72.552376,577.95654
"4387",72.57923,577.96985
"4388",72.82582,577.98315
"4389",73.52895,577.99646
"4390",74.97185,578.00977
"4391",77.31075,578.0231
"4392",80.45777,578.0364
"4393",84.03204,578.0497
"4394",87.49157,578.063
"4395",90.304115,578.0763
"4396",92.1181,578.0896
"4397",92.860306,578.1029
"4398",92.69428,578.1162
"4399",91.8764,578.1295
"4400",90.65568,578.1428
"4401",89.22499,578.1561
"4402",87.73815,578.16943
"4403",86.31968,578.18274
"4404",85.04524,578.19604
"4405",83.93927,578.20935
"4406",82.984665,578.22266
"4407",82.1326,578.23596
"4408",81.341576,578.24927
"4409",80.59449,578.2626
"4410",79.90845,578.2759
"4411",79.33471,578.2892
"4412",78.91722,578.3025
"4413",78.68772,578.3158
"4414",78.63645,578.3291
"4415",78.7219,578.3424
"4416",78.89281,578.3557
"4417",79.07591,578.369
"4418",79.21019,578.3823
"4419",79.237045,578.3956
"4420",79.11253,578.40894
"4421",78.82689,578.42224
"4422",78.38499,578.43555
"4423",77.823456,578.44885
"4424",77.18623,578.46216
"4425",76.51972,578.47546
"4426",75.85321,578.4888
"4427",75.21355,578.5021
"4428",74.61295,578.5154
"4429",74.06851,578.5287
"4430",73.59243,578.542
"4431",73.2018,578.5553
"4432",72.901505,578.5686
"4433",72.689095,578.5819
"4434",72.55482,578.5952
"4435",72.481575,578.6085
"4436",72.45472,578.6218
"4437",72.46204,578.63513
"4438",72.49622,578.64844
"4439",72.60609,578.66174
"4440",72.935684,578.67505
"4441",73.7438,578.68835
"4442",75.30877,578.70166
"4443",77.7551,578.71497
"4444",80.93141,578.7283
"4445",84.43488,578.7416
"4446",87.728386,578.7549
"4447",90.321205,578.7682
"4448",91.92279,578.7815
"4449",92.51362,578.7948
"4450",92.26948,578.8081
"4451",91.42718,578.8214
"4452",90.20645,578.8347
"4453",88.78798,578.848
"4454",87.33044,578.8613
"4455",85.960785,578.87463
"4456",84.754715,578.88794
"4457",83.72686,578.90125
"4458",82.85283,578.91455
"4459",82.08133,578.92786
"4460",81.358665,578.94116
"4461",80.65797,578.95447
"4462",79.991455,578.9678
"4463",79.40307,578.9811
"4464",78.94896,578.9944
"4465",78.66575,579.0077
"4466",78.555885,579.021
"4467",78.58762,579.0343
"4468",78.712135,579.0476
"4469",78.85863,579.0609
"4470",78.95384,579.0742
"4471",78.958725,579.0875
"4472",78.836655,579.1008
"4473",78.58518,579.11414
"4474",78.221405,579.12744
"4475",77.77219,579.14075
"4476",77.261925,579.15405
"4477",76.72236,579.16736
"4478",76.173035,579.18066
"4479",75.62615,579.194
"4480",75.09636,579.2073
"4481",74.600746,579.2206
"4482",74.15396,579.2339
"4483",73.77066,579.2472
"4484",73.45327,579.2605
"4485",73.196915,579.2738
"4486",72.99672,579.2871
"4487",72.83803,579.3004
"4488",72.71595,579.3137
"4489",72.62318,579.327
"4490",72.5597,579.34033
"4491",72.552376,579.35364
"4492",72.68665,579.36694
"4493",73.18227,579.38025
"4494",74.339516,579.39355
"4495",76.387886,579.40686
"4496",79.31274,579.42017
"4497",82.811325,579.4335
"4498",86.397804,579.4468
"4499",89.51797,579.4601
"4500",91.734795,579.4734
"4501",92.89693,579.4867
"4502",93.11421,579.5
"4503",92.60639,579.5133
"4504",91.59075,579.5266
"4505",90.2797,579.5399
"4506",88.83681,579.5532
"4507",87.39391,579.5665
"4508",86.03647,579.57983
"4509",84.823074,579.59314
"4510",83.758606,579.60645
"4511",82.81621,579.61975
"4512",81.951935,579.63306
"4513",81.143814,579.64636
"4514",80.39918,579.65967
"4515",79.7522,579.673
"4516",79.256584,579.6863
"4517",78.9514,579.6996
"4518",78.84398,579.7129
"4519",78.890366,579.7262
"4520",79.03197,579.7395
"4521",79.19554,579.7528
"4522",79.327385,579.7661
"4523",79.3933,579.7794
"4524",79.37377,579.7927
"4525",79.26879,579.806
"4526",79.08568,579.81934
"4527",78.839096,579.83264
"4528",78.53391,579.84595
"4529",78.17258,579.85925
"4530",77.75754,579.87256
"4531",77.27413,579.88586
"4532",76.7248,579.8992
"4533",76.11688,579.9125
"4534",75.474785,579.9258
"4535",74.83269,579.9391
"4536",74.229645,579.9524
"4537",73.70229,579.9657
"4538",73.26284,579.979
"4539",72.91371,579.9923
"4540",72.63294,580.0056
"4541",72.413216,580.0189
"4542",72.24719,580.0322
"4543",72.17151,580.04553
"4544",72.308235,580.05884
"4545",72.8893,580.07214
"4546",74.19791,580.08545
"4547",76.39277,580.09875
"4548",79.37621,580.11206
"4549",82.791794,580.12537
"4550",86.13168,580.1387
"4551",88.88808,580.152
"4552",90.70695,580.1653
"4553",91.51751,580.1786
"4554",91.46624,580.1919
"4555",90.775314,580.2052
"4556",89.65713,580.2185
"4557",88.29725,580.2318
"4558",86.85191,580.2451
"4559",85.44076,580.2584
"4560",84.15411,580.2717
"4561",83.018845,580.28503
"4562",82.02518,580.29834
"4563",81.143814,580.31165
"4564",80.343025,580.32495
"4565",79.62035,580.33826
"4566",78.992905,580.35156
"4567",78.51194,580.36487
"4568",78.21896,580.3782
"4569",78.12863,580.3915
"4570",78.21164,580.4048
"4571",78.41428,580.4181
"4572",78.67063,580.4314
"4573",78.905014,580.4447
"4574",79.06615,580.458
"4575",79.10765,580.4713
"4576",79.00511,580.4846
