"","ppg","time"
"1",88.341194,25.636627
"2",87.33288,25.649963
"3",86.30991,25.663269
"4",85.28939,25.676605
"5",84.281075,25.689941
"6",83.284966,25.703278
"7",82.303505,25.716614
"8",81.34402,25.72995
"9",80.42603,25.743286
"10",79.586174,25.756622
"11",78.87816,25.769958
"12",78.35569,25.783295
"13",78.048065,25.79663
"14",77.95773,25.809937
"15",78.05295,25.823273
"16",78.27268,25.836609
"17",78.551,25.849945
"18",78.82689,25.863281
"19",79.05394,25.876617
"20",79.19554,25.889954
"21",79.234604,25.90329
"22",79.15892,25.916626
"23",78.96849,25.929962
"24",78.66575,25.943268
"25",78.2678,25.956604
"26",77.789276,25.96994
"27",77.24483,25.983276
"28",76.63935,25.996613
"29",75.97772,26.009949
"30",75.27947,26.023285
"31",74.57145,26.036621
"32",73.87564,26.049957
"33",73.23598,26.063293
"34",72.764786,26.07663
"35",72.78676,26.089935
"36",73.71694,26.103271
"37",75.77753,26.116608
"38",78.839096,26.129944
"39",82.48661,26.14328
"40",86.12192,26.156616
"41",89.12001,26.169952
"42",91.09758,26.183289
"43",92.069275,26.196625
"44",92.29145,26.20996
"45",92.00336,26.223297
"46",91.407646,26.236603
"47",90.64835,26.249939
"48",89.82071,26.263275
"49",88.97597,26.276611
"50",88.11658,26.289948
"51",87.237656,26.303284
"52",86.31968,26.31662
"53",85.35287,26.329956
"54",84.33967,26.343292
"55",83.299614,26.356628
"56",82.25956,26.369965
"57",81.25857,26.38327
"58",80.34547,26.396606
"59",79.54955,26.409943
"60",78.88304,26.423279
"61",78.365456,26.436615
"62",77.996796,26.449951
"63",77.76486,26.463287
"64",77.645226,26.476624
"65",77.591515,26.48996
"66",77.55245,26.503296
"67",77.47433,26.516602
"68",77.30343,26.529938
"69",77.02022,26.543274
"70",76.612495,26.55661
"71",76.09247,26.569946
"72",75.47723,26.583282
"73",74.7863,26.596619
"74",74.0441,26.609955
"75",73.27505,26.623291
"76",72.50355,26.636627
"77",71.75403,26.649963
"78",71.04845,26.663269
"79",70.40147,26.676605
"80",69.839935,26.689941
"81",69.40536,26.703278
"82",69.30526,26.716614
"83",69.98886,26.72995
"84",71.8468,26.743286
"85",74.89128,26.756622
"86",78.751205,26.769958
"87",82.82353,26.783295
"88",86.42222,26.7966
"89",88.98085,26.809937
"90",90.37736,26.823273
"91",90.88274,26.836609
"92",90.826584,26.849945
"93",90.40421,26.863281
"94",89.73525,26.876617
"95",88.89296,26.889954
"96",87.91882,26.90329
"97",86.837265,26.916626
"98",85.65072,26.929962
"99",84.35676,26.943268
"100",82.950485,26.956604
"101",81.463646,26.96994
"102",79.94751,26.983276
"103",78.45823,26.996613
"104",77.066605,27.009949
"105",75.82147,27.023285
"106",74.76189,27.036621
"107",73.92447,27.049957
"108",73.34585,27.063293
"109",73.06264,27.07663
"110",73.08705,27.089935
"111",73.3727,27.103271
"112",73.82193,27.116608
"113",74.29313,27.129944
"114",74.652016,27.14328
"115",74.80827,27.156616
"116",74.72526,27.169952
"117",74.444496,27.183289
"118",74.056305,27.196625
"119",73.651024,27.20996
"120",73.28237,27.223297
"121",72.9601,27.236603
"122",72.672005,27.249939
"123",72.39857,27.263275
"124",72.13489,27.276611
"125",71.89563,27.289948
"126",71.707634,27.303284
"127",71.624626,27.31662
"128",71.871216,27.329956
"129",72.92348,27.343292
"130",75.191574,27.356628
"131",78.69016,27.369934
"132",83.02861,27.38327
"133",87.56237,27.396606
"134",91.52483,27.409943
"135",94.293434,27.423279
"136",95.70458,27.436615
"137",96.03174,27.449951
"138",95.64599,27.463287
"139",94.801254,27.476624
"140",93.695274,27.48996
"141",92.45014,27.503296
"142",91.139084,27.516602
"143",89.796295,27.529938
"144",88.411995,27.543274
"145",86.976425,27.55661
"146",85.472496,27.569946
"147",83.91974,27.583282
"148",82.36942,27.596619
"149",80.89967,27.609955
"150",79.59594,27.623291
"151",78.54612,27.636627
"152",77.8259,27.649933
"153",77.48409,27.663269
"154",77.51095,27.676605
"155",77.83566,27.689941
"156",78.331276,27.703278
"157",78.853745,27.716614
"158",79.27123,27.72995
"159",79.49096,27.743286
"160",79.49584,27.756622
"161",79.31274,27.769958
"162",78.98802,27.783295
"163",78.54612,27.7966
"164",78.01877,27.809937
"165",77.43282,27.823273
"166",76.8127,27.836609
"167",76.18524,27.849945
"168",75.58709,27.863281
"169",75.028,27.876617
"170",74.50797,27.889954
"171",74.04166,27.90329
"172",73.66811,27.916626
"173",73.58999,27.929962
"174",74.27848,27.943268
"175",76.18524,27.956604
"176",79.378654,27.96994
"177",83.48028,27.983276
"178",87.84558,27.996613
"179",91.734795,28.009949
"180",94.5156,28.023285
"181",95.990234,28.036621
"182",96.39796,28.049957
"183",96.12207,28.063293
"184",95.414055,28.07663
"185",94.44724,28.089935
"186",93.34127,28.103271
"187",92.17914,28.116608
"188",91.00969,28.129944
"189",89.84512,28.14328
"190",88.68543,28.156616
"191",87.52331,28.169952
"192",86.35874,28.183289
"193",85.20149,28.196625
"194",84.09064,28.20996
"195",83.07988,28.223267
"196",82.23514,28.236603
"197",81.602806,28.249939
"198",81.20729,28.263275
"199",81.007095,28.276611
"200",80.92897,28.289948
"201",80.89479,28.303284
"202",80.831314,28.31662
"203",80.689705,28.329956
"204",80.45045,28.343292
"205",80.111084,28.356628
"206",79.66918,28.369934
"207",79.11742,28.38327
"208",78.44358,28.396606
"209",77.65011,28.409943
"210",76.72236,28.423279
"211",75.66277,28.436615
"212",74.48844,28.449951
"213",73.24574,28.463287
"214",71.9884,28.476624
"215",70.77989,28.48996
"216",69.66659,28.503265
"217",68.699776,28.516602
"218",67.96735,28.529938
"219",67.74517,28.543274
"220",68.48737,28.55661
"221",70.49912,28.569946
"222",73.70718,28.583282
"223",77.68429,28.596619
"224",81.80057,28.609955
"225",85.3431,28.623291
"226",87.80652,28.636627
"227",89.10292,28.649933
"228",89.4667,28.663269
"229",89.18837,28.676605
"230",88.48768,28.689941
"231",87.54284,28.703278
"232",86.49302,28.716614
"233",85.452965,28.72995
"234",84.51301,28.743286
"235",83.734184,28.756622
"236",83.140915,28.769958
"237",82.7161,28.783295
"238",82.43046,28.7966
"239",82.22781,28.809937
"240",82.07889,28.823273
"241",81.97635,28.836609
"242",81.94705,28.849945
"243",82.005646,28.863281
"244",82.142365,28.876617
"245",82.31327,28.889954
"246",82.4622,28.90329
"247",82.53544,28.916626
"248",82.49149,28.929962
"249",82.320595,28.943268
"250",82.00809,28.956604
"251",81.54421,28.96994
"252",80.921646,28.983276
"253",80.14282,28.996613
"254",79.217514,29.009949
"255",78.18234,29.023285
"256",77.07393,29.036621
"257",75.931335,29.049957
"258",74.79851,29.063293
"259",73.69497,29.0766
"260",72.65003,29.089935
"261",71.72961,29.103271
"262",71.185165,29.116608
"263",71.39025,29.129944
"264",72.59876,29.14328
"265",74.76189,29.156616
"266",77.56954,29.169952
"267",80.5359,29.183289
"268",83.106735,29.196625
"269",84.88899,29.20996
"270",85.81918,29.223267
"271",86.06088,29.236603
"272",85.79721,29.249939
"273",85.169754,29.263275
"274",84.300606,29.276611
"275",83.29473,29.289948
"276",82.24979,29.303284
"277",81.24635,29.31662
"278",80.34058,29.329956
"279",79.54711,29.343292
"280",78.86107,29.356598
"281",78.27024,29.369934
"282",77.76242,29.38327
"283",77.32784,29.396606
"284",76.96895,29.409943
"285",76.70283,29.423279
"286",76.53925,29.436615
"287",76.49287,29.449951
"288",76.56855,29.463287
"289",76.74189,29.476624
"290",76.96651,29.48996
"291",77.17891,29.503265
"292",77.32296,29.516602
"293",77.366905,29.529938
"294",77.313194,29.543274
"295",77.17891,29.55661
"296",76.98604,29.569946
"297",76.73945,29.583282
"298",76.42695,29.596619
"299",76.036316,29.609955
"300",75.562675,29.623291
"301",74.9987,29.636627
"302",74.34684,29.649933
"303",73.6144,29.663269
"304",72.813614,29.676605
"305",71.9762,29.689941
"306",71.1754,29.703278
"307",70.61387,29.716614
"308",70.660255,29.72995
"309",71.641716,29.743286
"310",73.602196,29.756622
"311",76.2707,29.769958
"312",79.1931,29.783295
"313",81.832306,29.7966
"314",83.74883,29.809937
"315",84.78401,29.823273
"316",85.09163,29.836609
"317",84.9012,29.849945
"318",84.37629,29.863281
"319",83.61944,29.876617
"320",82.72343,29.889954
"321",81.761505,29.90329
"322",80.7776,29.916626
"323",79.79126,29.929932
"324",78.81468,29.943268
"325",77.84543,29.956604
"326",76.8835,29.96994
"327",75.93378,29.983276
"328",75.01335,29.996613
"329",74.144196,30.009949
"330",73.34829,30.023285
"331",72.65003,30.036621
"332",72.08118,30.049957
"333",71.675896,30.063293
"334",71.46105,30.0766
"335",71.45129,30.089935
"336",71.63683,30.103271
"337",71.96887,30.116608
"338",72.37171,30.129944
"339",72.74769,30.14328
"340",73.0309,30.156616
"341",73.179825,30.169952
"342",73.19203,30.183289
"343",73.08705,30.196625
"344",72.91371,30.20996
"345",72.725716,30.223297
"346",72.54749,30.236633
"347",72.40345,30.24997
"348",72.31312,30.263306
"349",72.29359,30.276642
"350",72.42298,30.289948
"351",73.060196,30.303284
"352",74.69108,30.31662
"353",77.52071,30.329956
"354",81.2781,30.343292
"355",85.41146,30.356628
"356",89.24208,30.369965
"357",92.09369,30.3833
"358",93.63424,30.396637
"359",94.02487,30.409973
"360",93.70992,30.42331
"361",92.98726,30.436646
"362",92.03998,30.449982
"363",90.99016,30.463318
"364",89.915924,30.476654
"365",88.84657,30.48996
"366",87.77966,30.503296
"367",86.695656,30.516632
"368",85.58968,30.529968
"369",84.45197,30.543304
"370",83.30694,30.55664
"371",82.18631,30.569977
"372",81.14137,30.583313
"373",80.233154,30.59665
"374",79.537346,30.609985
"375",79.11742,30.623322
"376",78.99779,30.636658
"377",79.149155,30.649994
"378",79.49096,30.66333
"379",79.91821,30.676666
"380",80.31373,30.690002
"381",80.59205,30.703339
"382",80.706795,30.716644
"383",80.65308,30.72998
"384",80.44068,30.743317
"385",80.09155,30.756653
"386",79.635,30.769989
"387",79.09544,30.783325
"388",78.49241,30.796661
"389",77.85275,30.809998
"390",77.20088,30.823334
"391",76.575874,30.83667
"392",76.104675,30.850006
"393",76.12665,30.863342
"394",77.02998,30.876678
"395",78.941635,30.890015
"396",81.651634,30.90335
"397",84.72297,30.916656
"398",87.6112,30.929993
"399",89.78653,30.943329
"400",91.00481,30.956665
"401",91.38323,30.970001
"402",91.192795,30.983337
"403",90.6215,30.996674
"404",89.81094,31.01001
"405",88.868546,31.023346
"406",87.869995,31.036682
"407",86.87633,31.050018
"408",85.90463,31.063354
"409",84.95491,31.07669
"410",84.02228,31.090027
"411",83.09941,31.103363
"412",82.19852,31.1167
"413",81.35378,31.130035
"414",80.618904,31.143341
"415",80.045166,31.156677
"416",79.676506,31.170013
"417",79.534904,31.18335
"418",79.588615,31.196686
"419",79.77905,31.210022
"420",80.025635,31.223358
"421",80.24292,31.236694
"422",80.36988,31.25003
"423",80.36988,31.263367
"424",80.24292,31.276703
"425",80.00366,31.29004
"426",79.676506,31.303375
"427",79.281,31.316711
"428",78.82933,31.330048
"429",78.33372,31.343353
"430",77.79904,31.35669
"431",77.23506,31.370026
"432",76.663765,31.383362
"433",76.11444,31.396698
"434",75.72869,31.410034
"435",75.80438,31.42337
"436",76.63691,31.436707
"437",78.2971,31.450043
"438",80.604256,31.463379
"439",83.19951,31.476715
"440",85.60677,31.490051
"441",87.396355,31.503387
"442",88.3827,31.516724
"443",88.656136,31.53006
"444",88.40467,31.543396
"445",87.78943,31.556732
"446",86.93736,31.570038
"447",85.96811,31.583374
"448",84.96712,31.59671
"449",83.983215,31.610046
"450",83.04082,31.623383
"451",82.15213,31.636719
"452",81.31716,31.650055
"453",80.533455,31.663391
"454",79.81079,31.676727
"455",79.17357,31.690063
"456",78.65354,31.7034
"457",78.27024,31.716736
"458",78.04318,31.730072
"459",77.977264,31.743408
"460",78.05051,31.756744
"461",78.21408,31.77005
"462",78.41428,31.783386
"463",78.59251,31.796722
"464",78.70237,31.810059
"465",78.71702,31.823395
"466",78.63157,31.836731
"467",78.45823,31.850067
"468",78.2092,31.863403
"469",77.90402,31.87674
"470",77.54757,31.890076
"471",77.14961,31.903412
"472",76.71015,31.916748
"473",76.243835,31.930084
"474",75.76776,31.94342
"475",75.3283,31.956757
"476",75.06706,31.970093
"477",75.27215,31.983429
"478",76.18524,31.996735
"479",77.855194,32.01007
"480",80.10376,32.023407
"481",82.60136,32.036743
"482",84.91341,32.05008
"483",86.65415,32.063416
"484",87.66003,32.07675
"485",87.992065,32.090088
"486",87.78943,32.103424
"487",87.19371,32.11676
"488",86.33433,32.130096
"489",85.330894,32.143433
"490",84.283516,32.15677
"491",83.250786,32.170105
"492",82.26444,32.18344
"493",81.32937,32.196747
"494",80.45289,32.210083
"495",79.64721,32.22342
"496",78.92943,32.236755
"497",78.33372,32.25009
"498",77.88449,32.263428
"499",77.611046,32.276764
"500",77.51095,32.2901
"501",77.576866,32.303436
"502",77.76486,32.316772
"503",78.02365,32.33011
"504",78.28489,32.343445
"505",78.48997,32.35678
"506",78.59495,32.370117
"507",78.58518,32.383453
"508",78.46067,32.39679
"509",78.238495,32.410126
"510",77.943085,32.42343
"511",77.60128,32.436768
"512",77.23262,32.450104
"513",76.84444,32.46344
"514",76.439156,32.476776
"515",76.02411,32.490112
"516",75.59441,32.50345
"517",75.16228,32.516785
"518",74.81804,32.53012
"519",74.79118,32.543457
"520",75.36736,32.556793
"521",76.6955,32.57013
"522",78.70481,32.583466
"523",81.1194,32.5968
"524",83.54864,32.610138
"525",85.56527,32.623444
"526",86.8983,32.63678
"527",87.52819,32.650116
"528",87.57702,32.663452
"529",87.17906,32.67679
"530",86.46128,32.690125
"531",85.55306,32.70346
"532",84.56672,32.716797
"533",83.58282,32.730133
"534",82.64042,32.74347
"535",81.761505,32.756805
"536",80.938736,32.77014
"537",80.177,32.783478
"538",79.4934,32.796814
"539",78.922104,32.81015
"540",78.48997,32.823486
"541",78.22385,32.836823
"542",78.118866,32.85013
"543",78.16037,32.863464
"544",78.314186,32.8768
"545",78.52903,32.890137
"546",78.746315,32.903473
"547",78.91722,32.91681
"548",79.00023,32.930145
"549",78.975815,32.94348
"550",78.84886,32.956818
"551",78.64622,32.970154
"552",78.38987,32.98349
"553",78.101776,32.996826
"554",77.77951,33.010162
"555",77.42794,33.0235
"556",77.04219,33.036835
"557",76.64423,33.05014
"558",76.24628,33.063477
"559",75.86542,33.076813
"560",75.52117,33.09015
"561",75.29412,33.103485
"562",75.369804,33.11682
"563",75.97284,33.130157
"564",77.225296,33.143494
"565",79.06859,33.15683
"566",81.29275,33.170166
"567",83.53643,33.183502
"568",85.42367,33.19684
"569",86.70054,33.210175
"570",87.31823,33.22351
"571",87.35241,33.236847
"572",86.9276,33.250183
"573",86.17319,33.26352
"574",85.21858,33.276825
"575",84.16632,33.29016
"576",83.09209,33.303497
"577",82.04471,33.316833
"578",81.04372,33.33017
"579",80.096436,33.343506
"580",79.22728,33.356842
"581",78.46067,33.37018
"582",77.838104,33.383514
"583",77.39864,33.39685
"584",77.17403,33.410187
"585",77.14961,33.423523
"586",77.29366,33.43686
"587",77.54513,33.450195
"588",77.83322,33.46353
"589",78.09201,33.476837
"590",78.27024,33.490173
"591",78.34348,33.50351
"592",78.29954,33.516846
"593",78.14328,33.53018
"594",77.88449,33.543518
"595",77.53292,33.556854
"596",77.07637,33.57019
"597",76.48798,33.583527
"598",75.757996,33.596863
"599",74.90593,33.6102
"600",73.98062,33.623535
"601",73.05287,33.63687
"602",72.19104,33.650208
"603",71.448845,33.663544
"604",70.84337,33.67688
"605",70.399025,33.690216
"606",70.33799,33.70352
"607",71.0338,33.716858
"608",72.71351,33.730194
"609",75.27703,33.74353
"610",78.35813,33.756866
"611",81.45144,33.770203
"612",83.99298,33.78354
"613",85.6141,33.796875
"614",86.3148,33.81021
"615",86.35142,33.823547
"616",85.94614,33.836884
"617",85.25277,33.85022
"618",84.386055,33.863556
"619",83.43389,33.876892
"620",82.44755,33.89023
"621",81.45388,33.903534
"622",80.46021,33.91687
"623",79.47387,33.930206
"624",78.504616,33.943542
"625",77.56954,33.95688
"626",76.700386,33.970215
"627",75.95087,33.98355
"628",75.389336,33.996887
"629",75.0988,34.010223
"630",75.13298,34.02356
"631",75.48699,34.036896
"632",76.09003,34.050232
"633",76.80293,34.06357
"634",77.48409,34.076904
"635",78.01633,34.09024
"636",78.34348,34.103577
"637",78.44846,34.116913
"638",78.35813,34.13022
"639",78.10422,34.143555
"640",77.72335,34.15689
"641",77.24727,34.170227
"642",76.70771,34.183563
"643",76.13641,34.1969
"644",75.55047,34.210236
"645",74.96452,34.22357
"646",74.39323,34.236908
"647",73.85855,34.250244
"648",73.402,34.26358
"649",73.23842,34.276917
"650",73.79996,34.290253
"651",75.42596,34.30359
"652",78.1091,34.316925
"653",81.49294,34.33023
"654",85.030594,34.343567
"655",88.077515,34.356903
"656",90.13565,34.37024
"657",91.0927,34.383575
"658",91.19524,34.39691
"659",90.7338,34.410248
"660",89.901276,34.423584
"661",88.83925,34.43692
"662",87.66003,34.450256
"663",86.44419,34.463593
"664",85.240555,34.47693
"665",84.07355,34.490265
"666",82.95293,34.5036
"667",81.87869,34.516937
"668",80.86061,34.530273
"669",79.923096,34.54361
"670",79.12474,34.556915
"671",78.54124,34.57025
"672",78.25071,34.583588
"673",78.28001,34.596924
"674",78.59739,34.61026
"675",79.11009,34.623596
"676",79.68871,34.636932
"677",80.19653,34.65027
"678",80.54566,34.663605
"679",80.70435,34.67694
"680",80.6775,34.690277
"681",80.48707,34.703613
"682",80.16724,34.71695
"683",79.742424,34.730286
"684",79.23216,34.74362
"685",78.6511,34.756927
"686",78.009,34.770264
"687",77.32052,34.7836
"688",76.58808,34.796936
"689",75.83124,34.810272
"690",75.07439,34.82361
"691",74.36637,34.836945
"692",73.89273,34.85028
"693",74.05875,34.863617
"694",75.24773,34.876953
"695",77.53048,34.89029
"696",80.635994,34.903625
"697",84.06134,34.91696
"698",87.17906,34.930298
"699",89.43496,34.943634
"700",90.6215,34.95697
"701",90.90715,34.970306
"702",90.565346,34.983612
"703",89.80118,34.99695
"704",88.7831,35.010284
"705",87.640495,35.02362
"706",86.4564,35.036957
"707",85.28451,35.050293
"708",84.156555,35.06363
"709",83.08476,35.076965
"710",82.06912,35.0903
"711",81.109634,35.103638
"712",80.23804,35.116974
"713",79.49584,35.13031
"714",78.93919,35.143646
"715",78.61448,35.156982
"716",78.53147,35.17032
"717",78.6511,35.183624
"718",78.89525,35.19696
"719",79.17601,35.210297
"720",79.41039,35.223633
"721",79.53979,35.23697
"722",79.554436,35.250305
"723",79.45922,35.26364
"724",79.26635,35.276978
"725",78.98558,35.290314
"726",78.62913,35.30365
"727",78.19699,35.316986
"728",77.69161,35.330322
"729",77.11055,35.34366
"730",76.46357,35.356995
"731",75.757996,35.37033
"732",75.01335,35.383667
"733",74.23941,35.397003
"734",73.463036,35.41031
"735",72.75014,35.423645
"736",72.36927,35.43698
"737",72.75502,35.450317
"738",74.23453,35.463654
"739",76.76631,35.47699
"740",80.00366,35.490326
"741",83.407036,35.503662
"742",86.34409,35.517
"743",88.33875,35.530334
"744",89.31289,35.54367
"745",89.481346,35.557007
"746",89.08827,35.570343
"747",88.31678,35.58368
"748",87.31823,35.597015
"749",86.219574,35.61032
"750",85.10628,35.623657
"751",84.04181,35.636993
"752",83.04326,35.65033
"753",82.1033,35.663666
"754",81.214615,35.677002
"755",80.38209,35.69034
"756",79.61791,35.703674
"757",78.958725,35.71701
"758",78.44846,35.730347
"759",78.12375,35.743683
"760",77.99191,35.75702
"761",78.030975,35.770355
"762",78.20187,35.78369
"763",78.43137,35.797028
"764",78.64622,35.810364
"765",78.78294,35.8237
"766",78.8098,35.837006
"767",78.71458,35.85034
"768",78.51194,35.863678
"769",78.22629,35.877014
"770",77.874725,35.89035
"771",77.45968,35.903687
"772",76.9836,35.917023
"773",76.436714,35.93036
"774",75.81903,35.943695
"775",75.123215,35.95703
"776",74.3444,35.970367
"777",73.480125,35.983704
"778",72.54505,35.99704
"779",71.5758,36.010376
"780",70.67002,36.023712
"781",70.15488,36.037018
"782",70.55283,36.050354
"783",72.22766,36.06369
"784",75.106125,36.077026
"785",78.751205,36.090363
"786",82.528114,36.1037
"787",85.72152,36.117035
"788",87.82117,36.13037
"789",88.77577,36.143707
"790",88.87587,36.157043
"791",88.4242,36.17038
"792",87.61852,36.183716
"793",86.61509,36.197052
"794",85.53109,36.21039
"795",84.44465,36.223724
"796",83.39483,36.23706
"797",82.391396,36.250397
"798",81.42214,36.263702
"799",80.482185,36.27704
"800",79.57397,36.290375
"801",78.72434,36.30371
"802",77.98459,36.317047
"803",77.42306,36.330383
"804",77.09102,36.34372
"805",77.00801,36.357056
"806",77.15694,36.37039
"807",77.469444,36.383728
"808",77.85275,36.397064
"809",78.2092,36.4104
"810",78.46067,36.423737
"811",78.57053,36.437073
"812",78.52659,36.45041
"813",78.331276,36.463715
"814",77.994354,36.47705
"815",77.53048,36.490387
"816",76.93965,36.503723
"817",76.241394,36.51706
"818",75.46014,36.530396
"819",74.63004,36.54373
"820",73.77554,36.557068
"821",72.92348,36.570404
"822",72.10071,36.58374
"823",71.32189,36.597076
"824",70.61143,36.610413
"825",70.00595,36.62375
"826",69.590904,36.637085
"827",69.749596,36.65042
"828",71.01671,36.663757
"829",73.653465,36.677094
"830",77.42306,36.6904
"831",81.75906,36.703735
"832",85.926605,36.71707
"833",89.163956,36.730408
"834",91.04143,36.743744
"835",91.66155,36.75708
"836",91.43694,36.770416
"837",90.684975,36.783752
"838",89.600975,36.79709
"839",88.33387,36.810425
"840",86.98863,36.82376
"841",85.62386,36.837097
"842",84.266426,36.850433
"843",82.91875,36.86377
"844",81.5613,36.877106
"845",80.198975,36.89041
"846",78.84154,36.903748
"847",77.523155,36.917084
"848",76.29267,36.93042
"849",75.23308,36.943756
"850",74.41764,36.957092
"851",73.92447,36.97043
"852",73.82193,36.983765
"853",74.110016,36.9971
"854",74.69108,37.010437
"855",75.3991,37.023773
"856",76.050964,37.03711
"857",76.48798,37.050446
"858",76.62226,37.06378
"859",76.453804,37.077118
"860",76.04608,37.090454
"861",75.46746,37.10379
"862",74.77898,37.117096
"863",74.04166,37.130432
"864",73.31167,37.14377
"865",72.62806,37.157104
"866",72.01526,37.17044
"867",71.485466,37.183777
"868",71.03624,37.197113
"869",70.660255,37.21045
"870",70.362404,37.223785
"871",70.16464,37.23712
"872",70.14755,37.250458
"873",70.73106,37.263794
"874",72.51087,37.27713
"875",75.78485,37.290466
"876",80.26734,37.303802
"877",85.28695,37.31711
"878",89.99405,37.330444
"879",93.539024,37.34378
"880",95.46288,37.357117
"881",95.93164,37.370453
"882",95.47509,37.38379
"883",94.486305,37.397125
"884",93.19722,37.41046
"885",91.74456,37.423798
"886",90.21866,37.437134
"887",88.66346,37.45047
"888",87.08873,37.463806
"889",85.49935,37.477142
"890",83.912415,37.49048
"891",82.34501,37.503815
"892",80.8362,37.51715
"893",79.432365,37.530487
"894",78.19943,37.543793
"895",77.22774,37.55713
"896",76.63203,37.570465
"897",76.52216,37.5838
"898",76.91524,37.597137
"899",77.70626,37.610474
"900",78.68528,37.62381
"901",79.62035,37.637146
"902",80.30152,37.650482
"903",80.618904,37.66382
"904",80.57252,37.677155
"905",80.23804,37.69049
"906",79.691154,37.703827
"907",78.98802,37.717163
"908",78.170135,37.7305
"909",77.29122,37.743805
"910",76.39277,37.75714
"911",75.51629,37.770477
"912",74.703285,37.783813
"913",73.97574,37.79715
"914",73.340965,37.810486
"915",72.80141,37.823822
"916",72.361946,37.83716
"917",72.09338,37.850494
"918",72.393684,37.86383
"919",73.87076,37.877167
"920",76.84444,37.890503
"921",81.08034,37.90384
"922",85.93393,37.917175
"923",90.58732,37.93051
"924",94.18356,37.943848
"925",96.23682,37.957184
"926",96.85451,37.97049
"927",96.52003,37.983826
"928",95.61669,37.99716
"929",94.374,38.010498
"930",92.9482,38.023834
"931",91.45403,38.03717
"932",89.969635,38.050507
"933",88.531624,38.063843
"934",87.14,38.07718
"935",85.78256,38.090515
"936",84.46174,38.10385
"937",83.18486,38.117188
"938",81.986115,38.130524
"939",80.921646,38.14386
"940",80.0647,38.157196
"941",79.47143,38.1705
"942",79.17113,38.183838
"943",79.13695,38.197174
"944",79.29565,38.21051
"945",79.534904,38.223846
"946",79.73754,38.237183
"947",79.815674,38.25052
"948",79.727776,38.263855
"949",79.47387,38.27719
"950",79.07591,38.290527
"951",78.56809,38.303864
"952",77.97238,38.3172
"953",77.29366,38.330536
"954",76.53925,38.343872
"955",75.718925,38.35721
"956",74.83757,38.370544
"957",73.92691,38.38388
"958",73.00893,38.397186
"959",72.12268,38.410522
"960",71.30236,38.42386
"961",70.56992,38.437195
"962",69.95224,38.45053
"963",69.49081,38.463867
"964",69.45663,38.477203
"965",70.40391,38.49054
"966",72.78432,38.503876
"967",76.544136,38.517212
"968",81.163345,38.53055
"969",85.88266,38.543884
"970",89.85489,38.55722
"971",92.437935,38.570557
"972",93.539024,38.583893
"973",93.55123,38.5972
"974",92.9189,38.610535
"975",91.89105,38.62387
"976",90.64591,38.637207
"977",89.305565,38.650543
"978",87.95056,38.66388
"979",86.61753,38.677216
"980",85.313805,38.69055
"981",84.03204,38.703888
"982",82.760056,38.717224
"983",81.48562,38.73056
"984",80.235596,38.743896
"985",79.05394,38.757233
"986",78.013885,38.77057
"987",77.21065,38.783905
"988",76.717476,38.79724
"989",76.56367,38.810577
"990",76.71259,38.823883
"991",77.06416,38.83722
"992",77.48409,38.850555
"993",77.84787,38.86389
"994",78.065155,38.877228
"995",78.09445,38.890564
"996",77.93332,38.9039
"997",77.59884,38.917236
"998",77.103226,38.930573
"999",76.46845,38.94391
"1000",75.71404,38.957245
"1001",74.864426,38.97058
"1002",73.95621,38.983917
"1003",73.023575,38.997253
"1004",72.10803,39.01059
"1005",71.258415,39.023895
"1006",70.504005,39.03723
"1007",69.86435,39.050568
"1008",69.35409,39.063904
"1009",68.98299,39.07724
"1010",68.84383,39.090576
"1011",69.35897,39.103912
"1012",71.09239,39.11725
"1013",74.29069,39.130585
"1014",78.6511,39.14392
"1015",83.529106,39.157257
"1016",88.10681,39.170593
"1017",91.58831,39.18393
"1018",93.556114,39.197266
"1019",94.186005,39.2106
"1020",93.93454,39.223938
"1021",93.14107,39.237274
"1022",92.01312,39.25058
"1023",90.69962,39.263916
"1024",89.29824,39.277252
"1025",87.87488,39.29059
"1026",86.44419,39.303925
"1027",85.00618,39.31726
"1028",83.54131,39.330597
"1029",82.04959,39.343933
"1030",80.54566,39.35727
"1031",79.063705,39.370605
"1032",77.662315,39.38394
"1033",76.41718,39.397278
"1034",75.41619,39.410614
"1035",74.74235,39.42395
"1036",74.46891,39.437286
"1037",74.5861,39.450592
"1038",75.00603,39.46393
"1039",75.57488,39.477264
"1040",76.112,39.4906
"1041",76.46845,39.503937
"1042",76.54658,39.517273
"1043",76.334175,39.53061
"1044",75.85809,39.543945
"1045",75.18181,39.55728
"1046",74.36881,39.570618
"1047",73.49233,39.583954
"1048",72.61097,39.59729
"1049",71.776,39.610626
"1050",71.02403,39.623962
"1051",70.37461,39.6373
"1052",69.82773,39.650635
"1053",69.38827,39.66397
"1054",69.04646,39.677277
"1055",68.81453,39.690613
"1056",68.71198,39.70395
"1057",68.88045,39.717285
"1058",69.83017,39.73062
"1059",72.14221,39.743958
"1060",75.96796,39.757294
"1061",80.8777,39.77063
"1062",86.12436,39.783966
"1063",90.8217,39.797302
"1064",94.16159,39.81064
"1065",95.83887,39.823975
"1066",96.17334,39.83731
"1067",95.709465,39.850647
"1068",94.77196,39.863983
"1069",93.55123,39.87729
"1070",92.16449,39.890625
"1071",90.68009,39.90396
"1072",89.110245,39.917297
"1073",87.45983,39.930634
"1074",85.73617,39.94397
"1075",83.93683,39.957306
"1076",82.08865,39.970642
"1077",80.235596,39.98398
"1078",78.44846,39.997314
"1079",76.79561,40.01065
"1080",75.33318,40.023987
"1081",74.09537,40.037323
"1082",73.1017,40.05066
"1083",72.36927,40.063995
"1084",71.88342,40.07733
"1085",71.61486,40.090668
"1086",71.505,40.103973
"1087",71.49035,40.11731
"1088",71.50988,40.130646
"1089",71.500114,40.143982
"1090",71.431755,40.15732
"1091",71.3048,40.170654
"1092",71.13634,40.18399
"1093",70.94347,40.197327
"1094",70.745705,40.210663
"1095",70.55283,40.224
"1096",70.381935,40.237335
"1097",70.2501,40.25067
"1098",70.16708,40.264008
"1099",70.14755,40.277344
"1100",70.19882,40.29068
"1101",70.32578,40.303986
"1102",70.52598,40.31732
"1103",70.96788,40.330658
"1104",72.217896,40.343994
"1105",74.93034,40.35733
"1106",79.26635,40.370667
"1107",84.73762,40.384003
"1108",90.494545,40.39734
"1109",95.536125,40.410675
"1110",98.985886,40.42401
"1111",100.541084,40.437347
"1112",100.58991,40.450684
"1113",99.75983,40.46402
"1114",98.42924,40.477356
"1115",96.815445,40.490692
"1116",95.04295,40.50403
"1117",93.17769,40.517365
"1118",91.2636,40.53067
"1119",89.32021,40.544006
"1120",87.3695,40.557343
"1121",85.42367,40.57068
"1122",83.5169,40.584015
"1123",81.70046,40.59735
"1124",80.02319,40.610687
"1125",78.52415,40.624023
"1126",77.27657,40.63736
"1127",76.351265,40.650696
"1128",75.80194,40.664032
"1129",75.64568,40.67737
"1130",75.880066,40.690704
"1131",76.43183,40.70404
"1132",77.14961,40.717377
"1133",77.84543,40.730682
"1134",78.35569,40.74402
"1135",78.555885,40.757355
"1136",78.38743,40.77069
"1137",77.88449,40.784027
"1138",77.14717,40.797363
"1139",76.297554,40.8107
"1140",75.43572,40.824036
"1141",74.62272,40.83737
"1142",73.9025,40.850708
"1143",73.28481,40.864044
"1144",72.764786,40.87738
"1145",72.33509,40.890717
"1146",72.00305,40.904053
"1147",71.79309,40.91739
"1148",71.90784,40.930725
"1149",72.938126,40.94406
"1150",75.45525,40.957367
"1151",79.520256,40.970703
"1152",84.610664,40.98404
"1153",89.91104,40.997375
"1154",94.483864,41.01071
"1155",97.53567,41.024048
"1156",98.863815,41.037384
"1157",98.863815,41.05072
"1158",98.092316,41.064056
"1159",96.86183,41.077393
"1160",95.37499,41.09073
"1161",93.770966,41.104065
"1162",92.13275,41.1174
"1163",90.51408,41.130737
"1164",88.91737,41.144073
"1165",87.33532,41.15738
"1166",85.75571,41.170715
"1167",84.17853,41.18405
"1168",82.62089,41.197388
"1169",81.13649,41.210724
"1170",79.78638,41.22406
"1171",78.65354,41.237396
"1172",77.8259,41.250732
"1173",77.366905,41.26407
"1174",77.26681,41.277405
"1175",77.44503,41.29074
"1176",77.7673,41.304077
"1177",78.08957,41.317413
"1178",78.277565,41.33075
"1179",78.260475,41.344086
"1180",78.02365,41.35742
"1181",77.58175,41.370758
"1182",76.95674,41.384064
"1183",76.16815,41.3974
"1184",75.25506,41.410736
"1185",74.27116,41.424072
"1186",73.270164,41.43741
"1187",72.31312,41.450745
"1188",71.43908,41.46408
"1189",70.67979,41.477417
"1190",70.04257,41.490753
"1191",69.53475,41.50409
"1192",69.170975,41.517426
"1193",69.11726,41.53076
"1194",69.910736,41.544098
"1195",72.1178,41.557434
"1196",75.86542,41.57077
"1197",80.69947,41.584076
"1198",85.87045,41.597412
"1199",90.48234,41.61075
"1200",93.72701,41.624084
"1201",95.33105,41.63742
"1202",95.61181,41.650757
"1203",95.099106,41.664093
"1204",94.10788,41.67743
"1205",92.85054,41.690765
"1206",91.46136,41.7041
"1207",90.04776,41.717438
"1208",88.66346,41.730774
"1209",87.3402,41.74411
"1210",86.07553,41.757446
"1211",84.84993,41.770782
"1212",83.64629,41.78412
"1213",82.46708,41.797455
"1214",81.33181,41.81076
"1215",80.30152,41.824097
"1216",79.43969,41.837433
"1217",78.79759,41.85077
"1218",78.40452,41.864105
"1219",78.24338,41.87744
"1220",78.27268,41.890778
"1221",78.41184,41.904114
"1222",78.57786,41.91745
"1223",78.6804,41.930786
"1224",78.65354,41.944122
"1225",78.45335,41.95746
"1226",78.07248,41.970795
"1227",77.52071,41.98413
"1228",76.822464,41.997467
"1229",75.99725,42.010773
"1230",75.06706,42.02411
"1231",74.056305,42.037445
"1232",72.99428,42.05078
"1233",71.93225,42.064117
"1234",70.92882,42.077454
"1235",70.02548,42.09079
"1236",69.24666,42.104126
"1237",68.61433,42.117462
"1238",68.21149,42.1308
"1239",68.43122,42.144135
"1240",69.839935,42.15747
"1241",72.740364,42.170807
"1242",76.89815,42.184143
"1243",81.6907,42.19748
"1244",86.312355,42.210815
"1245",89.935455,42.22415
"1246",92.09613,42.237457
"1247",92.892044,42.250793
"1248",92.75777,42.26413
"1249",92.04486,42.277466
"1250",90.968185,42.290802
"1251",89.69375,42.30414
"1252",88.33875,42.317474
"1253",86.98863,42.33081
"1254",85.68734,42.344147
"1255",84.43244,42.357483
"1256",83.20439,42.37082
"1257",81.98367,42.384155
"1258",80.765396,42.39749
"1259",79.56664,42.410828
"1260",78.44602,42.424164
"1261",77.47677,42.43747
"1262",76.74677,42.450806
"1263",76.297554,42.46414
"1264",76.1413,42.477478
"1265",76.224304,42.490814
"1266",76.46113,42.50415
"1267",76.734566,42.517487
"1268",76.946976,42.530823
"1269",77.02022,42.54416
"1270",76.91524,42.557495
"1271",76.62226,42.57083
"1272",76.155945,42.584167
"1273",75.53094,42.597504
"1274",74.77409,42.61084
"1275",73.90982,42.624176
"1276",72.96742,42.637512
"1277",71.9884,42.65085
"1278",71.02159,42.664154
"1279",70.115814,42.67749
"1280",69.312584,42.690826
"1281",68.63142,42.704163
"1282",68.07477,42.7175
"1283",67.64263,42.730835
"1284",67.354546,42.74417
"1285",67.386284,42.757507
"1286",68.27009,42.770844
"1287",70.57481,42.78418
"1288",74.43473,42.797516
"1289",79.412834,42.810852
"1290",84.75227,42.82419
"1291",89.55703,42.837524
"1292",93.03853,42.85086
"1293",94.89159,42.864166
"1294",95.40185,42.877502
"1295",95.06737,42.89084
"1296",94.20065,42.904175
"1297",93.00435,42.91751
"1298",91.63714,42.930847
"1299",90.213776,42.944183
"1300",88.81239,42.95752
"1301",87.45739,42.970856
"1302",86.14389,42.98419
"1303",84.85481,42.997528
"1304",83.58526,43.010864
"1305",82.357216,43.0242
"1306",81.231705,43.037537
"1307",80.2942,43.050873
"1308",79.63256,43.06421
"1309",79.293205,43.077545
"1310",79.26879,43.09085
"1311",79.4934,43.104187
"1312",79.852295,43.117523
"1313",80.22583,43.13086
"1314",80.50172,43.144196
"1315",80.61402,43.15753
"1316",80.52369,43.170868
"1317",80.23071,43.184204
"1318",79.75464,43.19754
"1319",79.12474,43.210876
"1320",78.37034,43.224213
"1321",77.5256,43.23755
"1322",76.61738,43.250885
"1323",75.66277,43.26422
"1324",74.67887,43.277557
"1325",73.687645,43.290863
"1326",72.71839,43.3042
"1327",71.79797,43.317535
"1328",70.958115,43.33087
"1329",70.233,43.344208
"1330",69.678795,43.357544
"1331",69.51766,43.37088
"1332",70.26719,43.384216
"1333",72.40833,43.397552
"1334",75.97772,43.41089
"1335",80.52369,43.424225
"1336",85.330894,43.43756
"1337",89.566795,43.450897
"1338",92.53071,43.464233
"1339",94.01755,43.47757
"1340",94.3325,43.490906
"1341",93.9028,43.504242
"1342",93.00435,43.517548
"1343",91.83246,43.530884
"1344",90.53605,43.54422
"1345",89.21767,43.557556
"1346",87.94324,43.570892
"1347",86.729836,43.58423
"1348",85.57748,43.597565
"1349",84.47883,43.6109
"1350",83.43389,43.624237
"1351",82.4622,43.637573
"1352",81.600365,43.65091
"1353",80.89479,43.664246
"1354",80.38941,43.67758
"1355",80.08911,43.690918
"1356",79.971924,43.704254
"1357",79.98901,43.71756
"1358",80.06714,43.730896
"1359",80.128174,43.744232
"1360",80.10864,43.75757
"1361",79.96704,43.770905
"1362",79.69604,43.78424
"1363",79.30541,43.797577
"1364",78.819565,43.810913
"1365",78.25559,43.82425
"1366",77.628136,43.837585
"1367",76.944534,43.85092
"1368",76.20477,43.864258
"1369",75.40887,43.877594
"1370",74.56168,43.89093
"1371",73.66811,43.904266
"1372",72.740364,43.917603
"1373",71.79309,43.93094
"1374",70.85069,43.944244
"1375",69.94003,43.95758
"1376",69.1075,43.970917
"1377",68.46784,43.984253
"1378",68.3653,43.99759
"1379",69.33456,44.010925
"1380",71.72228,44.02426
"1381",75.40887,44.037598
"1382",79.87915,44.050934
"1383",84.40559,44.06427
"1384",88.1947,44.077606
"1385",90.70939,44.090942
"1386",91.913025,44.10428
"1387",92.13519,44.117615
"1388",91.71526,44.13095
"1389",90.87053,44.144257
"1390",89.77432,44.157593
"1391",88.56092,44.17093
"1392",87.325554,44.184265
"1393",86.134125,44.1976
"1394",85.01839,44.210938
"1395",83.97345,44.224274
"1396",82.97734,44.23761
"1397",82.020294,44.250946
"1398",81.112076,44.264282
"1399",80.28687,44.27762
"1400",79.59594,44.290955
"1401",79.080795,44.30429
"1402",78.76341,44.317627
"1403",78.63645,44.330963
"1404",78.65354,44.3443
"1405",78.751205,44.357635
"1406",78.84886,44.37094
"1407",78.8806,44.384277
"1408",78.79759,44.397614
"1409",78.590065,44.41095
"1410",78.25315,44.424286
"1411",77.81369,44.437622
"1412",77.29122,44.45096
"1413",76.69306,44.464294
"1414",76.016785,44.47763
"1415",75.27215,44.490967
"1416",74.4567,44.504303
"1417",73.5729,44.51764
"1418",72.62562,44.530975
"1419",71.63195,44.54431
"1420",70.608986,44.557648
"1421",69.593346,44.570953
"1422",68.62409,44.58429
"1423",67.7525,44.597626
"1424",67.03227,44.610962
"1425",66.63676,44.6243
"1426",67.04204,44.637634
"1427",68.77547,44.65097
"1428",71.98108,44.664307
"1429",76.30244,44.677643
"1430",81.08034,44.69098
"1431",85.49691,44.704315
"1432",88.79042,44.71765
"1433",90.64103,44.730988
"1434",91.25384,44.744324
"1435",91.05119,44.75766
"1436",90.31632,44.770996
"1437",89.24696,44.784332
"1438",87.99695,44.797638
"1439",86.678566,44.810974
"1440",85.37972,44.82431
"1441",84.1297,44.837646
"1442",82.93828,44.850983
"1443",81.7908,44.86432
"1444",80.67017,44.877655
"1445",79.57641,44.89099
"1446",78.54612,44.904327
"1447",77.63302,44.917664
"1448",76.90791,44.931
"1449",76.42939,44.944336
"1450",76.21942,44.957672
"1451",76.25361,44.97101
"1452",76.46601,44.984344
"1453",76.75899,44.99765
"1454",77.03487,45.010986
"1455",77.205765,45.024323
"1456",77.22041,45.03766
"1457",77.06172,45.050995
"1458",76.72968,45.06433
"1459",76.23895,45.077667
"1460",75.6115,45.091003
"1461",74.85954,45.10434
"1462",73.99771,45.117676
"1463",73.04799,45.131012
"1464",72.05188,45.14435
"1465",71.04845,45.157684
"1466",70.08896,45.17102
"1467",69.224686,45.184357
"1468",68.489815,45.197693
"1469",67.89166,45.21103
"1470",67.43755,45.224335
"1471",67.139694,45.23767
"1472",67.04936,45.251007
"1473",67.48394,45.264343
"1474",69.02205,45.27768
"1475",72.08118,45.291016
"1476",76.524605,45.30435
"1477",81.74929,45.317688
"1478",86.91295,45.331024
"1479",91.13176,45.34436
"1480",93.77829,45.357697
"1481",94.835434,45.371033
"1482",94.75731,45.38437
"1483",94.01022,45.397705
"1484",92.86519,45.41104
"1485",91.49798,45.424347
"1486",90.020905,45.437683
"1487",88.495,45.45102
"1488",86.94469,45.464355
"1489",85.382164,45.47769
"1490",83.807434,45.491028
"1491",82.2327,45.504364
"1492",80.68238,45.5177
"1493",79.19554,45.531036
"1494",77.85031,45.544373
"1495",76.75899,45.55771
"1496",76.04852,45.571045
"1497",75.82147,45.58438
"1498",76.09735,45.597717
"1499",76.77852,45.611053
"1500",77.679405,45.62439
"1501",78.57053,45.637726
"1502",79.26391,45.65103
"1503",79.63012,45.664368
"1504",79.65453,45.677704
"1505",79.37133,45.69104
"1506",78.83421,45.704376
"1507",78.09689,45.717712
"1508",77.205765,45.73105
"1509",76.21942,45.744385
"1510",75.19646,45.75772
"1511",74.19791,45.771057
"1512",73.27993,45.784393
"1513",72.481575,45.79773
"1514",71.81262,45.811066
"1515",71.2633,45.8244
"1516",70.821396,45.837738
"1517",70.469826,45.851044
"1518",70.20859,45.86438
"1519",70.15732,45.877716
"1520",70.7628,45.891052
"1521",72.63538,45.90439
"1522",76.07294,45.917725
"1523",80.78981,45.93106
"1524",86.065765,45.944397
"1525",90.99748,45.957733
"1526",94.7158,45.97107
"1527",96.75685,45.984406
"1528",97.27688,45.99774
"1529",96.80324,46.011078
"1530",95.75342,46.024414
"1531",94.364235,46.03775
"1532",92.79195,46.051086
"1533",91.13664,46.064423
"1534",89.46426,46.07773
"1535",87.799194,46.091064
"1536",86.13901,46.1044
"1537",84.46906,46.117737
"1538",82.76982,46.131073
"1539",81.04372,46.14441
"1540",79.33959,46.157745
"1541",77.72579,46.17105
"1542",76.30732,46.184387
"1543",75.18913,46.197723
"1544",74.44694,46.21106
"1545",74.13687,46.224396
"1546",74.26383,46.237732
"1547",74.74723,46.25107
"1548",75.423515,46.264404
"1549",76.104675,46.27774
"1550",76.59785,46.291046
"1551",76.76875,46.304382
"1552",76.56611,46.31772
"1553",76.04364,46.331055
"1554",75.31365,46.34439
"1555",74.486,46.357727
"1556",73.653465,46.371063
"1557",72.884415,46.38437
"1558",72.20813,46.397705
"1559",71.622185,46.41104
"1560",71.12901,46.424377
"1561",70.71641,46.437714
"1562",70.38926,46.45105
"1563",70.149994,46.464386
"1564",70.0206,46.477722
"1565",70.05966,46.49106
"1566",70.54551,46.504364
"1567",72.09827,46.5177
"1568",75.21843,46.531036
"1569",79.84497,46.544373
"1570",85.35287,46.55771
"1571",90.86565,46.571045
"1572",95.4287,46.58438
"1573",98.32426,46.597687
"1574",99.476616,46.611023
"1575",99.36431,46.62436
"1576",98.54154,46.637695
"1577",97.289085,46.65103
"1578",95.79736,46.664368
"1579",94.18356,46.677704
"1580",92.53071,46.69104
"1581",90.89006,46.704376
"1582",89.28115,46.71768
"1583",87.711296,46.731018
"1584",86.16342,46.744354
"1585",84.63996,46.75769
"1586",83.17021,46.771027
"1587",81.81766,46.784363
"1588",80.68482,46.7977
"1589",79.87915,46.811005
"1590",79.46899,46.82434
"1591",79.44213,46.837677
"1592",79.72045,46.851013
"1593",80.15503,46.86435
"1594",80.58961,46.877686
"1595",80.89479,46.89102
"1596",80.99245,46.904358
"1597",80.867935,46.917694
"1598",80.53834,46.931
"1599",80.025635,46.944336
"1600",79.35912,46.957672
"1601",78.54368,46.97101
"1602",77.60128,46.984344
"1603",76.558784,46.99768
"1604",75.457695,47.011017
"1605",74.35172,47.024323
"1606",73.304344,47.03766
"1607",72.36683,47.050995
"1608",71.56115,47.06433
"1609",70.89464,47.077667
"1610",70.362404,47.091003
"1611",70.013275,47.10434
"1612",70.14023,47.117676
"1613",71.31701,47.131012
"1614",73.985504,47.144318
"1615",78.05783,47.157654
"1616",82.967575,47.17099
"1617",87.91638,47.184326
"1618",92.03021,47.197662
"1619",94.67429,47.211
"1620",95.78516,47.224335
"1621",95.77295,47.23764
"1622",95.082016,47.250977
"1623",93.9736,47.264313
"1624",92.63325,47.27765
"1625",91.20256,47.290985
"1626",89.76456,47.30432
"1627",88.37049,47.317657
"1628",87.03502,47.330994
"1629",85.74105,47.34433
"1630",84.471504,47.357635
"1631",83.22148,47.37097
"1632",82.022736,47.384308
"1633",80.92409,47.397644
"1634",80.0061,47.41098
"1635",79.33471,47.424316
"1636",78.94652,47.437653
"1637",78.82933,47.45096
"1638",78.93431,47.464294
"1639",79.166245,47.47763
"1640",79.4226,47.490967
"1641",79.61059,47.504303
"1642",79.66674,47.51764
"1643",79.54955,47.530975
"1644",79.24681,47.54431
"1645",78.765854,47.557648
"1646",78.12375,47.570953
"1647",77.35226,47.58429
"1648",76.48066,47.597626
"1649",75.53338,47.610962
"1650",74.527504,47.6243
"1651",73.48257,47.637634
"1652",72.413216,47.65097
"1653",71.35119,47.664276
"1654",70.33799,47.677612
"1655",69.41024,47.69095
"1656",68.60456,47.704285
"1657",67.94293,47.71762
"1658",67.46441,47.730957
"1659",67.386284,47.744293
"1660",68.23834,47.75763
"1661",70.52354,47.770966
"1662",74.26627,47.78427
"1663",78.98802,47.797607
"1664",83.949036,47.810944
"1665",88.28504,47.82428
"1666",91.27825,47.837616
"1667",92.73823,47.850952
"1668",93.00679,47.86429
"1669",92.53315,47.877594
"1670",91.59319,47.89093
"1671",90.38712,47.904266
"1672",89.04921,47.917603
"1673",87.67956,47.93094
"1674",86.33433,47.944275
"1675",85.03548,47.95761
"1676",83.775696,47.970947
"1677",82.55009,47.984283
"1678",81.3489,47.99759
"1679",80.198975,48.010925
"1680",79.14671,48.02426
"1681",78.25803,48.037598
"1682",77.61593,48.050934
"1683",77.261925,48.06427
"1684",77.205765,48.077606
"1685",77.3962,48.09091
"1686",77.730675,48.104248
"1687",78.09689,48.117584
"1688",78.38987,48.13092
"1689",78.519264,48.144257
"1690",78.4387,48.157593
"1691",78.13107,48.17093
"1692",77.60128,48.184265
"1693",76.86641,48.1976
"1694",75.95087,48.210907
"1695",74.898605,48.224243
"1696",73.75357,48.23758
"1697",72.57191,48.250916
"1698",71.40734,48.26425
"1699",70.31846,48.277588
"1700",69.35165,48.290924
"1701",68.53864,48.30423
"1702",67.88678,48.317566
"1703",67.388725,48.330902
"1704",67.03227,48.34424
"1705",66.827194,48.357574
"1706",66.91753,48.37091
"1707",67.78912,48.384247
"1708",70.01083,48.397583
"1709",73.74868,48.41092
"1710",78.61448,48.424225
"1711",83.88312,48.43756
"1712",88.673225,48.450897
"1713",92.171814,48.464233
"1714",94.03708,48.47757
"1715",94.52293,48.490906
"1716",94.12741,48.504242
"1717",93.2021,48.517548
"1718",91.966736,48.530884
"1719",90.57267,48.54422
"1720",89.11757,48.557556
"1721",87.64782,48.570892
"1722",86.17319,48.58423
"1723",84.67414,48.597565
"1724",83.13359,48.6109
"1725",81.54665,48.624237
"1726",79.940186,48.637543
"1727",78.35569,48.65088
"1728",76.88106,48.664215
"1729",75.6115,48.67755
"1730",74.65446,48.690887
"1731",74.10513,48.704224
"1732",74.01236,48.71756
"1733",74.35172,48.730865
"1734",75.003586,48.7442
"1735",75.78485,48.757538
"1736",76.49287,48.770874
"1737",76.96895,48.78421
"1738",77.134964,48.797546
"1739",76.99092,48.810883
"1740",76.58076,48.82422
"1741",75.95819,48.837555
"1742",75.18669,48.85086
"1743",74.33219,48.864197
"1744",73.44839,48.877533
"1745",72.59876,48.89087
"1746",71.837036,48.904205
"1747",71.19005,48.91754
"1748",70.660255,48.930878
"1749",70.2501,48.944183
"1750",69.94003,48.95752
"1751",69.730064,48.970856
"1752",69.627525,48.98419
"1753",69.78134,48.997528
"1754",70.67002,49.010864
"1755",72.886856,49.0242
"1756",76.646675,49.037537
"1757",81.58083,49.050873
"1758",86.95201,49.06418
"1759",91.85443,49.077515
"1760",95.448235,49.09085
"1761",97.35012,49.104187
"1762",97.80179,49.117523
"1763",97.32082,49.13086
"1764",96.28077,49.144196
"1765",94.89403,49.1575
"1766",93.3193,49.170837
"1767",91.649345,49.184174
"1768",89.94522,49.19751
"1769",88.233765,49.210846
"1770",86.51499,49.224182
"1771",84.78645,49.23752
"1772",83.04326,49.250854
"1773",81.304955,49.26419
"1774",79.622795,49.277496
"1775",78.0798,49.290833
"1776",76.76875,49.30417
"1777",75.79462,49.317505
"1778",75.24284,49.33084
"1779",75.14763,49.344177
"1780",75.46014,49.357513
"1781",76.04364,49.37082
"1782",76.71259,49.384155
"1783",77.279015,49.39749
"1784",77.60128,49.410828
"1785",77.60372,49.424164
"1786",77.29366,49.4375
"1787",76.72968,49.450836
"1788",75.98749,49.464172
"1789",75.13298,49.47751
"1790",74.23697,49.490814
"1791",73.35073,49.50415
"1792",72.51087,49.517487
"1793",71.74181,49.530823
"1794",71.05333,49.54416
"1795",70.46494,49.557495
"1796",69.979095,49.57083
"1797",69.60067,49.584137
"1798",69.337,49.597473
"1799",69.2198,49.61081
"1800",69.45907,49.624146
"1801",70.61875,49.63748
"1802",73.233536,49.650818
"1803",77.349815,49.664154
"1804",82.45243,49.67749
"1805",87.72106,49.690826
"1806",92.22308,49.704132
"1807",95.20653,49.71747
"1808",96.483406,49.730804
"1809",96.45411,49.74414
"1810",95.655754,49.757477
"1811",94.41306,49.770813
"1812",92.90425,49.78415
"1813",91.23674,49.797455
"1814",89.47646,49.81079
"1815",87.66735,49.824127
"1816",85.83139,49.837463
"1817",83.98566,49.8508
"1818",82.159454,49.864136
"1819",80.396736,49.877472
"1820",78.74876,49.89081
"1821",77.296104,49.904144
"1822",76.13397,49.91745
"1823",75.352715,49.930786
"1824",75.018234,49.944122
"1825",75.18669,49.95746
"1826",75.83856,49.970795
"1827",76.85176,49.98413
"1828",78.02609,49.997467
"1829",79.132065,50.010773
"1830",79.96704,50.02411
"1831",80.39918,50.037445
"1832",80.39185,50.05078
"1833",80.0061,50.064117
"1834",79.34203,50.077454
"1835",78.485085,50.09079
"1836",77.51339,50.104126
"1837",76.49775,50.117462
"1838",75.49676,50.130768
"1839",74.55436,50.144104
"1840",73.70229,50.15744
"1841",72.9601,50.170776
"1842",72.32777,50.184113
"1843",71.8053,50.19745
"1844",71.4049,50.210785
"1845",71.258415,50.22409
"1846",71.83215,50.237427
"1847",73.71694,50.250763
"1848",77.137405,50.2641
"1849",81.75906,50.277435
"1850",86.8568,50.29077
"1851",91.54681,50.304108
"1852",94.991684,50.317444
"1853",96.798355,50.33078
"1854",97.1841,50.344086
"1855",96.66163,50.35742
"1856",95.60937,50.370758
"1857",94.24704,50.384094
"1858",92.71381,50.39743
"1859",91.10246,50.410767
"1860",89.44961,50.424103
"1861",87.7699,50.43741
"1862",86.06821,50.450745
"1863",84.349434,50.46408
"1864",82.62577,50.477417
"1865",80.921646,50.490753
"1866",79.29565,50.50409
"1867",77.83078,50.517426
"1868",76.63203,50.53076
"1869",75.81171,50.544098
"1870",75.46258,50.557404
"1871",75.58953,50.57074
"1872",76.09247,50.584076
"1873",76.80049,50.597412
"1874",77.50851,50.61075
"1875",78.03586,50.624084
"1876",78.27268,50.63742
"1877",78.19943,50.650726
"1878",77.84543,50.664062
"1879",77.25704,50.6774
"1880",76.47822,50.690735
"1881",75.560234,50.70407
"1882",74.55924,50.717407
"1883",73.53872,50.730743
"1884",72.5597,50.74408
"1885",71.675896,50.757416
"1886",70.91173,50.77072
"1887",70.26719,50.784058
"1888",69.73495,50.797394
"1889",69.315025,50.81073
"1890",69.07088,50.824066
"1891",69.30526,50.837402
"1892",70.61875,50.85074
"1893",73.463036,50.864044
"1894",77.738,50.87738
"1895",82.8333,50.890717
"1896",87.90662,50.904053
"1897",92.07416,50.91739
"1898",94.696266,50.930725
"1899",95.729,50.94406
"1900",95.6289,50.957397
"1901",94.87938,50.970734
"1902",93.746544,50.98404
"1903",92.39399,50.997375
"1904",90.93645,51.01071
"1905",89.444725,51.024048
"1906",87.95056,51.037384
"1907",86.45884,51.05072
"1908",84.96712,51.064056
"1909",83.47295,51.077362
"1910",82.00076,51.0907
"1911",80.584724,51.104034
"1912",79.290764,51.11737
"1913",78.204315,51.130707
"1914",77.41329,51.144043
"1915",76.99092,51.15738
"1916",76.94942,51.170715
"1917",77.23506,51.18405
"1918",77.72335,51.197357
"1919",78.260475,51.210693
"1920",78.695045,51.22403
"1921",78.93431,51.237366
"1922",78.93431,51.2507
"1923",78.695045,51.264038
"1924",78.24582,51.277374
"1925",77.61349,51.29068
"1926",76.822464,51.304016
"1927",75.90692,51.317352
"1928",74.91081,51.33069
"1929",73.88052,51.344025
"1930",72.86244,51.35736
"1931",71.91028,51.370697
"1932",71.05821,51.384033
"1933",70.330666,51.39737
"1934",69.73739,51.410675
"1935",69.297935,51.42401
"1936",69.119705,51.437347
"1937",69.590904,51.450684
"1938",71.275505,51.46402
"1939",74.461586,51.477356
"1940",78.88548,51.490692
"1941",83.89288,51.503998
"1942",88.65125,51.517334
"1943",92.33784,51.53067
"1944",94.486305,51.544006
"1945",95.218735,51.557343
"1946",94.99901,51.57068
"1947",94.20065,51.584015
"1948",93.050735,51.59735
"1949",91.69573,51.610687
"1950",90.247955,51.623993
"1951",88.7831,51.63733
"1952",87.33776,51.650665
"1953",85.924164,51.664
"1954",84.54719,51.677338
"1955",83.19951,51.690674
"1956",81.91531,51.70401
"1957",80.740974,51.717316
"1958",79.7351,51.73065
"1959",78.96117,51.743988
"1960",78.46555,51.757324
"1961",78.25071,51.77066
"1962",78.27512,51.783997
"1963",78.470436,51.797333
"1964",78.74387,51.81067
"1965",78.98802,51.824005
"1966",79.11253,51.83731
"1967",79.063705,51.850647
"1968",78.82689,51.863983
"1969",78.40696,51.87732
"1970",77.821014,51.890656
"1971",77.09102,51.90399
"1972",76.23895,51.917328
"1973",75.26971,51.930634
"1974",74.20767,51.94397
"1975",73.094376,51.957306
"1976",71.98108,51.970642
"1977",70.923935,51.98398
"1978",69.98154,51.997314
"1979",69.17586,52.01065
"1980",68.52155,52.023987
"1981",68.0235,52.037323
"1982",67.70855,52.05063
"1983",67.808655,52.063965
"1984",68.88777,52.0773
"1985",71.41711,52.090637
"1986",75.37713,52.103973
"1987",80.235596,52.11731
"1988",85.20882,52.130646
"1989",89.41787,52.14395
"1990",92.17914,52.157288
"1991",93.38033,52.170624
"1992",93.42184,52.18396
"1993",92.77974,52.197296
"1994",91.72503,52.210632
"1995",90.42863,52.22397
"1996",88.99794,52.237305
"1997",87.49645,52.25064
"1998",85.9559,52.263947
"1999",84.39094,52.277283
"2000",82.79912,52.29062
"2001",81.19508,52.303955
"2002",79.588615,52.31729
"2003",78.02609,52.330627
"2004",76.57343,52.343964
"2005",75.318535,52.35727
"2006",74.356606,52.370605
"2007",73.78775,52.38394
"2008",73.67544,52.397278
"2009",74.005035,52.410614
"2010",74.666664,52.42395
"2011",75.48455,52.437286
"2012",76.26826,52.450623
"2013",76.841995,52.46396
"2014",77.100784,52.477264
"2015",77.02266,52.4906
"2016",76.63935,52.503937
"2017",76.00702,52.517273
"2018",75.194016,52.53061
"2019",74.285805,52.543945
"2020",73.358055,52.55728
"2021",72.47425,52.570587
"2022",71.675896,52.583923
"2023",70.994736,52.59726
"2024",70.42588,52.610596
"2025",69.962006,52.62393
"2026",69.58602,52.637268
"2027",69.30038,52.650604
"2028",69.1075,52.66394
"2029",69.03914,52.677277
"2030",69.312584,52.690582
"2031",70.48936,52.70392
"2032",73.109024,52.717255
"2033",77.225296,52.73059
"2034",82.337685,52.743927
"2035",87.63561,52.757263
"2036",92.20599,52.7706
"2037",95.28466,52.783905
"2038",96.66163,52.79724
"2039",96.71778,52.810577
"2040",95.975586,52.823914
"2041",94.747536,52.83725
"2042",93.221634,52.850586
"2043",91.490654,52.863922
"2044",89.62051,52.87726
"2045",87.64294,52.890594
"2046",85.58724,52.9039
"2047",83.49493,52.917236
"2048",81.42214,52.930573
"2049",79.43969,52.94391
"2050",77.625694,52.957245
"2051",76.053406,52.97058
"2052",74.79851,52.983917
"2053",73.92203,52.997223
"2054",73.4728,53.01056
"2055",73.47524,53.023895
"2056",73.92691,53.03723
"2057",74.76921,53.050568
"2058",75.84833,53.063904
"2059",76.95186,53.07724
"2060",77.8674,53.090576
"2061",78.43137,53.103912
"2062",78.56077,53.117218
"2063",78.28001,53.130554
"2064",77.696495,53.14389
"2065",76.93965,53.157227
"2066",76.11688,53.170563
"2067",75.29656,53.1839
"2068",74.53239,53.197235
"2069",73.85123,53.21054
"2070",73.26284,53.223877
"2071",72.76723,53.237213
"2072",72.36439,53.25055
"2073",72.042114,53.263885
"2074",71.79553,53.27722
"2075",71.6466,53.290558
"2076",71.72228,53.303894
"2077",72.481575,53.31723
"2078",74.54948,53.330536
"2079",78.19455,53.343872
"2080",83.09697,53.35721
"2081",88.51942,53.370544
"2082",93.539024,53.38388
"2083",97.27444,53.397217
"2084",99.283745,53.410553
"2085",99.76227,53.42386
"2086",99.244675,53.437195
"2087",98.13138,53.45053
"2088",96.66163,53.463867
"2089",94.98924,53.477203
"2090",93.21675,53.49054
"2091",91.41253,53.503876
"2092",89.61074,53.517212
"2093",87.81384,53.53055
"2094",86.01938,53.543854
"2095",84.23224,53.55719
"2096",82.47929,53.570526
"2097",80.81911,53.583862
"2098",79.34936,53.5972
"2099",78.18967,53.610535
"2100",77.45968,53.62387
"2101",77.23018,53.637177
"2102",77.48165,53.650513
"2103",78.082245,53.66385
"2104",78.84398,53.677185
"2105",79.54955,53.69052
"2106",80.03784,53.703857
"2107",80.218506,53.717194
"2108",80.08179,53.73053
"2109",79.6643,53.743866
"2110",79.009995,53.75717
"2111",78.167694,53.770508
"2112",77.18135,53.783844
"2113",76.104675,53.79718
"2114",74.99626,53.810516
"2115",73.90738,53.823853
"2116",72.8893,53.83719
"2117",71.98108,53.850494
"2118",71.21202,53.86383
"2119",70.57725,53.877167
"2120",70.07675,53.890503
"2121",69.70565,53.90384
"2122",69.51522,53.917175
"2123",69.8082,53.93051
"2124",71.185165,53.943848
"2125",74.08316,53.957184
"2126",78.382545,53.97049
"2127",83.475395,53.983826
"2128",88.52186,53.99716
"2129",92.64057,54.010498
"2130",95.20653,54.023834
"2131",96.20996,54.03717
"2132",96.10986,54.050507
"2133",95.37011,54.063812
"2134",94.22995,54.07715
"2135",92.85054,54.090485
"2136",91.33929,54.10382
"2137",89.77188,54.117157
"2138",88.20691,54.130493
"2139",86.67368,54.14383
"2140",85.18196,54.157166
"2141",83.73174,54.1705
"2142",82.3328,54.183807
"2143",81.01686,54.197144
"2144",79.84741,54.21048
"2145",78.907455,54.223816
"2146",78.27268,54.237152
"2147",77.98215,54.25049
"2148",78.01633,54.263824
"2149",78.29954,54.27713
"2150",78.72434,54.290466
"2151",79.15404,54.303802
"2152",79.47875,54.31714
"2153",79.62524,54.330475
"2154",79.5642,54.34381
"2155",79.290764,54.357147
"2156",78.82933,54.370483
"2157",78.20676,54.38382
"2158",77.44991,54.397125
"2159",76.575874,54.41046
"2160",75.59441,54.423798
"2161",74.53239,54.437134
"2162",73.428856,54.45047
"2163",72.325325,54.463806
"2164",71.27306,54.477142
"2165",70.32334,54.490448
"2166",69.5079,54.503784
"2167",68.841385,54.51712
"2168",68.33112,54.530457
"2169",68.018616,54.543793
"2170",68.18463,54.55713
"2171",69.38827,54.570465
"2172",72.07141,54.5838
"2173",76.15106,54.597137
"2174",81.06813,54.610443
"2175",86.0267,54.62378
"2176",90.15274,54.637115
"2177",92.80415,54.65045
"2178",93.91989,54.663788
"2179",93.91257,54.677124
"2180",93.23628,54.69046
"2181",92.140076,54.703766
"2182",90.80217,54.717102
"2183",89.3373,54.73044
"2184",87.82361,54.743774
"2185",86.30503,54.75711
"2186",84.8011,54.770447
"2187",83.31426,54.783783
"2188",81.83719,54.79712
"2189",80.377205,54.810455
"2190",78.9514,54.82376
"2191",77.611046,54.837097
"2192",76.436714,54.850433
"2193",75.52117,54.86377
"2194",74.96208,54.877106
"2195",74.813156,54.89044
"2196",75.04509,54.903778
"2197",75.543144,54.917084
"2198",76.14618,54.93042
"2199",76.6833,54.943756
"2200",77.01778,54.957092
"2201",77.09102,54.97043
"2202",76.88594,54.983765
"2203",76.42695,54.9971
"2204",75.7409,55.010437
"2205",74.864426,55.023773
"2206",73.85855,55.03708
"2207",72.798965,55.050415
"2208",71.74914,55.06375
"2209",70.77501,55.077087
"2210",69.91318,55.090424
"2211",69.1783,55.10376
"2212",68.56794,55.117096
"2213",68.07965,55.1304
"2214",67.701225,55.143738
"2215",67.43511,55.157074
"2216",67.28619,55.17041
"2217",67.29595,55.183746
"2218",67.69146,55.197083
"2219",69.048904,55.21042
"2220",71.91028,55.223755
"2221",76.29511,55.23709
"2222",81.65896,55.250397
"2223",87.183945,55.263733
"2224",91.932556,55.27707
"2225",95.14061,55.290405
"2226",96.620125,55.30374
"2227",96.764175,55.317078
"2228",96.10254,55.330414
"2229",94.95262,55.34372
"2230",93.51217,55.357056
"2231",91.913025,55.37039
"2232",90.23331,55.383728
"2233",88.51209,55.397064
"2234",86.75426,55.4104
"2235",84.96956,55.423737
"2236",83.158005,55.437073
"2237",81.35134,55.45041
"2238",79.59594,55.463715
"2239",77.97238,55.47705
"2240",76.575874,55.490387
"2241",75.511406,55.503723
"2242",74.864426,55.51706
"2243",74.72282,55.530396
"2244",75.09636,55.54373
"2245",75.894714,55.557037
"2246",76.927444,55.570374
"2247",77.962616,55.58371
"2248",78.77806,55.597046
"2249",79.21019,55.610382
"2250",79.1931,55.62372
"2251",78.768295,55.637054
"2252",78.0383,55.65039
"2253",77.11299,55.663727
"2254",76.09979,55.677032
"2255",75.08415,55.69037
"2256",74.13199,55.703705
"2257",73.28481,55.71704
"2258",72.55726,55.730377
"2259",71.9469,55.743713
"2260",71.45617,55.75705
"2261",71.07774,55.770355
"2262",70.79698,55.78369
"2263",70.62852,55.797028
"2264",70.660255,55.810364
"2265",71.29015,55.8237
"2266",73.1432,55.837036
"2267",76.56855,55.850372
"2268",81.31716,55.86371
"2269",86.68833,55.877045
"2270",91.78607,55.89035
"2271",95.70702,55.903687
"2272",97.92386,55.917023
"2273",98.55375,55.93036
"2274",98.126495,55.943695
"2275",97.076675,55.95703
"2276",95.65331,55.970367
"2277",94.01511,55.983673
"2278",92.26704,55.99701
"2279",90.46525,56.010345
"2280",88.639046,56.02368
"2281",86.79332,56.037018
"2282",84.9305,56.050354
"2283",83.05058,56.06369
"2284",81.180435,56.077026
"2285",79.37377,56.090363
"2286",77.70626,56.10367
"2287",76.27314,56.117004
"2288",75.1696,56.13034
"2289",74.476234,56.143677
"2290",74.26139,56.157013
"2291",74.529945,56.17035
"2292",75.174484,56.183685
"2293",76.00946,56.19699
"2294",76.82002,56.210327
"2295",77.401085,56.223663
"2296",77.62325,56.237
"2297",77.435265,56.250336
"2298",76.893265,56.26367
"2299",76.09979,56.277008
"2300",75.159836,56.290344
"2301",74.161285,56.30368
"2302",73.17494,56.316986
"2303",72.256966,56.330322
"2304",71.42443,56.34366
"2305",70.68467,56.356995
"2306",70.030365,56.37033
"2307",69.46639,56.383667
"2308",69.014725,56.397003
"2309",68.70954,56.41031
"2310",68.65095,56.423645
"2311",69.261314,56.43698
"2312",71.1461,56.450317
"2313",74.617836,56.463654
"2314",79.38354,56.47699
"2315",84.72297,56.490326
"2316",89.74502,56.503662
"2317",93.57076,56.517
"2318",95.71679,56.530304
"2319",96.33204,56.54364
"2320",95.96094,56.556976
"2321",95.03563,56.570312
"2322",93.78317,56.58365
"2323",92.34272,56.596985
"2324",90.78996,56.61032
"2325",89.16884,56.623627
"2326",87.49401,56.636963
"2327",85.770355,56.6503
"2328",84.00275,56.663635
"2329",82.20828,56.67697
"2330",80.44068,56.690308
"2331",78.77074,56.703644
"2332",77.30587,56.71698
"2333",76.1535,56.730316
"2334",75.41863,56.74362
"2335",75.18913,56.756958
"2336",75.47967,56.770294
"2337",76.20233,56.78363
"2338",77.17647,56.796967
"2339",78.17502,56.810303
"2340",78.9807,56.82364
"2341",79.44457,56.836945
"2342",79.51293,56.85028
"2343",79.21263,56.863617
"2344",78.61204,56.876953
"2345",77.77951,56.89029
"2346",76.79317,56.903625
"2347",75.73113,56.91696
"2348",74.67155,56.930298
"2349",73.687645,56.943634
"2350",72.80873,56.95694
"2351",72.05188,56.970276
"2352",71.4049,56.983612
"2353",70.86534,56.99695
"2354",70.44785,57.010284
"2355",70.276955,57.02362
"2356",70.81407,57.036957
"2357",72.66468,57.050262
"2358",76.10956,57.0636
"2359",80.833755,57.076935
"2360",86.117035,57.09027
"2361",91.06584,57.103607
"2362",94.80858,57.116943
"2363",96.89113,57.13028
"2364",97.48684,57.143616
"2365",97.11574,57.15695
"2366",96.1709,57.170258
"2367",94.86961,57.183594
"2368",93.35348,57.19693
"2369",91.734795,57.210266
"2370",90.08194,57.223602
"2371",88.446175,57.23694
"2372",86.84215,57.250275
"2373",85.2723,57.26358
"2374",83.72686,57.276917
"2375",82.20828,57.290253
"2376",80.75319,57.30359
"2377",79.43969,57.316925
"2378",78.380104,57.33026
"2379",77.66476,57.343597
"2380",77.349815,57.356934
"2381",77.40597,57.37027
"2382",77.738,57.383575
"2383",78.20187,57.39691
"2384",78.641335,57.410248
"2385",78.93431,57.423584
"2386",79.00267,57.43692
"2387",78.81712,57.450256
"2388",78.380104,57.463593
"2389",77.71603,57.4769
"2390",76.84688,57.490234
"2391",75.81415,57.50357
"2392",74.66178,57.516907
"2393",73.45083,57.530243
"2394",72.24231,57.54358
"2395",71.10216,57.556915
"2396",70.07431,57.57025
"2397",69.20271,57.583588
"2398",68.49714,57.596893
"2399",67.9527,57.61023
"2400",67.5816,57.623566
"2401",67.54742,57.6369
"2402",68.370186,57.650238
"2403",70.62119,57.663574
"2404",74.42985,57.67691
"2405",79.36645,57.690216
"2406",84.664375,57.703552
"2407",89.41543,57.71689
"2408",92.806595,57.730225
"2409",94.537575,57.74356
"2410",94.91112,57.756897
"2411",94.44724,57.770233
"2412",93.48531,57.78357
"2413",92.23529,57.796906
"2414",90.84123,57.81021
"2415",89.391014,57.823547
"2416",87.940796,57.836884
"2417",86.502785,57.85022
"2418",85.07942,57.863556
"2419",83.66094,57.876892
"2420",82.247345,57.89023
"2421",80.867935,57.903534
"2422",79.588615,57.91687
"2423",78.502174,57.930206
"2424",77.7087,57.943542
"2425",77.27657,57.95688
"2426",77.208206,57.970215
"2427",77.437706,57.98355
"2428",77.85275,57.996887
"2429",78.3093,58.010223
"2430",78.677956,58.02353
"2431",78.873276,58.036865
"2432",78.84886,58.0502
"2433",78.59251,58.063538
"2434",78.12863,58.076874
"2435",77.47677,58.09021
"2436",76.65888,58.103546
"2437",75.699394,58.11685
"2438",74.64469,58.130188
"2439",73.53628,58.143524
"2440",72.43275,58.15686
"2441",71.39269,58.170197
"2442",70.46006,58.183533
"2443",69.65438,58.19687
"2444",68.98787,58.210205
"2445",68.46784,58.22354
"2446",68.155334,58.236847
"2447",68.36286,58.250183
"2448",69.70077,58.26352
"2449",72.60853,58.276855
"2450",76.97627,58.29019
"2451",82.19119,58.303528
"2452",87.40856,58.316864
"2453",91.71526,58.33017
"2454",94.452126,58.343506
"2455",95.57519,58.356842
"2456",95.53124,58.37018
"2457",94.79881,58.383514
"2458",93.65377,58.39685
"2459",92.28901,58.410187
"2460",90.83391,58.423523
"2461",89.36904,58.43686
"2462",87.940796,58.450165
"2463",86.56138,58.4635
"2464",85.22102,58.476837
"2465",83.91974,58.490173
"2466",82.669716,58.50351
"2467",81.50027,58.516846
"2468",80.46998,58.53018
"2469",79.64721,58.543488
"2470",79.09056,58.556824
"2471",78.8098,58.57016
"2472",78.79271,58.583496
"2473",78.96361,58.596832
"2474",79.22972,58.61017
"2475",79.48852,58.623505
"2476",79.65942,58.63684
"2477",79.67895,58.650177
"2478",79.52758,58.663483
"2479",79.20775,58.67682
"2480",78.729225,58.690155
"2481",78.11154,58.70349
"2482",77.366905,58.716827
"2483",76.507515,58.730164
"2484",75.52361,58.7435
"2485",74.4152,58.756805
"2486",73.18959,58.77014
"2487",71.89807,58.783478
"2488",70.608986,58.796814
"2489",69.402916,58.81015
"2490",68.3653,58.823486
"2491",67.60357,58.836823
"2492",67.41314,58.85016
"2493",68.35554,58.863495
"2494",70.84337,58.8768
"2495",74.78386,58.890137
"2496",79.61547,58.903473
"2497",84.55207,58.91681
"2498",88.71229,58.930145
"2499",91.44915,58.94348
"2500",92.66987,58.956818
"2501",92.76509,58.970123
"2502",92.15228,58.98346
"2503",91.09514,58.996796
"2504",89.78409,59.01013
"2505",88.36805,59.023468
"2506",86.94469,59.036804
"2507",85.57015,59.05014
"2508",84.25422,59.063477
"2509",82.98955,59.076813
"2510",81.761505,59.09012
"2511",80.570076,59.103455
"2512",79.447014,59.11679
"2513",78.45823,59.130127
"2514",77.68185,59.143463
"2515",77.17647,59.1568
"2516",76.97139,59.170135
"2517",77.051956,59.18344
"2518",77.35226,59.196777
"2519",77.77219,59.210114
"2520",78.20187,59.22345
"2521",78.551,59.236786
"2522",78.75365,59.250122
"2523",78.77318,59.26346
"2524",78.607155,59.276794
"2525",78.2678,59.29013
"2526",77.77951,59.303436
"2527",77.14961,59.316772
"2528",76.39033,59.33011
"2529",75.511406,59.343445
"2530",74.52018,59.35678
"2531",73.44106,59.370117
"2532",72.31556,59.383453
"2533",71.199814,59.39676
"2534",70.14755,59.410095
"2535",69.21492,59.42343
"2536",68.49714,59.436768
"2537",68.32868,59.450104
"2538",69.280846,59.46344
"2539",71.75891,59.476776
"2540",75.65301,59.490112
"2541",80.396736,59.50345
"2542",85.20393,59.516754
"2543",89.21034,59.53009
"2544",91.80072,59.543427
"2545",92.928665,59.556763
"2546",92.9897,59.5701
"2547",92.38911,59.583435
"2548",91.35882,59.59677
"2549",90.06973,59.610077
"2550",88.64637,59.623413
"2551",87.17906,59.63675
"2552",85.70931,59.650085
"2553",84.25178,59.66342
"2554",82.804,59.676758
"2555",81.36355,59.690094
"2556",79.94751,59.70343
"2557",78.61448,59.716766
"2558",77.46212,59.730072
"2559",76.595406,59.74341
"2560",76.09979,59.756744
"2561",75.99481,59.77008
"2562",76.23407,59.783417
"2563",76.717476,59.796753
"2564",77.315636,59.81009
"2565",77.891815,59.823395
"2566",78.328835,59.83673
"2567",78.551,59.850067
"2568",78.52903,59.863403
"2569",78.24826,59.87674
"2570",77.730675,59.890076
"2571",77.015335,59.90341
"2572",76.14862,59.916748
"2573",75.16228,59.930084
"2574",74.10269,59.94339
"2575",73.01137,59.956726
"2576",71.94446,59.970062
"2577",70.95567,59.9834
"2578",70.098724,59.996735
"2579",69.41024,60.01007
"2580",68.946365,60.023407
"2581",68.95857,60.036713
"2582",69.996185,60.05005
"2583",72.52796,60.063385
"2584",76.52949,60.07672
"2585",81.48806,60.090057
"2586",86.64683,60.103394
"2587",91.13176,60.11673
"2588",94.239716,60.130066
"2589",95.799805,60.143402
"2590",96.15625,60.156708
"2591",95.73144,60.170044
"2592",94.79393,60.18338
"2593",93.54635,60.196716
"2594",92.157166,60.210052
"2595",90.75334,60.22339
"2596",89.40078,60.236725
"2597",88.12634,60.25003
"2598",86.922714,60.263367
"2599",85.77768,60.276703
"2600",84.69611,60.29004
"2601",83.702446,60.303375
"2602",82.845505,60.31671
"2603",82.178986,60.330048
"2604",81.73708,60.343384
"2605",81.51003,60.35672
"2606",81.446556,60.370026
"2607",81.461205,60.38336
"2608",81.47341,60.396698
"2609",81.42214,60.410034
"2610",81.26833,60.42337
"2611",81.01198,60.436707
"2612",80.66529,60.450043
"2613",80.24292,60.46335
"2614",79.74731,60.476685
"2615",79.17601,60.49002
"2616",78.53147,60.503357
"2617",77.8259,60.516693
"2618",77.07393,60.53003
"2619",76.29267,60.543365
"2620",75.48943,60.5567
"2621",74.65934,60.570038
"2622",73.79263,60.583344
"2623",72.89662,60.59668
"2624",72.061646,60.610016
"2625",71.60021,60.623352
"2626",71.96155,60.63669
"2627",73.45815,60.650024
"2628",76.06561,60.66336
"2629",79.43725,60.676666
"2630",83.01396,60.690002
"2631",86.134125,60.70334
"2632",88.33387,60.716675
"2633",89.495995,60.73001
"2634",89.79874,60.743347
"2635",89.461815,60.756683
"2636",88.67811,60.77002
"2637",87.623405,60.783356
"2638",86.44907,60.79666
"2639",85.26498,60.809998
"2640",84.13458,60.823334
"2641",83.09453,60.83667
"2642",82.144806,60.850006
"2643",81.26345,60.863342
"2644",80.44068,60.87668
"2645",79.67895,60.889984
"2646",79.01488,60.90332
"2647",78.48997,60.916656
"2648",78.12863,60.929993
"2649",77.945526,60.94333
"2650",77.92355,60.956665
"2651",78.00168,60.97
"2652",78.12131,60.983337
"2653",78.22385,60.996674
"2654",78.27268,61.00998
"2655",78.23361,61.023315
"2656",78.09689,61.03665
"2657",77.874725,61.049988
"2658",77.58175,61.063324
"2659",77.23506,61.07666
"2660",76.84932,61.089996
"2661",76.439156,61.103302
"2662",75.99725,61.11664
"2663",75.526054,61.129974
"2664",75.035324,61.14331
"2665",74.527504,61.156647
"2666",74.01724,61.169983
"2667",73.51675,61.18332
"2668",73.05531,61.196655
"2669",72.75014,61.20999
"2670",72.84291,61.223297
"2671",73.61196,61.236633
"2672",75.18425,61.24997
"2673",77.48165,61.263306
"2674",80.22339,61.27664
"2675",82.97978,61.289978
"2676",85.31869,61.303314
"2677",86.9691,61.31662
"2678",87.86755,61.329956
"2679",88.09949,61.343292
"2680",87.78943,61.35663
"2681",87.09117,61.369965
"2682",86.151215,61.3833
"2683",85.09163,61.396637
"2684",84.02472,61.409973
"2685",83.01396,61.42331
"2686",82.07645,61.436615
"2687",81.20241,61.44995
"2688",80.38453,61.463287
"2689",79.61547,61.476624
"2690",78.9099,61.48996
"2691",78.30198,61.503296
"2692",77.83078,61.516632
"2693",77.52071,61.529938
"2694",77.36935,61.543274
"2695",77.349815,61.55661
"2696",77.418175,61.569946
"2697",77.53048,61.583282
"2698",77.64767,61.59662
"2699",77.73556,61.609955
"2700",77.77707,61.62329
"2701",77.7673,61.636627
"2702",77.70626,61.649933
"2703",77.60616,61.66327
"2704",77.46456,61.676605
"2705",77.281456,61.68994
"2706",77.03731,61.703278
"2707",76.73701,61.716614
"2708",76.39277,61.72995
"2709",76.02411,61.743256
"2710",75.65301,61.75659
"2711",75.29412,61.769928
"2712",74.949875,61.783264
"2713",74.62028,61.7966
"2714",74.322426,61.809937
"2715",74.158844,61.823273
"2716",74.35172,61.83661
"2717",76.595406,61.86325
"2718",78.69749,61.876587
"2719",81.20729,61.889923
"2720",83.75372,61.90326
"2721",85.9559,61.916595
"2722",87.54284,61.92993
"2723",88.431526,61.943268
"2724",88.66102,61.956573
"2725",88.34852,61.96991
"2726",87.63561,61.983246
"2727",86.678566,61.996582
"2728",85.609215,62.00992
"2729",84.525215,62.023254
"2730",83.4876,62.03659
"2731",82.530556,62.049927
"2732",81.65896,62.063263
"2733",80.86549,62.07657
"2734",80.147705,62.089905
"2735",79.51293,62.10324
"2736",78.98558,62.116577
"2737",78.59495,62.129913
"2738",78.365456,62.14325
"2739",78.29954,62.156586
"2740",78.37034,62.16989
"2741",78.521706,62.183228
"2742",78.692604,62.196564
"2743",78.836655,62.2099
"2744",78.91234,62.223236
"2745",78.89525,62.236572
"2746",78.78294,62.24991
"2747",78.58762,62.263245
"2748",78.31907,62.27658
"2749",77.98459,62.289886
"2750",77.59884,62.303223
"2751",77.17403,62.31656
"2752",76.72236,62.329895
"2753",76.26826,62.34323
"2754",75.83368,62.356567
"2755",75.43328,62.369904
"2756",75.0695,62.38321
"2757",74.7277,62.396545
"2758",74.390785,62.40988
"2759",74.05142,62.423218
"2760",73.721825,62.436554
"2761",73.47524,62.44989
"2762",73.51186,62.463226
"2763",74.09781,62.476562
"2764",75.423515,62.4899
"2765",77.47433,62.503204
"2766",80.045166,62.51654
"2767",82.77226,62.529877
"2768",85.21126,62.543213
"2769",87.01305,62.55655
"2770",88.03845,62.569885
"2771",88.33875,62.58322
"2772",88.04089,62.596527
"2773",87.2987,62.609863
"2774",86.28062,62.6232
"2775",85.12825,62.636536
"2776",83.966125,62.64987
"2777",82.865036,62.663208
"2778",81.85672,62.676544
"2779",80.94118,62.68988
"2780",80.09888,62.703217
"2781",79.32494,62.716522
"2782",78.63401,62.72986
"2783",78.06027,62.743195
"2784",77.65255,62.75653
"2785",77.44259,62.769867
"2786",77.4255,62.783203
"2787",77.56222,62.79654
"2788",77.789276,62.809845
"2789",78.04074,62.82318
"2790",78.26292,62.836517
"2791",78.4094,62.849854
"2792",78.46311,62.86319
"2793",78.42405,62.876526
"2794",78.29221,62.889862
"2795",78.07248,62.9032
"2796",77.77951,62.916534
"2797",77.43282,62.92984
"2798",77.05928,62.943176
"2799",76.68574,62.956512
"2800",76.33906,62.96985
"2801",76.02167,62.983185
"2802",75.72869,62.99652
"2803",75.45281,63.009857
"2804",75.191574,63.023163
"2805",74.94255,63.0365
"2806",74.71793,63.049835
"2807",74.5153,63.06317
"2808",74.34684,63.076508
"2809",74.28336,63.089844
"2810",74.54215,63.10318
"2811",75.39178,63.116516
"2812",76.9836,63.129852
"2813",79.26635,63.143158
"2814",81.99344,63.156494
"2815",84.76448,63.16983
"2816",87.13023,63.183167
"2817",88.780655,63.196503
"2818",89.64004,63.20984
"2819",89.78409,63.223175
"2820",89.34951,63.23648
"2821",88.495,63.249817
"2822",87.38171,63.263153
"2823",86.14633,63.27649
"2824",84.90608,63.289825
"2825",83.7293,63.30316
"2826",82.64774,63.316498
"2827",81.67361,63.329834
"2828",80.80202,63.34317
"2829",80.025635,63.356476
"2830",79.361565,63.369812
"2831",78.836655,63.38315
"2832",78.48264,63.396484
"2833",78.31663,63.40982
"2834",78.328835,63.423157
"2835",78.49729,63.436493
"2836",78.768295,63.4498
"2837",79.08324,63.463135
"2838",79.37621,63.47647
"2839",79.59838,63.489807
"2840",79.70092,63.503143
"2841",79.66674,63.51648
"2842",79.49828,63.529816
"2843",79.2224,63.54315
"2844",78.86595,63.556488
"2845",78.467995,63.569794
"2846",78.05539,63.58313
"2847",77.642784,63.596466
"2848",77.23506,63.609802
"2849",76.841995,63.62314
"2850",76.46357,63.636475
"2851",76.102234,63.64981
"2852",75.772644,63.663116
"2853",75.48699,63.676453
"2854",75.245285,63.68979
"2855",75.05974,63.703125
"2856",74.9987,63.71646
"2857",75.23796,63.729797
"2858",76.00702,63.743134
"2859",77.452354,63.75647
"2860",79.551994,63.769806
"2861",82.10086,63.78311
"2862",84.749825,63.796448
"2863",87.08385,63.809784
"2864",88.7831,63.82312
"2865",89.72793,63.836456
"2866",89.9501,63.849792
"2867",89.57412,63.86313
"2868",88.7538,63.876434
"2869",87.66979,63.88977
"2870",86.48325,63.903107
"2871",85.313805,63.916443
"2872",84.23468,63.92978
"2873",83.28008,63.943115
"2874",82.44511,63.95645
"2875",81.71023,63.969788
"2876",81.06081,63.983124
"2877",80.47242,63.99643
"2878",79.954834,64.009766
"2879",79.5227,64.0231
"2880",79.19798,64.03644
"2881",78.99779,64.049774
"2882",78.92943,64.06311
"2883",78.96605,64.07645
"2884",79.078354,64.08975
"2885",79.20775,64.10309
"2886",79.30785,64.116425
"2887",79.32983,64.12976
"2888",79.259026,64.1431
"2889",79.08568,64.15643
"2890",78.80736,64.16977
"2891",78.45579,64.183105
"2892",78.06271,64.19644
"2893",77.662315,64.20975
"2894",77.281456,64.22308
"2895",76.946976,64.23642
"2896",76.66621,64.249756
"2897",76.439156,64.26309
"2898",76.26093,64.27643
"2899",76.104675,64.289764
"2900",75.945984,64.30307
"2901",75.76044,64.31641
"2902",75.53338,64.32974
"2903",75.29412,64.34308
"2904",75.18669,64.356415
"2905",75.46014,64.36975
"2906",76.35615,64.38309
"2907",77.97482,64.39642
"2908",80.21118,64.40976
"2909",82.78447,64.423065
"2910",85.29427,64.4364
"2911",87.34753,64.44974
"2912",88.70008,64.46307
"2913",89.31777,64.47641
"2914",89.26894,64.489746
"2915",88.670784,64.50308
"2916",87.67712,64.51639
"2917",86.44907,64.529724
"2918",85.12825,64.54306
"2919",83.82941,64.5564
"2920",82.62333,64.56973
"2921",81.53933,64.58307
"2922",80.57496,64.596405
"2923",79.71557,64.60974
"2924",78.95384,64.62308
"2925",78.294655,64.63638
"2926",77.76242,64.64972
"2927",77.38155,64.663055
"2928",77.16914,64.67639
"2929",77.12764,64.68973
"2930",77.2375,64.703064
"2931",77.454796,64.7164
"2932",77.72579,64.729706
"2933",77.98703,64.74304
"2934",78.184784,64.75638
"2935",78.28001,64.769714
"2936",78.26292,64.78305
"2937",78.1384,64.79639
"2938",77.92844,64.80972
"2939",77.65499,64.82306
"2940",77.33761,64.836395
"2941",76.98604,64.8497
"2942",76.612495,64.86304
"2943",76.226746,64.87637
"2944",75.83856,64.88971
"2945",75.45037,64.903046
"2946",75.06706,64.91638
"2947",74.686195,64.92972
"2948",74.302895,64.94302
"2949",73.917145,64.95636
"2950",73.53872,64.969696
"2951",73.21889,64.98303
"2952",73.14076,64.99637
"2953",73.62417,65.009705
"2954",74.932785,65.02304
"2955",77.09834,65.03638
"2956",79.89624,65.04971
"2957",82.92607,65.06302
"2958",85.677574,65.076355
"2959",87.71862,65.08969
"2960",88.86366,65.10303
"2961",89.20058,65.11636
"2962",88.90761,65.1297
"2963",88.13855,65.143036
"2964",87.06676,65.15634
"2965",85.841156,65.16968
"2966",84.5716,65.183014
"2967",83.33135,65.19635
"2968",82.15213,65.20969
"2969",81.05104,65.22302
"2970",80.03296,65.23636
"2971",79.08812,65.249695
"2972",78.23117,65.26303
"2973",77.50118,65.27634
"2974",76.95186,65.28967
"2975",76.63691,65.30301
"2976",76.578316,65.316345
"2977",76.76143,65.32968
"2978",77.12764,65.34302
"2979",77.593956,65.35635
"2980",78.065155,65.36966
"2981",78.45823,65.382996
"2982",78.71946,65.39633
"2983",78.819565,65.40967
"2984",78.75853,65.423004
"2985",78.55833,65.43634
"2986",78.25315,65.44968
"2987",77.874725,65.46301
"2988",77.44747,65.47635
"2989",76.97383,65.489655
"2990",76.473335,65.50299
"2991",75.94354,65.51633
"2992",75.39178,65.52966
"2993",74.8156,65.543
"2994",74.21744,65.556335
"2995",73.599754,65.56967
"2996",72.97719,65.58298
"2997",72.37415,65.59631
"2998",71.82727,65.60965
"2999",71.43908,65.622986
"3000",71.5758,65.63632
"3001",72.7013,65.64966
"3002",75.01091,65.662994
"3003",78.28977,65.67633
"3004",82.03494,65.68967
"3005",85.59945,65.70297
"3006",88.31922,65.71631
"3007",89.84268,65.729645
"3008",90.252846,65.74298
"3009",89.89151,65.75632
"3010",89.01015,65.76965
"3011",87.801636,65.78299
"3012",86.417336,65.796295
"3013",84.98665,65.80963
"3014",83.59014,65.82297
"3015",82.27177,65.8363
"3016",81.03395,65.84964
"3017",79.8645,65.862976
"3018",78.74876,65.87631
"3019",77.696495,65.88965
"3020",76.734566,65.902985
"3021",75.91669,65.91629
"3022",75.32586,65.92963
"3023",75.04997,65.94296
"3024",75.15007,65.9563
"3025",75.63348,65.969635
"3026",76.43183,65.98297
"3027",77.40353,65.99631
"3028",78.37766,66.00961
"3029",79.19554,66.02295
"3030",79.75708,66.036285
"3031",80.04028,66.04962
"3032",80.08423,66.06296
"3033",79.94507,66.076294
"3034",79.674065,66.08963
"3035",79.30785,66.10297
"3036",78.86107,66.1163
"3037",78.34348,66.12961
"3038",77.75754,66.142944
"3039",77.11055,66.15628
"3040",76.41718,66.16962
"3041",75.701836,66.18295
"3042",74.98894,66.19629
"3043",74.29557,66.209625
"3044",73.65835,66.22293
"3045",73.14076,66.23627
"3046",73.06752,66.2496
"3047",73.944,66.26294
"3048",76.104675,66.276276
"3049",79.415276,66.28961
"3050",83.39971,66.30295
"3051",87.39391,66.316284
"3052",90.64347,66.32962
"3053",92.647896,66.342926
"3054",93.39498,66.35626
"3055",93.221634,66.3696
"3056",92.420845,66.382935
"3057",91.209885,66.39627
"3058",89.76456,66.40961
"3059",88.21912,66.42294
"3060",86.678566,66.43625
"3061",85.20149,66.449585
"3062",83.81964,66.46292
"3063",82.530556,66.47626
"3064",81.33181,66.48959
"3065",80.23071,66.50293
"3066",79.24437,66.516266
"3067",78.42161,66.5296
"3068",77.823456,66.54294
"3069",77.51339,66.556244
"3070",77.51583,66.56958
"3071",77.81369,66.58292
"3072",78.32639,66.59625
"3073",78.941635,66.60959
"3074",79.537346,66.622925
"3075",80.0061,66.63626
"3076",80.28199,66.64957
"3077",80.36256,66.6629
"3078",80.26002,66.67624
"3079",80.01343,66.689575
"3080",79.656975,66.70291
"3081",79.22972,66.71625
"3082",78.75609,66.72958
"3083",78.238495,66.74292
"3084",77.67696,66.756256
"3085",77.07149,66.76956
"3086",76.422066,66.7829
"3087",75.72137,66.796234
"3088",74.98894,66.80957
"3089",74.232086,66.82291
"3090",73.48989,66.83624
"3091",72.80873,66.84958
"3092",72.45228,66.862885
"3093",72.9308,66.87622
"3094",74.669106,66.88956
"3095",77.662315,66.90289
"3096",81.514915,66.91623
"3097",85.60189,66.929565
"3098",89.17372,66.9429
"3099",91.61761,66.95624
"3100",92.78218,66.969574
"3101",92.91646,66.98288
"3102",92.34516,66.996216
"3103",91.29046,67.00955
"3104",89.9379,67.02289
"3105",88.45106,67.036224
"3106",86.94957,67.04956
"3107",85.50912,67.0629
"3108",84.16144,67.0762
"3109",82.90898,67.08954
"3110",81.7322,67.102875
"3111",80.61646,67.11621
"3112",79.5642,67.12955
"3113",78.60227,67.14288
"3114",77.786835,67.15622
"3115",77.171585,67.169556
"3116",76.82002,67.18289
"3117",76.74433,67.1962
"3118",76.93965,67.20953
"3119",77.330284,67.22287
"3120",77.82834,67.236206
"3121",78.31907,67.24954
"3122",78.709694,67.26288
"3123",78.93431,67.276215
"3124",78.98314,67.28952
"3125",78.86351,67.30286
"3126",78.59739,67.31619
"3127",78.21164,67.32953
"3128",77.72579,67.342865
"3129",77.16182,67.3562
"3130",76.53437,67.36954
"3131",75.85077,67.38287
"3132",75.123215,67.39621
"3133",74.36149,67.409515
"3134",73.57046,67.42285
"3135",72.7599,67.43619
"3136",71.95422,67.449524
"3137",71.185165,67.46286
"3138",70.54795,67.4762
"3139",70.43809,67.48953
"3140",71.4464,67.50284
"3141",73.917145,67.516174
"3142",77.66964,67.52951
"3143",82.13504,67.54285
"3144",86.536964,67.55618
"3145",90.0502,67.56952
"3146",92.157166,67.582855
"3147",92.90669,67.59619
"3148",92.70893,67.60953
"3149",91.90814,67.62283
"3150",90.721596,67.63617
"3151",89.31289,67.649506
"3152",87.818726,67.66284
"3153",86.32456,67.67618
"3154",84.88411,67.689514
"3155",83.526665,67.70285
"3156",82.252235,67.716156
"3157",81.058365,67.72949
"3158",79.940186,67.74283
"3159",78.922104,67.756165
"3160",78.04318,67.7695
"3161",77.36202,67.78284
"3162",76.94209,67.79617
"3163",76.824905,67.80951
"3164",76.998245,67.822845
"3165",77.41329,67.83615
"3166",77.9675,67.84949
"3167",78.54124,67.86282
"3168",79.01732,67.87616
"3169",79.3225,67.889496
"3170",79.42504,67.90283
"3171",79.327385,67.91617
"3172",79.05882,67.929474
"3173",78.64622,67.94281
"3174",78.11398,67.95615
"3175",77.47921,67.96948
"3176",76.75166,67.98282
"3177",75.93622,67.996155
"3178",75.037766,68.00949
"3179",74.07095,68.02283
"3180",73.06264,68.03616
"3181",72.05188,68.04947
"3182",71.06798,68.062805
"3183",70.149994,68.07614
"3184",69.35165,68.08948
"3185",68.81697,68.10281
"3186",69.04402,68.11615
"3187",70.64561,68.129486
"3188",73.83414,68.14279
"3189",78.23361,68.15613
"3190",83.12871,68.169464
"3191",87.65026,68.1828
"3192",90.95354,68.19614
"3193",92.6601,68.20947
"3194",93.00191,68.22281
"3195",92.48188,68.236145
"3196",91.422295,68.24948
"3197",90.040436,68.26279
"3198",88.48768,68.27612
"3199",86.873886,68.28946
"3200",85.26986,68.302795
"3201",83.70733,68.31613
"3202",82.19119,68.32947
"3203",80.71168,68.342804
"3204",79.26635,68.35611
"3205",77.86252,68.369446
"3206",76.51972,68.38278
"3207",75.284355,68.39612
"3208",74.2272,68.409454
"3209",73.44106,68.42279
"3210",73.02846,68.43613
"3211",73.06996,68.44946
"3212",73.57046,68.4628
"3213",74.42741,68.476105
"3214",75.46502,68.48944
"3215",76.47578,68.50278
"3216",77.281456,68.51611
"3217",77.77219,68.52945
"3218",77.93576,68.542786
"3219",77.80148,68.55612
"3220",77.42794,68.56943
"3221",76.86153,68.58276
"3222",76.14618,68.5961
"3223",75.31365,68.609436
"3224",74.4152,68.62277
"3225",73.48989,68.63611
"3226",72.58167,68.649445
"3227",71.724724,68.66278
"3228",70.95079,68.67612
"3229",70.28672,68.68942
"3230",69.77646,68.70276
"3231",69.5494,68.716095
"3232",70.101166,68.72943
"3233",72.09094,68.74277
"3234",75.7702,68.7561
"3235",80.743416,68.76944
"3236",86.20737,68.782745
"3237",91.19524,68.79608
"3238",94.79393,68.80942
"3239",96.56397,68.822754
"3240",96.76662,68.83609
"3241",96.00244,68.84943
"3242",94.68894,68.86276
"3243",93.05562,68.8761
"3244",91.25872,68.889435
"3245",89.393456,68.90274
"3246",87.51598,68.91608
"3247",85.65072,68.92941
"3248",83.81232,68.94275
"3249",82.005646,68.956085
"3250",80.25025,68.96942
"3251",78.57053,68.98276
"3252",77.00557,68.99606
"3253",75.5993,69.0094
"3254",74.4152,69.022736
"3255",73.52651,69.03607
"3256",73.02846,69.04941
"3257",73.00404,69.062744
"3258",73.494774,69.07608
"3259",74.444496,69.08942
"3260",75.67986,69.10275
"3261",76.9543,69.11606
"3262",78.03586,69.129395
"3263",78.751205,69.14273
"3264",79.0222,69.15607
"3265",78.87572,69.1694
"3266",78.399635,69.18274
"3267",77.68673,69.196075
"3268",76.81758,69.20938
"3269",75.87274,69.22272
"3270",74.91081,69.23605
"3271",73.985504,69.24939
"3272",73.13832,69.262726
"3273",72.393684,69.27606
"3274",71.763794,69.2894
"3275",71.27795,69.302734
"3276",71.06554,69.31607
"3277",71.66857,69.32938
"3278",73.76822,69.34271
"3279",77.63302,69.35605
"3280",82.847946,69.369385
"3281",88.58045,69.38272
"3282",93.81979,69.39606
"3283",97.60403,69.40939
"3284",99.491264,69.4227
"3285",99.757385,69.436035
"3286",99.0396,69.44937
"3287",97.76517,69.46271
"3288",96.16846,69.47604
"3289",94.417946,69.48938
"3290",92.6186,69.502716
"3291",90.826584,69.51605
"3292",89.07851,69.52939
"3293",87.38903,69.542694
"3294",85.76059,69.55603
"3295",84.20538,69.56937
"3296",82.75517,69.5827
"3297",81.46609,69.59604
"3298",80.41627,69.609375
"3299",79.68627,69.62271
"3300",79.32983,69.63602
"3301",79.3518,69.64935
"3302",79.68871,69.66269
"3303",80.218506,69.676025
"3304",80.782486,69.68936
"3305",81.234146,69.7027
"3306",81.461205,69.716034
"3307",81.41726,69.72937
"3308",81.094986,69.74271
"3309",80.53101,69.75601
"3310",79.764404,69.76935
"3311",78.83177,69.782684
"3312",77.7673,69.79602
"3313",76.60761,69.80936
"3314",75.389336,69.82269
"3315",74.141754,69.83603
"3316",72.90639,69.849335
"3317",71.72228,69.86267
"3318",70.63096,69.87601
"3319",69.66903,69.88934
"3320",68.89021,69.90268
"3321",68.54841,69.916016
"3322",69.263756,69.92935
"3323",71.60754,69.94269
"3324",75.59197,69.956024
"3325",80.66041,69.96933
"3326",85.95834,69.982666
"3327",90.528725,69.996
"3328",93.56832,70.00934
"3329",94.889145,70.022675
"3330",94.91112,70.03601
"3331",94.15915,70.04935
"3332",92.93355,70.06265
"3333",91.42718,70.07599
"3334",89.78897,70.089325
"3335",88.12146,70.10266
"3336",86.4979,70.116
"3337",84.945145,70.12933
"3338",83.47051,70.14267
"3339",82.06424,70.156006
"3340",80.719,70.16934
"3341",79.45434,70.18265
"3342",78.31663,70.195984
"3343",77.39376,70.20932
"3344",76.76631,70.22266
"3345",76.490425,70.23599
"3346",76.56855,70.24933
"3347",76.93721,70.262665
"3348",77.47677,70.27597
"3349",78.05051,70.28931
"3350",78.521706,70.30264
"3351",78.802475,70.31598
"3352",78.853745,70.329315
"3353",78.68284,70.34265
"3354",78.3093,70.35599
"3355",77.77463,70.36932
"3356",77.103226,70.38266
"3357",76.30976,70.395966
"3358",75.40887,70.4093
"3359",74.41764,70.42264
"3360",73.358055,70.435974
"3361",72.25941,70.44931
"3362",71.15587,70.46265
"3363",70.08652,70.47598
"3364",69.09529,70.48929
"3365",68.24567,70.502625
"3366",67.74273,70.51596
"3367",68.16998,70.5293
"3368",70.13779,70.54263
"3369",73.79263,70.55597
"3370",78.6804,70.569305
"3371",84.017395,70.58264
"3372",88.85634,70.59598
"3373",92.332954,70.60928
"3374",94.117645,70.62262
"3375",94.49607,70.635956
"3376",93.99313,70.64929
"3377",92.945755,70.66263
"3378",91.578545,70.675964
"3379",90.06241,70.6893
"3380",88.51942,70.70261
"3381",87.02281,70.71594
"3382",85.609215,70.72928
"3383",84.2884,70.742615
"3384",83.053024,70.75595
"3385",81.90555,70.76929
"3386",80.86305,70.78262
"3387",79.96704,70.79596
"3388",79.273674,70.809296
"3389",78.82689,70.8226
"3390",78.65354,70.83594
"3391",78.729225,70.84927
"3392",78.98802,70.86261
"3393",79.33471,70.875946
"3394",79.67162,70.88928
"3395",79.90845,70.90262
"3396",80.00122,70.915924
"3397",79.93286,70.92926
"3398",79.71801,70.9426
"3399",79.378654,70.95593
"3400",78.93919,70.96927
"3401",78.41428,70.982605
"3402",77.81857,70.99594
"3403",77.14229,71.00928
"3404",76.39521,71.02261
"3405",75.577324,71.03592
"3406",74.703285,71.049255
"3407",73.78287,71.06259
"3408",72.82094,71.07593
"3409",71.834595,71.089264
"3410",70.84825,71.1026
"3411",69.927826,71.11594
"3412",69.36385,71.12924
"3413",69.74471,71.14258
"3414",71.5758,71.155914
"3415",74.90837,71.16925
"3416",79.29565,71.18259
"3417",84.00519,71.19592
"3418",88.16785,71.20926
"3419",91.06828,71.222595
"3420",92.50141,71.23593
"3421",92.74555,71.24924
"3422",92.20111,71.26257
"3423",91.14641,71.27591
"3424",89.78897,71.289246
"3425",88.28748,71.30258
"3426",86.77135,71.31592
"3427",85.31136,71.329254
"3428",83.93927,71.34256
"3429",82.65507,71.355896
"3430",81.444115,71.36923
"3431",80.2942,71.38257
"3432",79.2224,71.395905
"3433",78.2678,71.40924
"3434",77.49386,71.42258
"3435",76.964066,71.43591
"3436",76.717476,71.44925
"3437",76.74189,71.462555
"3438",76.978714,71.47589
"3439",77.33517,71.48923
"3440",77.7087,71.50256
"3441",78.00656,71.5159
"3442",78.15793,71.529236
"3443",78.153046,71.54257
"3444",77.99191,71.55588
"3445",77.7087,71.569214
"3446",77.32052,71.58255
"3447",76.84688,71.59589
"3448",76.28779,71.60922
"3449",75.648125,71.62256
"3450",74.92302,71.635895
"3451",74.1149,71.64923
"3452",73.22621,71.66257
"3453",72.25208,71.67587
"3454",71.22179,71.68921
"3455",70.14023,71.702545
"3456",69.0367,71.71588
"3457",67.95514,71.72922
"3458",66.97612,71.74255
"3459",66.32914,71.75589
"3460",66.63676,71.769196
"3461",68.5362,71.78253
"3462",72.17151,71.79587
"3463",77.07393,71.809204
"3464",82.43534,71.82254
"3465",87.27917,71.83588
"3466",90.74113,71.84921
"3467",92.489204,71.86255
"3468",92.82857,71.875885
"3469",92.27924,71.88919
"3470",91.17326,71.90253
"3471",89.73769,71.91586
"3472",88.145874,71.9292
"3473",86.51743,71.942535
"3474",84.91829,71.95587
"3475",83.38018,71.96921
"3476",81.898224,71.98251
"3477",80.45533,71.99585
"3478",79.04173,72.009186
"3479",77.679405,72.02252
"3480",76.42939,72.03586
"3481",75.38201,72.049194
"3482",74.649574,72.06253
"3483",74.32731,72.07587
"3484",74.45426,72.0892
"3485",74.97185,72.10251
"3486",75.757996,72.115845
"3487",76.64179,72.12918
"3488",77.454796,72.14252
"3489",78.0676,72.15585
"3490",78.416725,72.16919
"3491",78.48997,72.182526
"3492",78.30442,72.19583
"3493",77.891815,72.20917
"3494",77.281456,72.2225
"3495",76.507515,72.23584
"3496",75.59441,72.249176
"3497",74.581215,72.26251
"3498",73.494774,72.27585
"3499",72.38392,72.289185
"3500",71.30236,72.30252
"3501",70.2916,72.31583
"3502",69.39559,72.32916
"3503",68.6363,72.3425
"3504",68.03815,72.355835
"3505",67.61822,72.36917
"3506",67.58404,72.38251
"3507",68.56794,72.39584
"3508",71.219345,72.40915
"3509",75.6408,72.422485
"3510",81.28298,72.43582
"3511",87.237656,72.44916
"3512",92.457466,72.462494
"3513",96.026855,72.47583
"3514",97.66018,72.48917
"3515",97.762726,72.5025
"3516",96.95705,72.51584
"3517",95.61913,72.529144
"3518",93.99069,72.54248
"3519",92.23773,72.55582
"3520",90.46769,72.56915
"3521",88.74647,72.58249
"3522",87.098495,72.595825
"3523",85.523766,72.60916
"3524",84.00763,72.62247
"3525",82.55985,72.6358
"3526",81.21217,72.64914
"3527",80.04761,72.662476
"3528",79.166245,72.67581
"3529",78.67307,72.68915
"3530",78.61936,72.702484
"3531",78.97826,72.71582
"3532",79.64477,72.72916
"3533",80.45289,72.74246
"3534",81.231705,72.7558
"3535",81.832306,72.769135
"3536",82.16678,72.78247
"3537",82.213165,72.79581
"3538",81.99344,72.80914
"3539",81.55642,72.82248
"3540",80.953384,72.835785
"3541",80.23071,72.84912
"3542",79.42504,72.86246
"3543",78.54368,72.87579
"3544",77.5964,72.88913
"3545",76.59052,72.902466
"3546",75.543144,72.9158
"3547",74.4567,72.92914
"3548",73.358055,72.942474
"3549",72.271614,72.95578
"3550",71.23155,72.96912
"3551",70.28916,72.98245
"3552",69.62997,72.99579
"3553",69.79355,73.009125
"3554",71.42443,73.02246
"3555",74.76677,73.0358
"3556",79.466545,73.0491
"3557",84.77669,73.06244
"3558",89.762115,73.075775
"3559",93.50973,73.08911
"3560",95.57519,73.10245
"3561",96.15137,73.11578
"3562",95.73876,73.12912
"3563",94.70603,73.142456
"3564",93.29977,73.15579
"3565",91.700615,73.1691
"3566",90.0502,73.182434
"3567",88.431526,73.19577
"3568",86.90074,73.20911
"3569",85.47494,73.22244
"3570",84.14923,73.23578
"3571",82.916306,73.249115
"3572",81.7908,73.26242
"3573",80.799576,73.27576
"3574",80.00122,73.28909
"3575",79.4519,73.30243
"3576",79.18089,73.315765
"3577",79.17601,73.3291
"3578",79.381096,73.34244
"3579",79.69604,73.355774
"3580",80.01343,73.36911
"3581",80.24292,73.382416
"3582",80.31861,73.39575
"3583",80.216064,73.40909
"3584",79.954834,73.422424
"3585",79.55932,73.43576
"3586",79.06859,73.4491
"3587",78.5095,73.46243
"3588",77.90402,73.47574
"3589",77.2546,73.489075
"3590",76.558784,73.50241
"3591",75.81415,73.51575
"3592",75.01579,73.52908
"3593",74.15152,73.54242
"3594",73.22133,73.555756
"3595",72.234985,73.56909
"3596",71.20714,73.58243
"3597",70.17197,73.59573
"3598",69.188065,73.60907
"3599",68.44099,73.622406
"3600",68.46784,73.63574
"3601",69.891205,73.64908
"3602",72.94301,73.662415
"3603",77.296104,73.67575
"3604",82.27421,73.68906
"3605",87.00084,73.70239
"3606",90.60685,73.71573
"3607",92.65522,73.729065
"3608",93.30953,73.7424
"3609",93.014114,73.75574
"3610",92.07904,73.76907
"3611",90.74601,73.78241
"3612",89.21034,73.795746
"3613",87.623405,73.80905
"3614",86.07553,73.82239
"3615",84.61799,73.835724
"3616",83.267876,73.84906
"3617",82.01053,73.8624
"3618",80.8362,73.87573
"3619",79.74731,73.88907
"3620",78.765854,73.902374
"3621",77.945526,73.91571
"3622",77.347374,73.92905
"3623",77.015335,73.94238
"3624",76.95674,73.95572
"3625",77.134964,73.969055
"3626",77.469444,73.98239
"3627",77.85275,73.99573
"3628",78.19455,74.00906
"3629",78.41428,74.02237
"3630",78.46555,74.035706
"3631",78.34348,74.04904
"3632",78.06027,74.06238
"3633",77.642784,74.075714
"3634",77.10811,74.08905
"3635",76.47578,74.10239
"3636",75.74822,74.11569
"3637",74.93034,74.12903
"3638",74.022125,74.142365
"3639",73.0309,74.1557
"3640",71.96155,74.16904
"3641",70.84581,74.18237
"3642",69.712975,74.19571
"3643",68.607,74.209045
"3644",67.57183,74.22238
"3645",66.65873,74.23569
"3646",65.936066,74.24902
"3647",65.6675,74.26236
"3648",66.492714,74.275696
"3649",69.01961,74.28903
"3650",73.3019,74.30237
"3651",78.76341,74.315704
"3652",84.51545,74.32901
"3653",89.53994,74.34235
"3654",92.979935,74.35568
"3655",94.591286,74.36902
"3656",94.79149,74.382355
"3657",94.151825,74.39569
"3658",93.00679,74.40903
"3659",91.56878,74.42236
"3660",90.006256,74.4357
"3661",88.42664,74.449005
"3662",86.89586,74.46234
"3663",85.4432,74.47568
"3664",84.07599,74.48901
"3665",82.78203,74.50235
"3666",81.55398,74.515686
"3667",80.4065,74.52902
"3668",79.38598,74.54233
"3669",78.553444,74.555664
"3670",77.98459,74.569
"3671",77.71847,74.58234
"3672",77.76486,74.59567
"3673",78.06027,74.60901
"3674",78.519264,74.622345
"3675",79.0222,74.63568
"3676",79.4641,74.64902
"3677",79.75952,74.66232
"3678",79.871826,74.67566
"3679",79.78882,74.688995
"3680",79.520256,74.70233
"3681",79.08812,74.71567
"3682",78.519264,74.729004
"3683",77.83566,74.74234
"3684",77.049515,74.755646
"3685",76.18036,74.76898
"3686",75.23552,74.78232
"3687",74.22232,74.795654
"3688",73.14809,74.80899
"3689",72.02991,74.82233
"3690",70.8922,74.83566
"3691",69.77402,74.849
"3692",68.72907,74.862335
"3693",67.81598,74.87564
"3694",67.1519,74.88898
"3695",67.139694,74.90231
"3696",68.45319,74.91565
"3697",71.54162,74.928986
"3698",76.21942,74.94232
"3699",81.78592,74.95566
"3700",87.28649,74.96896
"3701",91.72259,74.9823
"3702",94.42283,74.995636
"3703",95.39208,75.00897
"3704",95.147934,75.02231
"3705",94.186005,75.035645
"3706",92.79439,75.04898
"3707",91.1635,75.06232
"3708",89.4374,75.07565
"3709",87.711296,75.08896
"3710",86.04135,75.102295
"3711",84.44709,75.11563
"3712",82.92607,75.12897
"3713",81.46853,75.1423
"3714",80.07446,75.15564
"3715",78.768295,75.168976
"3716",77.61837,75.18228
"3717",76.715034,75.19562
"3718",76.15839,75.208954
"3719",76.00214,75.22229
"3720",76.24872,75.23563
"3721",76.8127,75.24896
"3722",77.5671,75.2623
"3723",78.35081,75.275635
"3724",79.012436,75.28897
"3725",79.43481,75.30228
"3726",79.58373,75.31561
"3727",79.45678,75.32895
"3728",79.08568,75.342285
"3729",78.519264,75.35562
"3730",77.80881,75.36896
"3731",76.97383,75.38229
"3732",76.033875,75.3956
"3733",75.00603,75.408936
"3734",73.90494,75.42227
"3735",72.75746,75.43561
"3736",71.605095,75.448944
"3737",70.486916,75.46228
"3738",69.44686,75.47562
"3739",68.52888,75.48895
"3740",67.75983,75.50229
"3741",67.16655,75.515594
"3742",66.83696,75.52893
"3743",67.156784,75.54227
"3744",68.81453,75.5556
"3745",72.26429,75.56894
"3746",77.29366,75.582275
"3747",83.15312,75.59561
"3748",88.86366,75.60892
"3749",93.39498,75.62225
"3750",96.08545,75.63559
"3751",96.971695,75.648926
"3752",96.62257,75.66226
"3753",95.5581,75.6756
"3754",94.06882,75.688934
"3755",92.34516,75.70227
"3756",90.5214,75.71561
"3757",88.687874,75.72891
"3758",86.89342,75.74225
"3759",85.152664,75.755585
"3760",83.45342,75.76892
"3761",81.78836,75.78226
"3762",80.16724,75.79559
"3763",78.641335,75.80893
"3764",77.296104,75.822235
"3765",76.263374,75.83557
"3766",75.6701,75.84891
"3767",75.60662,75.86224
"3768",76.05829,75.87558
"3769",76.912796,75.888916
"3770",77.97238,75.90225
"3771",79.01976,75.91559
"3772",79.8645,75.928925
"3773",80.38941,75.94223
"3774",80.5774,75.95557
"3775",80.45045,75.9689
"3776",80.05249,75.98224
"3777",79.432365,75.995575
"3778",78.63157,76.00891
"3779",77.67696,76.02225
"3780",76.612495,76.03555
"3781",75.47234,76.04889
"3782",74.29313,76.062225
"3783",73.111465,76.07556
"3784",71.96399,76.0889
"3785",70.89708,76.102234
"3786",69.944916,76.11557
"3787",69.13191,76.12891
"3788",68.47761,76.14224
"3789",68.016174,76.15555
"3790",67.93561,76.168884
"3791",68.8365,76.18222
"3792",71.38781,76.19556
"3793",75.7409,76.20889
"3794",81.38064,76.22223
"3795",87.411,76.235565
"3796",92.77486,76.24887
"3797",96.52979,76.26221
"3798",98.3267,76.27554
"3799",98.53666,76.28888
"3800",97.7847,76.302216
"3801",96.46876,76.31555
"3802",94.84032,76.32889
"3803",93.067825,76.342224
"3804",91.27093,76.35556
"3805",89.52285,76.368866
"3806",87.85535,76.3822
"3807",86.278175,76.39554
"3808",84.77913,76.408875
"3809",83.36065,76.42221
"3810",82.039825,76.43555
"3811",80.867935,76.44888
"3812",79.92554,76.46219
"3813",79.293205,76.475525
"3814",79.01976,76.48886
"3815",79.097885,76.5022
"3816",79.45922,76.51553
"3817",79.97925,76.52887
"3818",80.51148,76.542206
"3819",80.92653,76.55554
"3820",81.14137,76.56888
"3821",81.12184,76.582184
"3822",80.87526,76.59552
"3823",80.4358,76.60886
"3824",79.84741,76.62219
"3825",79.13695,76.63553
"3826",78.31907,76.648865
"3827",77.41085,76.6622
"3828",76.42451,76.67551
"3829",75.36736,76.68884
"3830",74.25407,76.70218
"3831",73.09926,76.715515
"3832",71.92981,76.72885
"3833",70.77013,76.74219
"3834",69.66415,76.75552
"3835",68.65339,76.76886
"3836",67.79889,76.782196
"3837",67.247116,76.7955
"3838",67.491264,76.80884
"3839",69.20271,76.822174
"3840",72.71839,76.83551
"3841",77.72579,76.84885
"3842",83.4461,76.86218
"3843",88.89296,76.87552
"3844",93.09224,76.888824
"3845",95.49706,76.90216
"3846",96.253914,76.9155
"3847",95.904785,76.92883
"3848",94.89159,76.94217
"3849",93.48287,76.955505
"3850",91.86664,76.96884
"3851",90.18936,76.98218
"3852",88.55604,76.995514
"3853",87.02037,77.00882
"3854",85.60433,77.022156
"3855",84.298164,77.03549
"3856",83.087204,77.04883
"3857",81.96658,77.062164
"3858",80.96071,77.0755
"3859",80.11597,77.08884
"3860",79.4934,77.10214
"3861",79.13451,77.11548
"3862",79.03929,77.128815
"3863",79.166245,77.14215
"3864",79.44213,77.15549
"3865",79.75952,77.16882
"3866",80.028076,77.18216
"3867",80.177,77.195496
"3868",80.164795,77.20883
"3869",79.97925,77.22214
"3870",79.63256,77.23547
"3871",79.149155,77.24881
"3872",78.555885,77.262146
"3873",77.8674,77.27548
"3874",77.09834,77.28882
"3875",76.25117,77.302155
"3876",75.32586,77.31546
"3877",74.322426,77.3288
"3878",73.24574,77.34213
"3879",72.1178,77.35547
"3880",70.95323,77.368805
"3881",69.788666,77.38214
"3882",68.65827,77.39548
"3883",67.61089,77.40881
"3884",66.69291,77.42215
"3885",65.987335,77.435455
"3886",65.811554,77.44879
"3887",66.81987,77.46213
"3888",69.56649,77.475464
"3889",74.019684,77.4888
"3890",79.56176,77.50214
"3891",85.28207,77.51547
"3892",90.179596,77.52878
"3893",93.46822,77.542114
"3894",94.97948,77.55545
"3895",95.15282,77.56879
"3896",94.51316,77.58212
"3897",93.35592,77.59546
"3898",91.895935,77.608795
"3899",90.301674,77.62213
"3900",88.69764,77.63547
"3901",87.16197,77.64877
"3902",85.72884,77.66211
"3903",84.4007,77.675446
"3904",83.160446,77.68878
"3905",82.01053,77.70212
"3906",80.95827,77.715454
"3907",80.04761,77.72879
"3908",79.33471,77.742096
"3909",78.87816,77.75543
"3910",78.69016,77.76877
"3911",78.75365,77.782104
"3912",79.00267,77.79544
"3913",79.344475,77.80878
"3914",79.67895,77.82211
"3915",79.923096,77.83545
"3916",80.01587,77.848785
"3917",79.93286,77.86209
"3918",79.674065,77.87543
"3919",79.256584,77.88876
"3920",78.712135,77.9021
"3921",78.07248,77.915436
"3922",77.347374,77.92877
"3923",76.53925,77.94211
"3924",75.65301,77.955414
"3925",74.67155,77.96875
"3926",73.602196,77.982086
"3927",72.44007,77.99542
"3928",71.2169,78.00876
"3929",69.96933,78.022095
"3930",68.74616,78.03543
"3931",67.60357,78.04877
"3932",66.61234,78.0621
"3933",65.882355,78.07541
"3934",65.78714,78.088776
"3935",66.99077,78.10208
"3936",69.96689,78.11545
"3937",74.58366,78.12875
"3938",80.147705,78.14212
"3939",85.72396,78.155426
"3940",90.31144,78.16879
"3941",93.206985,78.1821
"3942",94.364235,78.195465
"3943",94.278786,78.20877
"3944",93.46334,78.22214
"3945",92.21332,78.23544
"3946",90.72404,78.24881
"3947",89.1371,78.262115
"3948",87.555046,78.27548
"3949",86.03647,78.28879
"3950",84.596016,78.302155
"3951",83.23369,78.31546
"3952",81.934845,78.32883
"3953",80.71168,78.34213
"3954",79.5935,78.3555
"3955",78.63157,78.368805
"3956",77.90158,78.38217
"3957",77.46456,78.39548
"3958",77.349815,78.408844
"3959",77.53536,78.42215
"3960",77.945526,78.43552
"3961",78.46067,78.44882
"3962",78.95628,78.46219
"3963",79.3225,78.475494
"3964",79.49096,78.48886
"3965",79.43481,78.50217
"3966",79.166245,78.51553
"3967",78.709694,78.52884
"3968",78.08957,78.542206
"3969",77.32052,78.55551
"3970",76.419624,78.56888
"3971",75.40154,78.582184
"3972",74.28336,78.59555
"3973",73.077286,78.60886
"3974",71.82483,78.62222
"3975",70.56748,78.63553
"3976",69.366295,78.648895
"3977",68.262764,78.6622
"3978",67.30572,78.67557
"3979",66.5098,78.68887
"3980",65.901886,78.70224
"3981",65.53811,78.715546
"3982",65.77493,78.72891
"3983",67.30572,78.74222
"3984",70.657814,78.755585
"3985",75.699394,78.76889
"3986",81.705345,78.78226
"3987",87.682,78.79556
"3988",92.56977,78.80893
"3989",95.606926,78.822235
"3990",96.722664,78.8356
"3991",96.45167,78.84891
"3992",95.37255,78.862274
"3993",93.81491,78.87558
"3994",91.99603,78.88895
"3995",90.08438,78.90225
"3996",88.18738,78.91562
"3997",86.346535,78.928925
"3998",84.56184,78.94229
"3999",82.81621,78.9556
"4000",81.09743,78.96896
"4001",79.40063,78.98227
"4002",77.76242,78.995636
"4003",76.25117,79.00894
"4004",74.97429,79.02231
"4005",74.06851,79.035614
"4006",73.66079,79.04898
"4007",73.79996,79.06229
"4008",74.43229,79.07565
"4009",75.40887,79.08896
"4010",76.50019,79.102325
"4011",77.47677,79.11563
"4012",78.150604,79.129
"4013",78.4387,79.1423
"4014",78.33616,79.15567
"4015",77.891815,79.168976
"4016",77.1667,79.18234
"4017",76.22186,79.19565
"4018",75.10857,79.209015
"4019",73.89273,79.22232
"4020",72.63294,79.23569
"4021",71.40002,79.24899
"4022",70.25254,79.26236
"4023",69.23689,79.275665
"4024",68.37751,79.28903
"4025",67.684135,79.30234
"4026",67.156784,79.315704
"4027",66.80034,79.32901
"4028",66.67338,79.34238
"4029",67.11528,79.35568
"4030",68.85359,79.36905
"4031",72.46204,79.382355
"4032",77.821014,79.39572
"4033",84.16144,79.40903
"4034",90.43107,79.42239
"4035",95.501945,79.4357
"4036",98.57084,79.449066
"4037",99.17876,79.47574
"4038",97.98245,79.489044
"4039",96.34913,79.50241
"4040",94.486305,79.51572
"4041",92.52827,79.52908
"4042",90.548256,79.54239
"4043",88.57557,79.555756
"4044",86.61509,79.56906
"4045",84.65705,79.58243
"4046",82.69657,79.59573
"4047",80.75319,79.6091
"4048",78.86839,79.622406
"4049",77.13008,79.63577
"4050",75.64568,79.64908
"4051",74.527504,79.662445
"4052",73.89273,79.67575
"4053",73.81705,79.68912
"4054",74.302895,79.70242
"4055",75.22331,79.71579
"4056",76.36347,79.729095
"4057",77.46212,79.74246
"4058",78.28977,79.75577
"4059",78.675514,79.769135
"4060",78.57542,79.78244
"4061",78.04074,79.79581
"4062",77.17403,79.80911
"4063",76.09247,79.82248
"4064",74.91081,79.835785
"4065",73.724266,79.84915
"4066",72.61097,79.86246
"4067",71.61974,79.875824
"4068",70.77257,79.88913
"4069",70.07187,79.9025
"4070",69.505455,79.9158
"4071",69.065994,79.92917
"4072",68.770584,79.942474
"4073",68.716866,79.95584
"4074",69.36385,79.96915
"4075",71.49767,79.98251
"4076",75.58465,79.99582
"4077",81.33425,80.009186
"4078",87.87732,80.02249
"4079",94.100555,80.03586
"4080",98.87846,80.049164
"4081",101.53719,80.06253
"4082",102.21347,80.075836
"4083",101.593346,80.0892
"4084",100.28474,80.10251
"4085",98.59525,80.115875
"4086",96.722664,80.12918
"4087",94.79393,80.14255
"4088",92.87984,80.15585
"4089",91.00725,80.16922
"4090",89.17372,80.182526
"4091",87.34997,80.19589
"4092",85.51156,80.2092
"4093",83.66338,80.222565
"4094",81.84451,80.23587
"4095",80.130615,80.24924
"4096",78.626686,80.26254
"4097",77.471886,80.27591
"4098",76.79317,80.289215
"4099",76.66132,80.30258
"4100",77.02754,80.31589
"4101",77.738,80.329254
"4102",78.555885,80.34256
"4103",79.22728,80.35593
"4104",79.56176,80.36923
"4105",79.47631,80.3826
"4106",78.975815,80.395905
"4107",78.12863,80.40927
"4108",77.00801,80.42258
"4109",75.701836,80.43594
"4110",74.30045,80.44925
"4111",72.903946,80.462616
"4112",71.59533,80.47592
"4113",70.43809,80.48929
"4114",69.45663,80.502594
"4115",68.65339,80.51596
"4116",68.0235,80.52927
"4117",67.58404,80.54263
"4118",67.54009,80.55594
"4119",68.51911,80.569305
"4120",71.22667,80.58261
"4121",75.826355,80.59598
"4122",81.76639,80.60928
"4123",88.08484,80.62265
"4124",93.66598,80.635956
"4125",97.5259,80.64932
"4126",99.320366,80.66263
"4127",99.44488,80.675995
"4128",98.58793,80.6893
"4129",97.20119,80.70267
"4130",95.54101,80.71597
"4131",93.77585,80.72934
"4132",92.02045,80.742645
"4133",90.32853,80.75601
"4134",88.71473,80.76932
"4135",87.15221,80.782684
"4136",85.62142,80.79599
"4137",84.1004,80.80936
"4138",82.61356,80.82266
"4139",81.23903,80.83603
"4140",80.08423,80.849335
"4141",79.26147,80.8627
"4142",78.84398,80.87601
"4143",78.82933,80.88937
"4144",79.13939,80.90268
"4145",79.62768,80.916046
"4146",80.12329,80.92935
"4147",80.47242,80.94272
"4148",80.5774,80.956024
"4149",80.39185,80.96939
"4150",79.91821,80.9827
"4151",79.19554,80.99606
"4152",78.27268,81.00937
"4153",77.196,81.022736
"4154",76.016785,81.03604
"4155",74.77165,81.04941
"4156",73.49966,81.06271
"4157",72.23987,81.07608
"4158",71.03624,81.089386
"4159",69.91806,81.10275
"4160",68.91951,81.11606
"4161",68.069885,81.129425
"4162",67.43267,81.14273
"4163",67.29839,81.1561
"4164",68.31159,81.1694
"4165",71.046005,81.18277
"4166",75.48943,81.196075
"4167",81.024185,81.20944
"4168",86.73472,81.22275
"4169",91.60052,81.236115
"4170",94.82323,81.24942
"4171",96.23193,81.26279
"4172",96.26368,81.27609
"4173",95.47265,81.28946
"4174",94.186005,81.302765
"4175",92.6186,81.31613
"4176",90.94377,81.32944
"4177",89.28359,81.342804
"4178",87.71374,81.35611
"4179",86.239105,81.36948
"4180",84.81575,81.38278
"4181",83.41192,81.39615
"4182",82.03006,81.409454
"4183",80.723885,81.42282
"4184",79.58373,81.43613
"4185",78.71946,81.44949
"4186",78.21164,81.4628
"4187",78.0798,81.476166
"4188",78.27512,81.48947
"4189",78.70725,81.50284
"4190",79.25414,81.51614
"4191",79.766846,81.52951
"4192",80.10864,81.542816
"4193",80.19165,81.55618
"4194",79.98901,81.56949
"4195",79.52514,81.582855
"4196",78.853745,81.59616
"4197",78.011444,81.60953
"4198",77.02266,81.62283
"4199",75.914246,81.6362
"4200",74.71305,81.649506
"4201",73.463036,81.66287
"4202",72.200806,81.67618
"4203",70.975204,81.689545
"4204",69.8082,81.70285
"4205",68.7071,81.71622
"4206",67.68902,81.72952
"4207",66.78325,81.74289
"4208",66.01663,81.756195
"4209",65.408714,81.76956
"4210",64.9839,81.78287
"4211",64.866714,81.796234
"4212",65.54055,81.80954
"4213",67.65484,81.82291
"4214",71.502556,81.83621
"4215",76.756546,81.84958
"4216",82.64774,81.862885
"4217",88.216675,81.87625
"4218",92.508736,81.88956
"4219",95.00633,81.90292
"4220",95.86328,81.91623
"4221",95.61425,81.929596
"4222",94.68406,81.9429
"4223",93.34615,81.95627
"4224",91.81293,81.969574
"4225",90.250404,81.98294
"4226",88.76601,81.99625
"4227",87.40612,82.00961
"4228",86.17319,82.02292
"4229",85.04768,82.036285
"4230",84.00519,82.04959
"4231",83.053024,82.06296
"4232",82.22049,82.07626
"4233",81.55886,82.08963
"4234",81.12184,82.102936
"4235",80.92897,82.1163
"4236",80.96071,82.12961
"4237",81.15358,82.142975
"4238",81.4197,82.15628
"4239",81.67605,82.16965
"4240",81.83719,82.18295
"4241",81.83475,82.19632
"4242",81.63943,82.209625
"4243",81.23903,82.22299
"4244",80.65308,82.2363
"4245",79.92554,82.249664
"4246",79.12474,82.26297
"4247",78.31663,82.27634
"4248",77.54757,82.28964
"4249",76.85176,82.30301
"4250",76.241394,82.316315
"4251",75.71404,82.32968
"4252",75.264824,82.34299
"4253",74.89128,82.35635
"4254",74.59098,82.36966
"4255",74.356606,82.383026
"4256",74.178375,82.39633
"4257",74.05142,82.4097
"4258",73.96109,82.423004
"4259",73.900055,82.43637
"4260",73.85123,82.44968
"4261",73.80484,82.46304
"4262",73.74624,82.47635
"4263",73.68276,82.489716
"4264",73.67788,82.50302
"4265",73.92935,82.51639
"4266",74.73014,82.52969
"4267",76.30244,82.54306
"4268",78.67063,82.556366
"4269",81.61257,82.56973
"4270",84.73029,82.58304
"4271",87.52819,82.596405
"4272",89.59853,82.60971
"4273",90.75578,82.62308
"4274",91.056076,82.63638
"4275",90.64835,82.64975
"4276",89.71328,82.663055
"4277",88.44129,82.67642
"4278",87.01305,82.68973
"4279",85.56039,82.703094
"4280",84.18097,82.7164
"4281",82.92607,82.72977
"4282",81.80789,82.74307
"4283",80.82155,82.75644
"4284",79.95972,82.769745
"4285",79.22972,82.78311
"4286",78.66331,82.79642
"4287",78.28977,82.809784
"4288",78.135956,82.82309
"4289",78.19699,82.83646
"4290",78.433815,82.84976
"4291",78.77806,82.86313
"4292",79.149155,82.876434
"4293",79.46166,82.8898
"4294",79.65209,82.90311
"4295",79.68383,82.91647
"4296",79.54467,82.92978
"4297",79.24925,82.943146
"4298",78.83177,82.95645
"4299",78.328835,82.96982
"4300",77.77707,82.98312
"4301",77.20332,82.99649
"4302",76.63935,83.009796
"4303",76.09491,83.02316
"4304",75.58465,83.03647
"4305",75.11589,83.049835
"4306",74.6984,83.06314
"4307",74.32975,83.07651
"4308",74.0148,83.08981
"4309",73.760895,83.10318
"4310",73.56069,83.116486
"4311",73.402,83.12985
"4312",73.27505,83.14316
"4313",73.162735,83.156525
"4314",73.05287,83.16983
"4315",72.94301,83.1832
"4316",72.83803,83.1965
"4317",72.80873,83.20987
"4318",73.06264,83.223175
"4319",73.87808,83.23654
"4320",75.44549,83.24985
"4321",77.752655,83.263214
"4322",80.56031,83.27652
"4323",83.48516,83.28989
"4324",86.065765,83.30319
"4325",87.93347,83.31656
"4326",88.95888,83.329865
"4327",89.21278,83.34323
"4328",88.82704,83.35654
"4329",87.96521,83.3699
"4330",86.80797,83.38321
"4331",85.51888,83.396576
"4332",84.21515,83.40988
"4333",82.97978,83.42325
"4334",81.85672,83.436554
"4335",80.850845,83.44992
"4336",79.957275,83.46323
"4337",79.183334,83.47659
"4338",78.538795,83.4899
"4339",78.05783,83.503265
"4340",77.769745,83.51657
"4341",77.69161,83.52994
"4342",77.81613,83.54324
"4343",78.101776,83.55661
"4344",78.4802,83.569916
"4345",78.8806,83.58328
"4346",79.23216,83.59659
"4347",79.48119,83.609955
"4348",79.59106,83.62326
"4349",79.55932,83.63663
"4350",79.3933,83.64993
"4351",79.11986,83.6633
"4352",78.76341,83.676605
"4353",77.925995,83.70328
"4354",77.488976,83.716644
"4355",77.06416,83.72995
"4356",76.66621,83.74332
"4357",76.30488,83.75662
"4358",75.98505,83.76999
"4359",75.70916,83.783295
"4360",75.4699,83.79666
"4361",75.26238,83.80997
"4362",75.07927,83.82333
"4363",74.91325,83.83664
"4364",74.757,83.850006
"4365",74.60807,83.86331
"4366",74.47135,83.87668
"4367",74.373695,83.889984
"4368",74.42741,83.90335
"4369",74.84978,83.91666
"4370",75.88495,83.93002
"4371",77.642784,83.94333
"4372",80.02319,83.956696
"4373",82.74052,83.97
"4374",85.38949,83.98337
"4375",87.555046,83.99667
"4376",88.98573,84.01004
"4377",89.65713,84.023346
"4378",89.68154,84.03671
"4379",89.18837,84.05002
"4380",88.31922,84.063385
"4381",87.21568,84.07669
"4382",85.99252,84.09006
"4383",84.75227,84.10336
"4384",83.563286,84.11673
"4385",82.4744,84.130035
"4386",81.4905,84.1434
"4387",80.61158,84.15671
"4388",79.83765,84.170074
"4389",79.185776,84.18338
"4390",78.69016,84.19675
"4391",78.38743,84.21005
"4392",78.294655,84.22342
"4393",78.40208,84.236725
"4394",78.66575,84.25009
"4395",79.381096,84.276764
"4396",79.68871,84.29007
"4397",79.8938,84.30344
"4398",79.974365,84.31674
"4399",79.923096,84.33011
"4400",79.75708,84.343414
"4401",79.49584,84.35678
"4402",79.1638,84.37009
"4403",78.7805,84.38345
"4404",78.3679,84.39676
"4405",77.945526,84.410126
"4406",77.5256,84.42343
"4407",77.12764,84.4368
"4408",76.75166,84.4501
"4409",76.40742,84.46347
"4410",76.09003,84.476776
"4411",75.7995,84.49014
"4412",75.53338,84.50345
"4413",75.28924,84.516815
"4414",75.06706,84.53012
"4415",74.864426,84.54349
"4416",74.69108,84.55679
"4417",74.59586,84.57016
"4418",74.737465,84.583466
"4419",75.37469,84.59683
"4420",76.70527,84.61014
"4421",78.75609,84.623505
"4422",81.33669,84.63681
"4423",84.09552,84.65018
"4424",86.590675,84.66348
"4425",88.46082,84.67685
"4426",89.53994,84.690155
"4427",89.86954,84.70352
"4428",89.58877,84.71683
"4429",88.85634,84.730194
"4430",87.82117,84.7435
"4431",86.6273,84.75687
"4432",85.38949,84.77017
"4433",84.18829,84.78354
"4434",83.075,84.796844
"4435",82.06668,84.81021
"4436",81.16579,84.82352
"4437",80.35767,84.83688
"4438",79.639885,84.85019
"4439",79.03441,84.863556
"4440",78.56809,84.87686
"4441",78.277565,84.89023
"4442",78.17502,84.903534
"4443",78.24826,84.9169
"4444",78.46067,84.93021
"4445",78.75365,84.94357
"4446",79.06615,84.95688
"4447",79.33959,84.970245
"4448",79.53246,84.98355
"4449",79.61791,84.99692
"4450",79.5935,85.01022
"4451",79.46899,85.02359
"4452",79.256584,85.036896
"4453",78.97826,85.05026
"4454",78.6511,85.06357
"4455",78.29221,85.076935
"4456",77.91867,85.09024
"4457",77.54269,85.10361
"4458",77.17647,85.11691
"4459",76.83223,85.13028
"4460",76.507515,85.143585
"4461",76.19989,85.15695
"4462",75.91669,85.17026
"4463",75.65789,85.183624
"4464",75.423515,85.19693
"4465",75.22087,85.2103
"4466",75.06218,85.2236
"4467",75.020676,85.23697
"4468",75.27947,85.250275
"4469",76.08026,85.26364
"4470",77.58907,85.27695
"4471",79.77661,85.29031
"4472",82.41581,85.30362
"4473",85.12581,85.316986
"4474",87.484245,85.33029
"4475",89.16884,85.34366
"4476",90.0502,85.356964
"4477",90.194244,85.37033
"4478",89.73037,85.38364
"4479",88.82948,85.397
"4480",87.65514,85.41031
"4481",86.36118,85.423676
"4482",85.05989,85.43698
"4483",83.83673,85.45035
"4484",82.72587,85.46365
"4485",81.72976,85.47702
"4486",80.8362,85.490326
"4487",80.03296,85.50369
"4488",79.31518,85.517
"4489",78.69993,85.530365
"4490",78.21164,85.54367
"4491",77.87961,85.55704
"4492",77.733116,85.57034
"4493",77.7551,85.58371
"4494",77.91867,85.597015
"4495",78.17502,85.61038
"4496",78.46555,85.62369
"4497",78.73655,85.637054
"4498",78.93675,85.65036
"4499",79.03197,85.66373
"4500",79.012436,85.67703
"4501",78.887924,85.6904
"4502",78.66819,85.703705
"4503",78.37766,85.71707
"4504",78.0383,85.73038
"4505",77.6672,85.743744
"4506",77.279015,85.75705
"4507",76.89082,85.77042
"4508",76.5124,85.78372
"4509",76.155945,85.79709
"4510",75.81903,85.810394
"4511",75.50652,85.82376
"4512",75.21599,85.83707
"4513",74.94743,85.85043
"4514",74.70084,85.86374
"4515",74.47379,85.877106
"4516",74.26627,85.89041
"4517",74.10269,85.90378
"4518",74.11734,85.91708
"4519",74.56657,85.93045
"4520",75.72381,85.943756
"4521",77.69894,85.95712
"4522",80.35523,85.97043
"4523",83.35088,85.983795
"4524",86.23178,85.9971
"4525",88.551155,86.01047
"4526",90.05264,86.02377
"4527",90.719154,86.03714
"4528",90.68986,86.050446
"4529",90.11368,86.06381
"4530",89.14931,86.07712
"4531",87.94568,86.090485
"4532",86.63706,86.10379
"4533",85.32845,86.11716
"4534",84.09308,86.13046
"4535",82.967575,86.14383
"4536",81.95682,86.157135
"4537",81.05348,86.1705
"4538",80.24292,86.18381
"4539",79.52758,86.197174
"4540",78.924545,86.21048
"4541",78.47532,86.22385
"4542",78.19943,86.23715
"4543",78.1091,86.25052
"4544",78.17746,86.263824
"4545",78.365456,86.27719
"4546",78.6096,86.2905
"4547",78.856186,86.30386
"4548",79.061264,86.31717
"4549",79.18822,86.330536
"4550",79.21019,86.34384
"4551",79.12474,86.35721
"4552",78.93187,86.370514
"4553",78.6511,86.38388
"4554",78.30686,86.39719
