"","ppg","time"
"1",79.81079,32.347412
"2",79.63012,32.36084
"3",79.45434,32.374268
"4",79.27856,32.387695
"5",79.097885,32.401123
"6",78.91722,32.41455
"7",78.73899,32.42798
"8",78.56321,32.441406
"9",78.39231,32.454834
"10",78.22873,32.46826
"11",78.065155,32.48169
"12",77.88449,32.495117
"13",77.69161,32.508545
"14",77.48165,32.521973
"15",77.25216,32.5354
"16",77.01778,32.54883
"17",76.80293,32.562256
"18",76.629585,32.575684
"19",76.52216,32.58911
"20",76.51972,32.60254
"21",76.67353,32.615967
"22",77.04707,32.629395
"23",77.69161,32.642822
"24",78.6096,32.65625
"25",79.75464,32.669678
"26",81.01686,32.683105
"27",82.25956,32.696533
"28",83.353325,32.70996
"29",84.21515,32.72339
"30",84.808426,32.736816
"31",85.13313,32.750244
"32",85.22102,32.76367
"33",85.12581,32.7771
"34",84.90364,32.790527
"35",84.6009,32.803955
"36",84.25422,32.817383
"37",83.88068,32.83081
"38",83.475395,32.84424
"39",83.04082,32.857666
"40",82.579384,32.871094
"41",82.108185,32.88452
"42",81.6614,32.89795
"43",81.26833,32.911377
"44",80.953384,32.924805
"45",80.72144,32.938232
"46",80.56275,32.95166
"47",80.45777,32.965088
"48",80.39185,32.978516
"49",80.343025,32.991943
"50",80.30152,33.00537
"51",80.257576,33.0188
"52",80.198975,33.032227
"53",80.111084,33.045654
"54",79.97925,33.059082
"55",79.801025,33.07251
"56",79.586174,33.085938
"57",79.33715,33.099365
"58",79.06859,33.112793
"59",78.78783,33.12622
"60",78.50706,33.13965
"61",78.23117,33.153076
"62",77.96506,33.166504
"63",77.71114,33.17993
"64",77.47677,33.19336
"65",77.261925,33.206787
"66",77.069046,33.220215
"67",76.90059,33.233643
"68",76.754105,33.24707
"69",76.61982,33.260498
"70",76.50507,33.273926
"71",76.40009,33.287354
"72",76.314644,33.30078
"73",76.25849,33.31421
"74",76.243835,33.327637
"75",76.30976,33.341064
"76",76.51972,33.354492
"77",76.94209,33.36792
"78",77.63302,33.381348
"79",78.59251,33.394775
"80",79.7522,33.408203
"81",80.99245,33.42163
"82",82.16434,33.43506
"83",83.15068,33.448486
"84",83.878235,33.461914
"85",84.32258,33.47534
"86",84.505684,33.48877
"87",84.473946,33.502197
"88",84.29084,33.515625
"89",84.01007,33.529053
"90",83.682915,33.54248
"91",83.33868,33.55591
"92",82.98711,33.569336
"93",82.63065,33.582764
"94",82.27421,33.59619
"95",81.934845,33.60962
"96",81.62478,33.623047
"97",81.356224,33.636475
"98",81.13649,33.649902
"99",80.96803,33.66333
"100",80.8362,33.676758
"101",80.73853,33.690186
"102",80.66773,33.703613
"103",80.61158,33.71704
"104",80.56519,33.73047
"105",80.51392,33.743896
"106",80.45533,33.757324
"107",80.37965,33.770752
"108",80.27711,33.78418
"109",80.14282,33.797607
"110",79.97681,33.811035
"111",79.781494,33.824463
"112",79.56176,33.83789
"113",79.3225,33.85132
"114",79.07347,33.864746
"115",78.81712,33.878174
"116",78.56321,33.8916
"117",78.314186,33.90503
"118",78.07736,33.918457
"119",77.84787,33.931885
"120",77.61837,33.945312
"121",77.39132,33.95874
"122",77.16182,33.972168
"123",76.93233,33.985596
"124",76.71015,33.999023
"125",76.49531,34.01245
"126",76.30244,34.02588
"127",76.1413,34.039307
"128",76.02899,34.052734
"129",75.98505,34.066162
"130",76.050964,34.07959
"131",76.27558,34.093018
"132",76.72236,34.106445
"133",77.42306,34.119873
"134",78.37278,34.1333
"135",79.500725,34.14673
"136",80.68726,34.160156
"137",81.79813,34.173584
"138",82.72587,34.18701
"139",83.40948,34.20044
"140",83.83673,34.213867
"141",84.02228,34.227295
"142",84.01984,34.240723
"143",83.87579,34.25415
"144",83.62432,34.26758
"145",83.299614,34.281006
"146",82.91875,34.294434
"147",82.496376,34.30786
"148",82.03494,34.32129
"149",81.55642,34.334717
"150",81.08522,34.348145
"151",80.6482,34.361572
"152",80.27955,34.375
"153",79.9939,34.388428
"154",79.79126,34.401855
"155",79.66186,34.415283
"156",79.588615,34.42871
"157",79.551994,34.44214
"158",79.52758,34.455566
"159",79.500725,34.468994
"160",79.45434,34.48242
"161",79.37133,34.49585
"162",79.24681,34.509277
"163",79.07347,34.522705
"164",78.86839,34.536133
"165",78.64622,34.54956
"166",78.41184,34.56299
"167",78.17746,34.576416
"168",77.95285,34.589844
"169",77.733116,34.60327
"170",77.51583,34.6167
"171",77.30587,34.630127
"172",77.100784,34.643555
"173",76.90547,34.656982
"174",76.717476,34.67041
"175",76.53925,34.683838
"176",76.37568,34.697266
"177",76.23651,34.710693
"178",76.11932,34.72412
"179",76.02655,34.73755
"180",75.95819,34.750977
"181",75.911804,34.764404
"182",75.88739,34.777832
"183",75.894714,34.79126
"184",75.95575,34.804688
"185",76.112,34.818115
"186",76.43183,34.831543
"187",76.96895,34.84497
"188",77.74532,34.8584
"189",78.72678,34.871826
"190",79.83276,34.885254
"191",80.93141,34.89868
"192",81.89578,34.91211
"193",82.64286,34.925537
"194",83.13359,34.938965
"195",83.37774,34.952393
"196",83.407036,34.96582
"197",83.27276,34.979248
"198",83.02617,34.992676
"199",82.70634,35.006104
"200",82.340126,35.01953
"201",81.93973,35.03296
"202",81.51736,35.046387
"203",81.075455,35.059814
"204",80.635994,35.073242
"205",80.22339,35.08667
"206",79.87671,35.100098
"207",79.62035,35.113525
"208",79.47631,35.126953
"209",79.43725,35.14038
"210",79.48119,35.15381
"211",79.57641,35.167236
"212",79.68139,35.180664
"213",79.764404,35.19409
"214",79.80591,35.20752
"215",79.798584,35.220947
"216",79.73754,35.234375
"217",79.635,35.247803
"218",79.49584,35.26123
"219",79.33715,35.27466
"220",79.16136,35.288086
"221",78.975815,35.301514
"222",78.785385,35.31494
"223",78.59251,35.32837
"224",78.397194,35.341797
"225",78.204315,35.355225
"226",78.028534,35.368652
"227",77.872284,35.38208
"228",77.747765,35.395508
"229",77.645226,35.408936
"230",77.56954,35.422363
"231",77.503624,35.43579
"232",77.44747,35.44922
"233",77.39132,35.462646
"234",77.34249,35.476074
"235",77.298546,35.489502
"236",77.27413,35.50293
"237",77.31075,35.516357
"238",77.47433,35.529785
"239",77.83078,35.543213
"240",78.42649,35.55664
"241",79.2517,35.57007
"242",80.235596,35.583496
"243",81.26589,35.596924
"244",82.213165,35.61035
"245",82.97246,35.62378
"246",83.492485,35.637207
"247",83.76837,35.650635
"248",83.82941,35.664062
"249",83.719536,35.67749
"250",83.4876,35.690918
"251",83.177536,35.704346
"252",82.81621,35.717773
"253",82.423134,35.7312
"254",82.00809,35.74463
"255",81.5906,35.758057
"256",81.1902,35.771484
"257",80.831314,35.784912
"258",80.533455,35.79834
"259",80.31861,35.811768
"260",80.184326,35.825195
"261",80.12329,35.838623
"262",80.111084,35.85205
"263",80.1355,35.86548
"264",80.16968,35.878906
"265",80.19653,35.892334
"266",80.19653,35.90576
"267",80.16235,35.91919
"268",80.09155,35.932617
"269",79.98657,35.946045
"270",79.86694,35.959473
"271",79.7351,35.9729
"272",79.61303,35.98633
"273",79.49828,35.999756
"274",79.398186,36.013184
"275",79.310295,36.02661
"276",79.23216,36.04004
"277",79.16136,36.053467
"278",79.10765,36.066895
"279",79.05882,36.080322
"280",79.00267,36.09375
"281",78.93187,36.107178
"282",78.84398,36.120605
"283",78.72678,36.134033
"284",78.58762,36.14746
"285",78.44358,36.16089
"286",78.314186,36.174316
"287",78.23117,36.187744
"288",78.25315,36.20117
"289",78.45579,36.2146
"290",78.890366,36.228027
"291",79.5642,36.241455
"292",80.42603,36.254883
"293",81.38308,36.26831
"294",82.31083,36.28174
"295",83.09941,36.295166
"296",83.68047,36.308594
"297",84.04425,36.32202
"298",84.20538,36.33545
"299",84.19562,36.348877
"300",84.06134,36.362305
"301",83.84161,36.375732
"302",83.57061,36.38916
"303",83.27032,36.402588
"304",82.950485,36.416016
"305",82.61845,36.429443
"306",82.28397,36.44287
"307",81.951935,36.4563
"308",81.6321,36.469727
"309",81.33669,36.483154
"310",81.08278,36.496582
"311",80.87282,36.51001
"312",80.719,36.523438
"313",80.61646,36.536865
"314",80.56031,36.550293
"315",80.53834,36.56372
"316",80.54078,36.57715
"317",80.5481,36.590576
"318",80.54566,36.604004
"319",80.51392,36.61743
"320",80.44068,36.63086
"321",80.32105,36.644287
"322",80.15259,36.657715
"323",79.93286,36.671143
"324",79.674065,36.68457
"325",79.38354,36.697998
"326",79.07103,36.711426
"327",78.746315,36.724854
"328",78.433815,36.73828
"329",78.150604,36.75171
"330",77.90646,36.765137
"331",77.71114,36.778564
"332",77.55978,36.791992
"333",77.44503,36.80542
"334",77.35226,36.818848
"335",77.281456,36.832275
"336",77.23018,36.845703
"337",77.21065,36.85913
"338",77.24727,36.87256
"339",77.40597,36.885986
"340",77.75998,36.899414
"341",78.348366,36.91284
"342",79.17601,36.92627
"343",80.18921,36.939697
"344",81.2781,36.953125
"345",82.31327,36.966553
"346",83.19951,36.97998
"347",83.87091,36.99341
"348",84.30793,37.006836
"349",84.525215,37.020264
"350",84.55451,37.03369
"351",84.43244,37.04712
"352",84.2005,37.060547
"353",83.90021,37.073975
"354",83.55596,37.087402
"355",83.18242,37.10083
"356",82.78203,37.114258
"357",82.3621,37.127686
"358",81.934845,37.141113
"359",81.51736,37.15454
"360",81.13161,37.16797
"361",80.80446,37.181396
"362",80.550545,37.194824
"363",80.36744,37.208252
"364",80.24536,37.22168
"365",80.17456,37.235107
"366",80.13306,37.248535
"367",80.09888,37.261963
"368",80.062256,37.27539
"369",80.0061,37.28882
"370",79.92554,37.302246
"371",79.815674,37.315674
"372",79.68139,37.3291
"373",79.53002,37.34253
"374",79.361565,37.355957
"375",79.18089,37.369385
"376",78.992905,37.382812
"377",78.802475,37.39624
"378",78.607155,37.409668
"379",78.41428,37.423096
"380",78.22873,37.436523
"381",78.05295,37.44995
"382",77.8967,37.46338
"383",77.76242,37.476807
"384",77.65011,37.490234
"385",77.55245,37.503662
"386",77.46212,37.51709
"387",77.37423,37.530518
"388",77.2839,37.543945
"389",77.208206,37.557373
"390",77.171585,37.5708
"391",77.23018,37.58423
"392",77.45968,37.597656
"393",77.92844,37.611084
"394",78.64622,37.62451
"395",79.57641,37.63794
"396",80.61402,37.651367
"397",81.6321,37.664795
"398",82.50614,37.678223
"399",83.160446,37.69165
"400",83.57061,37.70508
"401",83.75128,37.718506
"402",83.74395,37.731934
"403",83.597466,37.74536
"404",83.35821,37.75879
"405",83.06767,37.772217
"406",82.74784,37.785645
"407",82.408485,37.799072
"408",82.04715,37.8125
"409",81.668724,37.825928
"410",81.2781,37.839355
"411",80.89723,37.852783
"412",80.550545,37.86621
"413",80.26734,37.87964
"414",80.059814,37.893066
"415",79.92554,37.906494
"416",79.85474,37.91992
"417",79.82544,37.93335
"418",79.81079,37.946777
"419",79.7937,37.960205
"420",79.75464,37.973633
"421",79.68627,37.98706
"422",79.57885,38.00049
"423",79.432365,38.013916
"424",79.24437,38.027344
"425",79.027084,38.04077
"426",78.79027,38.0542
"427",78.553444,38.067627
"428",78.32395,38.081055
"429",78.116425,38.094482
"430",77.92844,38.10791
"431",77.76486,38.121338
"432",77.628136,38.134766
"433",77.51339,38.148193
"434",77.420616,38.16162
"435",77.34493,38.17505
"436",77.2839,38.188477
"437",77.22774,38.201904
"438",77.16914,38.215332
"439",77.11299,38.22876
"440",77.051956,38.242188
"441",76.995804,38.255615
"442",76.94942,38.269043
"443",76.91768,38.28247
"444",76.925,38.2959
"445",77.0251,38.309326
"446",77.281456,38.322754
"447",77.75754,38.33618
"448",78.48264,38.34961
"449",79.415276,38.363037
"450",80.45533,38.376465
"451",81.47341,38.389893
"452",82.34745,38.40332
"453",82.99931,38.416748
"454",83.40215,38.430176
"455",83.57305,38.443604
"456",83.55352,38.45703
"457",83.38506,38.47046
"458",83.1165,38.483887
"459",82.78935,38.497314
"460",82.43046,38.510742
"461",82.05203,38.52417
"462",81.66384,38.537598
"463",81.27322,38.551025
"464",80.89967,38.564453
"465",80.56031,38.57788
"466",80.27955,38.59131
"467",80.076904,38.604736
"468",79.957275,38.618164
"469",79.90845,38.63159
"470",79.91333,38.64502
"471",79.94263,38.658447
"472",79.971924,38.671875
"473",79.98413,38.685303
"474",79.957275,38.69873
"475",79.888916,38.71216
"476",79.77417,38.725586
"477",79.62035,38.739014
"478",79.432365,38.75244
"479",79.2224,38.76587
"480",79.00755,38.779297
"481",78.80003,38.792725
"482",78.6096,38.806152
"483",78.44846,38.81958
"484",78.31663,38.833008
"485",78.2092,38.846436
"486",78.12375,38.859863
"487",78.05539,38.87329
"488",77.99191,38.88672
"489",77.93088,38.900146
"490",77.86984,38.913574
"491",77.81125,38.927002
"492",77.75021,38.94043
"493",77.69405,38.953857
"494",77.645226,38.967285
"495",77.62325,38.980713
"496",77.67452,38.99414
"497",77.86984,39.00757
"498",78.27268,39.020996
"499",78.91478,39.034424
"500",79.76196,39.04785
"501",80.72877,39.06128
"502",81.7029,39.074707
"503",82.55985,39.088135
"504",83.21904,39.101562
"505",83.648735,39.11499
"506",83.8587,39.128418
"507",83.87335,39.141846
"508",83.74395,39.155273
"509",83.51202,39.1687
"510",83.22148,39.18213
"511",82.899216,39.195557
"512",82.55985,39.208984
"513",82.210724,39.222412
"514",81.85428,39.23584
"515",81.50271,39.249268
"516",81.163345,39.262695
"517",80.86549,39.276123
"518",80.621346,39.28955
"519",80.4358,39.30298
"520",80.31373,39.316406
"521",80.2478,39.329834
"522",80.22339,39.34326
"523",80.216064,39.35669
"524",80.20874,39.370117
"525",80.184326,39.383545
"526",80.128174,39.396973
"527",80.0354,39.4104
"528",79.91577,39.42383
"529",79.76929,39.437256
"530",79.603264,39.450684
"531",79.42504,39.46411
"532",79.237045,39.47754
"533",79.046616,39.490967
"534",78.85863,39.504395
"535",78.68284,39.517822
"536",78.51682,39.53125
"537",78.363014,39.544678
"538",78.22629,39.558105
"539",78.10422,39.571533
"540",77.99924,39.58496
"541",77.90402,39.59839
"542",77.823456,39.611816
"543",77.7551,39.625244
"544",77.696495,39.63867
"545",77.645226,39.6521
"546",77.60128,39.665527
"547",77.56466,39.678955
"548",77.5378,39.692383
"549",77.5671,39.70581
"550",77.71603,39.71924
"551",78.0676,39.732666
"552",78.67063,39.746094
"553",79.51537,39.75952
"554",80.52857,39.77295
"555",81.58572,39.786377
"556",82.55253,39.799805
"557",83.32159,39.813232
"558",83.85382,39.82666
"559",84.139465,39.840088
"560",84.22003,39.853516
"561",84.139465,39.866943
"562",83.949036,39.88037
"563",83.69024,39.8938
"564",83.39483,39.907227
"565",83.07988,39.920654
"566",82.75029,39.934082
"567",82.4036,39.94751
"568",82.039825,39.960938
"569",81.671165,39.974365
"570",81.31472,39.987793
"571",80.99733,40.00122
"572",80.740974,40.01465
"573",80.5481,40.028076
"574",80.41871,40.041504
"575",80.33326,40.05493
"576",80.274666,40.06836
"577",80.22095,40.081787
"578",80.16235,40.095215
"579",80.08911,40.108643
"580",79.99634,40.12207
"581",79.87915,40.135498
"582",79.73754,40.148926
"583",79.571526,40.162354
"584",79.378654,40.17578
"585",79.1638,40.18921
"586",78.93431,40.202637
"587",78.69993,40.216064
"588",78.47532,40.229492
"589",78.277565,40.24292
"590",78.1091,40.256348
"591",77.960175,40.269775
"592",77.81857,40.283203
"593",77.67452,40.29663
"594",77.54269,40.31006
"595",77.44015,40.323486
"596",77.39376,40.336914
"597",77.418175,40.35034
"598",77.51095,40.36377
"599",77.65255,40.377197
"600",77.803925,40.390625
"601",77.93088,40.404053
"602",78.009,40.41748
"603",78.028534,40.43091
"604",78.02609,40.444336
"605",78.0676,40.457764
"606",78.24826,40.47119
"607",78.63157,40.48462
"608",79.2517,40.498047
"609",80.06714,40.511475
"610",80.99733,40.524902
"611",81.92996,40.53833
"612",82.76982,40.551758
"613",83.45342,40.565186
"614",83.93683,40.578613
"615",84.19806,40.59204
"616",84.23224,40.60547
"617",84.04913,40.618896
"618",83.67071,40.632324
"619",83.15556,40.645752
"620",82.57206,40.65918
"621",81.986115,40.672607
"622",81.446556,40.686035
"623",80.99245,40.699463
"624",80.64576,40.71289
"625",80.41871,40.72632
"626",80.30152,40.739746
"627",80.28443,40.753174
"628",80.32838,40.7666
"629",80.39185,40.78003
"630",80.42603,40.793457
"631",80.38697,40.806885
"632",80.25025,40.820312
"633",80.03052,40.83374
"634",79.766846,40.847168
"635",79.51049,40.860596
"636",79.30785,40.874023
"637",79.19066,40.88745
"638",79.15404,40.90088
"639",79.1638,40.914307
"640",79.17113,40.927734
"641",79.13695,40.941162
"642",79.04173,40.95459
"643",78.873276,40.968018
"644",78.624245,40.981445
"645",78.31663,40.994873
"646",77.96994,41.0083
"647",77.62325,41.02173
"648",77.315636,41.035156
"649",77.08125,41.048584
"650",76.9543,41.06201
"651",76.9543,41.07544
"652",77.06416,41.088867
"653",77.239944,41.102295
"654",77.43282,41.115723
"655",77.58907,41.12915
"656",77.6672,41.14258
"657",77.659874,41.156006
"658",77.58175,41.169434
"659",77.47921,41.18286
"660",77.43282,41.19629
"661",77.55001,41.209717
"662",77.925995,41.223145
"663",78.6096,41.236572
"664",79.571526,41.25
"665",80.71412,41.263428
"666",81.88602,41.276855
"667",82.91875,41.290283
"668",83.700005,41.30371
"669",84.18341,41.31714
"670",84.36408,41.330566
"671",84.281075,41.343994
"672",83.98566,41.35742
"673",83.55108,41.37085
"674",83.04082,41.384277
"675",82.50126,41.397705
"676",81.971466,41.411133
"677",81.480736,41.42456
"678",81.04372,41.43799
"679",80.67017,41.451416
"680",80.37232,41.464844
"681",80.15991,41.47827
"682",80.03784,41.4917
"683",79.9939,41.505127
"684",80.00366,41.518555
"685",80.0354,41.531982
"686",80.062256,41.54541
"687",80.0647,41.558838
"688",80.02319,41.572266
"689",79.94507,41.585693
"690",79.83765,41.59912
"691",79.710686,41.61255
"692",79.57397,41.625977
"693",79.429924,41.639404
"694",79.281,41.652832
"695",79.11742,41.66626
"696",78.94408,41.679688
"697",78.765854,41.693115
"698",78.58762,41.706543
"699",78.41428,41.71997
"700",78.25071,41.7334
"701",78.099335,41.746826
"702",77.96506,41.760254
"703",77.84299,41.77368
"704",77.733116,41.78711
"705",77.642784,41.800537
"706",77.57198,41.813965
"707",77.51339,41.827393
"708",77.45724,41.84082
"709",77.401085,41.854248
"710",77.34005,41.867676
"711",77.27169,41.881104
"712",77.205765,41.89453
"713",77.152054,41.90796
"714",77.152054,41.921387
"715",77.281456,41.934814
"716",77.63058,41.948242
"717",78.25803,41.96167
"718",79.1638,41.975098
"719",80.274666,41.988525
"720",81.45144,42.001953
"721",82.53544,42.01538
"722",83.39483,42.02881
"723",83.97833,42.042236
"724",84.27863,42.055664
"725",84.3299,42.06909
"726",84.18097,42.08252
"727",83.88312,42.095947
"728",83.49004,42.109375
"729",83.03349,42.122803
"730",82.545204,42.13623
"731",82.04959,42.14966
"732",81.56374,42.163086
"733",81.10475,42.176514
"734",80.69947,42.18994
"735",80.36744,42.20337
"736",80.12573,42.216797
"737",79.98169,42.230225
"738",79.920654,42.243652
"739",79.923096,42.25708
"740",79.9646,42.270508
"741",80.01831,42.283936
"742",80.0647,42.297363
"743",80.08423,42.31079
"744",80.06958,42.32422
"745",80.01587,42.337646
"746",79.923096,42.351074
"747",79.79126,42.364502
"748",79.62768,42.37793
"749",79.43725,42.391357
"750",79.22728,42.404785
"751",79.00511,42.418213
"752",78.7805,42.43164
"753",78.56321,42.44507
"754",78.35813,42.458496
"755",78.167694,42.471924
"756",77.996796,42.48535
"757",77.838104,42.49878
"758",77.69894,42.512207
"759",77.574425,42.525635
"760",77.46456,42.539062
"761",77.36935,42.55249
"762",77.28634,42.565918
"763",77.208206,42.579346
"764",77.13008,42.592773
"765",77.05684,42.6062
"766",76.9836,42.61963
"767",76.93477,42.633057
"768",76.96895,42.646484
"769",77.18379,42.659912
"770",77.67208,42.67334
"771",78.487526,42.686768
"772",79.5935,42.700195
"773",80.88014,42.713623
"774",82.16678,42.72705
"775",83.29229,42.74048
"776",84.1297,42.753906
"777",84.647285,42.767334
"778",84.857254,42.78076
"779",84.81575,42.79419
"780",84.578926,42.807617
"781",84.207825,42.821045
"782",83.74883,42.834473
"783",83.23857,42.8479
"784",82.69657,42.86133
"785",82.14969,42.874756
"786",81.61501,42.888184
"787",81.126724,42.90161
"788",80.70435,42.91504
"789",80.377205,42.928467
"790",80.15259,42.941895
"791",80.03296,42.955322
"792",79.99878,42.96875
"793",80.025635,42.982178
"794",80.08911,42.995605
"795",80.15259,43.009033
"796",80.19165,43.02246
"797",80.18677,43.03589
"798",80.13794,43.049316
"799",80.04028,43.062744
"800",79.903564,43.07617
"801",79.73754,43.0896
"802",79.54467,43.103027
"803",79.33227,43.116455
"804",79.10521,43.129883
"805",78.87816,43.14331
"806",78.6511,43.15674
"807",78.43626,43.170166
"808",78.23117,43.183594
"809",78.0383,43.19702
"810",77.857635,43.21045
"811",77.69405,43.223877
"812",77.54513,43.237305
"813",77.418175,43.250732
"814",77.30343,43.26416
"815",77.196,43.277588
"816",77.09834,43.291016
"817",77.00801,43.304443
"818",76.93965,43.31787
"819",76.93965,43.3313
"820",77.11299,43.344727
"821",77.56222,43.358154
"822",78.35081,43.371582
"823",79.45922,43.38501
"824",80.78493,43.398438
"825",82.15457,43.411865
"826",83.387505,43.425293
"827",84.34699,43.43872
"828",84.981766,43.45215
"829",85.30648,43.465576
"830",85.36263,43.479004
"831",85.20149,43.49243
"832",84.88655,43.50586
"833",84.46906,43.519287
"834",83.99054,43.532715
"835",83.48272,43.546143
"836",82.967575,43.55957
"837",82.46708,43.572998
"838",82.00076,43.586426
"839",81.583275,43.599854
"840",81.24147,43.61328
"841",80.99733,43.62671
"842",80.850845,43.640137
"843",80.78737,43.653564
"844",80.782486,43.666992
"845",80.80446,43.68042
"846",80.82887,43.693848
"847",80.833755,43.707275
"848",80.81178,43.720703
"849",80.76051,43.73413
"850",80.672615,43.74756
"851",80.53834,43.760986
"852",80.35035,43.774414
"853",80.11841,43.78784
"854",79.85474,43.80127
"855",79.56664,43.814697
"856",79.26635,43.828125
"857",78.97337,43.841553
"858",78.6804,43.85498
"859",78.38987,43.86841
"860",78.09445,43.881836
"861",77.80881,43.895264
"862",77.540245,43.90869
"863",77.30343,43.92212
"864",77.11055,43.935547
"865",76.9543,43.948975
"866",76.822464,43.962402
"867",76.70283,43.97583
"868",76.59785,43.989258
"869",76.50996,44.002686
"870",76.490425,44.016113
"871",76.6247,44.02954
"872",77.01289,44.04297
"873",77.733116,44.056396
"874",78.78294,44.069824
"875",80.08667,44.083252
"876",81.49294,44.09668
"877",82.82353,44.110107
"878",83.92218,44.123535
"879",84.71809,44.136963
"880",85.19905,44.15039
"881",85.39437,44.16382
"882",85.36263,44.177246
"883",85.16487,44.190674
"884",84.85237,44.2041
"885",84.473946,44.21753
"886",84.06134,44.230957
"887",83.62432,44.244385
"888",83.17021,44.257812
"889",82.703896,44.27124
"890",82.2449,44.284668
"891",81.80789,44.298096
"892",81.40749,44.311523
"893",81.06325,44.32495
"894",80.78737,44.33838
"895",80.57984,44.351807
"896",80.430916,44.365234
"897",80.33326,44.378662
"898",80.26734,44.39209
"899",80.21118,44.405518
"900",80.15259,44.418945
"901",80.07446,44.432373
"902",79.971924,44.4458
"903",79.84009,44.45923
"904",79.68383,44.472656
"905",79.50805,44.486084
"906",79.32006,44.49951
"907",79.12718,44.51294
"908",78.92943,44.526367
"909",78.72678,44.539795
"910",78.521706,44.553223
"911",78.31663,44.56665
"912",78.116425,44.58008
"913",77.92355,44.593506
"914",77.74288,44.606934
"915",77.57198,44.62036
"916",77.41085,44.63379
"917",77.2546,44.647217
"918",77.10567,44.660645
"919",76.964066,44.674072
"920",76.83467,44.6875
"921",76.72724,44.700928
"922",76.69062,44.714355
"923",76.80293,44.727783
"924",77.16426,44.74121
"925",77.84787,44.75464
"926",78.8513,44.768066
"927",80.09155,44.781494
"928",81.42214,44.79492
"929",82.6746,44.80835
"930",83.71221,44.821777
"931",84.471504,44.835205
"932",84.94026,44.848633
"933",85.15755,44.86206
"934",85.16243,44.87549
"935",85.00862,44.888916
"936",84.7425,44.902344
"937",84.41047,44.91577
"938",84.03937,44.9292
"939",83.63897,44.942627
"940",83.21904,44.956055
"941",82.78691,44.969482
"942",82.35233,44.98291
"943",81.92508,44.996338
"944",81.53933,45.009766
"945",81.21217,45.023193
"946",80.95827,45.03662
"947",80.762955,45.05005
"948",80.62623,45.063477
"949",80.52369,45.076904
"950",80.43336,45.090332
"951",80.3357,45.10376
"952",80.22095,45.117188
"953",80.07446,45.130615
"954",79.888916,45.144043
"955",79.6643,45.15747
"956",79.40551,45.1709
"957",79.12962,45.184326
"958",78.84642,45.197754
"959",78.56809,45.21118
"960",78.30686,45.22461
"961",78.06271,45.238037
"962",77.838104,45.251465
"963",77.63058,45.264893
"964",77.437706,45.27832
"965",77.27169,45.291748
"966",77.12764,45.305176
"967",77.00557,45.318604
"968",76.90303,45.33203
"969",76.81758,45.34546
"970",76.73701,45.358887
"971",76.66865,45.372314
"972",76.627144,45.385742
"973",76.64912,45.39917
"974",76.807816,45.412598
"975",77.188675,45.426025
"976",77.84543,45.439453
"977",78.77806,45.45288
"978",79.923096,45.46631
"979",81.15602,45.479736
"980",82.32304,45.493164
"981",83.29717,45.50659
"982",84.00519,45.52002
"983",84.43488,45.533447
"984",84.60822,45.546875
"985",84.5716,45.560303
"986",84.39094,45.57373
"987",84.122375,45.58716
"988",83.81232,45.600586
"989",83.47784,45.614014
"990",83.13359,45.62744
"991",82.77226,45.64087
"992",82.391396,45.654297
"993",81.99344,45.667725
"994",81.60525,45.681152
"995",81.248795,45.69458
"996",80.95094,45.708008
"997",80.719,45.721436
"998",80.54566,45.734863
"999",80.413826,45.74829
"1000",80.30152,45.76172
"1001",80.201416,45.775146
"1002",80.09155,45.788574
"1003",79.9646,45.802002
"1004",79.80835,45.81543
"1005",79.622795,45.828857
"1006",79.40551,45.842285
"1007",79.16136,45.855713
"1008",78.905014,45.86914
"1009",78.643776,45.88257
"1010",78.38743,45.895996
"1011",78.14816,45.909424
"1012",77.92355,45.92285
"1013",77.713585,45.93628
"1014",77.52071,45.949707
"1015",77.34493,45.963135
"1016",77.17891,45.976562
"1017",77.0251,45.98999
"1018",76.88594,46.003418
"1019",76.76631,46.016846
"1020",76.65888,46.030273
"1021",76.55634,46.0437
"1022",76.456245,46.05713
"1023",76.36103,46.070557
"1024",76.265816,46.083984
"1025",76.190125,46.097412
"1026",76.1535,46.11084
"1027",76.21942,46.124268
"1028",76.473335,46.137695
"1029",77.00069,46.151123
"1030",77.83566,46.16455
"1031",78.958725,46.17798
"1032",80.257576,46.191406
"1033",81.58083,46.204834
"1034",82.76738,46.21826
"1035",83.700005,46.23169
"1036",84.332344,46.245117
"1037",84.66926,46.258545
"1038",84.754715,46.271973
"1039",84.63508,46.2854
"1040",84.37141,46.29883
"1041",84.02472,46.312256
"1042",83.63897,46.325684
"1043",83.24101,46.33911
"1044",82.847946,46.35254
"1045",82.45731,46.365967
"1046",82.06912,46.379395
"1047",81.688255,46.392822
"1048",81.32693,46.40625
"1049",81.004654,46.419678
"1050",80.73609,46.433105
"1051",80.533455,46.446533
"1052",80.38453,46.45996
"1053",80.28199,46.47339
"1054",80.2063,46.486816
"1055",80.14526,46.500244
"1056",80.07446,46.51367
"1057",79.97925,46.5271
"1058",79.84985,46.540527
"1059",79.68383,46.553955
"1060",79.47875,46.567383
"1061",79.237045,46.58081
"1062",78.958725,46.59424
"1063",78.658424,46.607666
"1064",78.34104,46.621094
"1065",78.02365,46.63452
"1066",77.72335,46.64795
"1067",77.45968,46.661377
"1068",77.22774,46.674805
"1069",77.03731,46.688232
"1070",76.88106,46.70166
"1071",76.754105,46.715088
"1072",76.654,46.728516
"1073",76.57343,46.741943
"1074",76.50507,46.75537
"1075",76.44404,46.7688
"1076",76.39277,46.782227
"1077",76.351265,46.795654
"1078",76.32685,46.809082
"1079",76.317085,46.82251
"1080",76.31953,46.835938
"1081",76.351265,46.849365
"1082",76.456245,46.862793
"1083",76.715034,46.87622
"1084",77.22041,46.88965
"1085",78.02365,46.903076
"1086",79.10033,46.916504
"1087",80.36988,46.92993
"1088",81.67605,46.94336
"1089",82.86748,46.956787
"1090",83.83429,46.970215
"1091",84.525215,46.983643
"1092",84.94026,46.99707
"1093",85.11116,47.010498
"1094",85.08675,47.023926
"1095",84.91585,47.037354
"1096",84.63508,47.05078
"1097",84.281075,47.06421
"1098",83.87579,47.077637
"1099",83.43145,47.091064
"1100",82.96025,47.104492
"1101",82.48417,47.11792
"1102",82.03006,47.131348
"1103",81.62478,47.144775
"1104",81.29763,47.158203
"1105",81.07301,47.17163
"1106",80.96071,47.18506
"1107",80.95094,47.198486
"1108",81.01686,47.211914
"1109",81.12184,47.22534
"1110",81.21706,47.23877
"1111",81.253685,47.252197
"1112",81.197525,47.265625
"1113",81.03395,47.279053
"1114",80.77028,47.29248
"1115",80.43824,47.30591
"1116",80.062256,47.319336
"1117",79.68383,47.332764
"1118",79.327385,47.34619
"1119",79.00511,47.35962
"1120",78.71458,47.373047
"1121",78.44846,47.386475
"1122",78.19943,47.399902
"1123",77.962616,47.41333
"1124",77.73556,47.426758
"1125",77.5256,47.440186
"1126",77.332726,47.453613
"1127",77.152054,47.46704
"1128",76.97627,47.48047
"1129",76.807816,47.493896
"1130",76.646675,47.507324
"1131",76.50019,47.520752
"1132",76.3708,47.53418
"1133",76.25605,47.547607
"1134",76.155945,47.561035
"1135",76.06317,47.574463
"1136",75.99237,47.58789
"1137",75.98993,47.60132
"1138",76.13397,47.614746
"1139",76.51728,47.628174
"1140",77.196,47.6416
"1141",78.17746,47.65503
"1142",79.378654,47.668457
"1143",80.672615,47.681885
"1144",81.900665,47.695312
"1145",82.92851,47.70874
"1146",83.685356,47.722168
"1147",84.156555,47.735596
"1148",84.37141,47.749023
"1149",84.38117,47.76245
"1150",84.23712,47.77588
"1151",83.983215,47.789307
"1152",83.66094,47.802734
"1153",83.29229,47.816162
"1154",82.89189,47.82959
"1155",82.46708,47.843018
"1156",82.03494,47.856445
"1157",81.60525,47.869873
"1158",81.20241,47.8833
"1159",80.848404,47.89673
"1160",80.56031,47.910156
"1161",80.34547,47.923584
"1162",80.201416,47.93701
"1163",80.111084,47.95044
"1164",80.05005,47.963867
"1165",80.00366,47.977295
"1166",79.95239,47.990723
"1167",79.8938,48.00415
"1168",79.83032,48.01758
"1169",79.75464,48.031006
"1170",79.66918,48.044434
"1171",79.57641,48.05786
"1172",79.466545,48.07129
"1173",79.33715,48.084717
"1174",79.19554,48.098145
"1175",79.044174,48.111572
"1176",78.88548,48.125
"1177",78.72434,48.138428
"1178",78.553444,48.151855
"1179",78.37522,48.165283
"1180",78.184784,48.17871
"1181",77.979706,48.19214
"1182",77.77463,48.205566
"1183",77.58419,48.218994
"1184",77.41573,48.23242
"1185",77.281456,48.24585
"1186",77.188675,48.259277
"1187",77.12764,48.272705
"1188",77.07637,48.286133
"1189",77.032425,48.29956
"1190",76.98604,48.31299
"1191",76.95186,48.326416
"1192",76.97383,48.339844
"1193",77.134964,48.35327
"1194",77.51827,48.3667
"1195",78.17502,48.380127
"1196",79.09544,48.393555
"1197",80.218506,48.406982
"1198",81.42214,48.42041
"1199",82.55497,48.433838
"1200",83.509575,48.447266
"1201",84.21515,48.460693
"1202",84.65461,48.47412
"1203",84.84993,48.48755
"1204",84.857254,48.500977
"1205",84.73762,48.514404
"1206",84.53254,48.527832
"1207",84.26887,48.54126
"1208",83.95636,48.554688
"1209",83.58282,48.568115
"1210",83.14824,48.581543
"1211",82.67948,48.59497
"1212",82.20828,48.6084
"1213",81.77127,48.621826
"1214",81.40505,48.635254
"1215",81.11696,48.64868
"1216",80.89479,48.66211
"1217",80.726326,48.675537
"1218",80.59449,48.688965
"1219",80.48707,48.702393
"1220",80.39185,48.71582
"1221",80.2942,48.729248
"1222",80.184326,48.742676
"1223",80.05493,48.756104
"1224",79.90112,48.76953
"1225",79.725334,48.78296
"1226",79.534904,48.796387
"1227",79.32983,48.809814
"1228",79.11253,48.823242
"1229",78.887924,48.83667
"1230",78.660866,48.850098
"1231",78.4387,48.863525
"1232",78.22629,48.876953
"1233",78.02365,48.89038
"1234",77.83078,48.90381
"1235",77.65499,48.917236
"1236",77.49142,48.930664
"1237",77.33761,48.94409
"1238",77.188675,48.95752
"1239",77.04463,48.970947
"1240",76.90303,48.984375
"1241",76.76387,48.997803
"1242",76.64179,49.01123
"1243",76.53925,49.02466
"1244",76.46845,49.038086
"1245",76.46845,49.051514
"1246",76.612495,49.06494
"1247",76.96895,49.07837
"1248",77.60128,49.091797
"1249",78.521706,49.105225
"1250",79.67162,49.118652
"1251",80.92409,49.13208
"1252",82.1326,49.145508
"1253",83.160446,49.158936
"1254",83.92218,49.172363
"1255",84.3885,49.18579
"1256",84.58381,49.19922
"1257",84.55695,49.212646
"1258",84.37141,49.226074
"1259",84.08087,49.239502
"1260",83.717094,49.25293
"1261",83.299614,49.266357
"1262",82.83086,49.279785
"1263",82.31815,49.293213
"1264",81.78836,49.30664
"1265",81.270775,49.32007
"1266",80.80934,49.333496
"1267",80.4358,49.346924
"1268",80.17212,49.36035
"1269",80.01099,49.37378
"1270",79.93286,49.387207
"1271",79.903564,49.400635
"1272",79.89136,49.414062
"1273",79.871826,49.42749
"1274",79.818115,49.440918
"1275",79.73266,49.454346
"1276",79.61303,49.467773
"1277",79.466545,49.4812
"1278",79.29565,49.49463
"1279",79.10277,49.508057
"1280",78.887924,49.521484
"1281",78.65354,49.534912
"1282",78.397194,49.54834
"1283",78.133514,49.561768
"1284",77.88205,49.575195
"1285",77.65499,49.588623
"1286",77.454796,49.60205
"1287",77.279015,49.61548
"1288",77.117874,49.628906
"1289",76.95918,49.642334
"1290",76.79561,49.65576
"1291",76.63691,49.66919
"1292",76.490425,49.682617
"1293",76.36347,49.696045
"1294",76.25849,49.709473
"1295",76.19501,49.7229
"1296",76.19501,49.73633
"1297",76.317085,49.749756
"1298",76.64912,49.763184
"1299",77.24971,49.77661
"1300",78.14328,49.79004
"1301",79.273674,49.803467
"1302",80.54078,49.816895
"1303",81.7908,49.830322
"1304",82.88701,49.84375
"1305",83.734184,49.857178
"1306",84.29328,49.870605
"1307",84.56428,49.884033
"1308",84.576485,49.89746
"1309",84.37873,49.91089
"1310",84.03693,49.924316
"1311",83.60967,49.937744
"1312",83.13603,49.95117
"1313",82.63798,49.9646
"1314",82.1326,49.978027
"1315",81.62722,49.991455
"1316",81.126724,50.004883
"1317",80.655525,50.01831
"1318",80.23804,50.03174
"1319",79.8938,50.045166
"1320",79.63744,50.058594
"1321",79.46166,50.07202
"1322",79.361565,50.08545
"1323",79.32006,50.098877
"1324",79.31518,50.112305
"1325",79.31762,50.125732
"1326",79.310295,50.13916
"1327",79.27856,50.152588
"1328",79.22484,50.166016
"1329",79.14671,50.179443
"1330",79.05394,50.19287
"1331",78.96117,50.2063
"1332",78.870834,50.219727
"1333",78.77562,50.233154
"1334",78.66575,50.246582
"1335",78.53147,50.26001
"1336",78.37522,50.273438
"1337",78.19943,50.286865
"1338",78.01877,50.300293
"1339",77.857635,50.31372
"1340",77.72335,50.32715
"1341",77.61837,50.340576
"1342",77.52804,50.354004
"1343",77.44991,50.36743
"1344",77.36935,50.38086
"1345",77.296104,50.394287
"1346",77.24727,50.407715
"1347",77.27657,50.421143
"1348",77.469444,50.43457
"1349",77.90646,50.447998
"1350",78.62913,50.461426
"1351",79.61059,50.474854
"1352",80.76051,50.48828
"1353",81.93973,50.50171
"1354",82.99443,50.515137
"1355",83.824524,50.528564
"1356",84.37873,50.541992
"1357",84.65217,50.55542
"1358",84.6717,50.568848
"1359",84.48615,50.582275
"1360",84.15411,50.595703
"1361",83.7293,50.60913
"1362",83.265434,50.62256
"1363",82.791794,50.635986
"1364",82.320595,50.649414
"1365",81.849396,50.66284
"1366",81.375755,50.67627
"1367",80.91432,50.689697
"1368",80.49195,50.703125
"1369",80.130615,50.716553
"1370",79.85962,50.72998
"1371",79.67895,50.74341
"1372",79.57641,50.756836
"1373",79.5227,50.770264
"1374",79.49096,50.78369
"1375",79.46166,50.79712
"1376",79.412834,50.810547
"1377",79.33715,50.823975
"1378",79.22972,50.837402
"1379",79.08568,50.85083
"1380",78.91478,50.864258
"1381",78.7219,50.877686
"1382",78.51438,50.891113
"1383",78.30198,50.90454
"1384",78.09201,50.91797
"1385",77.88205,50.931396
"1386",77.66964,50.944824
"1387",77.44991,50.958252
"1388",77.23506,50.97168
"1389",77.02754,50.985107
"1390",76.83223,50.998535
"1391",76.65888,51.011963
"1392",76.507515,51.02539
"1393",76.37568,51.03882
"1394",76.26826,51.052246
"1395",76.190125,51.065674
"1396",76.16327,51.0791
"1397",76.241394,51.09253
"1398",76.50263,51.105957
"1399",77.01045,51.119385
"1400",77.803925,51.132812
"1401",78.84398,51.14624
"1402",80.03052,51.159668
"1403",81.2195,51.173096
"1404",82.27665,51.186523
"1405",83.09453,51.19995
"1406",83.63897,51.21338
"1407",83.91974,51.226807
"1408",83.980774,51.240234
"1409",83.87335,51.253662
"1410",83.64141,51.26709
"1411",83.32891,51.280518
"1412",82.96269,51.293945
"1413",82.56718,51.307373
"1414",82.142365,51.3208
"1415",81.7029,51.33423
"1416",81.26345,51.347656
"1417",80.83864,51.361084
"1418",80.448006,51.37451
"1419",80.12573,51.38794
"1420",79.88403,51.401367
"1421",79.727776,51.414795
"1422",79.64965,51.428223
"1423",79.62035,51.44165
"1424",79.61547,51.45508
"1425",79.61303,51.468506
"1426",79.59106,51.481934
"1427",79.537346,51.49536
"1428",79.449455,51.50879
"1429",79.33471,51.522217
"1430",79.19554,51.535645
"1431",79.03685,51.549072
"1432",78.86839,51.5625
"1433",78.69749,51.575928
"1434",78.521706,51.589355
"1435",78.34104,51.602783
"1436",78.170135,51.61621
"1437",78.00656,51.62964
"1438",77.857635,51.643066
"1439",77.71847,51.656494
"1440",77.593956,51.66992
"1441",77.48409,51.68335
"1442",77.38644,51.696777
"1443",77.30587,51.710205
"1444",77.242386,51.723633
"1445",77.21553,51.73706
"1446",77.261925,51.75049
"1447",77.44259,51.763916
"1448",77.821014,51.777344
"1449",78.43626,51.79077
"1450",79.27123,51.8042
"1451",80.255135,51.817627
"1452",81.27322,51.831055
"1453",82.20096,51.844482
"1454",82.93828,51.85791
"1455",83.44366,51.871338
"1456",83.70977,51.884766
"1457",83.76105,51.898193
"1458",83.648735,51.91162
"1459",83.41924,51.92505
"1460",83.12627,51.938477
"1461",82.794235,51.951904
"1462",82.442665,51.965332
"1463",82.07645,51.97876
"1464",81.69802,51.992188
"1465",81.31472,52.005615
"1466",80.94606,52.019043
"1467",80.61646,52.03247
"1468",80.34547,52.0459
"1469",80.14526,52.059326
"1470",80.01343,52.072754
"1471",79.94507,52.08618
"1472",79.93286,52.09961
"1473",79.954834,52.113037
"1474",79.98901,52.126465
"1475",80.00366,52.139893
"1476",79.97925,52.15332
"1477",79.89136,52.166748
"1478",79.73754,52.180176
"1479",79.52514,52.193604
"1480",79.27123,52.20703
"1481",78.98802,52.22046
"1482",78.692604,52.233887
"1483",78.42161,52.247314
"1484",78.184784,52.260742
"1485",77.994354,52.27417
"1486",77.84787,52.287598
"1487",77.752655,52.301025
"1488",77.696495,52.314453
"1489",77.66476,52.32788
"1490",77.65011,52.34131
"1491",77.642784,52.354736
"1492",77.63546,52.368164
"1493",77.625694,52.38159
"1494",77.642784,52.39502
"1495",77.738,52.408447
"1496",77.98703,52.421875
"1497",78.45823,52.435303
"1498",79.185776,52.44873
"1499",80.13794,52.46216
"1500",81.22682,52.475586
"1501",82.32548,52.489014
"1502",83.3045,52.50244
"1503",84.0589,52.51587
"1504",84.55695,52.529297
"1505",84.805984,52.542725
"1506",84.84505,52.556152
"1507",84.715645,52.56958
"1508",84.46418,52.583008
"1509",84.13458,52.596436
"1510",83.758606,52.609863
"1511",83.35088,52.62329
"1512",82.916306,52.63672
"1513",82.459755,52.650146
"1514",81.98367,52.663574
"1515",81.50759,52.677002
"1516",81.0486,52.69043
"1517",80.638435,52.703857
"1518",80.306404,52.717285
"1519",80.059814,52.730713
"1520",79.89136,52.74414
"1521",79.78882,52.75757
"1522",79.727776,52.770996
"1523",79.691154,52.784424
"1524",79.656975,52.79785
"1525",79.61059,52.81128
"1526",79.55688,52.824707
"1527",79.49096,52.838135
"1528",79.412834,52.851562
"1529",79.33471,52.86499
"1530",79.256584,52.878418
"1531",79.17601,52.891846
"1532",79.08568,52.905273
"1533",78.98802,52.9187
"1534",78.87572,52.93213
"1535",78.746315,52.945557
"1536",78.6096,52.958984
"1537",78.46555,52.972412
"1538",78.328835,52.98584
"1539",78.20187,52.999268
"1540",78.08957,53.012695
"1541",77.99191,53.026123
"1542",77.908905,53.03955
"1543",77.84543,53.05298
"1544",77.80881,53.066406
"1545",77.81857,53.079834
"1546",77.92844,53.09326
"1547",78.19943,53.10669
"1548",78.69016,53.120117
"1549",79.40795,53.133545
"1550",80.31373,53.146973
"1551",81.31228,53.1604
"1552",82.28397,53.17383
"1553",83.11406,53.187256
"1554",83.73174,53.200684
"1555",84.11505,53.21411
"1556",84.2884,53.22754
"1557",84.2884,53.240967
"1558",84.16632,53.254395
"1559",83.95392,53.267822
"1560",83.69512,53.28125
"1561",83.39483,53.294678
"1562",83.06279,53.308105
"1563",82.69657,53.321533
"1564",82.303505,53.33496
"1565",81.89578,53.34839
"1566",81.48806,53.361816
"1567",81.109634,53.375244
"1568",80.78493,53.38867
"1569",80.52857,53.4021
"1570",80.34547,53.415527
"1571",80.218506,53.428955
"1572",80.128174,53.442383
"1573",80.05249,53.45581
"1574",79.97925,53.46924
"1575",79.886475,53.482666
"1576",79.77661,53.496094
"1577",79.64721,53.50952
"1578",79.50317,53.52295
"1579",79.34203,53.536377
"1580",79.17601,53.549805
"1581",79.00267,53.563232
"1582",78.83421,53.57666
"1583",78.66819,53.590088
"1584",78.504616,53.603516
"1585",78.345924,53.616943
"1586",78.19699,53.63037
"1587",78.06027,53.6438
"1588",77.93332,53.657227
"1589",77.821014,53.670654
"1590",77.71603,53.684082
"1591",77.628136,53.69751
"1592",77.54757,53.710938
"1593",77.47921,53.724365
"1594",77.420616,53.737793
"1595",77.366905,53.75122
"1596",77.31808,53.76465
"1597",77.2839,53.778076
"1598",77.26925,53.791504
"1599",77.313194,53.80493
"1600",77.48165,53.81836
"1601",77.840546,53.831787
"1602",78.44846,53.845215
"1603",79.30297,53.858643
"1604",80.34058,53.87207
"1605",81.449,53.885498
"1606",82.48417,53.898926
"1607",83.32647,53.912354
"1608",83.914856,53.92578
"1609",84.24933,53.93921
"1610",84.36408,53.952637
"1611",84.31037,53.966064
"1612",84.139465,53.979492
"1613",83.90021,53.99292
"1614",83.62188,54.006348
"1615",83.30938,54.019775
"1616",82.97246,54.033203
"1617",82.6038,54.04663
"1618",82.210724,54.06006
"1619",81.80301,54.073486
"1620",81.41482,54.086914
"1621",81.077896,54.10034
"1622",80.82399,54.11377
"1623",80.66773,54.127197
"1624",80.59937,54.140625
"1625",80.604256,54.154053
"1626",80.64088,54.16748
"1627",80.68238,54.18091
"1628",80.69459,54.194336
"1629",80.66041,54.207764
"1630",80.57496,54.22119
"1631",80.43824,54.23462
"1632",80.2649,54.248047
"1633",80.0647,54.261475
"1634",79.84985,54.274902
"1635",79.62768,54.28833
"1636",79.40307,54.301758
"1637",79.17357,54.315186
"1638",78.93431,54.328613
"1639",78.69993,54.34204
"1640",78.4802,54.35547
"1641",78.28489,54.368896
"1642",78.12131,54.382324
"1643",77.99191,54.395752
"1644",77.89426,54.40918
"1645",77.81125,54.422607
"1646",77.733116,54.436035
"1647",77.65499,54.449463
"1648",77.574425,54.46289
"1649",77.49142,54.47632
"1650",77.40597,54.489746
"1651",77.315636,54.503174
"1652",77.225296,54.5166
"1653",77.134964,54.53003
"1654",77.049515,54.543457
"1655",76.995804,54.556885
"1656",77.032425,54.570312
"1657",77.23506,54.58374
"1658",77.67696,54.597168
"1659",78.38743,54.610596
"1660",79.32983,54.624023
"1661",80.41627,54.63745
"1662",81.5198,54.65088
"1663",82.50614,54.664307
"1664",83.28741,54.677734
"1665",83.82208,54.691162
"1666",84.11505,54.70459
"1667",84.20294,54.718018
"1668",84.13214,54.731445
"1669",83.95636,54.744873
"1670",83.717094,54.7583
"1671",83.43633,54.77173
"1672",83.11406,54.785156
"1673",82.75273,54.798584
"1674",82.357216,54.81201
"1675",81.93729,54.82544
"1676",81.529564,54.838867
"1677",81.160904,54.852295
"1678",80.85817,54.865723
"1679",80.62623,54.87915
"1680",80.46021,54.89258
"1681",80.34058,54.906006
"1682",80.24536,54.919434
"1683",80.15259,54.93286
"1684",80.059814,54.94629
"1685",79.96216,54.959717
"1686",79.86206,54.973145
"1687",79.75708,54.986572
"1688",79.65453,55
"1689",79.54223,55.013428
"1690",79.41039,55.026855
"1691",79.26147,55.040283
"1692",79.10033,55.05371
"1693",78.92943,55.06714
"1694",78.76097,55.080566
"1695",78.60471,55.093994
"1696",78.45579,55.10742
"1697",78.311745,55.12085
"1698",78.17258,55.134277
"1699",78.04074,55.147705
"1700",77.91623,55.161133
"1701",77.80148,55.17456
"1702",77.69405,55.18799
"1703",77.58907,55.201416
"1704",77.471886,55.214844
"1705",77.34005,55.22827
"1706",77.196,55.2417
"1707",77.04707,55.255127
"1708",76.90303,55.268555
"1709",76.773636,55.281982
"1710",76.66865,55.29541
"1711",76.592964,55.308838
"1712",76.578316,55.322266
"1713",76.6833,55.335693
"1714",76.97627,55.34912
"1715",77.52071,55.36255
"1716",78.31907,55.375977
"1717",79.31518,55.389404
"1718",80.39918,55.402832
"1719",81.43923,55.41626
"1720",82.320595,55.429688
"1721",82.99443,55.443115
"1722",83.44366,55.456543
"1723",83.70489,55.46997
"1724",83.81964,55.4834
"1725",83.824524,55.496826
"1726",83.74639,55.510254
"1727",83.59991,55.52368
"1728",83.387505,55.53711
"1729",83.104294,55.550537
"1730",82.75517,55.563965
"1731",82.35966,55.577393
"1732",81.94217,55.59082
"1733",81.54665,55.604248
"1734",81.19997,55.617676
"1735",80.92409,55.631104
"1736",80.73365,55.64453
"1737",80.618904,55.65796
"1738",80.567635,55.671387
"1739",80.552986,55.684814
"1740",80.5481,55.698242
"1741",80.52613,55.71167
"1742",80.46754,55.725098
"1743",80.360115,55.738525
"1744",80.20874,55.751953
"1745",80.01587,55.76538
"1746",79.78882,55.77881
"1747",79.53002,55.792236
"1748",79.24681,55.805664
"1749",78.94652,55.81909
"1750",78.63157,55.83252
"1751",78.31907,55.845947
"1752",78.011444,55.859375
"1753",77.730675,55.872803
"1754",77.47921,55.88623
"1755",77.26681,55.89966
"1756",77.09346,55.913086
"1757",76.961624,55.926514
"1758",76.86641,55.93994
"1759",76.80049,55.95337
"1760",76.754105,55.966797
"1761",76.717476,55.980225
"1762",76.680855,55.993652
"1763",76.63691,56.00708
"1764",76.5832,56.020508
"1765",76.51972,56.033936
"1766",76.46113,56.047363
"1767",76.4123,56.06079
"1768",76.404976,56.07422
"1769",76.49531,56.087646
"1770",76.771194,56.101074
"1771",77.313194,56.114502
"1772",78.16525,56.12793
"1773",79.30541,56.141357
"1774",80.63111,56.154785
"1775",81.988556,56.168213
"1776",83.20683,56.18164
"1777",84.1712,56.19507
"1778",84.82796,56.208496
"1779",85.1844,56.221924
"1780",85.28207,56.23535
"1781",85.18196,56.24878
"1782",84.947586,56.262207
"1783",84.62043,56.275635
"1784",84.2298,56.289062
"1785",83.79523,56.30249
"1786",83.33135,56.315918
"1787",82.847946,56.329346
"1788",82.36698,56.342773
"1789",81.917755,56.3562
"1790",81.529564,56.36963
"1791",81.22194,56.383057
"1792",81.007095,56.396484
"1793",80.88258,56.409912
"1794",80.831314,56.42334
"1795",80.82399,56.436768
"1796",80.82643,56.450195
"1797",80.816666,56.463623
"1798",80.7776,56.47705
"1799",80.69459,56.49048
"1800",80.56275,56.503906
"1801",80.38697,56.517334
"1802",80.16968,56.53076
"1803",79.91821,56.54419
"1804",79.639885,56.557617
"1805",79.34692,56.571045
"1806",79.0515,56.584473
"1807",78.75853,56.5979
"1808",78.47776,56.61133
"1809",78.21408,56.624756
"1810",77.96994,56.638184
"1811",77.747765,56.65161
"1812",77.55001,56.66504
"1813",77.37667,56.678467
"1814",77.23018,56.691895
"1815",77.10811,56.705322
"1816",77.00313,56.71875
"1817",76.910355,56.732178
"1818",76.81758,56.745605
"1819",76.72968,56.759033
"1820",76.64912,56.77246
"1821",76.592964,56.78589
"1822",76.592964,56.799316
"1823",76.72968,56.812744
"1824",77.09346,56.82617
"1825",77.752655,56.8396
"1826",78.71946,56.853027
"1827",79.923096,56.866455
"1828",81.234146,56.879883
"1829",82.49149,56.89331
"1830",83.560844,56.90674
"1831",84.36652,56.920166
"1832",84.89632,56.933594
"1833",85.17708,56.94702
"1834",85.262535,56.96045
"1835",85.20149,56.973877
"1836",85.05257,56.987305
"1837",84.85481,57.000732
"1838",84.63264,57.01416
"1839",84.38117,57.027588
"1840",84.1004,57.041016
"1841",83.77814,57.054443
"1842",83.42901,57.06787
"1843",83.06523,57.0813
"1844",82.71366,57.094727
"1845",82.39872,57.108154
"1846",82.13748,57.121582
"1847",81.934845,57.13501
"1848",81.77371,57.148438
"1849",81.64187,57.161865
"1850",81.50759,57.175293
"1851",81.34402,57.18872
"1852",81.13405,57.20215
"1853",80.87038,57.215576
"1854",80.5481,57.229004
"1855",80.17944,57.24243
"1856",79.783936,57.25586
"1857",79.38354,57.269287
"1858",79.00267,57.282715
"1859",78.65354,57.296143
"1860",78.3386,57.30957
"1861",78.05783,57.322998
"1862",77.806366,57.336426
"1863",77.5671,57.349854
"1864",77.33517,57.36328
"1865",77.11055,57.37671
"1866",76.895706,57.390137
"1867",76.697945,57.403564
"1868",76.541695,57.416992
"1869",76.44892,57.43042
"1870",76.43427,57.443848
"1871",76.47822,57.457275
"1872",76.5539,57.470703
"1873",76.627144,57.48413
"1874",76.67841,57.49756
"1875",76.71992,57.510986
"1876",76.82979,57.524414
"1877",77.12276,57.53784
"1878",77.69161,57.55127
"1879",78.57053,57.564697
"1880",79.71801,57.578125
"1881",80.99733,57.591553
"1882",82.23758,57.60498
"1883",83.28008,57.61841
"1884",84.0296,57.631836
"1885",84.46662,57.645264
"1886",84.63996,57.65869
"1887",84.60822,57.67212
"1888",84.43244,57.685547
"1889",84.159,57.698975
"1890",83.826965,57.712402
"1891",83.44366,57.72583
"1892",83.0164,57.739258
"1893",82.55253,57.752686
"1894",82.074005,57.766113
"1895",81.61257,57.77954
"1896",81.20973,57.79297
"1897",80.907,57.806396
"1898",80.71656,57.819824
"1899",80.635994,57.833252
"1900",80.62867,57.84668
"1901",80.65308,57.860107
"1902",80.672615,57.873535
"1903",80.66773,57.886963
"1904",80.618904,57.90039
"1905",80.52857,57.91382
"1906",80.38941,57.927246
"1907",80.19653,57.940674
"1908",79.94995,57.9541
"1909",79.65453,57.96753
"1910",79.30297,57.980957
"1911",78.905014,57.994385
"1912",78.47532,58.007812
"1913",78.04562,58.02124
"1914",77.6379,58.034668
"1915",77.27413,58.048096
"1916",76.96651,58.061523
"1917",76.70527,58.07495
"1918",76.47578,58.08838
"1919",76.2707,58.101807
"1920",76.09979,58.115234
"1921",75.98016,58.128662
"1922",75.931335,58.14209
"1923",75.96307,58.155518
"1924",76.06317,58.168945
"1925",76.20233,58.182373
"1926",76.35615,58.1958
"1927",76.51484,58.20923
"1928",76.72724,58.222656
"1929",77.083694,58.236084
"1930",77.67696,58.24951
"1931",78.553444,58.26294
"1932",79.68627,58.276367
"1933",80.970474,58.289795
"1934",82.252235,58.303223
"1935",83.36797,58.31665
"1936",84.210266,58.33008
"1937",84.732735,58.343506
"1938",84.95003,58.356934
"1939",84.88899,58.37036
"1940",84.60822,58.38379
"1941",84.16876,58.397217
"1942",83.63409,58.410645
"1943",83.053024,58.424072
"1944",82.45487,58.4375
"1945",81.8616,58.450928
"1946",81.28054,58.464355
"1947",80.719,58.477783
"1948",80.19165,58.49121
"1949",79.727776,58.50464
"1950",79.37133,58.518066
"1951",79.15648,58.531494
"1952",79.093,58.54492
"1953",79.151596,58.55835
"1954",79.28588,58.571777
"1955",79.43969,58.585205
"1956",79.5642,58.598633
"1957",79.622795,58.61206
"1958",79.603264,58.62549
"1959",79.51049,58.638916
"1960",79.34936,58.652344
"1961",79.132065,58.66577
"1962",78.86351,58.6792
"1963",78.56077,58.692627
"1964",78.24094,58.706055
"1965",77.91135,58.719482
"1966",77.58419,58.73291
"1967",77.261925,58.746338
"1968",76.94209,58.759766
"1969",76.63203,58.773193
"1970",76.33906,58.78662
"1971",76.07294,58.80005
"1972",75.83856,58.813477
"1973",75.64568,58.826904
"1974",75.48943,58.840332
"1975",75.36248,58.85376
"1976",75.2575,58.867188
"1977",75.176926,58.880615
"1978",75.13054,58.894043
"1979",75.15251,58.90747
"1980",75.32586,58.9209
"1981",75.76532,58.934326
"1982",76.56855,58.947754
"1983",77.75998,58.96118
"1984",79.26635,58.97461
"1985",80.92897,58.988037
"1986",82.54032,59.001465
"1987",83.914856,59.014893
"1988",84.93782,59.02832
"1989",85.58968,59.041748
"1990",85.89975,59.055176
"1991",85.9144,59.068604
"1992",85.69955,59.08203
"1993",85.31136,59.09546
"1994",84.80354,59.108887
"1995",84.21271,59.122314
"1996",83.56817,59.135742
"1997",82.90166,59.14917
"1998",82.23758,59.162598
"1999",81.61013,59.176025
"2000",81.04616,59.189453
"2001",80.58228,59.20288
"2002",80.23071,59.21631
"2003",79.9939,59.229736
"2004",79.85718,59.243164
"2005",79.80347,59.25659
"2006",79.80591,59.27002
"2007",79.823,59.283447
"2008",79.83765,59.296875
"2009",79.84009,59.310303
"2010",79.83765,59.32373
"2011",79.82788,59.33716
"2012",79.80347,59.350586
"2013",79.74975,59.364014
"2014",79.65942,59.37744
"2015",79.50561,59.39087
"2016",79.290764,59.404297
"2017",79.03197,59.417725
"2018",78.751205,59.431152
"2019",78.45579,59.44458
"2020",78.16037,59.458008
"2021",77.86984,59.471436
"2022",77.58663,59.484863
"2023",77.31075,59.49829
"2024",77.03487,59.51172
"2025",76.75166,59.525146
"2026",76.46357,59.538574
"2027",76.18768,59.552002
"2028",75.94354,59.56543
"2029",75.77997,59.578857
"2030",75.78729,59.592285
"2031",76.09003,59.605713
"2032",76.77608,59.61914
"2033",77.85275,59.63257
"2034",79.22972,59.645996
"2035",80.740974,59.659424
"2036",82.178986,59.67285
"2037",83.38506,59.68628
"2038",84.2884,59.699707
"2039",84.89632,59.713135
"2040",85.25033,59.726562
"2041",85.399254,59.73999
"2042",85.37728,59.753418
"2043",85.21126,59.766846
"2044",84.91829,59.780273
"2045",84.51057,59.7937
"2046",84.00519,59.80713
"2047",83.42901,59.820557
"2048",82.80156,59.833984
"2049",82.17166,59.847412
"2050",81.583275,59.86084
"2051",81.08034,59.874268
"2052",80.68238,59.887695
"2053",80.39185,59.901123
"2054",80.18677,59.91455
"2055",80.04761,59.92798
"2056",79.94263,59.941406
"2057",79.84741,59.954834
"2058",79.7351,59.96826
"2059",79.588615,59.98169
"2060",79.40063,59.995117
"2061",79.168686,60.008545
"2062",78.907455,60.021973
"2063",78.63401,60.0354
"2064",78.3679,60.04883
"2065",78.12863,60.062256
"2066",77.925995,60.075684
"2067",77.7673,60.08911
"2068",77.64767,60.10254
"2069",77.55489,60.115967
"2070",77.46456,60.129395
"2071",77.349815,60.142822
"2072",77.21065,60.15625
"2073",77.04707,60.169678
"2074",76.876175,60.183105
"2075",76.71259,60.196533
"2076",76.575874,60.20996
"2077",76.490425,60.22339
"2078",76.53925,60.236816
"2079",76.841995,60.250244
"2080",77.50118,60.26367
"2081",78.54368,60.2771
"2082",79.888916,60.290527
"2083",81.36599,60.303955
"2084",82.7625,60.317383
"2085",83.897766,60.33081
"2086",84.68635,60.34424
"2087",85.12825,60.357666
"2088",85.27474,60.371094
"2089",85.186844,60.38452
"2090",84.928055,60.39795
"2091",84.54963,60.411377
"2092",84.11017,60.424805
"2093",83.648735,60.438232
"2094",83.194626,60.45166
"2095",82.760056,60.465088
"2096",82.34989,60.478516
"2097",81.95682,60.491943
"2098",81.58572,60.50537
"2099",81.24391,60.5188
"2100",80.94118,60.532227
"2101",80.69215,60.545654
"2102",80.50904,60.559082
"2103",80.38209,60.57251
"2104",80.29908,60.585938
"2105",80.24048,60.599365
"2106",80.17456,60.612793
"2107",80.08179,60.62622
"2108",79.94507,60.63965
"2109",79.75952,60.653076
"2110",79.517815,60.666504
"2111",79.22484,60.67993
"2112",78.887924,60.69336
"2113",78.521706,60.706787
"2114",78.14572,60.720215
"2115",77.786835,60.733643
"2116",77.45724,60.74707
"2117",77.16182,60.760498
"2118",76.89815,60.773926
"2119",76.67109,60.787354
"2120",76.470894,60.80078
"2121",76.299995,60.81421
"2122",76.15839,60.827637
"2123",76.05829,60.841064
"2124",76.00458,60.854492
"2125",76.019226,60.86792
"2126",76.16327,60.881348
"2127",76.53681,60.894775
"2128",77.22774,60.908203
"2129",78.27268,60.92163
"2130",79.61303,60.93506
"2131",81.11696,60.948486
"2132",82.59403,60.961914
"2133",83.86359,60.97534
"2134",84.80354,60.98877
"2135",85.3724,61.002197
"2136",85.60433,61.015625
"2137",85.56283,61.029053
"2138",85.31869,61.04248
"2139",84.928055,61.05591
"2140",84.44221,61.069336
"2141",83.88312,61.082764
"2142",83.26299,61.09619
"2143",82.581825,61.10962
"2144",81.866486,61.123047
"2145",81.15602,61.136475
"2146",80.49439,61.149902
"2147",79.92554,61.16333
"2148",79.48608,61.176758
"2149",79.19066,61.190186
"2150",79.03441,61.203613
"2151",78.98802,61.21704
"2152",79.02464,61.23047
"2153",79.10277,61.243896
"2154",79.18089,61.257324
"2155",79.23216,61.270752
"2156",79.23216,61.28418
"2157",79.18089,61.297607
"2158",79.078354,61.311035
"2159",78.93919,61.324463
"2160",78.78783,61.33789
"2161",78.626686,61.35132
"2162",78.45579,61.364746
"2163",78.28245,61.378174
"2164",78.09689,61.3916
"2165",77.8967,61.40503
"2166",77.69405,61.418457
"2167",77.49874,61.431885
"2168",77.315636,61.445312
"2169",77.14229,61.45874
"2170",76.978714,61.472168
"2171",76.81758,61.485596
"2172",76.65888,61.499023
"2173",76.50996,61.51245
"2174",76.41718,61.52588
"2175",76.48066,61.539307
"2176",76.81514,61.552734
"2177",77.506065,61.566162
"2178",78.54856,61.57959
"2179",79.852295,61.593018
"2180",81.25124,61.606445
"2181",82.55009,61.619873
"2182",83.59014,61.6333
"2183",84.30305,61.64673
"2184",84.69611,61.660156
"2185",84.805984,61.673584
"2186",84.69123,61.68701
"2187",84.41779,61.70044
"2188",84.03937,61.713867
"2189",83.5877,61.727295
"2190",83.09453,61.740723
"2191",82.56962,61.75415
"2192",82.03006,61.76758
"2193",81.495384,61.781006
"2194",80.99245,61.794434
"2195",80.552986,61.80786
"2196",80.20386,61.82129
"2197",79.96216,61.834717
"2198",79.82788,61.848145
"2199",79.78638,61.861572
"2200",79.798584,61.875
"2201",79.83276,61.888428
"2202",79.84497,61.901855
"2203",79.815674,61.915283
"2204",79.73266,61.92871
"2205",79.59594,61.94214
"2206",79.412834,61.955566
"2207",79.200424,61.968994
"2208",78.96117,61.98242
"2209",78.70237,61.99585
"2210",78.433815,62.009277
"2211",78.15549,62.022705
"2212",77.874725,62.036133
"2213",77.60128,62.04956
"2214",77.33761,62.06299
"2215",77.09834,62.076416
"2216",76.88838,62.089844
"2217",76.71259,62.10327
"2218",76.56611,62.1167
"2219",76.436714,62.130127
"2220",76.314644,62.143555
"2221",76.19501,62.156982
"2222",76.085144,62.17041
"2223",76.00946,62.183838
"2224",76.04608,62.197266
"2225",76.314644,62.210693
"2226",76.92256,62.22412
"2227",77.91135,62.23755
"2228",79.234604,62.250977
"2229",80.7483,62.264404
"2230",82.2449,62.277832
"2231",83.529106,62.29126
"2232",84.473946,62.304688
"2233",85.04768,62.318115
"2234",85.279625,62.331543
"2235",85.23811,62.34497
"2236",84.98665,62.3584
"2237",84.59113,62.371826
"2238",84.102844,62.385254
"2239",83.563286,62.39868
"2240",82.99199,62.41211
"2241",82.41337,62.425537
"2242",81.83963,62.438965
"2243",81.290306,62.452393
"2244",80.78981,62.46582
"2245",80.360115,62.479248
"2246",80.028076,62.492676
"2247",79.80591,62.506104
"2248",79.676506,62.51953
"2249",79.62035,62.53296
"2250",79.61059,62.546387
"2251",79.61303,62.559814
"2252",79.61303,62.573242
"2253",79.605705,62.58667
"2254",79.588615,62.600098
"2255",79.55932,62.613525
"2256",79.50805,62.626953
"2257",79.41772,62.64038
"2258",79.28344,62.65381
"2259",79.10277,62.667236
"2260",78.87572,62.680664
"2261",78.61936,62.69409
"2262",78.345924,62.70752
"2263",78.07736,62.720947
"2264",77.80148,62.734375
"2265",77.53048,62.747803
"2266",77.26925,62.76123
"2267",77.02266,62.77466
"2268",76.79805,62.788086
"2269",76.610054,62.801514
"2270",76.46357,62.81494
"2271",76.36347,62.82837
"2272",76.30244,62.841797
"2273",76.30732,62.855225
"2274",76.44404,62.868652
"2275",76.8127,62.88208
"2276",77.51583,62.895508
"2277",78.58518,62.908936
"2278",79.96216,62.922363
"2279",81.50515,62.93579
"2280",83.01396,62.94922
"2281",84.298164,62.962646
"2282",85.23811,62.976074
"2283",85.80209,62.989502
"2284",86.01694,63.00293
"2285",85.9559,63.016357
"2286",85.694664,63.029785
"2287",85.29427,63.043213
"2288",84.808426,63.05664
"2289",84.26887,63.07007
"2290",83.685356,63.083496
"2291",83.06767,63.096924
"2292",82.44022,63.11035
"2293",81.82498,63.12378
"2294",81.26589,63.137207
"2295",80.78737,63.150635
"2296",80.411385,63.164062
"2297",80.14038,63.17749
"2298",79.95972,63.190918
"2299",79.84253,63.204346
"2300",79.766846,63.217773
"2301",79.7058,63.2312
"2302",79.635,63.24463
"2303",79.537346,63.258057
"2304",79.40551,63.271484
"2305",79.24437,63.284912
"2306",79.05882,63.29834
"2307",78.853745,63.311768
"2308",78.63645,63.325195
"2309",78.416725,63.338623
"2310",78.19699,63.35205
"2311",77.98947,63.36548
"2312",77.79904,63.378906
"2313",77.63546,63.392334
"2314",77.4963,63.40576
"2315",77.37423,63.41919
"2316",77.264366,63.432617
"2317",77.171585,63.446045
"2318",77.07881,63.459473
"2319",76.981155,63.4729
"2320",76.86641,63.48633
"2321",76.74433,63.499756
"2322",76.60761,63.513184
"2323",76.50019,63.52661
"2324",76.49531,63.54004
"2325",76.72236,63.553467
"2326",77.29122,63.566895
"2327",78.25315,63.580322
"2328",79.55932,63.59375
"2329",81.07301,63.607178
"2330",82.59403,63.620605
"2331",83.92706,63.634033
"2332",84.947586,63.64746
"2333",85.6141,63.66089
"2334",85.9559,63.674316
"2335",86.02182,63.687744
"2336",85.87778,63.70117
"2337",85.592125,63.7146
"2338",85.21858,63.728027
"2339",84.79866,63.741455
"2340",84.34211,63.754883
"2341",83.86359,63.76831
"2342",83.35577,63.78174
"2343",82.83818,63.795166
"2344",82.32792,63.808594
"2345",81.85184,63.82202
"2346",81.43435,63.83545
"2347",81.094986,63.848877
"2348",80.831314,63.862305
"2349",80.64088,63.875732
"2350",80.51148,63.88916
"2351",80.42359,63.902588
"2352",80.35035,63.916016
"2353",80.272224,63.929443
"2354",80.15991,63.94287
"2355",80.0061,63.9563
"2356",79.801025,63.969727
"2357",79.54955,63.983154
"2358",79.259026,63.996582
"2359",78.94652,64.01001
"2360",78.61936,64.02344
"2361",78.30198,64.036865
"2362",78.00656,64.05029
"2363",77.73556,64.06372
"2364",77.4963,64.07715
"2365",77.28878,64.090576
"2366",77.10567,64.104004
"2367",76.94209,64.11743
"2368",76.80049,64.13086
"2369",76.68818,64.14429
"2370",76.59785,64.157715
"2371",76.52949,64.17114
"2372",76.473335,64.18457
"2373",76.42939,64.198
"2374",76.39277,64.211426
"2375",76.387886,64.22485
"2376",76.47578,64.23828
"2377",76.75166,64.25171
"2378",77.32296,64.26514
"2379",78.24338,64.278564
"2380",79.48119,64.29199
"2381",80.921646,64.30542
"2382",82.38407,64.31885
"2383",83.682915,64.332275
"2384",84.69367,64.3457
"2385",85.36263,64.35913
"2386",85.711754,64.37256
"2387",85.78256,64.38599
"2388",85.64095,64.399414
"2389",85.3431,64.41284
"2390",84.947586,64.42627
"2391",84.491035,64.4397
"2392",83.99786,64.453125
"2393",83.475395,64.46655
"2394",82.933395,64.47998
"2395",82.388954,64.49341
"2396",81.85428,64.506836
"2397",81.36111,64.52026
"2398",80.94118,64.53369
"2399",80.61158,64.54712
"2400",80.36988,64.56055
"2401",80.21118,64.573975
"2402",80.11841,64.5874
"2403",80.05737,64.60083
"2404",79.99878,64.61426
"2405",79.92554,64.627686
"2406",79.815674,64.64111
"2407",79.6643,64.65454
"2408",79.4641,64.66797
"2409",79.22972,64.6814
"2410",78.96849,64.694824
"2411",78.69016,64.70825
"2412",78.40452,64.72168
"2413",78.12131,64.73511
"2414",77.85031,64.748535
"2415",77.593956,64.76196
"2416",77.349815,64.77539
"2417",77.120316,64.78882
"2418",76.90791,64.802246
"2419",76.717476,64.815674
"2420",76.5539,64.8291
"2421",76.41474,64.84253
"2422",76.30244,64.85596
"2423",76.207214,64.869385
"2424",76.11688,64.88281
"2425",76.019226,64.89624
"2426",75.92157,64.90967
"2427",75.83124,64.923096
"2428",75.757996,64.93652
"2429",75.74578,64.94995
"2430",75.88495,64.96338
"2431",76.29023,64.97681
"2432",77.05928,64.990234
"2433",78.19699,65.00366
"2434",79.63256,65.01709
"2435",81.20485,65.03052
"2436",82.70878,65.043945
"2437",83.966125,65.05737
"2438",84.88167,65.0708
"2439",85.44564,65.08423
"2440",85.68734,65.09766
"2441",85.66537,65.111084
"2442",85.44076,65.12451
"2443",85.07698,65.13794
"2444",84.627754,65.15137
"2445",84.1297,65.164795
"2446",83.60235,65.17822
"2447",83.06279,65.19165
"2448",82.51591,65.20508
"2449",81.97635,65.218506
"2450",81.46609,65.23193
"2451",81.02174,65.24536
"2452",80.66773,65.25879
"2453",80.41871,65.27222
"2454",80.26246,65.285645
"2455",80.18677,65.29907
"2456",80.15259,65.3125
"2457",80.128174,65.32593
"2458",80.08667,65.339355
"2459",80.01343,65.35278
"2460",79.888916,65.36621
"2461",79.71557,65.37964
"2462",79.500725,65.39307
"2463",79.2517,65.406494
"2464",78.98314,65.41992
"2465",78.70725,65.43335
"2466",78.433815,65.44678
"2467",78.17502,65.460205
"2468",77.94064,65.47363
"2469",77.72823,65.48706
"2470",77.54513,65.50049
"2471",77.39376,65.513916
"2472",77.26681,65.52734
"2473",77.16182,65.54077
"2474",77.07881,65.5542
"2475",77.015335,65.56763
"2476",76.95918,65.581055
"2477",76.90547,65.59448
"2478",76.84444,65.60791
"2479",76.773636,65.62134
"2480",76.68818,65.634766
"2481",76.60029,65.64819
"2482",76.53437,65.66162
"2483",76.57343,65.67505
"2484",76.82735,65.68848
"2485",77.40597,65.701904
"2486",78.35813,65.71533
"2487",79.64965,65.72876
"2488",81.1487,65.74219
"2489",82.66239,65.755615
"2490",84.00275,65.76904
"2491",85.03548,65.78247
"2492",85.70931,65.7959
"2493",86.03891,65.809326
"2494",86.06821,65.822754
"2495",85.84604,65.83618
"2496",85.44076,65.84961
"2497",84.91829,65.86304
"2498",84.32746,65.876465
"2499",83.70977,65.88989
"2500",83.09941,65.90332
"2501",82.51591,65.91675
"2502",81.98123,65.930176
"2503",81.514915,65.9436
"2504",81.13893,65.95703
"2505",80.8777,65.97046
"2506",80.72877,65.98389
"2507",80.67994,65.997314
"2508",80.69703,66.01074
"2509",80.74586,66.02417
"2510",80.79225,66.0376
"2511",80.799576,66.051025
"2512",80.75075,66.06445
"2513",80.64576,66.07788
"2514",80.482185,66.09131
"2515",80.26978,66.10474
"2516",80.028076,66.118164
"2517",79.76929,66.13159
"2518",79.50317,66.14502
"2519",79.24193,66.15845
"2520",78.995346,66.171875
"2521",78.76341,66.1853
"2522",78.54612,66.19873
"2523",78.33616,66.21216
"2524",78.12375,66.225586
"2525",77.908905,66.23901
"2526",77.68917,66.25244
"2527",77.469444,66.26587
"2528",77.25216,66.2793
"2529",77.03975,66.292725
"2530",76.83467,66.30615
"2531",76.63203,66.31958
"2532",76.439156,66.33301
"2533",76.25849,66.346436
"2534",76.121765,66.35986
"2535",76.09247,66.37329
"2536",76.280464,66.38672
"2537",76.790726,66.40015
"2538",77.679405,66.413574
"2539",78.9099,66.427
"2540",80.35767,66.44043
"2541",81.84451,66.45386
"2542",83.18974,66.467285
"2543",84.25666,66.48071
"2544",85.00374,66.49414
"2545",85.43832,66.50757
"2546",85.609215,66.520996
"2547",85.56527,66.534424
"2548",85.36996,66.54785
"2549",85.06477,66.56128
"2550",84.67902,66.57471
"2551",84.23224,66.588135
"2552",83.734184,66.60156
"2553",83.18974,66.61499
"2554",82.61845,66.62842
"2555",82.04471,66.641846
"2556",81.50271,66.65527
"2557",81.0193,66.6687
"2558",80.61402,66.68213
"2559",80.29664,66.69556
"2560",80.05493,66.708984
"2561",79.869385,66.72241
"2562",79.71801,66.73584
"2563",79.57641,66.74927
"2564",79.4226,66.762695
"2565",79.24681,66.77612
"2566",79.046616,66.78955
"2567",78.82445,66.80298
"2568",78.58762,66.81641
"2569",78.34348,66.829834
"2570",78.101776,66.84326
"2571",77.872284,66.85669
"2572",77.65011,66.87012
"2573",77.44259,66.883545
"2574",77.2546,66.89697
"2575",77.083694,66.9104
"2576",76.93233,66.92383
"2577",76.80293,66.937256
"2578",76.68818,66.95068
"2579",76.595406,66.96411
"2580",76.51728,66.97754
"2581",76.44892,66.99097
"2582",76.385445,67.004395
"2583",76.32929,67.01782
"2584",76.27558,67.03125
"2585",76.23163,67.04468
"2586",76.226746,67.058105
"2587",76.30244,67.07153
"2588",76.541695,67.08496
"2589",77.03731,67.09839
"2590",77.84543,67.11182
"2591",78.96117,67.125244
"2592",80.2942,67.13867
"2593",81.69802,67.1521
"2594",83.001755,67.16553
"2595",84.06622,67.178955
"2596",84.82063,67.19238
"2597",85.25765,67.20581
"2598",85.40414,67.21924
"2599",85.32357,67.232666
"2600",85.07698,67.24609
"2601",84.72297,67.25952
"2602",84.30305,67.27295
"2603",83.83917,67.28638
"2604",83.33868,67.299805
"2605",82.804,67.31323
"2606",82.252235,67.32666
"2607",81.70046,67.34009
"2608",81.1902,67.353516
"2609",80.75319,67.36694
"2610",80.4065,67.38037
"2611",80.15991,67.3938
"2612",79.99634,67.40723
"2613",79.89136,67.420654
"2614",79.818115,67.43408
"2615",79.75708,67.44751
"2616",79.676506,67.46094
"2617",79.5642,67.474365
"2618",79.41039,67.48779
"2619",79.219955,67.50122
"2620",78.99046,67.51465
"2621",78.73411,67.528076
"2622",78.467995,67.541504
"2623",78.20676,67.55493
"2624",77.94797,67.56836
"2625",77.696495,67.58179
"2626",77.45724,67.595215
"2627",77.23262,67.60864
"2628",77.01778,67.62207
"2629",76.82735,67.6355
"2630",76.65888,67.648926
"2631",76.51972,67.66235
"2632",76.39765,67.67578
"2633",76.29511,67.68921
"2634",76.20477,67.70264
"2635",76.13397,67.716064
"2636",76.085144,67.72949
"2637",76.09735,67.74292
"2638",76.241394,67.75635
"2639",76.60517,67.769775
"2640",77.27413,67.7832
"2641",78.2678,67.79663
"2642",79.53246,67.81006
"2643",80.936295,67.82349
"2644",82.30595,67.836914
"2645",83.47784,67.85034
"2646",84.3592,67.86377
"2647",84.91829,67.8772
"2648",85.17952,67.890625
"2649",85.20149,67.90405
"2650",85.05501,67.91748
"2651",84.79866,67.93091
"2652",84.47639,67.944336
"2653",84.11017,67.95776
"2654",83.70489,67.97119
"2655",83.25811,67.98462
"2656",82.777145,67.99805
"2657",82.286415,68.011475
"2658",81.8201,68.0249
"2659",81.40505,68.03833
"2660",81.058365,68.05176
"2661",80.77272,68.065186
"2662",80.52857,68.07861
"2663",80.308846,68.09204
"2664",80.096436,68.10547
"2665",79.88403,68.1189
"2666",79.676506,68.132324
"2667",79.46899,68.14575
"2668",79.26391,68.15918
"2669",79.05638,68.17261
"2670",78.84886,68.186035
"2671",78.63889,68.19946
"2672",78.42893,68.21289
"2673",78.22873,68.22632
"2674",78.04318,68.239746
"2675",77.87961,68.253174
"2676",77.738,68.2666
"2677",77.611046,68.28003
"2678",77.486534,68.29346
"2679",77.347374,68.306885
"2680",77.188675,68.32031
"2681",77.01045,68.33374
"2682",76.82979,68.34717
"2683",76.66865,68.360596
"2684",76.54658,68.37402
"2685",76.49531,68.38745
"2686",76.578316,68.40088
"2687",76.87862,68.41431
"2688",77.48165,68.427734
"2689",78.41428,68.44116
"2690",79.62768,68.45459
"2691",81.00221,68.46802
"2692",82.3621,68.481445
"2693",83.53399,68.49487
"2694",84.39826,68.5083
"2695",84.92317,68.52173
"2696",85.12825,68.53516
"2697",85.06477,68.548584
"2698",84.805984,68.56201
"2699",84.40803,68.57544
"2700",83.91974,68.58887
"2701",83.36797,68.602295
"2702",82.777145,68.61572
"2703",82.161896,68.62915
"2704",81.53933,68.64258
"2705",80.936295,68.656006
"2706",80.38697,68.66943
"2707",79.92554,68.68286
"2708",79.58129,68.69629
"2709",79.364006,68.70972
"2710",79.259026,68.723145
"2711",79.23949,68.73657
"2712",79.27123,68.75
"2713",79.31518,68.76343
"2714",79.34203,68.776855
"2715",79.32983,68.79028
"2716",79.2517,68.80371
"2717",79.10765,68.81714
"2718",78.90257,68.83057
"2719",78.660866,68.843994
"2720",78.39475,68.85742
"2721",78.12619,68.87085
"2722",77.86984,68.88428
"2723",77.628136,68.897705
"2724",77.39132,68.91113
"2725",77.16182,68.92456
"2726",76.93965,68.93799
"2727",76.7248,68.951416
"2728",76.51728,68.96484
"2729",76.32197,68.97827
"2730",76.14374,68.9917
"2731",75.98505,69.00513
"2732",75.85809,69.018555
"2733",75.77753,69.03198
"2734",75.80438,69.04541
"2735",76.02655,69.05884
"2736",76.53437,69.072266
"2737",77.36202,69.08569
"2738",78.47532,69.09912
"2739",79.77173,69.11255
"2740",81.0901,69.12598
"2741",82.27665,69.139404
"2742",83.22392,69.15283
"2743",83.88556,69.16626
"2744",84.281075,69.17969
"2745",84.43488,69.193115
"2746",84.38361,69.20654
"2747",84.1712,69.21997
"2748",83.83185,69.2334
"2749",83.387505,69.246826
"2750",82.85771,69.260254
"2751",82.269325,69.27368
"2752",81.63943,69.28711
"2753",81.00221,69.30054
"2754",80.394295,69.313965
"2755",79.85474,69.32739
"2756",79.41772,69.34082
"2757",79.11009,69.35425
"2758",78.93431,69.367676
"2759",78.86595,69.3811
"2760",78.88304,69.39453
"2761",78.94408,69.40796
"2762",79.00267,69.42139
"2763",79.02464,69.434814
"2764",78.98802,69.44824
"2765",78.887924,69.46167
"2766",78.73167,69.4751
"2767",78.53391,69.488525
"2768",78.31663,69.50195
"2769",78.09445,69.51538
"2770",77.88449,69.52881
"2771",77.70138,69.54224
"2772",77.56222,69.555664
"2773",77.47677,69.56909
"2774",77.42794,69.58252
"2775",77.40597,69.59595
"2776",77.38155,69.609375
"2777",77.33761,69.6228
"2778",77.26925,69.63623
"2779",77.17403,69.64966
"2780",77.06172,69.663086
"2781",76.9543,69.67651
"2782",76.90059,69.68994
"2783",76.978714,69.70337
"2784",77.2839,69.7168
"2785",77.88205,69.730225
"2786",78.785385,69.74365
"2787",79.920654,69.75708
"2788",81.146255,69.77051
"2789",82.29618,69.783936
"2790",83.23613,69.79736
"2791",83.89044,69.81079
"2792",84.24689,69.82422
"2793",84.33723,69.83765
"2794",84.21515,69.851074
"2795",83.92706,69.8645
"2796",83.529106,69.87793
"2797",83.06279,69.89136
"2798",82.56718,69.904785
"2799",82.0618,69.91821
"2800",81.57595,69.93164
"2801",81.13161,69.94507
"2802",80.7483,69.958496
"2803",80.45045,69.971924
"2804",80.2478,69.98535
"2805",80.14526,69.99878
"2806",80.12085,70.01221
"2807",80.14526,70.025635
"2808",80.18677,70.03906
"2809",80.21362,70.05249
"2810",80.201416,70.06592
"2811",80.13794,70.079346
"2812",80.01099,70.09277
"2813",79.82788,70.1062
"2814",79.586174,70.11963
"2815",79.30053,70.13306
"2816",78.98314,70.146484
"2817",78.6511,70.15991
"2818",78.31907,70.17334
"2819",77.99924,70.18677
"2820",77.69894,70.200195
"2821",77.42306,70.21362
"2822",77.17891,70.22705
"2823",76.97139,70.24048
"2824",76.80049,70.25391
"2825",76.66865,70.267334
"2826",76.57343,70.28076
"2827",76.50507,70.29419
"2828",76.46601,70.30762
"2829",76.44892,70.321045
"2830",76.456245,70.33447
"2831",76.49287,70.3479
"2832",76.60517,70.36133
"2833",76.876175,70.374756
"2834",77.40841,70.38818
"2835",78.277565,70.40161
"2836",79.48119,70.41504
"2837",80.921646,70.42847
"2838",82.43046,70.441895
"2839",83.809875,70.45532
"2840",84.9012,70.46875
"2841",85.63119,70.48218
"2842",86.00473,70.495605
"2843",86.07065,70.50903
"2844",85.892426,70.52246
"2845",85.5433,70.53589
"2846",85.08675,70.54932
"2847",84.57404,70.562744
"2848",84.03204,70.57617
"2849",83.47784,70.5896
"2850",82.913864,70.60303
"2851",82.35233,70.616455
"2852",81.80301,70.62988
"2853",81.29275,70.64331
"2854",80.850845,70.65674
"2855",80.50904,70.670166
"2856",80.27711,70.68359
"2857",80.14282,70.69702
"2858",80.093994,70.71045
"2859",80.10132,70.72388
"2860",80.128174,70.737305
"2861",80.14282,70.75073
"2862",80.1355,70.76416
"2863",80.08911,70.77759
"2864",79.9939,70.791016
"2865",79.84741,70.80444
"2866",79.656975,70.81787
"2867",79.42016,70.8313
"2868",79.149155,70.84473
"2869",78.86107,70.858154
"2870",78.56565,70.87158
"2871",78.2678,70.88501
"2872",77.98215,70.89844
"2873",77.71603,70.911865
"2874",77.471886,70.92529
"2875",77.2546,70.93872
"2876",77.06172,70.95215
"2877",76.90547,70.965576
"2878",76.78096,70.979004
"2879",76.68574,70.99243
"2880",76.61738,71.00586
"2881",76.561226,71.01929
"2882",76.51484,71.032715
"2883",76.48554,71.04614
"2884",76.51484,71.05957
"2885",76.68574,71.073
"2886",77.11299,71.086426
"2887",77.86252,71.09985
"2888",78.94408,71.11328
"2889",80.27711,71.12671
"2890",81.7029,71.14014
"2891",83.03349,71.153564
"2892",84.11261,71.16699
"2893",84.857254,71.18042
"2894",85.262535,71.19385
"2895",85.37728,71.207275
"2896",85.27474,71.2207
"2897",85.02327,71.23413
"2898",84.68635,71.24756
"2899",84.30793,71.26099
"2900",83.90509,71.274414
"2901",83.48272,71.28784
"2902",83.03349,71.30127
"2903",82.55497,71.3147
"2904",82.056915,71.328125
"2905",81.56374,71.34155
"2906",81.109634,71.35498
"2907",80.72877,71.36841
"2908",80.430916,71.381836
"2909",80.22095,71.39526
"2910",80.08179,71.40869
"2911",79.991455,71.42212
"2912",79.93042,71.43555
"2913",79.871826,71.448975
"2914",79.801025,71.4624
"2915",79.69604,71.47583
"2916",79.554436,71.48926
"2917",79.36645,71.502686
"2918",79.13695,71.51611
"2919",78.86595,71.52954
"2920",78.57053,71.54297
"2921",78.26536,71.5564
"2922",77.95773,71.569824
"2923",77.65499,71.58325
"2924",77.366905,71.59668
"2925",77.0959,71.61011
"2926",76.85176,71.623535
"2927",76.63447,71.63696
"2928",76.44892,71.65039
"2929",76.29511,71.66382
"2930",76.16083,71.677246
"2931",76.0412,71.690674
"2932",75.931335,71.7041
"2933",75.82147,71.71753
"2934",75.70428,71.73096
"2935",75.577324,71.744385
"2936",75.44549,71.75781
"2937",75.33318,71.77124
"2938",75.29656,71.78467
"2939",75.44549,71.798096
"2940",75.92645,71.81152
"2941",76.82979,71.82495
"2942",78.15549,71.83838
"2943",79.79126,71.85181
"2944",81.532005,71.865234
"2945",83.13847,71.87866
"2946",84.42512,71.89209
"2947",85.30404,71.90552
"2948",85.79477,71.918945
"2949",85.95834,71.93237
"2950",85.86557,71.9458
"2951",85.58724,71.95923
"2952",85.1844,71.97266
"2953",84.70588,71.986084
"2954",84.17853,71.99951
"2955",83.62432,72.01294
"2956",83.06035,72.02637
"2957",82.496376,72.039795
"2958",81.95438,72.05322
"2959",81.46853,72.06665
"2960",81.07301,72.08008
"2961",80.78737,72.093506
"2962",80.61646,72.10693
"2963",80.54566,72.12036
"2964",80.552986,72.13379
"2965",80.59449,72.14722
"2966",80.63355,72.160645
"2967",80.64576,72.17407
"2968",80.60914,72.1875
"2969",80.5066,72.20093
"2970",80.34547,72.214355
"2971",80.130615,72.22778
"2972",79.87427,72.24121
"2973",79.586174,72.25464
"2974",79.293205,72.26807
"2975",78.99779,72.281494
"2976",78.70237,72.29492
"2977",78.41917,72.30835
"2978",78.14084,72.32178
"2979",77.86496,72.335205
"2980",77.593956,72.34863
"2981",77.33761,72.36206
"2982",77.103226,72.37549
"2983",76.90303,72.388916
"2984",76.749214,72.40234
"2985",76.66132,72.41577
"2986",76.68818,72.4292
"2987",76.91524,72.44263
"2988",77.418175,72.456055
"2989",78.238495,72.46948
"2990",79.34936,72.48291
"2991",80.65797,72.49634
"2992",82.01785,72.509766
"2993",83.26299,72.52319
"2994",84.26154,72.53662
"2995",84.95247,72.55005
"2996",85.32357,72.56348
"2997",85.41634,72.576904
"2998",85.28695,72.59033
"2999",85.00374,72.60376
"3000",84.62287,72.61719
"3001",84.18097,72.630615
"3002",83.70733,72.64404
"3003",83.22148,72.65747
"3004",82.74296,72.6709
"3005",82.286415,72.684326
"3006",81.881134,72.697754
"3007",81.53933,72.71118
"3008",81.27566,72.72461
"3009",81.09743,72.73804
"3010",81.004654,72.751465
"3011",80.98024,72.76489
"3012",80.99977,72.77832
"3013",81.03395,72.79175
"3014",81.06081,72.805176
"3015",81.05348,72.8186
"3016",80.99245,72.83203
"3017",80.86061,72.84546
"3018",80.655525,72.85889
"3019",80.37232,72.872314
"3020",80.025635,72.88574
"3021",79.62524,72.89917
"3022",79.19554,72.9126
"3023",78.751205,72.926025
"3024",78.314186,72.93945
"3025",77.90402,72.95288
"3026",77.53292,72.96631
"3027",77.208206,72.97974
"3028",76.93721,72.993164
"3029",76.71992,73.00659
"3030",76.56611,73.02002
"3031",76.490425,73.03345
"3032",76.50996,73.046875
"3033",76.67597,73.0603
"3034",77.07149,73.07373
"3035",77.77707,73.08716
"3036",78.819565,73.100586
"3037",80.16724,73.11401
"3038",81.71023,73.12744
"3039",83.282524,73.14087
"3040",84.70832,73.1543
"3041",85.84604,73.167725
"3042",86.62241,73.18115
"3043",87.02281,73.19458
"3044",87.07652,73.20801
"3045",86.85191,73.221436
"3046",86.434425,73.23486
"3047",85.91928,73.24829
"3048",85.36996,73.26172
"3049",84.82063,73.27515
"3050",84.27131,73.288574
"3051",83.71221,73.302
"3052",83.140915,73.31543
"3053",82.57694,73.32886
"3054",82.04715,73.342285
"3055",81.59304,73.35571
"3056",81.24147,73.36914
"3057",81.00221,73.38257
"3058",80.86549,73.395996
"3059",80.8069,73.409424
"3060",80.79469,73.42285
"3061",80.79469,73.43628
"3062",80.78493,73.44971
"3063",80.74586,73.463135
"3064",80.67017,73.47656
"3065",80.550545,73.48999
"3066",80.38697,73.50342
"3067",80.181885,73.516846
"3068",79.9353,73.53027
"3069",79.64721,73.5437
"3070",79.32494,73.55713
"3071",78.98558,73.57056
"3072",78.62913,73.583984
"3073",78.27268,73.59741
"3074",77.93576,73.61084
"3075",77.625694,73.62427
"3076",77.33517,73.637695
"3077",77.066605,73.65112
"3078",76.81026,73.66455
"3079",76.55634,73.67798
"3080",76.29511,73.69141
"3081",76.0412,73.704834
"3082",75.84833,73.71826
"3083",75.81171,73.73169
"3084",76.04852,73.74512
"3085",76.64423,73.758545
"3086",77.61837,73.77197
"3087",78.905014,73.7854
"3088",80.35767,73.79883
"3089",81.79813,73.812256
"3090",83.07744,73.82568
"3091",84.102844,73.83911
"3092",84.83284,73.85254
"3093",85.27718,73.86597
"3094",85.470055,73.879395
"3095",85.452965,73.89282
"3096",85.27718,73.90625
"3097",84.99397,73.91968
"3098",84.63996,73.933105
"3099",84.23224,73.94653
"3100",83.77081,73.95996
"3101",83.25811,73.97339
"3102",82.69413,73.98682
"3103",82.10086,74.000244
"3104",81.514915,74.01367
"3105",80.98268,74.0271
"3106",80.53834,74.04053
"3107",80.21118,74.053955
"3108",79.9939,74.06738
"3109",79.87427,74.08081
"3110",79.82788,74.09424
"3111",79.82056,74.107666
"3112",79.82056,74.12109
"3113",79.80347,74.13452
"3114",79.744865,74.14795
"3115",79.62524,74.16138
"3116",79.43725,74.174805
"3117",79.185776,74.18823
"3118",78.88548,74.20166
"3119",78.551,74.21509
"3120",78.19455,74.228516
"3121",77.83078,74.24194
"3122",77.467,74.25537
"3123",77.10811,74.2688
"3124",76.756546,74.28223
"3125",76.419624,74.295654
"3126",76.104675,74.30908
"3127",75.81415,74.32251
"3128",75.545586,74.33594
"3129",75.30633,74.349365
"3130",75.11101,74.36279
"3131",74.969406,74.37622
"3132",74.92302,74.38965
"3133",75.054855,74.403076
"3134",75.45525,74.416504
"3135",76.175476,74.42993
"3136",77.22041,74.44336
"3137",78.519264,74.45679
"3138",79.93286,74.470215
"3139",81.29275,74.48364
"3140",82.45487,74.49707
"3141",83.32647,74.5105
"3142",83.88556,74.523926
"3143",84.14679,74.53735
"3144",84.16144,74.55078
"3145",83.99054,74.56421
"3146",83.69024,74.57764
"3147",83.3045,74.591064
"3148",82.86748,74.60449
"3149",82.388954,74.61792
"3150",81.87869,74.63135
"3151",81.33669,74.644775
"3152",80.77028,74.6582
"3153",80.198975,74.67163
"3154",79.65209,74.68506
"3155",79.1638,74.69849
"3156",78.75609,74.711914
"3157",78.450905,74.72534
"3158",78.24338,74.73877
"3159",78.11398,74.7522
"3160",78.030975,74.765625
"3161",77.96994,74.77905
"3162",77.908905,74.79248
"3163",77.83322,74.80591
"3164",77.72579,74.819336
"3165",77.58663,74.83276
"3166",77.40597,74.84619
"3167",77.19844,74.85962
"3168",76.95918,74.87305
"3169",76.70771,74.886475
"3170",76.45136,74.8999
"3171",76.207214,74.91333
"3172",75.98016,74.92676
"3173",75.789734,74.940186
"3174",75.63348,74.95361
"3175",75.51385,74.96704
"3176",75.421074,74.98047
"3177",75.352715,74.9939
"3178",75.28924,75.007324
"3179",75.228195,75.02075
"3180",75.16472,75.03418
"3181",75.09392,75.04761
"3182",75.020676,75.061035
"3183",74.949875,75.07446
"3184",74.88884,75.08789
"3185",74.87175,75.10132
"3186",74.97185,75.114746
"3187",75.29412,75.128174
"3188",75.93622,75.1416
"3189",76.93477,75.15503
"3190",78.23361,75.16846
"3191",79.70092,75.181885
"3192",81.143814,75.19531
"3193",82.38407,75.20874
"3194",83.31182,75.22217
"3195",83.89288,75.235596
"3196",84.15411,75.24902
"3197",84.14435,75.26245
"3198",83.931946,75.27588
"3199",83.5877,75.28931
"3200",83.16289,75.302734
"3201",82.69901,75.31616
"3202",82.20828,75.32959
"3203",81.705345,75.34302
"3204",81.19508,75.356445
"3205",80.689705,75.36987
"3206",80.21118,75.3833
"3207",79.7937,75.39673
"3208",79.46899,75.41016
"3209",79.2517,75.423584
"3210",79.13939,75.43701
"3211",79.11009,75.45044
"3212",79.132065,75.46387
"3213",79.1638,75.477295
"3214",79.1638,75.49072
"3215",79.11253,75.50415
"3216",78.99779,75.51758
"3217",78.82933,75.531006
"3218",78.61692,75.54443
"3219",78.37766,75.55786
"3220",78.12619,75.57129
"3221",77.874725,75.58472
"3222",77.63058,75.598145
"3223",77.40597,75.61157
"3224",77.20332,75.625
"3225",77.02754,75.63843
"3226",76.876175,75.651855
"3227",76.749214,75.66528
"3228",76.63935,75.67871
"3229",76.54902,75.69214
"3230",76.4831,75.70557
"3231",76.44648,75.718994
"3232",76.4416,75.73242
"3233",76.49531,75.74585
"3234",76.65888,75.75928
"3235",77.00557,75.772705
"3236",77.60128,75.78613
"3237",78.46555,75.79956
"3238",79.537346,75.81299
"3239",80.70435,75.826416
"3240",81.80789,75.83984
"3241",82.71366,75.85327
"3242",83.33868,75.8667
"3243",83.67315,75.88013
"3244",83.74151,75.893555
"3245",83.59991,75.90698
"3246",83.299614,75.92041
"3247",82.89189,75.93384
"3248",82.423134,75.947266
"3249",81.91531,75.96069
"3250",81.38796,75.97412
"3251",80.86061,75.98755
"3252",80.35767,76.00098
"3253",79.903564,76.014404
"3254",79.534904,76.02783
"3255",79.26879,76.04126
"3256",79.11253,76.05469
"3257",79.05638,76.068115
"3258",79.08324,76.08154
"3259",79.16136,76.09497
"3260",79.26147,76.1084
"3261",79.344475,76.121826
"3262",79.38842,76.135254
"3263",79.37133,76.14868
"3264",79.290764,76.16211
"3265",79.149155,76.17554
"3266",78.96849,76.188965
"3267",78.765854,76.20239
"3268",78.56077,76.21582
"3269",78.36057,76.22925
"3270",78.17746,76.242676
"3271",78.011444,76.2561
"3272",77.86252,76.26953
"3273",77.71847,76.28296
"3274",77.58419,76.29639
"3275",77.45968,76.309814
"3276",77.34493,76.32324
"3277",77.239944,76.33667
"3278",77.154495,76.3501
"3279",77.09102,76.363525
"3280",77.06172,76.37695
"3281",77.05928,76.39038
"3282",77.09102,76.40381
"3283",77.16426,76.41724
"3284",77.330284,76.430664
"3285",77.67208,76.44409
"3286",78.2678,76.45752
"3287",79.166245,76.47095
"3288",80.31861,76.484375
"3289",81.61013,76.4978
"3290",82.87236,76.51123
"3291",83.93927,76.52466
"3292",84.701,76.538086
"3293",85.13313,76.55151
"3294",85.26498,76.56494
"3295",85.152664,76.57837
"3296",84.86702,76.5918
"3297",84.47639,76.605225
"3298",84.03204,76.61865
"3299",83.56817,76.63208
"3300",83.09209,76.64551
"3301",82.61112,76.658936
"3302",82.11307,76.67236
"3303",81.602806,76.68579
"3304",81.092545,76.69922
"3305",80.61646,76.71265
"3306",80.2063,76.726074
"3307",79.89136,76.7395
"3308",79.68871,76.75293
"3309",79.588615,76.76636
"3310",79.56664,76.779785
"3311",79.59106,76.79321
"3312",79.639885,76.80664
"3313",79.67895,76.82007
"3314",79.69604,76.833496
"3315",79.68139,76.846924
"3316",79.63256,76.86035
"3317",79.54711,76.87378
"3318",79.43725,76.88721
"3319",79.31518,76.900635
"3320",79.18822,76.91406
"3321",79.05638,76.92749
"3322",78.92699,76.94092
"3323",78.79759,76.954346
"3324",78.658424,76.96777
"3325",78.51438,76.9812
"3326",78.37034,76.99463
"3327",78.23117,77.00806
"3328",78.101776,77.021484
"3329",77.98215,77.03491
"3330",77.872284,77.04834
"3331",77.76242,77.06177
"3332",77.65011,77.075195
"3333",77.5378,77.08862
"3334",77.435265,77.10205
"3335",77.35958,77.11548
"3336",77.3547,77.12891
"3337",77.49142,77.142334
"3338",77.86008,77.15576
"3339",78.51682,77.16919
"3340",79.45434,77.18262
"3341",80.59205,77.196045
"3342",81.78348,77.20947
"3343",82.862595,77.2229
"3344",83.700005,77.23633
"3345",84.23712,77.249756
"3346",84.48371,77.26318
"3347",84.49348,77.27661
"3348",84.332344,77.29004
"3349",84.06134,77.30347
"3350",83.72686,77.316895
"3351",83.36797,77.33032
"3352",83.004196,77.34375
"3353",82.63798,77.35718
"3354",82.266884,77.370605
"3355",81.88602,77.38403
"3356",81.497826,77.39746
"3357",81.12428,77.41089
"3358",80.78493,77.42432
"3359",80.50172,77.437744
"3360",80.28687,77.45117
"3361",80.147705,77.4646
"3362",80.06714,77.47803
"3363",80.028076,77.491455
"3364",80.008545,77.50488
"3365",79.97925,77.51831
"3366",79.93042,77.53174
"3367",79.84497,77.545166
"3368",79.72045,77.55859
"3369",79.5642,77.57202
"3370",79.395744,77.58545
"3371",79.21507,77.59888
"3372",79.03929,77.612305
"3373",78.873276,77.62573
"3374",78.7219,77.63916
"3375",78.590065,77.65259
"3376",78.47776,77.666016
"3377",78.382545,77.67944
"3378",78.3093,77.69287
"3379",78.25315,77.7063
"3380",78.20676,77.71973
"3381",78.16525,77.733154
"3382",78.12863,77.74658
"3383",78.08957,77.76001
"3384",78.048065,77.77344
"3385",77.996796,77.786865
"3386",77.943085,77.80029
"3387",77.88693,77.81372
"3388",77.82834,77.82715
"3389",77.769745,77.840576
"3390",77.72335,77.854004
"3391",77.71603,77.86743
"3392",77.806366,77.88086
"3393",78.082245,77.89429
"3394",78.6218,77.907715
"3395",79.447014,77.92114
"3396",80.49439,77.93457
"3397",81.636986,77.948
"3398",82.71122,77.961426
"3399",83.56573,77.97485
"3400",84.11505,77.98828
"3401",84.35676,78.00171
"3402",84.33723,78.01514
"3403",84.119934,78.028564
"3404",83.773254,78.04199
"3405",83.35821,78.05542
"3406",82.92119,78.06885
"3407",82.48905,78.082275
"3408",82.06424,78.0957
"3409",81.636986,78.10913
"3410",81.20485,78.12256
"3411",80.77516,78.13599
"3412",80.36744,78.149414
"3413",80.008545,78.16284
"3414",79.727776,78.17627
"3415",79.53979,78.1897
"3416",79.43725,78.203125
"3417",79.40795,78.21655
"3418",79.429924,78.22998
"3419",79.48852,78.24341
"3420",79.55932,78.256836
"3421",79.62524,78.27026
"3422",79.65942,78.28369
"3423",79.64721,78.29712
"3424",79.588615,78.31055
"3425",79.48608,78.323975
"3426",79.35668,78.3374
"3427",79.219955,78.35083
"3428",79.08812,78.36426
"3429",78.96849,78.377686
"3430",78.86595,78.39111
"3431",78.768295,78.40454
"3432",78.68284,78.41797
"3433",78.60227,78.4314
"3434",78.52415,78.444824
"3435",78.44358,78.45825
"3436",78.37034,78.47168
"3437",78.2971,78.48511
"3438",78.22385,78.498535
"3439",78.15549,78.51196
"3440",78.09445,78.52539
"3441",78.04318,78.53882
"3442",77.99191,78.552246
"3443",77.943085,78.565674
"3444",77.89426,78.5791
"3445",77.84543,78.59253
"3446",77.7966,78.60596
"3447",77.769745,78.619385
"3448",77.79904,78.63281
"3449",77.962616,78.64624
"3450",78.35325,78.65967
"3451",79.02464,78.673096
"3452",79.96948,78.68652
"3453",81.092545,78.69995
"3454",82.252235,78.71338
"3455",83.282524,78.72681
"3456",84.068665,78.740234
"3457",84.56184,78.75366
"3458",84.78645,78.76709
"3459",84.78645,78.78052
"3460",84.61555,78.793945
"3461",84.32502,78.80737
"3462",83.96124,78.8208
"3463",83.55108,78.83423
"3464",83.1165,78.84766
"3465",82.66239,78.861084
"3466",82.20584,78.87451
"3467",81.75906,78.88794
"3468",81.339134,78.90137
"3469",80.970474,78.914795
"3470",80.67506,78.92822
"3471",80.462654,78.94165
"3472",80.32838,78.95508
"3473",80.255135,78.968506
"3474",80.22339,78.98193
"3475",80.216064,78.99536
"3476",80.201416,79.00879
"3477",80.16724,79.02222
"3478",80.1062,79.035645
"3479",80.01343,79.04907
"3480",79.89136,79.0625
"3481",79.74731,79.07593
"3482",79.5935,79.089355
"3483",79.44213,79.10278
"3484",79.30541,79.11621
"3485",79.17601,79.12964
"3486",79.05638,79.14307
"3487",78.93919,79.156494
"3488",78.82201,79.16992
"3489",78.70725,79.18335
"3490",78.59495,79.19678
"3491",78.49241,79.210205
"3492",78.39475,79.22363
"3493",78.29954,79.23706
"3494",78.204315,79.25049
"3495",78.11154,79.263916
"3496",78.02365,79.27734
"3497",77.95041,79.29077
"3498",77.88937,79.3042
"3499",77.82834,79.31763
"3500",77.76486,79.331055
"3501",77.70138,79.34448
"3502",77.63546,79.35791
"3503",77.5964,79.37134
"3504",77.63546,79.384766
"3505",77.84543,79.39819
"3506",78.30442,79.41162
"3507",79.0515,79.42505
"3508",80.042725,79.43848
"3509",81.17311,79.451904
"3510",82.286415,79.46533
"3511",83.23125,79.47876
"3512",83.914856,79.49219
"3513",84.30793,79.505615
"3514",84.439766,79.51904
"3515",84.36164,79.53247
"3516",84.13214,79.5459
"3517",83.807434,79.559326
"3518",83.424126,79.572754
"3519",83.00664,79.58618
"3520",82.55985,79.59961
"3521",82.09598,79.61304
"3522",81.619896,79.626465
"3523",81.15602,79.63989
"3524",80.36988,79.66675
"3525",80.093994,79.680176
"3526",79.91577,79.6936
"3527",79.82788,79.70703
"3528",79.815674,79.72046
"3529",79.84985,79.73389
"3530",79.903564,79.747314
"3531",79.94995,79.76074
"3532",79.971924,79.77417
"3533",79.94995,79.7876
"3534",79.89136,79.801025
"3535",79.79614,79.81445
"3536",79.67162,79.82788
"3537",79.361565,79.85474
"3538",79.19554,79.868164
"3539",79.0222,79.88159
"3540",78.84886,79.89502
"3541",78.68528,79.90845
"3542",78.53391,79.921875
"3543",78.39231,79.9353
"3544",78.26292,79.94873
"3545",78.150604,79.96216
"3546",78.05295,79.975586
"3547",77.962616,79.98901
"3548",77.87717,80.00244
"3549",77.79416,80.01587
"3550",77.71847,80.0293
"3551",77.642784,80.042725
"3552",77.557335,80.05615
"3553",77.467,80.06958
"3554",77.37667,80.08301
"3555",77.28634,80.096436
"3556",77.22041,80.10986
"3557",77.225296,80.12329
"3558",77.39376,80.13672
"3559",77.823456,80.15015
"3560",78.56809,80.163574
"3561",79.605705,80.177
"3562",80.8362,80.19043
"3563",82.091095,80.20386
"3564",83.20195,80.217285
"3565",84.04425,80.23071
"3566",84.578926,80.24414
"3567",84.82796,80.25757
"3568",84.83528,80.270996
"3569",84.65949,80.284424
"3570",84.3592,80.29785
"3571",83.980774,80.31128
"3572",83.55352,80.32471
"3573",83.09453,80.338135
"3574",82.62089,80.35156
"3575",82.13992,80.36499
"3576",81.67605,80.37842
"3577",81.24635,80.391846
"3578",80.88258,80.40527
"3579",80.601814,80.4187
"3580",80.40894,80.43213
"3581",80.30152,80.44556
"3582",80.26002,80.458984
"3583",80.2649,80.47241
"3584",80.28687,80.48584
"3585",80.306404,80.49927
"3586",80.29908,80.512695
"3587",80.25025,80.52612
"3588",80.15991,80.53955
"3589",80.03296,80.55298
"3590",79.87671,80.56641
"3591",79.70092,80.579834
"3592",79.51537,80.59326
"3593",79.32494,80.60669
"3594",79.13451,80.62012
"3595",78.94408,80.633545
"3596",78.76097,80.64697
"3597",78.59495,80.6604
"3598",78.44602,80.67383
"3599",78.314186,80.687256
"3600",78.19943,80.70068
"3601",78.09689,80.71411
"3602",78.00412,80.72754
"3603",77.91135,80.74097
"3604",77.821014,80.754395
"3605",77.730675,80.76782
"3606",77.645226,80.78125
"3607",77.56954,80.79468
"3608",77.52804,80.808105
"3609",77.57931,80.82153
"3610",77.80881,80.83496
"3611",78.29954,80.84839
"3612",79.080795,80.86182
"3613",80.1062,80.875244
"3614",81.27322,80.88867
"3615",82.425575,80.9021
"3616",83.421684,80.91553
"3617",84.16388,80.928955
"3618",84.627754,80.94238
"3619",84.8304,80.95581
"3620",84.82063,80.96924
"3621",84.63996,80.982666
"3622",84.349434,80.99609
"3623",83.99298,81.00952
"3624",83.60235,81.02295
"3625",83.192184,81.03638
"3626",82.76738,81.049805
"3627",82.337685,81.06323
"3628",81.9202,81.07666
"3629",81.53445,81.09009
"3630",81.20241,81.103516
"3631",80.94606,81.11694
"3632",80.77028,81.13037
"3633",80.66529,81.1438
"3634",80.618904,81.15723
"3635",80.6067,81.170654
"3636",80.601814,81.18408
"3637",80.57496,81.19751
"3638",80.52125,81.21094
"3639",80.42359,81.224365
"3640",80.28443,81.23779
"3641",80.11597,81.25122
"3642",79.923096,81.26465
"3643",79.71557,81.278076
"3644",79.500725,81.291504
"3645",79.27856,81.30493
"3646",79.06615,81.31836
"3647",78.86351,81.33179
"3648",78.67063,81.345215
"3649",78.49729,81.35864
"3650",78.34348,81.37207
"3651",78.2092,81.3855
"3652",78.082245,81.398926
"3653",77.97482,81.41235
"3654",77.87961,81.42578
"3655",77.79904,81.43921
"3656",77.733116,81.45264
"3657",77.68185,81.466064
"3658",77.64034,81.47949
"3659",77.60616,81.49292
"3660",77.5964,81.50635
"3661",77.65499,81.519775
"3662",77.86496,81.5332
"3663",78.311745,81.54663
"3664",79.04173,81.56006
"3665",80.04028,81.57349
"3666",81.20729,81.586914
"3667",82.406044,81.60034
"3668",83.48516,81.61377
"3669",84.332344,81.6272
"3670",84.89632,81.640625
"3671",85.17708,81.65405
"3672",85.206375,81.66748
"3673",85.02327,81.68091
"3674",84.68879,81.694336
"3675",84.2591,81.70776
"3676",83.77814,81.72119
"3677",83.282524,81.73462
"3678",82.78691,81.74805
"3679",82.30106,81.761475
"3680",81.832306,81.7749
"3681",81.38552,81.78833
"3682",80.987564,81.80176
"3683",80.655525,81.815186
"3684",80.40406,81.82861
"3685",80.22827,81.84204
"3686",80.12329,81.85547
"3687",80.06714,81.8689
"3688",80.04028,81.882324
"3689",80.02075,81.89575
"3690",79.98657,81.90918
"3691",79.92798,81.92261
"3692",79.83765,81.936035
"3693",79.72045,81.94946
"3694",79.586174,81.96289
"3695",79.449455,81.97632
"3696",79.31762,81.989746
"3697",79.183334,82.003174
"3698",79.04906,82.0166
"3699",78.907455,82.03003
"3700",78.765854,82.04346
"3701",78.6218,82.056885
"3702",78.47288,82.07031
"3703",78.32395,82.08374
"3704",78.170135,82.09717
"3705",78.013885,82.110596
"3706",77.85275,82.12402
"3707",77.696495,82.13745
"3708",77.540245,82.15088
"3709",77.39132,82.16431
"3710",77.24483,82.177734
"3711",77.11055,82.19116
"3712",76.98848,82.20459
"3713",76.88838,82.21802
"3714",76.82735,82.231445
"3715",76.8542,82.24487
"3716",77.051956,82.2583
"3717",77.50851,82.27173
"3718",78.27024,82.28516
"3719",79.3225,82.298584
"3720",80.5774,82.31201
"3721",81.88602,82.32544
"3722",83.09209,82.33887
"3723",84.071106,82.352295
"3724",84.76448,82.36572
"3725",85.169754,82.37915
"3726",85.32113,82.39258
"3727",85.26742,82.406006
"3728",85.0721,82.41943
"3729",84.77425,82.43286
"3730",84.40559,82.44629
"3731",83.98566,82.45972
"3732",83.526665,82.473145
"3733",83.038376,82.48657
"3734",82.545204,82.5
"3735",82.06424,82.51343
"3736",81.62722,82.526855
"3737",81.25613,82.54028
"3738",80.970474,82.55371
"3739",80.765396,82.56714
"3740",80.63355,82.58057
"3741",80.550545,82.593994
"3742",80.48951,82.60742
"3743",80.428474,82.62085
"3744",80.35279,82.63428
"3745",80.26002,82.647705
"3746",80.147705,82.66113
"3747",80.01831,82.67456
"3748",79.87427,82.68799
"3749",79.71557,82.701416
"3750",79.54467,82.71484
"3751",79.361565,82.72827
"3752",79.168686,82.7417
"3753",78.97337,82.75513
"3754",78.7805,82.768555
"3755",78.59251,82.78198
"3756",78.416725,82.79541
"3757",78.25071,82.80884
"3758",78.09445,82.822266
"3759",77.945526,82.83569
"3760",77.7966,82.84912
"3761",77.64767,82.86255
"3762",77.49142,82.87598
"3763",77.32784,82.889404
"3764",77.16182,82.90283
"3765",77.00557,82.91626
"3766",76.88594,82.92969
"3767",76.85176,82.943115
"3768",76.9836,82.95654
"3769",77.3547,82.96997
"3770",77.994354,82.9834
"3771",78.887924,82.996826
"3772",79.94995,83.010254
"3773",81.05104,83.02368
"3774",82.054474,83.03711
"3775",82.865036,83.05054
"3776",83.43145,83.063965
"3777",83.75128,83.07739
"3778",83.8465,83.09082
"3779",83.758606,83.10425
"3780",83.54131,83.117676
"3781",83.23857,83.1311
"3782",82.87724,83.14453
"3783",82.47929,83.15796
"3784",82.05203,83.17139
"3785",81.60769,83.184814
"3786",81.160904,83.19824
"3787",80.73853,83.21167
"3788",80.36988,83.2251
"3789",80.07202,83.238525
"3790",79.86206,83.25195
"3791",79.72289,83.26538
"3792",79.63744,83.27881
"3793",79.586174,83.29224
"3794",79.54955,83.305664
"3795",79.50561,83.31909
"3796",79.44213,83.33252
"3797",79.34692,83.34595
"3798",79.219955,83.359375
"3799",79.05394,83.3728
"3800",78.856186,83.38623
"3801",78.63157,83.39966
"3802",78.38743,83.413086
"3803",78.14084,83.42651
"3804",77.89914,83.43994
"3805",77.67208,83.45337
"3806",77.47433,83.4668
"3807",77.31075,83.480225
"3808",77.171585,83.49365
"3809",77.0544,83.50708
"3810",76.94942,83.52051
"3811",76.8542,83.533936
"3812",76.771194,83.54736
"3813",76.697945,83.56079
"3814",76.627144,83.57422
"3815",76.56367,83.58765
"3816",76.507515,83.601074
"3817",76.456245,83.6145
"3818",76.422066,83.62793
"3819",76.45136,83.64136
"3820",76.61494,83.654785
"3821",77.00313,83.66821
"3822",77.67208,83.68164
"3823",78.63157,83.69507
"3824",79.81079,83.708496
"3825",81.08278,83.721924
"3826",82.2913,83.73535
"3827",83.30694,83.74878
"3828",84.06134,83.76221
"3829",84.53254,83.775635
"3830",84.74494,83.78906
"3831",84.73762,83.80249
"3832",84.56672,83.81592
"3833",84.27863,83.829346
"3834",83.914856,83.84277
"3835",83.49981,83.8562
"3836",83.053024,83.86963
"3837",82.579384,83.88306
"3838",82.09598,83.896484
"3839",81.62478,83.90991
"3840",81.18776,83.92334
"3841",80.816666,83.93677
"3842",80.52613,83.950195
"3843",80.325935,83.96362
"3844",80.201416,83.97705
"3845",80.14282,83.99048
"3846",80.11597,84.00391
"3847",80.093994,84.017334
"3848",80.05493,84.03076
"3849",79.97925,84.04419
"3850",79.85474,84.05762
"3851",79.68871,84.071045
"3852",79.48608,84.08447
"3853",79.25414,84.0979
"3854",79.00755,84.11133
"3855",78.746315,84.124756
"3856",78.487526,84.13818
"3857",78.23117,84.15161
"3858",77.99191,84.16504
"3859",77.77463,84.17847
"3860",77.593956,84.191895
"3861",77.44259,84.20532
"3862",77.32052,84.21875
"3863",77.23506,84.23218
"3864",77.17403,84.245605
"3865",77.134964,84.25903
"3866",77.11299,84.27246
"3867",77.09834,84.28589
"3868",77.08125,84.29932
"3869",77.0544,84.312744
"3870",77.015335,84.32617
"3871",76.96895,84.3396
"3872",76.93233,84.35303
"3873",76.94209,84.366455
"3874",77.07637,84.37988
"3875",77.42794,84.39331
"3876",78.06027,84.40674
"3877",78.98802,84.420166
"3878",80.147705,84.43359
"3879",81.427025,84.44702
"3880",82.66483,84.46045
"3881",83.734184,84.47388
"3882",84.54475,84.487305
"3883",85.067215,84.50073
"3884",85.30892,84.51416
"3885",85.313805,84.52759
"3886",85.135574,84.541016
"3887",84.83284,84.55444
"3888",84.454414,84.56787
"3889",84.03204,84.5813
"3890",83.57549,84.59473
"3891",83.09697,84.608154
"3892",82.61356,84.62158
"3893",82.14969,84.63501
"3894",81.74441,84.64844
"3895",81.41726,84.661865
"3896",81.17799,84.67529
"3897",81.01442,84.68872
"3898",80.90456,84.70215
"3899",80.82399,84.715576
"3900",80.75075,84.729004
"3901",80.67017,84.74243
"3902",80.570076,84.75586
"3903",80.430916,84.76929
"3904",80.2478,84.782715
"3905",80.01831,84.79614
"3906",79.74731,84.80957
"3907",79.447014,84.823
"3908",79.12474,84.836426
"3909",78.79027,84.84985
"3910",78.46311,84.86328
"3911",78.150604,84.87671
"3912",77.86252,84.89014
"3913",77.59884,84.903564
"3914",77.36446,84.91699
"3915",77.15938,84.93042
"3916",76.981155,84.94385
"3917",76.83711,84.957275
"3918",76.7248,84.9707
"3919",76.64423,84.98413
"3920",76.58808,84.99756
"3921",76.561226,85.01099
"3922",76.558784,85.024414
"3923",76.57343,85.03784
"3924",76.59785,85.05127
"3925",76.6247,85.0647
"3926",76.646675,85.078125
"3927",76.66865,85.09155
"3928",76.715034,85.10498
"3929",76.84688,85.11841
"3930",77.15694,85.131836
"3931",77.738,85.14526
"3932",78.626686,85.15869
"3933",79.798584,85.17212
"3934",81.15114,85.18555
"3935",82.51835,85.198975
"3936",83.736626,85.2124
"3937",84.68879,85.22583
"3938",85.32601,85.23926
"3939",85.6556,85.252686
"3940",85.711754,85.26611
"3941",85.54818,85.27954
"3942",85.22591,85.29297
"3943",84.79378,85.3064
"3944",84.2884,85.319824
"3945",83.736626,85.33325
"3946",83.158005,85.34668
"3947",82.56962,85.36011
"3948",81.988556,85.373535
"3949",81.449,85.38696
"3950",80.97536,85.40039
"3951",80.59693,85.41382
"3952",80.32105,85.427246
"3953",80.147705,85.440674
"3954",80.059814,85.4541
"3955",80.03052,85.46753
"3956",80.025635,85.48096
"3957",80.01099,85.494385
"3958",79.96704,85.50781
"3959",79.87427,85.52124
"3960",79.725334,85.53467
"3961",79.534904,85.548096
"3962",79.30785,85.56152
"3963",79.05394,85.57495
"3964",78.77562,85.58838
"3965",78.48264,85.60181
"3966",78.187225,85.615234
"3967",77.89426,85.62866
"3968",77.61349,85.64209
"3969",77.3547,85.65552
"3970",77.120316,85.668945
"3971",76.91768,85.68237
"3972",76.74433,85.6958
"3973",76.60517,85.70923
"3974",76.50996,85.72266
"3975",76.44892,85.736084
"3976",76.42451,85.74951
"3977",76.43427,85.76294
"3978",76.46601,85.77637
"3979",76.5124,85.789795
"3980",76.55634,85.80322
"3981",76.59052,85.81665
"3982",76.60273,85.83008
"3983",76.595406,85.843506
"3984",76.61494,85.85693
"3985",76.734566,85.87036
"3986",77.06172,85.88379
"3987",77.68673,85.89722
"3988",78.643776,85.910645
"3989",79.88403,85.92407
"3990",81.2781,85.9375
"3991",82.66239,85.95093
"3992",83.87335,85.964355
"3993",84.791336,85.97778
"3994",85.37972,85.99121
"3995",85.64095,86.00464
"3996",85.628746,86.01807
"3997",85.401695,86.031494
"3998",85.03548,86.04492
"3999",84.58625,86.05835
"4000",84.1004,86.07178
"4001",83.59258,86.085205
"4002",83.070114,86.09863
"4003",82.545204,86.11206
"4004",82.04227,86.12549
"4005",81.59548,86.138916
"4006",81.22926,86.15234
"4007",80.96559,86.16577
"4008",80.799576,86.1792
"4009",80.719,86.19263
"4010",80.69215,86.206055
"4011",80.69215,86.21948
"4012",80.69215,86.23291
"4013",80.66773,86.24634
"4014",80.59693,86.259766
"4015",80.46754,86.27319
"4016",80.27955,86.28662
"4017",80.042725,86.30005
"4018",79.75952,86.31348
"4019",79.4519,86.326904
"4020",79.12474,86.34033
"4021",78.79027,86.35376
"4022",78.45579,86.36719
"4023",78.135956,86.380615
"4024",77.838104,86.39404
"4025",77.57931,86.40747
"4026",77.36202,86.4209
"4027",77.19356,86.434326
"4028",77.07881,86.447754
"4029",77.01045,86.46118
"4030",76.9836,86.47461
"4031",76.99092,86.48804
"4032",77.0251,86.501465
"4033",77.06416,86.51489
"4034",77.09834,86.52832
"4035",77.12276,86.54175
"4036",77.14717,86.555176
"4037",77.19112,86.5686
"4038",77.298546,86.58203
"4039",77.55245,86.59546
"4040",78.048065,86.60889
"4041",78.83421,86.622314
"4042",79.90112,86.63574
"4043",81.180435,86.64917
"4044",82.52323,86.6626
"4045",83.773254,86.676025
"4046",84.8011,86.68945
"4047",85.53597,86.70288
"4048",85.960785,86.71631
"4049",86.10239,86.72974
"4050",86.012054,86.743164
"4051",85.74349,86.75659
"4052",85.35287,86.77002
"4053",84.874344,86.78345
"4054",84.334785,86.796875
"4055",83.74395,86.8103
"4056",83.12627,86.82373
"4057",82.50126,86.83716
"4058",81.900665,86.850586
"4059",81.36355,86.86401
"4060",80.92409,86.87744
"4061",80.59449,86.89087
"4062",80.37232,86.9043
"4063",80.24536,86.917725
"4064",80.18677,86.93115
"4065",80.16724,86.94458
"4066",80.15747,86.95801
"4067",80.1355,86.971436
"4068",80.076904,86.98486
"4069",79.974365,86.99829
"4070",79.818115,87.01172
"4071",79.61303,87.02515
"4072",79.361565,87.038574
"4073",79.078354,87.052
"4074",78.77318,87.06543
"4075",78.46067,87.07886
"4076",78.15549,87.092285
"4077",77.86496,87.10571
"4078",77.591515,87.11914
"4079",77.347374,87.13257
"4080",77.13008,87.145996
"4081",76.93965,87.159424
"4082",76.773636,87.17285
"4083",76.627144,87.18628
"4084",76.50019,87.19971
"4085",76.39277,87.213135
"4086",76.29267,87.22656
"4087",76.20477,87.23999
"4088",76.121765,87.25342
"4089",76.050964,87.266846
"4090",75.99481,87.28027
"4091",76.00458,87.2937
"4092",76.15106,87.30713
"4093",76.53681,87.32056
"4094",77.24971,87.333984
"4095",78.31663,87.34741
"4096",79.67895,87.36084
"4097",81.20729,87.37427
"4098",82.72587,87.387695
"4099",84.06378,87.40112
"4100",85.11116,87.41455
"4101",85.824066,87.42798
"4102",86.21225,87.44141
"4103",86.312355,87.454834
"4104",86.187836,87.46826
"4105",85.90219,87.48169
"4106",85.51156,87.49512
"4107",85.05257,87.508545
"4108",84.54963,87.52197
"4109",84.01251,87.5354
"4110",83.45098,87.54883
"4111",82.882126,87.562256
"4112",82.33036,87.57568
"4113",81.829865,87.58911
"4114",81.41482,87.60254
"4115",81.09743,87.61597
"4116",80.8777,87.629395
"4117",80.73365,87.64282
"4118",80.64088,87.65625
"4119",80.56275,87.66968
"4120",80.47486,87.683105
"4121",80.365,87.69653
"4122",80.22095,87.70996
"4123",80.03296,87.72339
"4124",79.80591,87.73682
"4125",79.54711,87.750244
"4126",79.26147,87.76367
"4127",78.958725,87.7771
"4128",78.65598,87.79053
"4129",78.363014,87.803955
"4130",78.08469,87.81738
"4131",77.82834,87.83081
"4132",77.60128,87.84424
"4133",77.401085,87.857666
"4134",77.23018,87.87109
"4135",77.086136,87.88452
"4136",76.96651,87.89795
"4137",76.859085,87.91138
"4138",76.76387,87.924805
"4139",76.67109,87.93823
"4140",76.578316,87.95166
"4141",76.47578,87.96509
"4142",76.3708,87.978516
"4143",76.25605,87.99194
"4144",76.14374,88.00537
"4145",76.05585,88.0188
"4146",76.05585,88.03223
"4147",76.23651,88.045654
"4148",76.71015,88.05908
"4149",77.5378,88.07251
"4150",78.69993,88.08594
"4151",80.10864,88.099365
"4152",81.602806,88.11279
"4153",83.00664,88.12622
"4154",84.16876,88.13965
"4155",85.02083,88.153076
"4156",85.5433,88.166504
"4157",85.76059,88.17993
"4158",85.731285,88.19336
"4159",85.521324,88.20679
"4160",85.1844,88.220215
"4161",84.77669,88.23364
"4162",84.32014,88.24707
"4163",83.824524,88.2605
"4164",83.28985,88.273926
"4165",82.72831,88.28735
"4166",82.159454,88.30078
"4167",81.617455,88.31421
"4168",81.13649,88.32764
"4169",80.75075,88.341064
"4170",80.47242,88.35449
"4171",80.28687,88.36792
"4172",80.16968,88.38135
"4173",80.093994,88.394775
"4174",80.02319,88.4082
"4175",79.93286,88.42163
"4176",79.81323,88.43506
"4177",79.65942,88.44849
"4178",79.4641,88.461914
"4179",79.23949,88.47534
"4180",78.98802,88.48877
"4181",78.71458,88.5022
"4182",78.433815,88.515625
"4183",78.153046,88.52905
"4184",77.88205,88.54248
"4185",77.63302,88.55591
"4186",77.41085,88.569336
"4187",77.21309,88.58276
"4188",77.03487,88.59619
"4189",76.87862,88.60962
"4190",76.74677,88.62305
"4191",76.63691,88.636475
"4192",76.55146,88.6499
"4193",76.48798,88.66333
"4194",76.43183,88.67676
"4195",76.37324,88.690186
"4196",76.30976,88.70361
"4197",76.241394,88.71704
"4198",76.18036,88.73047
"4199",76.14618,88.7439
"4200",76.17059,88.757324
"4201",76.33173,88.77075
"4202",76.72236,88.78418
"4203",77.41573,88.79761
"4204",78.43137,88.811035
"4205",79.71557,88.82446
"4206",81.1487,88.83789
"4207",82.564735,88.85132
"4208",83.81476,88.864746
"4209",84.79622,88.878174
"4210",85.47738,88.8916
"4211",85.86557,88.90503
"4212",86.00229,88.91846
"4213",85.94125,88.931885
"4214",85.74349,88.94531
"4215",85.45052,88.95874
"4216",85.08919,88.97217
"4217",84.661934,88.985596
"4218",84.17609,88.99902
"4219",83.63653,89.01245
"4220",83.06523,89.02588
"4221",82.48173,89.03931
"4222",81.92264,89.052734
"4223",81.41482,89.06616
"4224",80.9778,89.07959
"4225",80.61646,89.09302
"4226",80.33082,89.106445
"4227",80.111084,89.11987
"4228",79.937744,89.1333
"4229",79.78882,89.14673
"4230",79.64477,89.16016
"4231",79.48852,89.173584
"4232",79.31762,89.18701
"4233",79.1223,89.20044
"4234",78.91478,89.21387
"4235",78.70237,89.227295
"4236",78.49973,89.24072
"4237",78.311745,89.25415
"4238",78.14572,89.26758
"4239",78.00656,89.281006
"4240",77.88205,89.29443
"4241",77.7551,89.30786
"4242",77.61837,89.32129
"4243",77.47433,89.33472
"4244",77.32052,89.348145
"4245",77.16426,89.36157
"4246",77.01778,89.375
"4247",76.893265,89.38843
"4248",76.77852,89.401855
"4249",76.67841,89.41528
"4250",76.578316,89.42871
"4251",76.46845,89.44214
"4252",76.33173,89.45557
"4253",76.16571,89.468994
"4254",75.99237,89.48242
"4255",75.87274,89.49585
"4256",75.911804,89.50928
"4257",76.224304,89.522705
"4258",76.89082,89.53613
"4259",77.92111,89.54956
"4260",79.234604,89.56299
"4261",80.69459,89.576416
"4262",82.1326,89.58984
"4263",83.407036,89.60327
"4264",84.41779,89.6167
"4265",85.13069,89.63013
"4266",85.540855,89.643555
"4267",85.67513,89.65698
"4268",85.57259,89.67041
"4269",85.28451,89.68384
"4270",84.8719,89.697266
"4271",84.37385,89.71069
"4272",83.82941,89.72412
"4273",83.26055,89.73755
"4274",82.68192,89.75098
"4275",82.108185,89.764404
"4276",81.55398,89.77783
"4277",81.04616,89.79126
"4278",80.61158,89.80469
"4279",80.26246,89.818115
"4280",80.00366,89.83154
"4281",79.815674,89.84497
"4282",79.674065,89.8584
"4283",79.54955,89.871826
"4284",79.41772,89.885254
"4285",79.26147,89.89868
"4286",79.08568,89.91211
"4287",78.887924,89.92554
"4288",78.6804,89.938965
"4289",78.46555,89.95239
"4290",78.25315,89.96582
"4291",78.05539,89.97925
"4292",77.86984,89.992676
"4293",77.70382,90.0061
"4294",77.55978,90.01953
"4295",77.43282,90.03296
"4296",77.32784,90.04639
"4297",77.24727,90.059814
"4298",77.19844,90.07324
"4299",77.18135,90.08667
"4300",77.20332,90.1001
"4301",77.261925,90.113525
"4302",77.35226,90.12695
"4303",77.46212,90.14038
"4304",77.574425,90.15381
"4305",77.6672,90.16724
"4306",77.72335,90.180664
"4307",77.73556,90.19409
"4308",77.71603,90.20752
"4309",77.71114,90.22095
"4310",77.80148,90.234375
"4311",78.0798,90.2478
"4312",78.607155,90.26123
"4313",79.398186,90.27466
"4314",80.394295,90.288086
"4315",81.47341,90.30151
"4316",82.49149,90.31494
"4317",83.32891,90.32837
"4318",83.9173,90.3418
"4319",84.244446,90.355225
"4320",84.34211,90.36865
"4321",84.25666,90.38208
"4322",84.04669,90.39551
"4323",83.75128,90.408936
"4324",83.39971,90.42236
"4325",83.001755,90.43579
"4326",82.564735,90.44922
"4327",82.08621,90.46265
"4328",81.58083,90.476074
"4329",81.07301,90.4895
"4330",80.58961,90.50293
"4331",80.16968,90.51636
"4332",79.84009,90.529785
"4333",79.61059,90.54321
"4334",79.47387,90.55664
"4335",79.398186,90.57007
"4336",79.35668,90.583496
"4337",79.30541,90.596924
"4338",79.21019,90.61035
"4339",79.0515,90.62378
"4340",78.83421,90.63721
"4341",78.57053,90.650635
"4342",78.27512,90.66406
"4343",77.9675,90.67749
"4344",77.66476,90.69092
"4345",77.37667,90.704346
"4346",77.103226,90.71777
"4347",76.85664,90.7312
"4348",76.64179,90.74463
"4349",76.45869,90.75806
"4350",76.30976,90.771484
"4351",76.19745,90.78491
"4352",76.121765,90.79834
"4353",76.07782,90.81177
"4354",76.07294,90.825195
"4355",76.09491,90.83862
"4356",76.138855,90.85205
"4357",76.18524,90.86548
"4358",76.22186,90.87891
"4359",76.23651,90.892334
"4360",76.23407,90.90576
"4361",76.22186,90.91919
"4362",76.25361,90.93262
"4363",76.419624,90.946045
"4364",76.839554,90.95947
"4365",77.608604,90.9729
"4366",78.75609,90.98633
"4367",80.198975,90.999756
"4368",81.78592,91.01318
"4369",83.319145,91.02661
"4370",84.613106,91.04004
"4371",85.56771,91.05347
"4372",86.16098,91.066895
"4373",86.414894,91.08032
"4374",86.38804,91.09375
"4375",86.14389,91.10718
"4376",85.73861,91.120605
"4377",85.223465,91.13403
"4378",84.63996,91.14746
"4379",84.017395,91.16089
"4380",83.3753,91.17432
"4381",82.7454,91.187744
"4382",82.161896,91.20117
"4383",81.64919,91.2146
"4384",81.22682,91.22803
"4385",80.90944,91.241455
"4386",80.706795,91.25488
"4387",80.601814,91.26831
"4388",80.56519,91.28174
"4389",80.567635,91.295166
"4390",80.567635,91.30859
"4391",80.5359,91.32202
"4392",80.44312,91.33545
"4393",80.289314,91.34888
"4394",80.07202,91.362305
"4395",79.80347,91.37573
"4396",79.49584,91.38916
"4397",79.15892,91.40259
"4398",78.81224,91.416016
"4399",78.467995,91.42944
"4400",78.135956,91.44287
"4401",77.81613,91.4563
"4402",77.51827,91.46973
"4403",77.2375,91.483154
"4404",76.97383,91.49658
"4405",76.72236,91.51001
"4406",76.48798,91.52344
"4407",76.26826,91.536865
"4408",76.068054,91.55029
"4409",75.894714,91.56372
"4410",75.77997,91.57715
"4411",75.789734,91.590576
"4412",76.036316,91.604004
"4413",76.629585,91.61743
"4414",77.63302,91.63086
"4415",79.00755,91.64429
"4416",80.62379,91.657715
"4417",82.27665,91.67114
"4418",83.76349,91.68457
"4419",84.93538,91.698
"4420",85.72152,91.711426
"4421",86.12924,91.72485
"4422",86.202484,91.73828
"4423",86.00473,91.75171
"4424",85.60189,91.76514
"4425",85.05989,91.778564
"4426",84.42512,91.79199
"4427",83.7293,91.80542
"4428",82.99931,91.81885
"4429",82.26444,91.832275
"4430",81.55398,91.8457
"4431",80.91432,91.85913
"4432",80.38697,91.87256
"4433",79.99878,91.88599
"4434",79.75708,91.899414
"4435",79.64233,91.91284
"4436",79.62768,91.92627
"4437",79.674065,91.9397
"4438",79.744865,91.953125
"4439",79.80835,91.96655
"4440",79.84985,91.97998
"4441",79.85718,91.99341
"4442",79.815674,92.006836
"4443",79.727776,92.02026
"4444",79.586174,92.03369
"4445",79.40795,92.04712
"4446",79.19066,92.06055
"4447",78.94896,92.073975
"4448",78.692604,92.0874
"4449",78.42893,92.10083
"4450",78.16281,92.11426
"4451",77.89914,92.127686
"4452",77.645226,92.14111
"4453",77.40353,92.15454
"4454",77.17647,92.16797
"4455",76.9543,92.1814
"4456",76.73945,92.194824
"4457",76.53681,92.20825
"4458",76.368355,92.22168
"4459",76.2707,92.23511
"4460",76.32929,92.248535
"4461",76.654,92.26196
"4462",77.347374,92.27539
"4463",78.4387,92.28882
"4464",79.871826,92.302246
"4465",81.50271,92.315674
"4466",83.13359,92.3291
"4467",84.56916,92.34253
"4468",85.6849,92.35596
"4469",86.431984,92.369385
"4470",86.81773,92.38281
"4471",86.89586,92.39624
"4472",86.729836,92.40967
"4473",86.39048,92.423096
"4474",85.93149,92.43652
"4475",85.39681,92.44995
"4476",84.81087,92.46338
"4477",84.18585,92.47681
"4478",83.54131,92.490234
"4479",82.89433,92.50366
"4480",82.286415,92.51709
"4481",81.74929,92.53052
"4482",81.30984,92.543945
"4483",80.98024,92.55737
"4484",80.76051,92.5708
"4485",80.63111,92.58423
"4486",80.55787,92.59766
"4487",80.50172,92.611084
"4488",80.43336,92.62451
"4489",80.32105,92.63794
"4490",80.15991,92.65137
"4491",79.954834,92.664795
"4492",79.725334,92.67822
"4493",79.483635,92.69165
"4494",79.25414,92.70508
"4495",79.04173,92.718506
"4496",78.8513,92.73193
"4497",78.6804,92.74536
"4498",78.521706,92.75879
"4499",78.37034,92.77222
"4500",78.221405,92.785645
"4501",78.0676,92.79907
"4502",77.90158,92.8125
"4503",77.713585,92.82593
"4504",77.49386,92.839355
"4505",77.24483,92.85278
"4506",76.97627,92.86621
"4507",76.717476,92.87964
"4508",76.52705,92.89307
"4509",76.5124,92.906494
"4510",76.79805,92.91992
"4511",77.46456,92.93335
"4512",78.53147,92.94678
"4513",79.93286,92.960205
"4514",81.51736,92.97363
"4515",83.09453,92.98706
"4516",84.49348,93.00049
"4517",85.609215,93.013916
"4518",86.41001,93.02734
"4519",86.89586,93.04077
"4520",87.10582,93.0542
"4521",87.09361,93.06763
"4522",86.91539,93.081055
"4523",86.61021,93.09448
"4524",86.222015,93.10791
"4525",85.7728,93.12134
"4526",85.26009,93.134766
"4527",84.68635,93.14819
"4528",84.05646,93.16162
"4529",83.39483,93.17505
"4530",82.73075,93.18848
"4531",82.11307,93.201904
"4532",81.57839,93.21533
"4533",81.146255,93.22876
"4534",80.8069,93.24219
"4535",80.54078,93.255615
"4536",80.31617,93.26904
"4537",80.09888,93.28247
"4538",79.85962,93.2959
"4539",79.57885,93.309326
"4540",79.25414,93.322754
"4541",78.89769,93.33618
"4542",78.519264,93.34961
"4543",78.133514,93.36304
"4544",77.7551,93.376465
"4545",77.38888,93.38989
"4546",77.04219,93.40332
"4547",76.715034,93.41675
"4548",76.41718,93.430176
"4549",76.14862,93.4436
"4550",75.92157,93.45703
"4551",75.733574,93.47046
"4552",75.58953,93.48389
"4553",75.47234,93.497314
"4554",75.37713,93.51074
"4555",75.299,93.52417
"4556",75.2404,93.5376
"4557",75.22087,93.551025
"4558",75.299,93.56445
"4559",75.56756,93.57788
"4560",76.12421,93.59131
"4561",77.04463,93.60474
"4562",78.31907,93.618164
"4563",79.852295,93.63159
"4564",81.497826,93.64502
