"","ppg","time"
"1",82.633095,799.8237
"2",82.33036,799.8374
"3",82.00076,799.8501
"4",81.66384,799.8638
"5",81.36355,799.87646
"6",81.12184,799.89014
"7",80.936295,799.90283
"8",80.78981,799.9165
"9",80.65797,799.9292
"10",80.51392,799.9429
"11",80.343025,799.95557
"12",80.13306,799.96924
"13",79.88403,799.98193
"14",79.59594,799.9956
"15",79.27856,800.0083
"16",78.94896,800.022
"17",78.61448,800.03467
"18",78.2971,800.04834
"19",78.00412,800.06104
"20",77.74044,800.0747
"21",77.50851,800.0874
"22",77.31075,800.1011
"23",77.14229,800.1138
"24",77.00313,800.12744
"25",76.88838,800.14014
"26",76.80049,800.1538
"27",76.734566,800.1665
"28",76.68574,800.1802
"29",76.646675,800.1929
"30",76.61494,800.20654
"31",76.58564,800.21924
"32",76.55634,800.2329
"33",76.51972,800.2456
"34",76.470894,800.2593
"35",76.402534,800.272
"36",76.314644,800.28564
"37",76.21698,800.29834
"38",76.12665,800.312
"39",76.07294,800.3247
"40",76.12909,800.3384
"41",76.404976,800.3511
"42",76.98848,800.36475
"43",77.92111,800.37744
"44",79.15404,800.3911
"45",80.57252,800.4038
"46",81.98367,800.4175
"47",83.194626,800.4302
"48",84.071106,800.44385
"49",84.56672,800.45654
"50",84.70588,800.4702
"51",84.56428,800.4829
"52",84.24689,800.4966
"53",83.861145,800.5093
"54",83.48272,800.52295
"55",83.1458,800.53564
"56",82.83574,800.5493
"57",82.528114,800.562
"58",82.20828,800.5757
"59",81.87625,800.5884
"60",81.55398,800.60205
"61",81.26833,800.61475
"62",81.04372,800.6284
"63",80.89235,800.6411
"64",80.79469,800.6548
"65",80.71656,800.6675
"66",80.64088,800.68115
"67",80.53834,800.69385
"68",80.38453,800.7075
"69",80.17456,800.7202
"70",79.920654,800.7339
"71",79.62768,800.7466
"72",79.31274,800.76025
"73",78.992905,800.77295
"74",78.6804,800.7866
"75",78.38499,800.7993
"76",78.116425,800.813
"77",77.87717,800.8257
"78",77.66964,800.83936
"79",77.49142,800.85205
"80",77.34249,800.8657
"81",77.225296,800.8784
"82",77.14229,800.8921
"83",77.086136,800.9048
"84",77.05684,800.91846
"85",77.03975,800.93115
"86",77.02754,800.9448
"87",77.01045,800.9575
"88",76.98604,800.9712
"89",76.94942,800.9839
"90",76.893265,800.99756
"91",76.822464,801.01025
"92",76.74189,801.0239
"93",76.65156,801.0366
"94",76.57343,801.0503
"95",76.53925,801.063
"96",76.61738,801.07666
"97",76.90791,801.08936
"98",77.4963,801.103
"99",78.41917,801.1157
"100",79.62768,801.1294
"101",80.99489,801.1421
"102",82.33524,801.15576
"103",83.46807,801.16846
"104",84.27131,801.1821
"105",84.698555,801.1948
"106",84.78401,801.2085
"107",84.60334,801.2212
"108",84.25422,801.23486
"109",83.83429,801.24756
"110",83.40948,801.2612
"111",83.00908,801.2739
"112",82.62821,801.2876
"113",82.25712,801.3003
"114",81.89334,801.31396
"115",81.55642,801.32666
"116",81.26589,801.34033
"117",81.0486,801.353
"118",80.91676,801.3667
"119",80.86061,801.3794
"120",80.850845,801.39307
"121",80.850845,801.40576
"122",80.82887,801.41943
"123",80.75075,801.4321
"124",80.60914,801.4458
"125",80.40162,801.4585
"126",80.13306,801.47217
"127",79.83276,801.48486
"128",79.51537,801.49854
"129",79.19554,801.5112
"130",78.887924,801.5249
"131",78.60227,801.5376
"132",78.3386,801.5513
"133",78.10666,801.56396
"134",77.90402,801.57764
"135",77.738,801.59033
"136",77.60616,801.604
"137",77.50851,801.6167
"138",77.44503,801.6304
"139",77.40597,801.64307
"140",77.38155,801.65674
"141",77.36935,801.66943
"142",77.35958,801.6831
"143",77.349815,801.6958
"144",77.332726,801.7095
"145",77.30099,801.72217
"146",77.2546,801.73584
"147",77.188675,801.74854
"148",77.11299,801.7622
"149",77.04219,801.7749
"150",77.01289,801.7886
"151",77.100784,801.8013
"152",77.41085,801.81494
"153",78.02365,801.82764
"154",78.9514,801.8413
"155",80.15015,801.854
"156",81.4905,801.8677
"157",82.78935,801.8804
"158",83.86603,801.89404
"159",84.61799,801.90674
"160",85.00374,801.9204
"161",85.050125,801.9331
"162",84.83284,801.9468
"163",84.456856,801.9595
"164",84.01495,801.97314
"165",83.56817,801.98584
"166",83.13603,801.9995
"167",82.718544,802.0122
"168",82.31327,802.0259
"169",81.92996,802.0386
"170",81.59304,802.05225
"171",81.324486,802.06494
"172",81.1487,802.0786
"173",81.07057,802.0913
"174",81.06081,802.105
"175",81.08278,802.1177
"176",81.10231,802.13135
"177",81.092545,802.14404
"178",81.02174,802.1577
"179",80.88014,802.1704
"180",80.67017,802.1841
"181",80.394295,802.1968
"182",80.07202,802.21045
"183",79.73022,802.22314
"184",79.39086,802.2368
"185",79.07103,802.2495
"186",78.78294,802.2632
"187",78.52659,802.2759
"188",78.30198,802.28955
"189",78.10666,802.30225
"190",77.943085,802.3159
"191",77.81613,802.3286
"192",77.72335,802.3423
"193",77.659874,802.355
"194",77.62081,802.36865
"195",77.593956,802.38135
"196",77.56954,802.395
"197",77.54513,802.4077
"198",77.52071,802.4214
"199",77.488976,802.4341
"200",77.44259,802.44775
"201",77.38155,802.46045
"202",77.30587,802.4741
"203",77.22041,802.4868
"204",77.137405,802.5005
"205",77.09834,802.5132
"206",77.17647,802.52686
"207",77.471886,802.53955
"208",78.0676,802.5532
"209",78.98802,802.5659
"210",80.19165,802.5796
"211",81.54665,802.5923
"212",82.86748,802.60596
"213",83.980774,802.61865
"214",84.76936,802.6323
"215",85.1844,802.645
"216",85.25277,802.6587
"217",85.04768,802.6714
"218",84.664375,802.68506
"219",84.19806,802.69775
"220",83.72198,802.7114
"221",83.26055,802.7241
"222",82.81865,802.7378
"223",82.39384,802.7505
"224",81.99344,802.76416
"225",81.634544,802.77686
"226",81.34402,802.7905
"227",81.143814,802.8032
"228",81.03639,802.8169
"229",81.007095,802.8296
"230",81.0193,802.84326
"231",81.03395,802.85596
"232",81.0193,802.8696
"233",80.95094,802.8823
"234",80.81178,802.896
"235",80.59205,802.9087
"236",80.31129,802.92236
"237",79.98413,802.93506
"238",79.635,802.9487
"239",79.28344,802.9614
"240",78.94408,802.9751
"241",78.626686,802.9878
"242",78.34104,803.00146
"243",78.08469,803.01416
"244",77.8674,803.02783
"245",77.68673,803.0405
"246",77.54269,803.0542
"247",77.437706,803.0669
"248",77.35958,803.08057
"249",77.30343,803.09326
"250",77.264366,803.10693
"251",77.2375,803.1196
"252",77.208206,803.1333
"253",77.17647,803.146
"254",77.13008,803.15967
"255",77.066605,803.17236
"256",76.99092,803.18604
"257",76.90547,803.1987
"258",76.82002,803.2124
"259",76.75899,803.2251
"260",76.79317,803.2388
"261",77.015335,803.25146
"262",77.50851,803.26514
"263",78.3093,803.27783
"264",79.38354,803.2915
"265",80.61158,803.3042
"266",81.8201,803.3179
"267",82.84306,803.33057
"268",83.56573,803.34424
"269",83.94171,803.35693
"270",83.99298,803.3706
"271",83.77814,803.3833
"272",83.38262,803.397
"273",82.9041,803.40967
"274",82.406044,803.42334
"275",81.92508,803.43604
"276",81.47341,803.4497
"277",81.0486,803.4624
"278",80.66041,803.4761
"279",80.33326,803.4888
"280",80.08911,803.50244
"281",79.94995,803.51514
"282",79.92798,803.5288
"283",79.9939,803.5415
"284",80.10132,803.5552
"285",80.20874,803.5679
"286",80.26978,803.58154
"287",80.26002,803.59424
"288",80.16235,803.6079
"289",79.98413,803.6206
"290",79.73754,803.6343
"291",79.44457,803.647
"292",79.1223,803.66064
"293",78.79515,803.67334
"294",78.485085,803.687
"295",78.20676,803.6997
"296",77.96506,803.7134
"297",77.76486,803.7261
"298",77.60372,803.73975
"299",77.47433,803.75244
"300",77.36446,803.7661
"301",77.27657,803.7788
"302",77.208206,803.7925
"303",77.154495,803.8052
"304",77.11055,803.81885
"305",77.07881,803.83154
"306",77.0544,803.8452
"307",77.02754,803.8579
"308",77.01045,803.8716
"309",77.03487,803.8843
"310",77.15694,803.89795
"311",77.454796,803.91064
"312",77.99191,803.9243
"313",78.79271,803.937
"314",79.798584,803.9507
"315",80.89479,803.9634
"316",81.934845,803.97705
"317",82.774704,803.98975
"318",83.319145,804.0034
"319",83.55352,804.0161
"320",83.50469,804.0298
"321",83.245895,804.0425
"322",82.847946,804.05615
"323",82.39384,804.06885
"324",81.934845,804.0825
"325",81.4905,804.0952
"326",81.06569,804.1089
"327",80.66773,804.1216
"328",80.31861,804.13525
"329",80.03784,804.14795
"330",79.852295,804.1616
"331",79.78638,804.1743
"332",79.83765,804.188
"333",79.971924,804.2007
"334",80.13794,804.21436
"335",80.29664,804.22705
"336",80.39918,804.2407
"337",80.41871,804.2534
"338",80.34058,804.2671
"339",80.181885,804.2798
"340",79.95972,804.29346
"341",79.69604,804.30615
"342",79.41772,804.3198
"343",79.149155,804.3325
"344",78.90257,804.3462
"345",78.69016,804.3589
"346",78.51194,804.37256
"347",78.365456,804.38525
"348",78.24582,804.3989
"349",78.14572,804.4116
"350",78.05295,804.4253
"351",77.97238,804.438
"352",77.90646,804.45166
"353",77.855194,804.46436
"354",77.81857,804.478
"355",77.81857,804.4907
"356",77.90402,804.5044
"357",78.14084,804.5171
"358",78.59739,804.53076
"359",79.30785,804.54346
"360",80.24048,804.5571
"361",81.29763,804.5698
"362",82.3328,804.5835
"363",83.20683,804.5962
"364",83.81232,804.60986
"365",84.11261,804.62256
"366",84.12726,804.6362
"367",83.9173,804.6489
"368",83.560844,804.6626
"369",83.13359,804.6753
"370",82.69657,804.68896
"371",82.27665,804.70166
"372",81.87869,804.71533
"373",81.49294,804.728
"374",81.129166,804.7417
"375",80.8069,804.7544
"376",80.552986,804.76807
"377",80.396736,804.78076
"378",80.35035,804.79443
"379",80.40406,804.8071
"380",80.52125,804.8208
"381",80.65308,804.8335
"382",80.762955,804.84717
"383",80.81178,804.85986
"384",80.77516,804.87354
"385",80.65064,804.8862
"386",80.45289,804.8999
"387",80.198975,804.9126
"388",79.91821,804.9263
"389",79.62768,804.93896
"390",79.3518,804.95264
"391",79.097885,804.96533
"392",78.87572,804.979
"393",78.69016,804.9917
"394",78.53391,805.0054
"395",78.399635,805.01807
"396",78.28733,805.03174
"397",78.187225,805.04443
"398",78.09689,805.0581
"399",78.028534,805.0708
"400",77.996796,805.0845
"401",78.04074,805.09717
"402",78.64622,805.12354
"403",79.31762,805.1372
"404",80.22583,805.1499
"405",81.2781,805.1636
"406",82.340126,805.1763
"407",83.25811,805.18994
"408",83.914856,805.20264
"409",84.263985,805.2163
"410",84.32014,805.229
"411",84.14435,805.2427
"412",83.809875,805.2554
"413",83.39971,805.26904
"414",82.98222,805.28174
"415",82.58671,805.2954
"416",82.213165,805.3081
"417",81.8616,805.3218
"418",81.52224,805.3345
"419",81.20973,805.34814
"420",80.93385,805.36084
"421",80.73121,805.3745
"422",80.618904,805.3872
"423",80.59205,805.4009
"424",80.62379,805.4136
"425",80.68482,805.42725
"426",80.73121,805.43994
"427",80.72877,805.4536
"428",80.66529,805.4663
"429",80.52857,805.48
"430",80.33082,805.4927
"431",80.08179,805.50635
"432",79.80591,805.51904
"433",79.52514,805.5327
"434",79.2517,805.5454
"435",78.99779,805.5591
"436",78.768295,805.5718
"437",78.57053,805.58545
"438",78.39475,805.59814
"439",78.24338,805.6118
"440",78.1091,805.6245
"441",77.99924,805.6382
"442",77.90646,805.6509
"443",77.84299,805.66455
"444",77.83322,805.67725
"445",77.93332,805.6909
"446",78.22873,805.7036
"447",78.77074,805.7173
"448",79.571526,805.73
"449",80.56519,805.74365
"450",81.62722,805.75635
"451",82.6038,805.77
"452",83.353325,805.7827
"453",83.809875,805.7964
"454",83.966125,805.8091
"455",83.86847,805.82275
"456",83.59258,805.83545
"457",83.22148,805.8491
"458",82.82109,805.8618
"459",82.43534,805.8755
"460",82.06912,805.8882
"461",81.71511,805.90186
"462",81.37087,805.91455
"463",81.04372,805.9282
"464",80.74586,805.9409
"465",80.51148,805.9546
"466",80.35523,805.9673
"467",80.28443,805.98096
"468",80.274666,805.99365
"469",80.30396,806.0073
"470",80.3357,806.02
"471",80.3357,806.0337
"472",80.28443,806.0464
"473",80.164795,806.06006
"474",79.98413,806.07275
"475",79.7522,806.0864
"476",79.48608,806.0991
"477",79.21019,806.1128
"478",78.941635,806.1255
"479",78.68772,806.13916
"480",78.45579,806.15186
"481",78.25315,806.1655
"482",78.07248,806.1782
"483",77.91379,806.1919
"484",77.769745,806.2046
"485",77.642784,806.21826
"486",77.53048,806.23096
"487",77.44015,806.2446
"488",77.39376,806.2573
"489",77.45968,806.271
"490",77.70382,806.2837
"491",78.187225,806.29736
"492",78.922104,806.31006
"493",79.8645,806.3237
"494",80.89479,806.3364
"495",81.86893,806.3501
"496",82.64042,806.3628
"497",83.13115,806.37646
"498",83.32159,806.38916
"499",83.250786,806.40283
"500",82.98711,806.4155
"501",82.62089,806.4292
"502",82.21561,806.4419
"503",81.82498,806.45557
"504",81.45388,806.46826
"505",81.09987,806.48193
"506",80.75075,806.4946
"507",80.41627,806.5083
"508",80.12085,806.521
"509",79.886475,806.53467
"510",79.73754,806.54736
"511",79.674065,806.56104
"512",79.676506,806.5737
"513",79.708244,806.5874
"514",79.7351,806.6001
"515",79.727776,806.6138
"516",79.65942,806.62646
"517",79.52758,806.64014
"518",79.33715,806.65283
"519",79.10277,806.6665
"520",78.84642,806.6792
"521",78.590065,806.6929
"522",78.345924,806.70557
"523",78.12131,806.71924
"524",77.92111,806.73193
"525",77.74532,806.7456
"526",77.593956,806.7583
"527",77.46456,806.772
"528",77.349815,806.78467
"529",77.24971,806.79834
"530",77.15694,806.81104
"531",77.08125,806.8247
"532",77.02266,806.8374
"533",77.01289,806.8511
"534",77.103226,806.8638
"535",77.37179,806.87744
"536",77.874725,806.89014
"537",78.61936,806.9038
"538",79.54955,806.9165
"539",80.550545,806.9302
"540",81.47341,806.9429
"541",82.18387,806.95654
"542",82.60624,806.96924
"543",82.735634,806.9829
"544",82.62089,806.9956
"545",82.33524,807.0093
"546",81.95926,807.022
"547",81.56863,807.03564
"548",81.197525,807.04834
"549",80.85329,807.062
"550",80.533455,807.0747
"551",80.22583,807.0884
"552",79.937744,807.1011
"553",79.691154,807.11475
"554",79.50561,807.12744
"555",79.398186,807.1411
"556",79.37133,807.1538
"557",79.40551,807.1675
"558",79.4641,807.1802
"559",79.51537,807.19385
"560",79.52514,807.20654
"561",79.47631,807.2202
"562",79.364006,807.2329
"563",79.1931,807.2466
"564",78.98558,807.2593
"565",78.75365,807.27295
"566",78.51438,807.28564
"567",78.28001,807.2993
"568",78.07004,807.312
"569",77.88937,807.3257
"570",77.74532,807.3384
"571",77.63302,807.35205
"572",77.54513,807.36475
"573",77.47921,807.3784
"574",77.4255,807.3911
"575",77.38155,807.4048
"576",77.34493,807.4175
"577",77.30831,807.43115
"578",77.26925,807.44385
"579",77.23506,807.4575
"580",77.21553,807.4702
"581",77.25216,807.4839
"582",77.41329,807.4966
"583",77.78195,807.51025
"584",78.40208,807.52295
"585",79.256584,807.5366
"586",80.2649,807.5493
"587",81.28298,807.563
"588",82.15701,807.5757
"589",82.76982,807.58936
"590",83.07744,807.60205
"591",83.09697,807.6157
"592",82.89433,807.6284
"593",82.55009,807.6421
"594",82.14969,807.6548
"595",81.75906,807.66846
"596",81.40505,807.68115
"597",81.0901,807.6948
"598",80.80202,807.7075
"599",80.533455,807.7212
"600",80.291756,807.7339
"601",80.093994,807.74756
"602",79.96704,807.76025
"603",79.91089,807.7739
"604",79.923096,807.7866
"605",79.971924,807.8003
"606",80.025635,807.813
"607",80.05737,807.82666
"608",80.042725,807.83936
"609",79.96704,807.853
"610",79.83276,807.8657
"611",79.64721,807.8794
"612",79.429924,807.8921
"613",79.200424,807.90576
"614",78.96849,807.91846
"615",78.74876,807.9321
"616",78.54856,807.9448
"617",78.37278,807.9585
"618",78.22629,807.9712
"619",78.10666,807.98486
"620",78.01633,807.99756
"621",77.95041,808.0112
"622",77.90158,808.0239
"623",77.872284,808.0376
"624",77.86008,808.0503
"625",77.86008,808.06396
"626",77.86008,808.07666
"627",77.855194,808.09033
"628",77.84299,808.103
"629",77.81125,808.1167
"630",77.769745,808.1294
"631",77.72823,808.14307
"632",77.68673,808.15576
"633",77.662315,808.16943
"634",77.70626,808.1821
"635",77.90646,808.1958
"636",78.35081,808.2085
"637",79.078354,808.22217
"638",80.05737,808.23486
"639",81.17799,808.24854
"640",82.27177,808.2612
"641",83.17265,808.2749
"642",83.773254,808.2876
"643",84.04913,808.3013
"644",84.034485,808.31396
"645",83.80499,808.32764
"646",83.4461,808.34033
"647",83.038376,808.354
"648",82.6453,808.3667
"649",82.29618,808.3804
"650",81.986115,808.39307
"651",81.71023,808.40674
"652",81.449,808.41943
"653",81.21217,808.4331
"654",81.004654,808.4458
"655",80.850845,808.4595
"656",80.75563,808.47217
"657",80.72144,808.48584
"658",80.719,808.49854
"659",80.73365,808.5122
"660",80.73853,808.5249
"661",80.71168,808.5386
"662",80.638435,808.5513
"663",80.5066,808.56494
"664",80.323494,808.57764
"665",80.10376,808.5913
"666",79.869385,808.604
"667",79.63256,808.6177
"668",79.40551,808.6304
"669",79.19798,808.64404
"670",79.00511,808.65674
"671",78.82933,808.6704
"672",78.675514,808.6831
"673",78.54856,808.6968
"674",78.44846,808.7095
"675",78.3679,808.72314
"676",78.311745,808.73584
"677",78.277565,808.7495
"678",78.25803,808.7622
"679",78.24826,808.7759
"680",78.24338,808.7886
"681",78.23361,808.80225
"682",78.21408,808.81494
"683",78.18234,808.8286
"684",78.135956,808.8413
"685",78.07736,808.855
"686",78.011444,808.8677
"687",77.95041,808.88135
"688",77.91623,808.89404
"689",77.977264,808.9077
"690",78.22873,808.9204
"691",78.74143,808.9341
"692",79.537346,808.9468
"693",80.550545,808.96045
"694",81.65652,808.97314
"695",82.686806,808.9868
"696",83.492485,808.9995
"697",83.9881,809.0132
"698",84.173645,809.0259
"699",84.09308,809.03955
"700",83.824524,809.05225
"701",83.44854,809.0659
"702",83.04082,809.0786
"703",82.65507,809.0923
"704",82.30839,809.105
"705",81.99588,809.11865
"706",81.71267,809.13135
"707",81.45144,809.145
"708",81.21706,809.1577
"709",81.02663,809.1714
"710",80.89723,809.1841
"711",80.833755,809.19775
"712",80.82887,809.21045
"713",80.85573,809.2241
"714",80.88747,809.2368
"715",80.89479,809.2505
"716",80.85329,809.2632
"717",80.76051,809.27686
"718",80.61646,809.28955
"719",80.42359,809.3032
"720",80.19653,809.3159
"721",79.954834,809.3296
"722",79.7058,809.3423
"723",79.4641,809.35596
"724",79.24437,809.36865
"725",79.0515,809.3823
"726",78.88548,809.395
"727",78.74387,809.4087
"728",78.624245,809.4214
"729",78.52415,809.43506
"730",78.44602,809.44775
"731",78.38987,809.4614
"732",78.35813,809.4741
"733",78.3386,809.4878
"734",78.32151,809.5005
"735",78.30198,809.51416
"736",78.277565,809.52686
"737",78.24338,809.5405
"738",78.19943,809.5532
"739",78.14816,809.5669
"740",78.08957,809.5796
"741",78.028534,809.59326
"742",78.00168,809.60596
"743",78.07248,809.6196
"744",78.33616,809.6323
"745",78.85863,809.646
"746",79.64721,809.6587
"747",80.64088,809.67236
"748",81.71999,809.68506
"749",82.72343,809.6987
"750",83.50469,809.7114
"751",83.98566,809.7251
"752",84.159,809.7378
"753",84.06378,809.75146
"754",83.775696,809.76416
"755",83.38506,809.77783
"756",82.96269,809.7905
"757",82.55741,809.8042
"758",82.18875,809.8169
"759",81.85184,809.83057
"760",81.53689,809.84326
"761",81.248795,809.85693
"762",81.004654,809.8696
"763",80.82399,809.8833
"764",80.72144,809.896
"765",80.69947,809.90967
"766",80.73853,809.92236
"767",80.8069,809.93604
"768",80.87526,809.9487
"769",80.907,809.9624
"770",80.88258,809.9751
"771",80.80202,809.9888
"772",80.66285,810.00146
"773",80.46998,810.01514
"774",80.24048,810.02783
"775",79.98901,810.0415
"776",79.727776,810.0542
"777",79.47631,810.0679
"778",79.23949,810.08057
"779",79.029526,810.09424
"780",78.84154,810.10693
"781",78.6804,810.1206
"782",78.54368,810.1333
"783",78.433815,810.147
"784",78.348366,810.15967
"785",78.28977,810.17334
"786",78.25071,810.18604
"787",78.22385,810.1997
"788",78.20187,810.2124
"789",78.1799,810.2261
"790",78.14572,810.2388
"791",78.099335,810.25244
"792",78.04318,810.26514
"793",77.98947,810.2788
"794",77.943085,810.2915
"795",77.93576,810.3052
"796",78.04074,810.3179
"797",78.33616,810.33154
"798",78.88304,810.34424
"799",79.68627,810.3579
"800",80.67994,810.3706
"801",81.73708,810.3843
"802",82.69413,810.397
"803",83.41924,810.41064
"804",83.85138,810.42334
"805",83.99054,810.437
"806",83.87579,810.4497
"807",83.580376,810.4634
"808",83.18486,810.4761
"809",82.760056,810.48975
"810",82.34501,810.50244
"811",81.96414,810.5161
"812",81.61501,810.5288
"813",81.287865,810.5425
"814",80.99733,810.5552
"815",80.75807,810.56885
"816",80.59693,810.58154
"817",80.52125,810.5952
"818",80.54078,810.6079
"819",80.62867,810.6216
"820",80.74586,810.6343
"821",80.850845,810.64795
"822",80.91188,810.66064
"823",80.902115,810.6743
"824",80.816666,810.687
"825",80.66041,810.7007
"826",80.45289,810.7134
"827",80.201416,810.72705
"828",79.93042,810.73975
"829",79.656975,810.7534
"830",79.395744,810.7661
"831",79.15404,810.7798
"832",78.94652,810.7925
"833",78.77074,810.80615
"834",78.6218,810.81885
"835",78.49973,810.8325
"836",78.397194,810.8452
"837",78.311745,810.8589
"838",78.23605,810.8716
"839",78.170135,810.88525
"840",78.101776,810.89795
"841",78.03586,810.9116
"842",77.97238,810.9243
"843",77.92111,810.938
"844",77.90402,810.9507
"845",77.98703,810.96436
"846",78.24338,810.97705
"847",78.729225,810.9907
"848",79.449455,811.0034
"849",80.34547,811.0171
"850",81.304955,811.0298
"851",82.19119,811.04346
"852",82.8748,811.05615
"853",83.29473,811.0698
"854",83.4461,811.0825
"855",83.36065,811.0962
"856",83.10185,811.1089
"857",82.73319,811.12256
"858",82.31083,811.13525
"859",81.87625,811.1489
"860",81.45144,811.1616
"861",81.04372,811.1753
"862",80.65797,811.188
"863",80.31617,811.20166
"864",80.04028,811.21436
"865",79.85718,811.228
"866",79.79126,811.2407
"867",79.83765,811.2544
"868",79.96704,811.2671
"869",80.1355,811.28076
"870",80.29908,811.29346
"871",80.41627,811.3071
"872",80.45045,811.3198
"873",80.39918,811.3335
"874",80.26246,811.3462
"875",80.0647,811.35986
"876",79.823,811.37256
"877",79.56664,811.3862
"878",79.30541,811.3989
"879",79.061264,811.4126
"880",78.84154,811.4253
"881",78.64622,811.43896
"882",78.470436,811.45166
"883",78.31907,811.46533
"884",78.18234,811.478
"885",78.06027,811.4917
"886",77.95773,811.5044
"887",77.874725,811.51807
"888",77.81125,811.53076
"889",77.77707,811.54443
"890",77.81125,811.5571
"891",77.98947,811.5708
"892",78.38743,811.5835
"893",79.03929,811.59717
"894",79.91821,811.60986
"895",80.92409,811.62354
"896",81.91531,811.6362
"897",82.74784,811.6499
"898",83.32891,811.6626
"899",83.62432,811.6763
"900",83.65118,811.68896
"901",83.46563,811.70264
"902",83.12871,811.71533
"903",82.71366,811.729
"904",82.27421,811.7417
"905",81.84451,811.7554
"906",81.43435,811.76807
"907",81.03883,811.78174
"908",80.67017,811.79443
"909",80.34547,811.8081
"910",80.093994,811.8208
"911",79.94507,811.8345
"912",79.90845,811.84717
"913",79.974365,811.86084
"914",80.09888,811.87354
"915",80.24292,811.8872
"916",80.35767,811.8999
"917",80.40894,811.9136
"918",80.38209,811.9263
"919",80.272224,811.93994
"920",80.09155,811.95264
"921",79.8645,811.9663
"922",79.61059,811.979
"923",79.34692,811.9927
"924",79.08812,812.0054
"925",78.84886,812.01904
"926",78.63157,812.03174
"927",78.43626,812.0454
"928",78.26536,812.0581
"929",78.11398,812.0718
"930",77.98459,812.0845
"931",77.86984,812.09814
"932",77.78439,812.11084
"933",77.738,812.1245
"934",77.78439,812.1372
"935",77.98947,812.1509
"936",78.43137,812.1636
"937",79.13939,812.17725
"938",80.079346,812.18994
"939",81.14137,812.2036
"940",82.1741,812.2163
"941",83.03105,812.23
"942",83.60479,812.2427
"943",83.87579,812.25635
"944",83.87335,812.26904
"945",83.66827,812.2827
"946",83.32403,812.2954
"947",82.91142,812.3091
"948",82.48661,812.3218
"949",82.07645,812.33545
"950",81.68337,812.34814
"951",81.31228,812.3618
"952",80.96071,812.3745
"953",80.64088,812.3882
"954",80.377205,812.4009
"955",80.19653,812.41455
"956",80.11597,812.42725
"957",80.130615,812.4409
"958",80.20386,812.4536
"959",80.2942,812.4673
"960",80.36744,812.48
"961",80.38453,812.49365
"962",80.32838,812.50635
"963",80.19653,812.52
"964",80.00122,812.5327
"965",79.76196,812.5464
"966",79.49584,812.5591
"967",79.219955,812.57275
"968",78.94896,812.58545
"969",78.695045,812.5991
"970",78.46555,812.6118
"971",78.260475,812.6255
"972",78.0798,812.6382
"973",77.91867,812.65186
"974",77.77951,812.66455
"975",77.662315,812.6782
"976",77.58907,812.6909
"977",77.60372,812.7046
"978",77.786835,812.7173
"979",78.20676,812.73096
"980",78.89769,812.74365
"981",79.82056,812.7573
"982",80.8777,812.77
"983",81.91043,812.7837
"984",82.76982,812.7964
"985",83.346,812.81006
"986",83.61944,812.82275
"987",83.617,812.8364
"988",83.41436,812.8491
"989",83.08476,812.8628
"990",82.69901,812.8755
"991",82.303505,812.88916
"992",81.92508,812.90186
"993",81.55398,812.9155
"994",81.18776,812.9282
"995",80.8362,812.9419
"996",80.51148,812.9546
"997",80.24048,812.96826
"998",80.04761,812.98096
"999",79.94751,812.9946
"1000",79.93286,813.0073
"1001",79.96948,813.021
"1002",80.01587,813.0337
"1003",80.045166,813.04736
"1004",80.028076,813.06006
"1005",79.94995,813.0737
"1006",79.80591,813.0864
"1007",79.61059,813.1001
"1008",79.37133,813.1128
"1009",79.10765,813.12646
"1010",78.839096,813.13916
"1011",78.5803,813.15283
"1012",78.33616,813.1655
"1013",78.11398,813.1792
"1014",77.91135,813.1919
"1015",77.733116,813.20557
"1016",77.576866,813.21826
"1017",77.44503,813.23193
"1018",77.34493,813.2446
"1019",77.31808,813.2583
"1020",77.43282,813.271
"1021",77.76486,813.28467
"1022",78.37034,813.29736
"1023",79.22728,813.31104
"1024",80.2478,813.3237
"1025",81.28542,813.3374
"1026",82.18387,813.3501
"1027",82.8333,813.3638
"1028",83.1873,813.37646
"1029",83.25567,813.39014
"1030",83.10185,813.40283
"1031",82.791794,813.4165
"1032",82.406044,813.4292
"1033",82.00076,813.4429
"1034",81.61257,813.45557
"1035",81.23659,813.46924
"1036",80.8777,813.48193
"1037",80.53101,813.4956
"1038",80.21362,813.5083
"1039",79.94507,813.522
"1040",79.74975,813.53467
"1041",79.63744,813.54834
"1042",79.605705,813.56104
"1043",79.622795,813.5747
"1044",79.65453,813.5874
"1045",79.67162,813.6011
"1046",79.64965,813.6138
"1047",79.57641,813.62744
"1048",79.44213,813.64014
"1049",79.259026,813.6538
"1050",79.044174,813.6665
"1051",78.8098,813.6802
"1052",78.56809,813.6929
"1053",78.331276,813.70654
"1054",78.10666,813.71924
"1055",77.89914,813.7329
"1056",77.713585,813.7456
"1057",77.55001,813.7593
"1058",77.40841,813.772
"1059",77.279015,813.78564
"1060",77.16914,813.79834
"1061",77.07881,813.812
"1062",77.03487,813.8247
"1063",77.11055,813.8384
"1064",77.38888,813.8511
"1065",77.93088,813.86475
"1066",78.73411,813.87744
"1067",79.727776,813.8911
"1068",80.7776,813.9038
"1069",81.72732,813.9175
"1070",82.44511,813.9302
"1071",82.86748,813.94385
"1072",83.001755,813.95654
"1073",82.90166,813.9702
"1074",82.633095,813.9829
"1075",82.27421,813.9966
"1076",81.88602,814.0093
"1077",81.514915,814.02295
"1078",81.16823,814.03564
"1079",80.83864,814.0493
"1080",80.52369,814.062
"1081",80.22583,814.0757
"1082",79.9646,814.0884
"1083",79.7522,814.10205
"1084",79.61547,814.11475
"1085",79.54955,814.1284
"1086",79.537346,814.1411
"1087",79.54955,814.1548
"1088",79.56176,814.1675
"1089",79.54467,814.18115
"1090",79.48119,814.19385
"1091",79.36645,814.2075
"1092",79.200424,814.2202
"1093",78.995346,814.2339
"1094",78.768295,814.2466
"1095",78.53391,814.26025
"1096",78.29954,814.27295
"1097",78.082245,814.2866
"1098",77.88937,814.2993
"1099",77.72335,814.313
"1100",77.58419,814.3257
"1101",77.469444,814.33936
"1102",77.37179,814.35205
"1103",77.28878,814.3657
"1104",77.208206,814.3784
"1105",77.13252,814.3921
"1106",77.069046,814.4048
"1107",77.02754,814.41846
"1108",77.05684,814.43115
"1109",77.23018,814.4448
"1110",77.63546,814.4575
"1111",78.30198,814.4712
"1112",79.20531,814.4839
"1113",80.24292,814.49756
"1114",81.27322,814.51025
"1115",82.13504,814.5239
"1116",82.735634,814.5366
"1117",83.035934,814.5503
"1118",83.06523,814.563
"1119",82.88945,814.57666
"1120",82.58915,814.58936
"1121",82.24002,814.603
"1122",81.89578,814.6157
"1123",81.58572,814.6294
"1124",81.30007,814.6421
"1125",81.02174,814.65576
"1126",80.743416,814.66846
"1127",80.46998,814.6821
"1128",80.218506,814.6948
"1129",80.01587,814.7085
"1130",79.87671,814.7212
"1131",79.80591,814.73486
"1132",79.783936,814.74756
"1133",79.78882,814.7612
"1134",79.7937,814.7739
"1135",79.766846,814.7876
"1136",79.69604,814.8003
"1137",79.57397,814.81396
"1138",79.40551,814.82666
"1139",79.200424,814.84033
"1140",78.98314,814.853
"1141",78.76341,814.8667
"1142",78.54612,814.8794
"1143",78.345924,814.89307
"1144",78.16281,814.90576
"1145",78.009,814.91943
"1146",77.88205,814.9321
"1147",77.786835,814.9458
"1148",77.72091,814.9585
"1149",77.6672,814.97217
"1150",77.62081,814.98486
"1151",77.574425,814.99854
"1152",77.5256,815.0112
"1153",77.47433,815.0249
"1154",77.4255,815.0376
"1155",77.38155,815.0513
"1156",77.35714,815.06396
"1157",77.39132,815.07764
"1158",77.57198,815.09033
"1159",77.979706,815.104
"1160",78.65354,815.1167
"1161",79.55932,815.1304
"1162",80.59693,815.14307
"1163",81.619896,815.15674
"1164",82.47929,815.16943
"1165",83.072556,815.1831
"1166",83.36309,815.1958
"1167",83.39239,815.2095
"1168",83.21904,815.22217
"1169",82.913864,815.23584
"1170",82.55741,815.24854
"1171",82.213165,815.2622
"1172",81.900665,815.2749
"1173",81.619896,815.2886
"1174",81.35134,815.3013
"1175",81.08522,815.31494
"1176",80.831314,815.32764
"1177",80.6067,815.3413
"1178",80.43336,815.354
"1179",80.31861,815.3677
"1180",80.2649,815.3804
"1181",80.2478,815.39404
"1182",80.24292,815.40674
"1183",80.233154,815.4204
"1184",80.19409,815.4331
"1185",80.11597,815.4468
"1186",79.991455,815.4595
"1187",79.82544,815.47314
"1188",79.62768,815.48584
"1189",79.40795,815.4995
"1190",79.183334,815.5122
"1191",78.95628,815.5259
"1192",78.74387,815.5386
"1193",78.54856,815.55225
"1194",78.37766,815.56494
"1195",78.238495,815.5786
"1196",78.133514,815.5913
"1197",78.05539,815.605
"1198",78.00168,815.6177
"1199",77.96506,815.63135
"1200",77.93332,815.64404
"1201",77.90402,815.6577
"1202",77.86984,815.6704
"1203",77.82834,815.6841
"1204",77.77707,815.6968
"1205",77.72823,815.71045
"1206",77.679405,815.72314
"1207",77.645226,815.7368
"1208",77.66964,815.7495
"1209",77.82834,815.7632
"1210",78.20187,815.7759
"1211",78.83421,815.78955
"1212",79.693596,815.80225
"1213",80.689705,815.8159
"1214",81.688255,815.8286
"1215",82.545204,815.8423
"1216",83.15068,815.855
"1217",83.47295,815.86865
"1218",83.529106,815.88135
"1219",83.3753,815.895
"1220",83.07744,815.9077
"1221",82.71366,815.9214
"1222",82.34257,815.9341
"1223",81.99832,815.94775
"1224",81.68093,815.96045
"1225",81.38308,815.9741
"1226",81.09743,815.9868
"1227",80.84108,816.0005
"1228",80.62623,816.0132
"1229",80.46998,816.02686
"1230",80.38209,816.03955
"1231",80.35767,816.0532
"1232",80.37476,816.0659
"1233",80.4065,816.0796
"1234",80.428474,816.0923
"1235",80.41627,816.10596
"1236",80.35523,816.11865
"1237",80.23804,816.1323
"1238",80.06714,816.145
"1239",79.85962,816.1587
"1240",79.63744,816.1714
"1241",79.415276,816.18506
"1242",79.19554,816.19775
"1243",78.995346,816.2114
"1244",78.81224,816.2241
"1245",78.64622,816.2378
"1246",78.49973,816.2505
"1247",78.37522,816.26416
"1248",78.277565,816.27686
"1249",78.19943,816.2905
"1250",78.14084,816.3032
"1251",78.099335,816.3169
"1252",78.07004,816.3296
"1253",78.04562,816.34326
"1254",78.01877,816.35596
"1255",77.98215,816.3696
"1256",77.9382,816.3823
"1257",77.89426,816.396
"1258",77.86008,816.4087
"1259",77.891815,816.42236
"1260",78.06271,816.43506
"1261",78.45823,816.4487
"1262",79.10765,816.4614
"1263",79.98657,816.4751
"1264",80.99245,816.4878
"1265",81.98367,816.50146
"1266",82.811325,816.51416
"1267",83.3753,816.52783
"1268",83.64629,816.5405
"1269",83.65362,816.5542
"1270",83.455864,816.5669
"1271",83.12627,816.58057
"1272",82.738075,816.59326
"1273",82.34745,816.60693
"1274",81.97879,816.6196
"1275",81.636986,816.6333
"1276",81.31472,816.646
"1277",81.01198,816.65967
"1278",80.74586,816.67236
"1279",80.5359,816.68604
"1280",80.40406,816.6987
"1281",80.35523,816.7124
"1282",80.37232,816.7251
"1283",80.42603,816.7388
"1284",80.48707,816.75146
"1285",80.53101,816.76514
"1286",80.52857,816.77783
"1287",80.47242,816.7915
"1288",80.35035,816.8042
"1289",80.17212,816.8179
"1290",79.954834,816.83057
"1291",79.72045,816.84424
"1292",79.48119,816.85693
"1293",79.256584,816.8706
"1294",79.046616,816.8833
"1295",78.85863,816.897
"1296",78.692604,816.90967
"1297",78.551,816.92334
"1298",78.43137,816.93604
"1299",78.33616,816.9497
"1300",78.26292,816.9624
"1301",78.204315,816.9761
"1302",78.153046,816.9888
"1303",78.10422,817.00244
"1304",78.05295,817.01514
"1305",77.99924,817.0288
"1306",77.94797,817.0415
"1307",77.91379,817.0552
"1308",77.90402,817.0679
"1309",77.97238,817.08154
"1310",78.19455,817.09424
"1311",78.641335,817.1079
"1312",79.34203,817.1206
"1313",80.255135,817.1343
"1314",81.2781,817.147
"1315",82.25712,817.16064
"1316",83.05058,817.17334
"1317",83.57061,817.187
"1318",83.80011,817.1997
"1319",83.76837,817.2134
"1320",83.54131,817.2261
"1321",83.18974,817.23975
"1322",82.777145,817.25244
"1323",82.357216,817.2661
"1324",81.95438,817.2788
"1325",81.57351,817.2925
"1326",81.21706,817.3052
"1327",80.88991,817.31885
"1328",80.60914,817.33154
"1329",80.396736,817.3452
"1330",80.272224,817.3579
"1331",80.23804,817.3716
"1332",80.27955,817.3843
"1333",80.36256,817.39795
"1334",80.445564,817.41064
"1335",80.50416,817.4243
"1336",80.51392,817.437
"1337",80.45289,817.4507
"1338",80.32838,817.4634
"1339",80.14282,817.47705
"1340",79.920654,817.48975
"1341",79.674065,817.5034
"1342",79.42748,817.5161
"1343",79.19066,817.5298
"1344",78.97337,817.5425
"1345",78.77806,817.55615
"1346",78.60227,817.56885
"1347",78.450905,817.5825
"1348",78.32395,817.5952
"1349",78.221405,817.6089
"1350",78.14572,817.6216
"1351",78.08713,817.63525
"1352",78.03342,817.64795
"1353",77.98947,817.6616
"1354",77.94064,817.6743
"1355",77.8967,817.688
"1356",77.85031,817.7007
"1357",77.81369,817.71436
"1358",77.823456,817.72705
"1359",77.94797,817.7407
"1360",78.27024,817.7534
"1361",78.853745,817.7671
"1362",79.69848,817.7798
"1363",80.726326,817.79346
"1364",81.80301,817.80615
"1365",82.76494,817.8198
"1366",83.48516,817.8325
"1367",83.90021,817.8462
"1368",84.01984,817.8589
"1369",83.888,817.87256
"1370",83.57549,817.88525
"1371",83.16533,817.8989
"1372",82.71366,817.9116
"1373",82.26444,817.9253
"1374",81.83719,817.938
"1375",81.43923,817.95166
"1376",81.06813,817.96436
"1377",80.743416,817.978
"1378",80.479744,817.9907
"1379",80.30396,818.0044
"1380",80.22339,818.0171
"1381",80.23804,818.03076
"1382",80.32105,818.04346
"1383",80.4358,818.0571
"1384",80.53834,818.0698
"1385",80.601814,818.0835
"1386",80.59449,818.0962
"1387",80.51148,818.10986
"1388",80.360115,818.12256
"1389",80.15015,818.1362
"1390",79.90845,818.1489
"1391",79.65453,818.1626
"1392",79.40795,818.1753
"1393",79.17113,818.18896
"1394",78.95628,818.20166
"1395",78.75853,818.21533
"1396",78.58274,818.228
"1397",78.42649,818.2417
"1398",78.29221,818.2544
"1399",78.18234,818.26807
"1400",78.09445,818.28076
"1401",78.01877,818.29443
"1402",77.95041,818.3071
"1403",77.891815,818.3208
"1404",77.838104,818.3335
"1405",77.789276,818.34717
"1406",77.76242,818.35986
"1407",77.79416,818.37354
"1408",77.95773,818.3862
"1409",78.33372,818.3999
"1410",78.96605,818.4126
"1411",79.84009,818.4263
"1412",80.86549,818.43896
"1413",81.900665,818.45264
"1414",82.78691,818.46533
"1415",83.407036,818.479
"1416",83.717094,818.4917
"1417",83.734184,818.5054
"1418",83.51446,818.51807
"1419",83.140915,818.53174
"1420",82.686806,818.54443
"1421",82.210724,818.5581
"1422",81.75174,818.5708
"1423",81.31716,818.5845
"1424",80.907,818.59717
"1425",80.533455,818.61084
"1426",80.216064,818.62354
"1427",79.98169,818.6372
"1428",79.84985,818.6499
"1429",79.82788,818.6636
"1430",79.89868,818.6763
"1431",80.028076,818.68994
"1432",80.17944,818.70264
"1433",80.30396,818.7163
"1434",80.36988,818.729
"1435",80.35767,818.7427
"1436",80.26246,818.7554
"1437",80.09155,818.76904
"1438",79.86694,818.78174
"1439",79.61547,818.7954
"1440",79.35668,818.8081
"1441",79.10765,818.8218
"1442",78.88304,818.8345
"1443",78.68528,818.84814
"1444",78.51194,818.86084
"1445",78.35813,818.8745
"1446",78.21896,818.8872
"1447",78.09201,818.9009
"1448",77.97482,818.9136
"1449",77.86496,818.92725
"1450",77.77219,818.93994
"1451",77.69894,818.9536
"1452",77.68185,818.9663
"1453",77.77951,818.98
"1454",78.07492,818.9927
"1455",78.61936,819.00635
"1456",79.412834,819.01904
"1457",80.37965,819.0327
"1458",81.38308,819.0454
"1459",82.266884,819.0591
"1460",82.91142,819.0718
"1461",83.267876,819.08545
"1462",83.34356,819.09814
"1463",83.18974,819.1118
"1464",82.87724,819.1245
"1465",82.4744,819.1382
"1466",82.0325,819.1509
"1467",81.58572,819.16455
"1468",81.15114,819.17725
"1469",80.73365,819.1909
"1470",80.34547,819.2036
"1471",80.00366,819.2173
"1472",79.73022,819.23
"1473",79.55688,819.24365
"1474",79.50561,819.25635
"1475",79.5642,819.27
"1476",79.70336,819.2827
"1477",79.87427,819.2964
"1478",80.025635,819.3091
"1479",80.12085,819.32275
"1480",80.130615,819.33545
"1481",80.05737,819.3491
"1482",79.91089,819.3618
"1483",79.71801,819.3755
"1484",79.500725,819.3882
"1485",79.273674,819.40186
"1486",79.0515,819.41455
"1487",78.84642,819.4282
"1488",78.65354,819.4409
"1489",78.47776,819.4546
"1490",78.311745,819.4673
"1491",78.16037,819.48096
"1492",78.02121,819.49365
"1493",77.89914,819.5073
"1494",77.803925,819.52
"1495",77.77707,819.5337
"1496",77.874725,819.5464
"1497",78.184784,819.56006
"1498",78.76097,819.57275
"1499",79.59594,819.5864
"1500",80.61158,819.5991
"1501",81.67361,819.6128
"1502",82.61112,819.6255
"1503",83.302055,819.63916
"1504",83.6878,819.65186
"1505",83.775696,819.6655
"1506",83.62432,819.6782
"1507",83.30938,819.6919
"1508",82.90654,819.7046
"1509",82.476845,819.71826
"1510",82.05203,819.73096
"1511",81.651634,819.7446
"1512",81.26833,819.7573
"1513",80.902115,819.771
"1514",80.56519,819.7837
"1515",80.28199,819.79736
"1516",80.07202,819.81006
"1517",79.96216,819.8237
"1518",79.95239,819.8364
"1519",80.01587,819.8501
"1520",80.11841,819.8628
"1521",80.22339,819.87646
"1522",80.289314,819.88916
"1523",80.291756,819.90283
"1524",80.216064,819.9155
"1525",80.076904,819.9292
"1526",79.88403,819.9419
"1527",79.65453,819.95557
"1528",79.41039,819.96826
"1529",79.1638,819.98193
"1530",78.92943,819.9946
"1531",78.712135,820.0083
"1532",78.51194,820.021
"1533",78.33372,820.03467
"1534",78.17502,820.04736
"1535",78.04074,820.06104
"1536",77.93088,820.0737
"1537",77.872284,820.0874
"1538",77.925995,820.1001
"1539",78.17258,820.1138
"1540",79.447014,820.14014
"1541",80.42115,820.15283
"1542",81.47585,820.1665
"1543",82.45243,820.1792
"1544",83.21416,820.1929
"1545",83.685356,820.20557
"1546",83.8587,820.21924
"1547",83.790344,820.23193
"1548",83.53887,820.2456
"1549",83.175095,820.2583
"1550",82.77226,820.272
"1551",82.36454,820.28467
"1552",81.971466,820.29834
"1553",81.59548,820.31104
"1554",81.231705,820.3247
"1555",80.88747,820.3374
"1556",80.57984,820.3511
"1557",80.32838,820.3638
"1558",80.15503,820.37744
"1559",80.07446,820.39014
"1560",80.076904,820.4038
"1561",80.13306,820.4165
"1562",80.20874,820.4302
"1563",80.26002,820.4429
"1564",80.2649,820.45654
"1565",80.198975,820.46924
"1566",80.07202,820.4829
"1567",79.886475,820.4956
"1568",79.65942,820.5093
"1569",79.40795,820.522
"1570",79.14671,820.53564
"1571",78.89281,820.54834
"1572",78.65598,820.562
"1573",78.4387,820.5747
"1574",78.24338,820.5884
"1575",78.0676,820.6011
"1576",77.91623,820.61475
"1577",77.80148,820.62744
"1578",77.77463,820.6411
"1579",77.90158,820.6538
"1580",78.26292,820.6675
"1581",78.89281,820.6802
"1582",79.764404,820.69385
"1583",80.78737,820.70654
"1584",81.812775,820.7202
"1585",82.69413,820.7329
"1586",83.3167,820.7466
"1587",83.63897,820.7593
"1588",83.69024,820.77295
"1589",83.526665,820.78564
"1590",83.22392,820.7993
"1591",82.85527,820.812
"1592",82.46464,820.8257
"1593",82.07889,820.8384
"1594",81.69558,820.85205
"1595",81.31716,820.86475
"1596",80.95094,820.8784
"1597",80.6067,820.8911
"1598",80.31617,820.9048
"1599",80.09888,820.9175
"1600",79.96704,820.93115
"1601",79.923096,820.94385
"1602",79.940186,820.9575
"1603",79.98901,820.9702
"1604",80.03052,820.9839
"1605",80.03784,820.9966
"1606",79.991455,821.01025
"1607",79.88403,821.02295
"1608",79.71557,821.0366
"1609",79.50561,821.0493
"1610",79.259026,821.063
"1611",79.00023,821.0757
"1612",78.73899,821.08936
"1613",78.487526,821.10205
"1614",78.25071,821.1157
"1615",78.04318,821.1284
"1616",77.86008,821.1421
"1617",77.70138,821.1548
"1618",77.576866,821.16846
"1619",77.523155,821.18115
"1620",77.60128,821.1948
"1621",77.88937,821.2075
"1622",78.4387,821.2212
"1623",79.24681,821.2339
"1624",80.235596,821.24756
"1625",81.270775,821.26025
"1626",82.19119,821.2739
"1627",82.87724,821.2866
"1628",83.27032,821.3003
"1629",83.37774,821.313
"1630",83.25323,821.32666
"1631",82.97002,821.33936
"1632",82.6038,821.353
"1633",82.20584,821.3657
"1634",81.80301,821.3794
"1635",81.40749,821.3921
"1636",81.02174,821.40576
"1637",80.64576,821.41846
"1638",80.29908,821.4321
"1639",80.01099,821.4448
"1640",79.79614,821.4585
"1641",79.67162,821.4712
"1642",79.63256,821.48486
"1643",79.65209,821.49756
"1644",79.693596,821.5112
"1645",79.725334,821.5239
"1646",79.72289,821.5376
"1647",79.66186,821.5503
"1648",79.54467,821.56396
"1649",79.37621,821.57666
"1650",79.166245,821.59033
"1651",78.92943,821.603
"1652",78.68772,821.6167
"1653",78.44846,821.6294
"1654",78.21652,821.64307
"1655",77.996796,821.65576
"1656",77.7966,821.66943
"1657",77.61349,821.6821
"1658",77.452354,821.6958
"1659",77.315636,821.7085
"1660",77.21797,821.72217
"1661",77.18379,821.73486
"1662",77.281456,821.74854
"1663",77.58907,821.7612
"1664",78.15549,821.7749
"1665",78.97826,821.7876
"1666",79.98169,821.8013
"1667",81.024185,821.81396
"1668",81.95438,821.82764
"1669",82.64286,821.84033
"1670",83.03349,821.854
"1671",83.13359,821.8667
"1672",83.001755,821.8804
"1673",82.71122,821.89307
"1674",82.337685,821.90674
"1675",81.93729,821.91943
"1676",81.53689,821.9331
"1677",81.143814,821.9458
"1678",80.75319,821.9595
"1679",80.37476,821.97217
"1680",80.028076,821.98584
"1681",79.742424,821.99854
"1682",79.54711,822.0122
"1683",79.4519,822.0249
"1684",79.44457,822.0386
"1685",79.49584,822.0513
"1686",79.56664,822.06494
"1687",79.61303,822.07764
"1688",79.61059,822.0913
"1689",79.54711,822.104
"1690",79.4226,822.1177
"1691",79.24681,822.1304
"1692",79.03685,822.14404
"1693",78.80736,822.15674
"1694",78.572975,822.1704
"1695",78.34104,822.1831
"1696",78.118866,822.1968
"1697",77.91379,822.2095
"1698",77.730675,822.22314
"1699",77.56954,822.23584
"1700",77.42306,822.2495
"1701",77.29366,822.2622
"1702",77.18135,822.2759
"1703",77.09834,822.2886
"1704",77.083694,822.30225
"1705",77.21553,822.31494
"1706",77.574425,822.3286
"1707",78.19943,822.3413
"1708",79.06859,822.355
"1709",80.093994,822.3677
"1710",81.129166,822.38135
"1711",82.01785,822.39404
"1712",82.64774,822.4077
"1713",82.97734,822.4204
"1714",83.02373,822.4341
"1715",82.85039,822.4468
"1716",82.52323,822.46045
"1717",82.12039,822.47314
"1718",81.69314,822.4868
"1719",81.26833,822.4995
"1720",80.85573,822.5132
"1721",80.465096,822.5259
"1722",80.1062,822.53955
"1723",79.7937,822.55225
"1724",79.551994,822.5659
"1725",79.40551,822.5786
"1726",79.35424,822.5923
"1727",79.378654,822.605
"1728",79.45434,822.61865
"1729",79.534904,822.63135
"1730",79.58373,822.645
"1731",79.57641,822.6577
"1732",79.50561,822.6714
"1733",79.37133,822.6841
"1734",79.183334,822.69775
"1735",78.96117,822.71045
"1736",78.72678,822.7241
"1737",78.48997,822.7368
"1738",78.26536,822.7505
"1739",78.06027,822.7632
"1740",77.87961,822.77686
"1741",77.71847,822.78955
"1742",77.576866,822.8032
"1743",77.44747,822.8159
"1744",77.32784,822.8296
"1745",77.225296,822.8423
"1746",77.14229,822.85596
"1747",77.09834,822.86865
"1748",77.14961,822.8823
"1749",77.383995,822.895
"1750",77.872284,822.9087
"1751",78.63401,822.9214
"1752",79.622795,822.93506
"1753",80.719,822.94775
"1754",81.75662,822.9614
"1755",82.58671,822.9741
"1756",83.123825,822.9878
"1757",83.35088,823.0005
"1758",83.30694,823.01416
"1759",83.06279,823.02686
"1760",82.69657,823.0405
"1761",82.27665,823.0532
"1762",81.849396,823.0669
"1763",81.43679,823.0796
"1764",81.03883,823.09326
"1765",80.66041,823.10596
"1766",80.308846,823.1196
"1767",80.01099,823.1323
"1768",79.78638,823.146
"1769",79.65209,823.1587
"1770",79.603264,823.17236
"1771",79.62524,823.18506
"1772",79.676506,823.1987
"1773",79.73022,823.2114
"1774",79.75464,823.2251
"1775",79.727776,823.2378
"1776",79.639885,823.25146
"1777",79.48852,823.26416
"1778",79.290764,823.27783
"1779",79.061264,823.2905
"1780",78.819565,823.3042
"1781",78.57786,823.3169
"1782",78.35081,823.33057
"1783",78.153046,823.34326
"1784",77.98459,823.35693
"1785",77.838104,823.3696
"1786",77.71114,823.3833
"1787",77.60616,823.396
"1788",77.50851,823.40967
"1789",77.420616,823.42236
"1790",77.34005,823.43604
"1791",77.26681,823.4487
"1792",77.205765,823.4624
"1793",77.18379,823.4751
"1794",77.26681,823.4888
"1795",77.55001,823.50146
"1796",78.11154,823.51514
"1797",78.96849,823.52783
"1798",80.062256,823.5415
"1799",81.253685,823.5542
"1800",82.374306,823.5679
"1801",83.267876,823.58057
"1802",83.85138,823.59424
"1803",84.102844,823.60693
"1804",84.071106,823.6206
"1805",83.824524,823.6333
"1806",83.44854,823.647
"1807",83.018845,823.65967
"1808",82.58427,823.67334
"1809",82.16922,823.68604
"1810",81.77615,823.6997
"1811",81.39773,823.7124
"1812",81.03639,823.7261
"1813",80.71168,823.7388
"1814",80.448006,823.75244
"1815",80.26246,823.76514
"1816",80.164795,823.7788
"1817",80.14038,823.7915
"1818",80.16235,823.8052
"1819",80.198975,823.8179
"1820",80.216064,823.83154
"1821",80.19165,823.84424
"1822",80.1062,823.8579
"1823",79.95972,823.8706
"1824",79.75708,823.8843
"1825",79.517815,823.897
"1826",79.26635,823.91064
"1827",79.012436,823.92334
"1828",78.77074,823.937
"1829",78.54368,823.9497
"1830",78.3386,823.9634
"1831",78.153046,823.9761
"1832",77.994354,823.98975
"1833",77.86496,824.00244
"1834",77.75754,824.0161
"1835",77.67696,824.0288
"1836",77.611046,824.0425
"1837",77.55978,824.0552
"1838",77.50851,824.06885
"1839",77.46212,824.08154
"1840",77.41573,824.0952
"1841",77.37179,824.1079
"1842",77.34005,824.1216
"1843",77.37423,824.1343
"1844",77.56222,824.14795
"1845",78.00168,824.16064
"1846",78.751205,824.1743
"1847",79.78882,824.187
"1848",81.00954,824.2007
"1849",82.25468,824.2134
"1850",83.34356,824.22705
"1851",84.13458,824.23975
"1852",84.578926,824.2534
"1853",84.69611,824.2661
"1854",84.54475,824.2798
"1855",84.20538,824.2925
"1856",83.76593,824.30615
"1857",83.302055,824.31885
"1858",82.86015,824.3325
"1859",82.44755,824.3452
"1860",82.0618,824.3589
"1861",81.6907,824.3716
"1862",81.34402,824.38525
"1863",81.03395,824.39795
"1864",80.79225,824.4116
"1865",80.62867,824.4243
"1866",80.54322,824.438
"1867",80.516365,824.4507
"1868",80.51148,824.46436
"1869",80.50172,824.47705
"1870",80.462654,824.4907
"1871",80.38209,824.5034
"1872",80.24536,824.5171
"1873",80.059814,824.5298
"1874",79.835205,824.54346
"1875",79.58373,824.55615
"1876",79.32006,824.5698
"1877",79.05394,824.5825
"1878",78.79271,824.5962
"1879",78.54612,824.6089
"1880",78.32151,824.62256
"1881",78.118866,824.63525
"1882",77.94797,824.6489
"1883",77.806366,824.6616
"1884",77.69161,824.6753
"1885",77.60128,824.688
"1886",77.52804,824.70166
"1887",77.469444,824.71436
"1888",77.41573,824.728
"1889",77.36202,824.7407
"1890",77.30831,824.7544
"1891",77.25948,824.7671
"1892",77.21797,824.78076
"1893",77.21553,824.79346
"1894",77.330284,824.8071
"1895",77.65743,824.8198
"1896",78.2678,824.8335
"1897",79.17113,824.8462
"1898",80.30152,824.85986
"1899",81.5198,824.87256
"1900",82.64774,824.8862
"1901",83.53887,824.8989
"1902",84.1004,824.9126
"1903",84.3299,824.9253
"1904",84.26154,824.93896
"1905",83.97833,824.95166
"1906",83.560844,824.96533
"1907",83.087204,824.978
"1908",82.61356,824.9917
"1909",82.15701,825.0044
"1910",81.722435,825.01807
"1911",81.307396,825.03076
"1912",80.92653,825.04443
"1913",80.59937,825.0571
"1914",80.34547,825.0708
"1915",80.18677,825.0835
"1916",80.11841,825.09717
"1917",80.11841,825.10986
"1918",80.15991,825.12354
"1919",80.2063,825.1362
"1920",80.22827,825.1499
"1921",80.2063,825.1626
"1922",80.12329,825.1763
"1923",79.97925,825.18896
"1924",79.781494,825.20264
"1925",79.54467,825.21533
"1926",79.28344,825.229
"1927",79.01488,825.2417
"1928",78.75365,825.2554
"1929",78.50706,825.26807
"1930",78.28001,825.28174
"1931",78.07736,825.29443
"1932",77.8967,825.3081
"1933",77.738,825.3208
"1934",77.608604,825.3345
"1935",77.50851,825.34717
"1936",77.42794,825.36084
"1937",77.36935,825.37354
"1938",77.32052,825.3872
"1939",77.27413,825.3999
"1940",77.222855,825.4136
"1941",77.17403,825.4263
"1942",77.13252,825.43994
"1943",77.137405,825.45264
"1944",77.24727,825.4663
"1945",77.56466,825.479
"1946",78.167694,825.4927
"1947",79.07103,825.5054
"1948",80.216064,825.51904
"1949",81.46853,825.53174
"1950",82.65751,825.5454
"1951",83.61944,825.5581
"1952",84.25422,825.5718
"1953",84.53986,825.5845
"1954",84.51057,825.59814
"1955",84.23956,825.61084
"1956",83.80499,825.6245
"1957",83.299614,825.6372
"1958",82.777145,825.6509
"1959",82.269325,825.6636
"1960",81.7908,825.67725
"1961",81.34646,825.68994
"1962",80.9485,825.7036
"1963",80.60914,825.7163
"1964",80.34547,825.73
"1965",80.177,825.7427
"1966",80.111084,825.75635
"1967",80.12329,825.76904
"1968",80.18677,825.7827
"1969",80.26734,825.7954
"1970",80.325935,825.8091
"1971",80.33814,825.8218
"1972",80.28687,825.83545
"1973",80.16235,825.84814
"1974",79.974365,825.8618
"1975",79.7351,825.8745
"1976",79.466545,825.8882
"1977",79.183334,825.9009
"1978",78.905014,825.91455
"1979",78.64866,825.92725
"1980",78.416725,825.9409
"1981",78.21164,825.9536
"1982",78.02609,825.9673
"1983",77.86252,825.98
"1984",77.72335,825.99365
"1985",77.608604,826.00635
"1986",77.51583,826.02
"1987",77.44503,826.0327
"1988",77.383995,826.0464
"1989",77.33761,826.0591
"1990",77.296104,826.07275
"1991",77.25948,826.08545
"1992",77.225296,826.0991
"1993",77.21065,826.1118
"1994",77.264366,826.1255
"1995",77.47433,826.1382
"1996",77.9382,826.15186
"1997",78.71946,826.16455
"1998",79.7937,826.1782
"1999",81.06081,826.1909
"2000",82.354774,826.2046
"2001",83.49493,826.2173
"2002",84.33967,826.23096
"2003",84.82796,826.24365
"2004",84.96712,826.2573
"2005",84.808426,826.27
"2006",84.439766,826.2837
"2007",83.93927,826.2964
"2008",83.387505,826.31006
"2009",82.8333,826.32275
"2010",82.303505,826.3364
"2011",81.80301,826.3491
"2012",81.3489,826.3628
"2013",80.9485,826.3755
"2014",80.62379,826.38916
"2015",80.38941,826.40186
"2016",80.26246,826.4155
"2017",80.233154,826.4282
"2018",80.27955,826.4419
"2019",80.365,826.4546
"2020",80.45533,826.46826
"2021",80.50904,826.48096
"2022",80.49683,826.4946
"2023",80.40894,826.5073
"2024",80.2478,826.521
"2025",80.03052,826.5337
"2026",79.77417,826.54736
"2027",79.500725,826.56006
"2028",79.217514,826.5737
"2029",78.93675,826.5864
"2030",78.66819,826.6001
"2031",78.416725,826.6128
"2032",78.18967,826.62646
"2033",77.994354,826.63916
"2034",77.82834,826.65283
"2035",77.68917,826.6655
"2036",77.574425,826.6792
"2037",77.48409,826.6919
"2038",77.41085,826.70557
"2039",77.35226,826.71826
"2040",77.28878,826.73193
"2041",77.23018,826.7446
"2042",77.18135,826.7583
"2043",77.18379,826.771
"2044",77.32052,826.78467
"2045",77.69405,826.79736
"2046",78.37278,826.81104
"2047",79.34936,826.8237
"2048",80.552986,826.8374
"2049",81.83475,826.8501
"2050",83.0164,826.8638
"2051",83.946594,826.87646
"2052",84.54475,826.89014
"2053",84.8011,826.90283
"2054",84.74738,826.9165
"2055",84.4593,826.9292
"2056",84.017395,826.9429
"2057",83.492485,826.95557
"2058",82.93828,826.96924
"2059",82.391396,826.98193
"2060",81.864044,826.9956
"2061",81.37087,827.0083
"2062",80.92897,827.022
"2063",80.55787,827.03467
"2064",80.27955,827.04834
"2065",80.10864,827.06104
"2066",80.05249,827.0747
"2067",80.08911,827.0874
"2068",80.18921,827.1011
"2069",80.306404,827.1138
"2070",80.396736,827.12744
"2071",80.42603,827.14014
"2072",80.377205,827.1538
"2073",80.25269,827.1665
"2074",80.0647,827.1802
"2075",79.83032,827.1929
"2076",79.5642,827.20654
"2077",79.28344,827.21924
"2078",78.992905,827.2329
"2079",78.712135,827.2456
"2080",78.44602,827.2593
"2081",78.20676,827.272
"2082",77.996796,827.28564
"2083",77.81613,827.29834
"2084",77.662315,827.312
"2085",77.53536,827.3247
"2086",77.4255,827.3384
"2087",77.3254,827.3511
"2088",77.239944,827.36475
"2089",77.1667,827.37744
"2090",77.11543,827.3911
"2091",77.13252,827.4038
"2092",77.30587,827.4175
"2093",77.72335,827.4302
"2094",78.44358,827.44385
"2095",79.45678,827.45654
"2096",80.6775,827.4702
"2097",81.951935,827.4829
"2098",83.104294,827.4966
"2099",83.99298,827.5093
"2100",84.54475,827.52295
"2101",84.749825,827.53564
"2102",84.647285,827.5493
"2103",84.30793,827.562
"2104",83.81964,827.5757
"2105",83.25567,827.5884
"2106",82.669716,827.60205
"2107",82.08621,827.61475
"2108",81.52468,827.6284
"2109",80.990005,827.6411
"2110",80.516365,827.6548
"2111",80.13306,827.6675
"2112",79.87915,827.68115
"2113",79.76929,827.69385
"2114",79.7937,827.7075
"2115",79.91577,827.7202
"2116",80.08667,827.7339
"2117",80.25269,827.7466
"2118",80.37232,827.76025
"2119",80.41627,827.77295
"2120",80.37476,827.7866
"2121",80.2478,827.7993
"2122",80.05005,827.813
"2123",79.801025,827.8257
"2124",79.5227,827.83936
"2125",79.234604,827.85205
"2126",78.95628,827.8657
"2127",78.692604,827.8784
"2128",78.450905,827.8921
"2129",78.22873,827.9048
"2130",78.02121,827.91846
"2131",77.83078,827.93115
"2132",77.64767,827.9448
"2133",77.48165,827.9575
"2134",77.33761,827.9712
"2135",77.2546,827.9839
"2136",77.30831,827.99756
"2137",77.5964,828.01025
"2138",78.19699,828.0239
"2139",79.11986,828.0366
"2140",80.30396,828.0503
"2141",81.61013,828.063
"2142",82.862595,828.07666
"2143",83.897766,828.08936
"2144",84.61555,828.103
"2145",84.979324,828.1157
"2146",85.015945,828.1294
"2147",84.77913,828.1421
"2148",84.349434,828.15576
"2149",83.8172,828.16846
"2150",83.226364,828.1821
"2151",82.62089,828.1948
"2152",82.020294,828.2085
"2153",81.444115,828.2212
"2154",80.91188,828.23486
"2155",80.45777,828.24756
"2156",80.11841,828.2612
"2157",79.920654,828.2739
"2158",79.85962,828.2876
"2159",79.91333,828.3003
"2160",80.04761,828.31396
"2161",80.2063,828.32666
"2162",80.3357,828.34033
"2163",80.40162,828.353
"2164",80.38209,828.3667
"2165",80.272224,828.3794
"2166",80.079346,828.39307
"2167",79.82788,828.40576
"2168",79.54223,828.41943
"2169",79.23949,828.4321
"2170",78.941635,828.4458
"2171",78.65354,828.4585
"2172",78.37766,828.47217
"2173",78.116425,828.48486
"2174",77.86496,828.49854
"2175",77.63058,828.5112
"2176",77.4255,828.5249
"2177",77.26925,828.5376
"2178",77.22774,828.5513
"2179",77.3962,828.56396
"2180",77.86496,828.57764
"2181",78.68772,828.59033
"2182",79.83032,828.604
"2183",81.18532,828.6167
"2184",82.56962,828.6304
"2185",83.79767,828.64307
"2186",84.72785,828.65674
"2187",85.28939,828.66943
"2188",85.49203,828.6831
"2189",85.37728,828.6958
"2190",85.03548,828.7095
"2191",84.55695,828.72217
"2192",84.01007,828.73584
"2193",83.438774,828.74854
"2194",82.87236,828.7622
"2195",82.31571,828.7749
"2196",81.77371,828.7886
"2197",81.2781,828.8013
"2198",80.86305,828.81494
"2199",80.55543,828.82764
"2200",80.37476,828.8413
"2201",80.31373,828.854
"2202",80.34058,828.8677
"2203",80.41627,828.8804
"2204",80.49195,828.89404
"2205",80.52857,828.90674
"2206",80.49439,828.9204
"2207",80.37965,828.9331
"2208",80.181885,828.9468
"2209",79.91821,828.9595
"2210",79.60815,828.97314
"2211",79.273674,828.98584
"2212",78.93187,828.9995
"2213",78.60227,829.0122
"2214",78.28489,829.0259
"2215",77.98215,829.0386
"2216",77.696495,829.05225
"2217",77.44259,829.06494
"2218",77.22774,829.0786
"2219",77.09834,829.0913
"2220",77.13985,829.105
"2221",77.452354,829.1177
"2222",78.099335,829.13135
"2223",79.09056,829.14404
"2224",80.33814,829.1577
"2225",81.70046,829.1704
"2226",82.98711,829.1841
"2227",84.034485,829.1968
"2228",84.74006,829.21045
"2229",85.08675,829.22314
"2230",85.10628,829.2368
"2231",84.86458,829.2495
"2232",84.4593,829.2632
"2233",83.97101,829.2759
"2234",83.45342,829.28955
"2235",82.92607,829.30225
"2236",82.39384,829.3159
"2237",81.866486,829.3286
"2238",81.35378,829.3423
"2239",80.88747,829.355
"2240",80.49683,829.36865
"2241",80.216064,829.38135
"2242",80.042725,829.395
"2243",79.96216,829.4077
"2244",79.940186,829.4214
"2245",79.94263,829.4341
"2246",79.923096,829.44775
"2247",79.84741,829.46045
"2248",79.70336,829.4741
"2249",79.48852,829.4868
"2250",79.21019,829.5005
"2251",78.88548,829.5132
"2252",78.538795,829.52686
"2253",78.18234,829.53955
"2254",77.82834,829.5532
"2255",77.488976,829.5659
"2256",77.1667,829.5796
"2257",76.87129,829.5923
"2258",76.61738,829.60596
"2259",76.43183,829.61865
"2260",76.36347,829.6323
"2261",76.507515,829.645
"2262",76.93721,829.6587
"2263",77.68673,829.6714
"2264",78.72434,829.68506
"2265",79.94751,829.69775
"2266",81.18776,829.7114
"2267",82.28153,829.7241
"2268",83.09941,829.7378
"2269",83.577934,829.7505
"2270",83.73174,829.76416
"2271",83.617,829.77686
"2272",83.30694,829.7905
"2273",82.88945,829.8032
"2274",82.425575,829.8169
"2275",81.94461,829.8296
"2276",81.449,829.84326
"2277",80.9485,829.85596
"2278",80.448006,829.8696
"2279",79.98413,829.8823
"2280",79.586174,829.896
"2281",79.28588,829.9087
"2282",79.09544,829.92236
"2283",79.00023,829.93506
"2284",78.96361,829.9487
"2285",78.94652,829.9614
"2286",78.91966,829.9751
"2287",78.8513,829.9878
"2288",78.73167,830.00146
"2289",78.555885,830.01416
"2290",78.33372,830.02783
"2291",78.07004,830.0405
"2292",77.78195,830.0542
"2293",77.47921,830.0669
"2294",77.18135,830.08057
"2295",76.895706,830.09326
"2296",76.627144,830.10693
"2297",76.38056,830.1196
"2298",76.16571,830.1333
"2299",75.98505,830.146
"2300",75.85321,830.15967
"2301",75.81903,830.17236
"2302",75.96063,830.18604
"2303",76.35859,830.1987
"2304",77.06416,830.2124
"2305",78.06027,830.2251
"2306",79.24681,830.2388
"2307",80.4773,830.25146
"2308",81.57351,830.26514
"2309",82.39628,830.27783
"2310",82.88457,830.2915
"2311",83.053024,830.3042
"2312",82.96025,830.3179
"2313",82.686806,830.33057
"2314",82.320595,830.34424
"2315",81.92264,830.35693
"2316",81.52468,830.3706
"2317",81.1194,830.3833
"2318",80.70435,830.397
"2319",80.28687,830.40967
"2320",79.88159,830.42334
"2321",79.5227,830.43604
"2322",79.237045,830.4497
"2323",79.044174,830.4624
"2324",78.93919,830.4761
"2325",78.890366,830.4888
"2326",78.86839,830.50244
"2327",78.84154,830.51514
"2328",78.7805,830.5288
"2329",78.66331,830.5415
"2330",78.48997,830.5552
"2331",78.27268,830.5679
"2332",78.02365,830.58154
"2333",77.75754,830.59424
"2334",77.4963,830.6079
"2335",77.24971,830.6206
"2336",77.02266,830.6343
"2337",76.81758,830.647
"2338",76.63691,830.66064
"2339",76.47822,830.67334
"2340",76.33906,830.687
"2341",76.21454,830.6997
"2342",76.10956,830.7134
"2343",76.03143,830.7261
"2344",75.999695,830.73975
"2345",76.07294,830.75244
"2346",76.34638,830.7661
"2347",76.893265,830.7788
"2348",77.730675,830.7925
"2349",78.80736,830.8052
"2350",79.99878,830.81885
"2351",81.13405,830.83154
"2352",82.0618,830.8452
"2353",82.68925,830.8579
"2354",83.001755,830.8716
"2355",83.038376,830.8843
"2356",82.87724,830.89795
"2357",82.59159,830.91064
"2358",82.25712,830.9243
"2359",81.91531,830.937
"2360",81.57351,830.9507
"2361",81.22926,830.9634
"2362",80.87526,830.97705
"2363",80.516365,830.98975
"2364",80.17456,831.0034
"2365",79.88403,831.0161
"2366",79.67162,831.0298
"2367",79.534904,831.0425
"2368",79.466545,831.05615
"2369",79.43969,831.06885
"2370",79.42504,831.0825
"2371",79.39086,831.0952
"2372",79.32494,831.1089
"2373",79.21019,831.1216
"2374",79.04173,831.13525
"2375",78.82689,831.14795
"2376",78.58274,831.1616
"2377",78.328835,831.1743
"2378",78.08713,831.188
"2379",77.86496,831.2007
"2380",77.66964,831.21436
"2381",77.51095,831.22705
"2382",77.38155,831.2407
"2383",77.27657,831.2534
"2384",77.18379,831.2671
"2385",77.10567,831.2798
"2386",77.03487,831.29346
"2387",76.961624,831.30615
"2388",76.893265,831.3198
"2389",76.82979,831.3325
"2390",76.77852,831.3589
"2391",76.90059,831.37256
"2392",77.239944,831.38525
"2393",77.857635,831.3989
"2394",78.75609,831.4116
"2395",79.85718,831.4253
"2396",81.024185,831.438
"2397",82.08865,831.45166
"2398",82.913864,831.46436
"2399",83.43389,831.478
"2400",83.64629,831.4907
"2401",83.60967,831.5044
"2402",83.39971,831.5171
"2403",83.09941,831.53076
"2404",82.77226,831.54346
"2405",82.45731,831.5571
"2406",82.14725,831.5698
"2407",81.83719,831.5835
"2408",81.512474,831.5962
"2409",81.18532,831.60986
"2410",80.87526,831.62256
"2411",80.6067,831.6362
"2412",80.40894,831.6489
"2413",80.27711,831.6626
"2414",80.2063,831.6753
"2415",80.164795,831.68896
"2416",80.13306,831.70166
"2417",80.08423,831.71533
"2418",79.99878,831.728
"2419",79.86206,831.7417
"2420",79.676506,831.7544
"2421",79.4519,831.76807
"2422",79.202866,831.78076
"2423",78.94652,831.79443
"2424",78.70237,831.8071
"2425",78.47288,831.8208
"2426",78.26292,831.8335
"2427",78.07736,831.84717
"2428",77.92844,831.85986
"2429",77.80881,831.87354
"2430",77.72335,831.8862
"2431",77.6672,831.8999
"2432",77.62325,831.9126
"2433",77.58907,831.9263
"2434",77.55489,831.93896
"2435",77.51583,831.95264
"2436",77.471886,831.96533
"2437",77.420616,831.979
"2438",77.36446,831.9917
"2439",77.30831,832.0054
"2440",77.27169,832.01807
"2441",77.32296,832.03174
"2442",77.55489,832.04443
"2443",78.05539,832.0581
"2444",78.84886,832.0708
"2445",79.886475,832.0845
"2446",81.05104,832.09717
"2447",82.176544,832.11084
"2448",83.11894,832.12354
"2449",83.78302,832.1372
"2450",84.14923,832.1499
"2451",84.2591,832.1636
"2452",84.16632,832.1763
"2453",83.93439,832.18994
"2454",83.64385,832.20264
"2455",83.346,832.2163
"2456",83.06523,832.229
"2457",82.791794,832.2427
"2458",82.50614,832.2554
"2459",82.19852,832.26904
"2460",81.87869,832.28174
"2461",81.56374,832.2954
"2462",81.290306,832.3081
"2463",81.08522,832.3218
"2464",80.94118,832.3345
"2465",80.84352,832.34814
"2466",80.76784,832.36084
"2467",80.69459,832.3745
"2468",80.601814,832.3872
"2469",80.4773,832.4009
"2470",80.31373,832.4136
"2471",80.113525,832.42725
"2472",79.87915,832.43994
"2473",79.622795,832.4536
"2474",79.364006,832.4663
"2475",79.11009,832.48
"2476",78.873276,832.4927
"2477",78.65598,832.50635
"2478",78.46555,832.51904
"2479",78.30442,832.5327
"2480",78.170135,832.5454
"2481",78.06271,832.5591
"2482",77.98459,832.5718
"2483",77.92355,832.58545
"2484",77.872284,832.59814
"2485",77.83078,832.6118
"2486",77.7966,832.6245
"2487",77.75998,832.6382
"2488",77.72091,832.6509
"2489",77.66964,832.66455
"2490",77.611046,832.67725
"2491",77.54269,832.6909
"2492",77.48165,832.7036
"2493",77.47921,832.7173
"2494",77.62325,832.73
"2495",77.99191,832.74365
"2496",78.641335,832.75635
"2497",79.554436,832.77
"2498",80.655525,832.7827
"2499",81.80057,832.7964
"2500",82.83574,832.8091
"2501",83.63653,832.82275
"2502",84.14191,832.83545
"2503",84.351875,832.8491
"2504",84.315254,832.8618
"2505",84.11261,832.8755
"2506",83.82208,832.8882
"2507",83.51446,832.90186
"2508",83.22148,832.91455
"2509",82.9456,832.9282
"2510",82.66483,832.9409
"2511",82.36698,832.9546
"2512",82.05203,832.9673
"2513",81.7322,832.98096
"2514",81.43679,832.99365
"2515",81.19264,833.0073
"2516",81.01442,833.02
"2517",80.89723,833.0337
"2518",80.82155,833.0464
"2519",80.765396,833.06006
"2520",80.69703,833.07275
"2521",80.59449,833.0864
"2522",80.448006,833.0991
"2523",80.257576,833.1128
"2524",80.028076,833.1255
"2525",79.77905,833.13916
"2526",79.520256,833.15186
"2527",79.25414,833.1655
"2528",78.99779,833.1782
"2529",78.76097,833.1919
"2530",78.54612,833.2046
"2531",78.35813,833.21826
"2532",78.19699,833.23096
"2533",78.0676,833.2446
"2534",77.96994,833.2573
"2535",77.8967,833.271
"2536",77.840546,833.2837
"2537",77.806366,833.29736
"2538",77.77707,833.31006
"2539",77.747765,833.3237
"2540",77.713585,833.3364
"2541",77.67696,833.3501
"2542",77.628136,833.3628
"2543",77.56954,833.37646
"2544",77.50118,833.38916
"2545",77.43282,833.40283
"2546",77.38888,833.4155
"2547",77.42306,833.4292
"2548",77.63058,833.4419
"2549",78.08957,833.45557
"2550",78.839096,833.46826
"2551",79.84253,833.48193
"2552",80.99977,833.4946
"2553",82.15701,833.5083
"2554",83.15556,833.521
"2555",83.88312,833.53467
"2556",84.298164,833.54736
"2557",84.420235,833.56104
"2558",84.315254,833.5737
"2559",84.0589,833.5874
"2560",83.74151,833.6001
"2561",83.421684,833.6138
"2562",83.123825,833.62646
"2563",82.84062,833.64014
"2564",82.55497,833.65283
"2565",82.25468,833.6665
"2566",81.93973,833.6792
"2567",81.6321,833.6929
"2568",81.358665,833.70557
"2569",81.143814,833.71924
"2570",80.99489,833.73193
"2571",80.89967,833.7456
"2572",80.833755,833.7583
"2573",80.76784,833.772
"2574",80.68238,833.78467
"2575",80.56275,833.79834
"2576",80.39918,833.81104
"2577",80.201416,833.8247
"2578",79.971924,833.8374
"2579",79.71801,833.8511
"2580",79.45434,833.8638
"2581",79.18822,833.87744
"2582",78.93187,833.89014
"2583",78.69749,833.9038
"2584",78.485085,833.9165
"2585",78.30198,833.9302
"2586",78.14816,833.9429
"2587",78.013885,833.95654
"2588",77.90402,833.96924
"2589",77.81369,833.9829
"2590",77.7551,833.9956
"2591",77.71847,834.0093
"2592",77.69894,834.022
"2593",77.68917,834.03564
"2594",77.67452,834.04834
"2595",77.64767,834.062
"2596",77.59884,834.0747
"2597",77.52804,834.0884
"2598",77.44503,834.1011
"2599",77.35226,834.11475
"2600",77.261925,834.12744
"2601",77.222855,834.1411
"2602",77.32784,834.1538
"2603",77.67208,834.1675
"2604",78.314186,834.1802
"2605",79.24925,834.19385
"2606",80.38453,834.20654
"2607",81.55886,834.2202
"2608",82.598915,834.2329
"2609",83.372856,834.2466
"2610",83.8172,834.2593
"2611",83.93683,834.27295
"2612",83.773254,834.28564
"2613",83.389946,834.2993
"2614",82.86992,834.312
"2615",82.29374,834.3257
"2616",81.73464,834.3384
"2617",81.22926,834.35205
"2618",80.79225,834.36475
"2619",80.39918,834.3784
"2620",80.03052,834.3911
"2621",79.68139,834.4048
"2622",79.35668,834.4175
"2623",79.08324,834.43115
"2624",78.89281,834.44385
"2625",78.79271,834.4575
"2626",78.76341,834.4702
"2627",78.75609,834.4839
"2628",78.729225,834.4966
"2629",78.660866,834.51025
"2630",78.53147,834.52295
"2631",78.348366,834.5366
"2632",78.12619,834.5493
"2633",77.88693,834.563
"2634",77.64034,834.5757
"2635",77.38888,834.58936
"2636",77.14473,834.60205
"2637",76.929886,834.6157
"2638",76.756546,834.6284
"2639",76.63203,834.6421
"2640",76.5539,834.6548
"2641",76.51728,834.66846
"2642",76.50996,834.68115
"2643",76.51484,834.6948
"2644",76.53925,834.7075
"2645",76.58808,834.7212
"2646",76.66865,834.7339
"2647",76.76875,834.74756
"2648",76.87373,834.76025
"2649",76.9543,834.7739
"2650",76.99336,834.7866
"2651",76.99092,834.8003
"2652",76.978714,834.813
"2653",77.00801,834.82666
"2654",77.16182,834.83936
"2655",77.52071,834.853
"2656",78.14328,834.8657
"2657",79.027084,834.8794
"2658",80.111084,834.8921
"2659",81.287865,834.90576
"2660",82.39872,834.91846
"2661",83.30694,834.9321
"2662",83.931946,834.9448
"2663",84.25178,834.9585
"2664",84.30305,834.9712
"2665",84.16876,834.98486
"2666",83.949036,834.99756
"2667",83.70977,835.0112
"2668",83.4876,835.0239
"2669",83.267876,835.0376
"2670",83.02861,835.0503
"2671",82.74296,835.06396
"2672",82.41825,835.07666
"2673",82.08865,835.09033
"2674",81.80545,835.103
"2675",81.61013,835.1167
"2676",81.512474,835.1294
"2677",81.49294,835.14307
"2678",81.52224,835.15576
"2679",81.56374,835.16943
"2680",81.5906,835.1821
"2681",81.57839,835.1958
"2682",81.514915,835.2085
"2683",81.3904,835.22217
"2684",81.20241,835.23486
"2685",80.936295,835.24854
"2686",80.58228,835.2612
"2687",80.14526,835.2749
"2688",79.64233,835.2876
"2689",79.1223,835.3013
"2690",78.65598,835.31396
"2691",78.28977,835.32764
"2692",78.05295,835.34033
"2693",77.92355,835.354
"2694",77.85031,835.3667
"2695",77.77951,835.3804
"2696",77.68185,835.39307
"2697",77.5671,835.40674
"2698",77.46456,835.41943
"2699",77.401085,835.4331
"2700",77.401085,835.4458
"2701",77.486534,835.4595
"2702",77.70626,835.47217
"2703",78.12375,835.48584
"2704",78.79515,835.49854
"2705",79.73266,835.5122
"2706",80.87282,835.5249
"2707",82.09598,835.5386
"2708",83.24101,835.5513
"2709",84.16388,835.56494
"2710",84.771805,835.57764
"2711",85.04768,835.5913
"2712",85.02815,835.604
"2713",84.771805,835.6177
"2714",84.368965,835.6304
"2715",83.90021,835.64404
"2716",83.424126,835.65674
"2717",82.96513,835.6704
"2718",82.52323,835.6831
"2719",82.09598,835.6968
"2720",81.688255,835.7095
"2721",81.31716,835.72314
"2722",81.01442,835.73584
"2723",80.799576,835.7495
"2724",80.67994,835.7622
"2725",80.64088,835.7759
"2726",80.65064,835.7886
"2727",80.67017,835.80225
"2728",80.67506,835.81494
"2729",80.638435,835.8286
"2730",80.550545,835.8413
"2731",80.40162,835.855
"2732",80.198975,835.8677
"2733",79.94995,835.88135
"2734",79.67895,835.89404
"2735",79.395744,835.9077
"2736",79.1223,835.9204
"2737",78.86839,835.9341
"2738",78.643776,835.9468
"2739",78.44602,835.96045
"2740",78.277565,835.97314
"2741",78.13107,835.9868
"2742",78.00412,835.9995
"2743",77.88205,836.0132
"2744",77.76242,836.0259
"2745",77.64767,836.03955
"2746",77.540245,836.05225
"2747",77.45968,836.0659
"2748",77.44991,836.0786
"2749",77.591515,836.0923
"2750",77.96994,836.105
"2751",78.641335,836.11865
"2752",79.5935,836.13135
"2753",80.74586,836.145
"2754",81.95926,836.1577
"2755",83.06035,836.1714
"2756",83.90997,836.1841
"2757",84.439766,836.19775
"2758",84.644844,836.21045
"2759",84.56184,836.2241
"2760",84.27131,836.2368
"2761",83.84894,836.2505
"2762",83.36797,836.2632
"2763",82.87236,836.27686
"2764",82.38407,836.28955
"2765",81.90799,836.3032
"2766",81.45632,836.3159
"2767",81.03883,836.3296
"2768",80.68482,836.3423
"2769",80.41871,836.35596
"2770",80.2649,836.36865
"2771",80.218506,836.3823
"2772",80.25269,836.395
"2773",80.32838,836.4087
"2774",80.40406,836.4214
"2775",80.4358,836.43506
"2776",80.40406,836.44775
"2777",80.29664,836.4614
"2778",80.12085,836.4741
"2779",79.88159,836.4878
"2780",79.605705,836.5005
"2781",79.30541,836.51416
"2782",79.00023,836.52686
"2783",78.70725,836.5405
"2784",78.4387,836.5532
"2785",78.19455,836.5669
"2786",77.97482,836.5796
"2787",77.77463,836.59326
"2788",77.58907,836.60596
"2789",77.41573,836.6196
"2790",77.25216,836.6323
"2791",77.11055,836.646
"2792",77.02022,836.6587
"2793",77.03487,836.67236
"2794",77.23506,836.68506
"2795",77.70138,836.6987
"2796",78.46067,836.7114
"2797",79.48119,836.7251
"2798",80.66041,836.7378
"2799",81.83963,836.75146
"2800",82.86015,836.76416
"2801",83.59991,836.77783
"2802",84.01251,836.7905
"2803",84.11261,836.8042
"2804",83.95392,836.8169
"2805",83.617,836.83057
"2806",83.175095,836.84326
"2807",82.684364,836.85693
"2808",82.176544,836.8696
"2809",81.66384,836.8833
"2810",81.15846,836.896
"2811",80.67994,836.90967
"2812",80.255135,836.92236
"2813",79.91821,836.93604
"2814",79.69604,836.9487
"2815",79.60082,836.9624
"2816",79.61791,836.9751
"2817",79.708244,836.9888
"2818",79.82788,837.00146
"2819",79.92798,837.01514
"2820",79.96948,837.02783
"2821",79.92554,837.0415
"2822",79.798584,837.0542
"2823",79.59838,837.0679
"2824",79.344475,837.08057
"2825",79.05882,837.09424
"2826",78.765854,837.10693
"2827",78.47776,837.1206
"2828",78.20676,837.1333
"2829",77.95529,837.147
"2830",77.72579,837.15967
"2831",77.51339,837.17334
"2832",77.32052,837.18604
"2833",77.14473,837.1997
"2834",76.99092,837.2124
"2835",76.876175,837.2261
"2836",76.86153,837.2388
"2837",77.03487,837.25244
"2838",77.486534,837.26514
"2839",78.260475,837.2788
"2840",79.32494,837.2915
"2841",80.56031,837.3052
"2842",81.80301,837.3179
"2843",82.879684,837.33154
"2844",83.66827,837.34424
"2845",84.12482,837.3579
"2846",84.263985,837.3706
"2847",84.14679,837.3843
"2848",83.8465,837.397
"2849",83.43633,837.41064
"2850",82.97734,837.42334
"2851",82.5037,837.437
"2852",82.02518,837.4497
"2853",81.54665,837.4634
"2854",81.08034,837.4761
"2855",80.64576,837.48975
"2856",80.272224,837.50244
"2857",80.00122,837.5161
"2858",79.84253,837.5288
"2859",79.7937,837.5425
"2860",79.82544,837.5552
"2861",79.89624,837.56885
"2862",79.95972,837.58154
"2863",79.97681,837.5952
"2864",79.91821,837.6079
"2865",79.783936,837.6216
"2866",79.588615,837.6343
"2867",79.344475,837.64795
"2868",79.07103,837.66064
"2869",78.785385,837.6743
"2870",78.49973,837.687
"2871",78.221405,837.7007
"2872",77.95773,837.7134
"2873",77.71114,837.72705
"2874",77.486534,837.73975
"2875",77.2839,837.7534
"2876",77.100784,837.7661
"2877",76.95186,837.7798
"2878",76.876175,837.7925
"2879",76.944534,837.80615
"2880",77.24971,837.81885
"2881",77.86252,837.8325
"2882",78.78294,837.8452
"2883",79.94263,837.8589
"2884",81.19508,837.8716
"2885",82.3621,837.88525
"2886",83.29473,837.89795
"2887",83.90997,837.9116
"2888",84.2005,837.9243
"2889",84.207825,837.938
"2890",84.00275,837.9507
"2891",83.665825,837.96436
"2892",83.26055,837.97705
"2893",82.828415,837.9907
"2894",82.391396,838.0034
"2895",81.94705,838.0171
"2896",81.497826,838.0298
"2897",81.05104,838.04346
"2898",80.635994,838.05615
"2899",80.28443,838.0698
"2900",80.03296,838.0825
"2901",79.89136,838.0962
"2902",79.88403,838.12256
"2903",79.93286,838.13525
"2904",79.9646,838.1489
"2905",79.940186,838.1616
"2906",79.84497,838.1753
"2907",79.676506,838.188
"2908",79.4519,838.20166
"2909",79.185776,838.21436
"2910",78.89769,838.228
"2911",78.607155,838.2407
"2912",78.331276,838.2544
"2913",78.07004,838.2671
"2914",77.8259,838.28076
"2915",77.5964,838.29346
"2916",77.37423,838.3071
"2917",77.171585,838.3198
"2918",77.00313,838.3335
"2919",76.910355,838.3462
"2920",76.96651,838.35986
"2921",77.261925,838.37256
"2922",77.86496,838.3862
"2923",78.77806,838.3989
"2924",79.93286,838.4126
"2925",81.1902,838.4253
"2926",82.36942,838.43896
"2927",83.31426,838.45166
"2928",83.93683,838.46533
"2929",84.224915,838.478
"2930",84.224915,838.4917
"2931",84.01251,838.5044
"2932",83.67071,838.51807
"2933",83.265434,838.53076
"2934",82.83818,838.54443
"2935",82.4036,838.5571
"2936",81.95926,838.5708
"2937",81.51003,838.5835
"2938",81.06813,838.59717
"2939",80.66041,838.60986
"2940",80.32838,838.62354
"2941",80.09888,838.6362
"2942",79.97681,838.6499
"2943",79.94751,838.6626
"2944",79.97925,838.6763
"2945",80.02075,838.68896
"2946",80.03784,838.70264
"2947",79.99878,838.71533
"2948",79.89136,838.729
"2949",79.71801,838.7417
"2950",79.48852,838.7554
"2951",79.22484,838.76807
"2952",78.93675,838.78174
"2953",78.641335,838.79443
"2954",78.35325,838.8081
"2955",78.0798,838.8208
"2956",77.8259,838.8345
"2957",77.5964,838.84717
"2958",77.38644,838.86084
"2959",77.19356,838.87354
"2960",77.02754,838.8872
"2961",76.90791,838.8999
"2962",76.88594,838.9136
"2963",77.04463,838.9263
"2964",77.471886,838.93994
"2965",78.21408,838.95264
"2966",79.24925,838.9663
"2967",80.482185,838.979
"2968",81.74685,838.9927
"2969",82.87236,839.0054
"2970",83.71465,839.01904
"2971",84.224915,839.03174
"2972",84.40803,839.0454
"2973",84.32014,839.0581
"2974",84.04425,839.0718
"2975",83.66094,839.0845
"2976",83.23125,839.09814
"2977",82.78691,839.11084
"2978",82.3328,839.1245
"2979",81.87381,839.1372
"2980",81.41726,839.1509
"2981",80.98512,839.1636
"2982",80.61158,839.17725
"2983",80.323494,839.18994
"2984",80.14038,839.2036
"2985",80.05249,839.2163
"2986",80.0354,839.23
"2987",80.05493,839.2427
"2988",80.06958,839.25635
"2989",80.04761,839.26904
"2990",79.96704,839.2827
"2991",79.80835,839.2954
"2992",79.58373,839.3091
"2993",79.31518,839.3218
"2994",79.01732,839.33545
"2995",78.71702,839.34814
"2996",78.42649,839.3618
"2997",78.15549,839.3745
"2998",77.90402,839.3882
"2999",77.679405,839.4009
"3000",77.47921,839.41455
"3001",77.30099,839.42725
"3002",77.14717,839.4409
"3003",77.00801,839.4536
"3004",76.88106,839.4673
"3005",76.76875,839.48
"3006",76.67841,839.49365
"3007",76.64179,839.50635
"3008",76.749214,839.52
"3009",77.10811,839.5327
"3010",77.789276,839.5464
"3011",78.802475,839.5591
"3012",80.06958,839.57275
"3013",81.43923,839.58545
"3014",82.7161,839.5991
"3015",83.736626,839.6118
"3016",84.40803,839.6255
"3017",84.72785,839.6382
"3018",84.735176,839.65186
"3019",84.52277,839.66455
"3020",84.1712,839.6782
"3021",83.76349,839.6909
"3022",83.33868,839.7046
"3023",82.91875,839.7173
"3024",82.48661,839.73096
"3025",82.04471,839.74365
"3026",81.60525,839.7573
"3027",81.1902,839.77
"3028",80.82887,839.7837
"3029",80.55787,839.7964
"3030",80.38453,839.81006
"3031",80.291756,839.82275
"3032",80.25025,839.8364
"3033",80.22339,839.8491
"3034",80.177,839.8628
"3035",80.08423,839.8755
"3036",79.93042,839.88916
"3037",79.71557,839.90186
"3038",79.44457,839.9155
"3039",79.13939,839.9282
"3040",78.81468,839.9419
"3041",78.48997,839.9546
"3042",78.18234,839.96826
"3043",77.89426,839.98096
"3044",77.628136,839.9946
"3045",77.39376,840.0073
"3046",77.196,840.021
"3047",77.03487,840.0337
"3048",76.90791,840.04736
"3049",76.81026,840.06006
"3050",76.73701,840.0737
"3051",76.67597,840.0864
"3052",76.61494,840.1001
"3053",76.55634,840.1128
"3054",76.490425,840.12646
"3055",76.419624,840.13916
"3056",76.36103,840.15283
"3057",76.3708,840.1655
"3058",76.544136,840.1792
"3059",77.00069,840.1919
"3060",77.806366,840.20557
"3061",78.9514,840.21826
"3062",80.33814,840.23193
"3063",81.78592,840.2446
"3064",83.10185,840.2583
"3065",84.13214,840.271
"3066",84.80354,840.28467
"3067",85.120926,840.29736
"3068",85.14046,840.31104
"3069",84.94026,840.3237
"3070",84.613106,840.3374
"3071",84.2298,840.3501
"3072",83.83673,840.3638
"3073",83.4461,840.37646
"3074",83.053024,840.39014
"3075",82.6453,840.40283
"3076",82.22537,840.4165
"3077",81.815216,840.4292
"3078",81.44167,840.4429
"3079",81.13405,840.45557
"3080",80.907,840.46924
"3081",80.7483,840.48193
"3082",80.64088,840.4956
"3083",80.552986,840.5083
"3084",80.462654,840.522
"3085",80.343025,840.53467
"3086",80.17456,840.54834
"3087",79.94751,840.56104
"3088",79.66674,840.5747
"3089",79.3518,840.5874
"3090",79.009995,840.6011
"3091",78.67063,840.6138
"3092",78.348366,840.62744
"3093",78.05051,840.64014
"3094",77.77707,840.6538
"3095",77.53048,840.6665
"3096",77.31808,840.6802
"3097",77.137405,840.6929
"3098",76.99092,840.70654
"3099",76.87373,840.71924
"3100",76.788284,840.7329
"3101",76.7248,840.7456
"3102",76.680855,840.7593
"3103",76.65888,840.772
"3104",76.654,840.78564
"3105",76.654,840.79834
"3106",76.65156,840.812
"3107",76.63203,840.8247
"3108",76.58808,840.8384
"3109",76.52705,840.8511
"3110",76.456245,840.86475
"3111",76.404976,840.87744
"3112",76.43427,840.8911
"3113",76.65644,840.9038
"3114",77.19356,840.9175
"3115",78.11154,840.9302
"3116",79.39086,840.94385
"3117",80.90944,840.95654
"3118",82.46708,840.9702
"3119",83.85626,840.9829
"3120",84.91829,840.9966
"3121",85.592125,841.0093
"3122",85.892426,841.02295
"3123",85.875336,841.03564
"3124",85.63119,841.0493
"3125",85.25033,841.062
"3126",84.81087,841.0757
"3127",84.36164,841.0884
"3128",83.92462,841.10205
"3129",83.49737,841.11475
"3130",83.06767,841.1284
"3131",82.63798,841.1411
"3132",82.22293,841.1548
"3133",81.85672,841.1675
"3134",81.5613,841.18115
"3135",81.3489,841.19385
"3136",81.20729,841.2075
"3137",81.109634,841.2202
"3138",81.024185,841.2339
"3139",80.91676,841.2466
"3140",80.76051,841.26025
"3141",80.5481,841.27295
"3142",80.27711,841.2866
"3143",79.957275,841.2993
"3144",79.60815,841.313
"3145",79.24193,841.3257
"3146",78.87572,841.33936
"3147",78.52659,841.35205
"3148",78.19943,841.3657
"3149",77.90158,841.3784
"3150",77.6379,841.3921
"3151",77.40841,841.4048
"3152",77.205765,841.41846
"3153",77.02998,841.43115
"3154",76.876175,841.4448
"3155",76.74677,841.4575
"3156",76.64179,841.4712
"3157",76.57099,841.4839
"3158",76.52949,841.49756
"3159",76.50996,841.51025
"3160",76.50019,841.5239
"3161",76.49287,841.5366
"3162",76.470894,841.5503
"3163",76.43427,841.563
"3164",76.383,841.57666
"3165",76.317085,841.58936
"3166",76.241394,841.603
"3167",76.173035,841.6157
"3168",76.13153,841.6294
"3169",76.192566,841.6421
"3170",76.46601,841.65576
"3171",77.069046,841.66846
"3172",78.05295,841.6821
"3173",79.39086,841.6948
"3174",80.95094,841.7085
"3175",82.533,841.7212
"3176",83.92218,841.73486
"3177",84.972,841.74756
"3178",85.62142,841.7612
"3179",85.88022,841.7739
"3180",85.81674,841.7876
"3181",85.53109,841.8003
"3182",85.11604,841.81396
"3183",84.65217,841.82666
"3184",84.18585,841.84033
"3185",83.7293,841.853
"3186",83.28008,841.8667
"3187",82.83086,841.8794
"3188",82.39628,841.89307
"3189",81.99588,841.90576
"3190",81.6614,841.91943
"3191",81.41726,841.9321
"3192",81.26589,841.9458
"3193",81.18532,841.9585
"3194",81.143814,841.97217
"3195",81.10475,841.98486
"3196",81.03883,841.99854
"3197",80.919205,842.0112
"3198",80.73853,842.0249
"3199",80.48707,842.0376
"3200",80.17944,842.0513
"3201",79.83276,842.06396
"3202",79.466545,842.07764
"3203",79.10277,842.09033
"3204",78.751205,842.104
"3205",78.42405,842.1167
"3206",78.12375,842.1304
"3207",77.85275,842.14307
"3208",77.611046,842.15674
"3209",77.401085,842.16943
"3210",77.225296,842.1831
"3211",77.07637,842.1958
"3212",76.95674,842.2095
"3213",76.86641,842.22217
"3214",76.80293,842.23584
"3215",76.76631,842.24854
"3216",76.74677,842.2622
"3217",76.73701,842.2749
"3218",76.72236,842.2886
"3219",76.697945,842.3013
"3220",76.65644,842.31494
"3221",76.592964,842.32764
"3222",76.51972,842.3413
"3223",76.436714,842.354
"3224",76.36591,842.3677
"3225",76.37812,842.3804
"3226",76.57099,842.39404
"3227",77.06416,842.40674
"3228",77.93332,842.4204
"3229",79.166245,842.4331
"3230",80.66041,842.4468
"3231",82.230255,842.4595
"3232",83.665825,842.47314
"3233",84.788895,842.48584
"3234",85.50912,842.4995
"3235",85.821625,842.5122
"3236",85.7728,842.5259
"3237",85.452965,842.5386
"3238",84.972,842.55225
"3239",84.420235,842.56494
"3240",83.86603,842.5786
"3241",83.33868,842.5913
"3242",82.84306,842.605
"3243",82.371864,842.6177
"3244",81.92996,842.63135
"3245",81.53689,842.64404
"3246",81.214615,842.6577
"3247",80.987564,842.6704
"3248",80.85573,842.6841
"3249",80.80202,842.6968
"3250",80.799576,842.71045
"3251",80.80446,842.72314
"3252",80.782486,842.7368
"3253",80.70435,842.7495
"3254",80.552986,842.7632
"3255",80.325935,842.7759
"3256",80.03296,842.78955
"3257",79.69848,842.80225
"3258",79.34936,842.8159
"3259",79.00023,842.8286
"3260",78.65598,842.8423
"3261",78.3386,842.855
"3262",78.04318,842.86865
"3263",77.77707,842.88135
"3264",77.540245,842.895
"3265",77.34005,842.9077
"3266",77.16914,842.9214
"3267",77.02754,842.9341
"3268",76.910355,842.94775
"3269",76.82002,842.96045
"3270",76.754105,842.9741
"3271",76.715034,842.9868
"3272",76.69306,843.0005
"3273",76.68818,843.0132
"3274",76.6955,843.02686
"3275",76.6955,843.03955
"3276",76.680855,843.0532
"3277",76.64912,843.0659
"3278",76.592964,843.0796
"3279",76.51972,843.0923
"3280",76.4416,843.10596
"3281",76.37324,843.11865
"3282",76.37568,843.1323
"3283",76.55146,843.145
"3284",77.015335,843.1587
"3285",77.85275,843.1714
"3286",79.06615,843.18506
"3287",80.55787,843.19775
"3288",82.13748,843.2114
"3289",83.595024,843.2241
"3290",84.75227,843.2378
"3291",85.514,843.2505
"3292",85.858246,843.26416
"3293",85.8436,843.27686
"3294",85.55062,843.2905
"3295",85.07698,843.3032
"3296",84.51545,843.3169
"3297",83.93683,843.3296
"3298",83.3753,843.34326
"3299",82.83574,843.35596
"3300",82.32304,843.3696
"3301",81.85672,843.3823
"3302",81.449,843.396
"3303",81.129166,843.4087
"3304",80.921646,843.42236
"3305",80.82643,843.43506
"3306",80.82399,843.4487
"3307",80.87038,843.4614
"3308",80.92897,843.4751
"3309",80.955826,843.4878
"3310",80.919205,843.50146
"3311",80.797134,843.51416
"3312",80.59449,843.52783
"3313",80.31861,843.5405
"3314",79.99634,843.5542
"3315",79.64477,843.5669
"3316",79.28588,843.58057
"3317",78.93431,843.59326
"3318",78.59983,843.60693
"3319",78.28977,843.6196
"3320",78.011444,843.6333
"3321",77.77219,843.646
"3322",77.56222,843.65967
"3323",77.383995,843.67236
"3324",77.2375,843.68604
"3325",77.117874,843.6987
"3326",77.02754,843.7124
"3327",76.96651,843.7251
"3328",76.93477,843.7388
"3329",76.927444,843.75146
"3330",76.94209,843.76514
"3331",76.95918,843.77783
"3332",76.96651,843.7915
"3333",76.9543,843.8042
"3334",76.92012,843.8179
"3335",76.86397,843.83057
"3336",76.790726,843.84424
"3337",76.72236,843.85693
"3338",76.6955,843.8706
"3339",76.79317,843.8833
"3340",77.13252,843.897
"3341",77.81857,843.90967
"3342",78.88548,843.92334
"3343",80.272224,843.93604
"3344",81.832306,843.9497
"3345",83.34844,843.9624
"3346",84.62043,843.9761
"3347",85.51644,843.9888
"3348",85.997406,844.00244
"3349",86.09018,844.01514
"3350",85.87045,844.0288
"3351",85.43343,844.0415
"3352",84.8719,844.0552
"3353",84.266426,844.0679
"3354",83.65606,844.08154
"3355",83.06523,844.09424
"3356",82.5037,844.1079
"3357",81.98367,844.1206
"3358",81.52468,844.1343
"3359",81.15602,844.147
"3360",80.90944,844.16064
"3361",80.797134,844.17334
"3362",80.797134,844.187
"3363",80.87526,844.1997
"3364",80.987564,844.2134
"3365",81.08278,844.2261
"3366",81.11696,844.23975
"3367",81.06569,844.25244
"3368",80.92409,844.2661
"3369",80.68726,844.2788
"3370",80.37965,844.2925
"3371",80.025635,844.3052
"3372",79.656975,844.31885
"3373",79.28588,844.33154
"3374",78.93431,844.3452
"3375",78.607155,844.3579
"3376",78.31663,844.3716
"3377",78.06027,844.3843
"3378",77.84543,844.39795
"3379",77.6672,844.41064
"3380",77.523155,844.4243
"3381",77.40597,844.437
"3382",77.32052,844.4507
"3383",77.2546,844.4634
"3384",77.20332,844.47705
"3385",77.15694,844.48975
"3386",77.10811,844.5034
"3387",77.05684,844.5161
"3388",77.01045,844.5298
"3389",77.00069,844.5425
"3390",77.11055,844.55615
"3391",77.435265,844.56885
"3392",78.06027,844.5825
"3393",79.01976,844.5952
"3394",80.26002,844.6089
"3395",81.64187,844.6216
"3396",82.98711,844.63525
"3397",84.11261,844.64795
"3398",84.9012,844.6616
"3399",85.316246,844.6743
"3400",85.37728,844.688
"3401",85.14778,844.7007
"3402",84.72053,844.71436
"3403",84.17853,844.72705
"3404",83.58526,844.7407
"3405",82.97978,844.7534
"3406",82.37675,844.7671
"3407",81.7908,844.7798
"3408",81.24147,844.79346
"3409",80.76784,844.80615
"3410",80.413826,844.8198
"3411",80.22095,844.8325
"3412",80.18677,844.8462
"3413",80.28687,844.8589
"3414",80.46998,844.87256
"3415",80.672615,844.88525
"3416",80.833755,844.8989
"3417",80.91432,844.9116
"3418",80.88747,844.9253
"3419",80.75075,844.938
"3420",80.51881,844.95166
"3421",80.2063,844.96436
"3422",79.84741,844.978
"3423",79.466545,844.9907
"3424",79.09544,845.0044
"3425",78.75365,845.0171
"3426",78.450905,845.03076
"3427",78.18967,845.04346
"3428",77.9675,845.0571
"3429",77.77707,845.0698
"3430",77.611046,845.0835
"3431",77.467,845.0962
"3432",77.33761,845.10986
"3433",77.222855,845.12256
"3434",77.120316,845.1362
"3435",77.03975,845.1489
"3436",77.015335,845.1626
"3437",77.11543,845.1753
"3438",77.44015,845.18896
"3439",78.082245,845.20166
"3440",79.07591,845.21533
"3441",80.36988,845.228
"3442",81.82498,845.2417
"3443",83.250786,845.2544
"3444",84.456856,845.26807
"3445",85.31869,845.28076
"3446",85.79721,845.29443
"3447",85.91196,845.3071
"3448",85.72884,845.3208
"3449",85.33578,845.3335
"3450",84.81819,845.34717
"3451",84.23468,845.35986
"3452",83.63409,845.37354
"3453",83.03349,845.3862
"3454",82.44511,845.3999
"3455",81.883575,845.4126
"3456",81.3782,845.4263
"3457",80.96803,845.43896
"3458",80.69459,845.45264
"3459",80.570076,845.46533
"3460",80.58228,845.479
"3461",80.68238,845.4917
"3462",80.81911,845.5054
"3463",80.92897,845.51807
"3464",80.970474,845.53174
"3465",80.91188,845.54443
"3466",80.743416,845.5581
"3467",80.479744,845.5708
"3468",80.13794,845.5845
"3469",79.75952,845.59717
"3470",79.36889,845.61084
"3471",78.99046,845.62354
"3472",78.63889,845.6372
"3473",78.31907,845.6499
"3474",78.0383,845.6636
"3475",77.789276,845.6763
"3476",77.57198,845.68994
"3477",77.37911,845.70264
"3478",77.21065,845.7163
"3479",77.05684,845.729
"3480",76.927444,845.7427
"3481",76.83223,845.7554
"3482",76.822464,845.76904
"3483",76.9836,845.78174
"3484",77.4255,845.7954
"3485",78.22873,845.8081
"3486",79.395744,845.8218
"3487",80.84352,845.8345
"3488",82.40116,845.84814
"3489",83.85626,845.86084
"3490",85.02571,845.8745
"3491",85.804535,845.8872
"3492",86.17807,845.9009
"3493",86.19028,845.9136
"3494",85.924164,845.92725
"3495",85.47982,845.93994
"3496",84.947586,845.9536
"3497",84.38361,845.9663
"3498",83.81476,845.98
"3499",83.250786,845.9927
"3500",82.686806,846.00635
"3501",82.13748,846.01904
"3502",81.62966,846.0327
"3503",81.20485,846.0454
"3504",80.89235,846.0591
"3505",80.709236,846.0718
"3506",80.65064,846.08545
"3507",80.672615,846.09814
"3508",80.723885,846.1118
"3509",80.75563,846.1245
"3510",80.719,846.1382
"3511",80.58961,846.1509
"3512",80.35767,846.16455
"3513",80.0354,846.17725
"3514",79.65453,846.1909
"3515",79.23949,846.2036
"3516",78.819565,846.2173
"3517",78.41917,846.23
"3518",78.048065,846.24365
"3519",77.71603,846.25635
"3520",77.418175,846.27
"3521",77.154495,846.2827
"3522",76.92012,846.2964
"3523",76.71259,846.3091
"3524",76.53193,846.32275
"3525",76.383,846.33545
"3526",76.27558,846.3491
"3527",76.25849,846.3618
"3528",76.419624,846.3755
"3529",76.86641,846.3882
"3530",77.68429,846.40186
"3531",78.873276,846.41455
"3532",80.34547,846.4282
"3533",81.92264,846.4409
"3534",83.39971,846.4546
"3535",84.59113,846.4673
"3536",85.39193,846.48096
"3537",85.78256,846.49365
"3538",85.80942,846.5073
"3539",85.555504,846.52
"3540",85.12337,846.5337
"3541",84.60822,846.5464
"3542",84.07599,846.56006
"3543",83.55108,846.57275
"3544",83.02617,846.5864
"3545",82.5037,846.5991
"3546",81.97879,846.6128
"3547",81.478294,846.6255
"3548",81.03639,846.63916
"3549",80.69215,846.65186
"3550",80.46021,846.6655
"3551",80.32838,846.6782
"3552",80.26002,846.6919
"3553",80.216064,846.7046
"3554",80.15747,846.71826
"3555",80.045166,846.73096
"3556",79.85718,846.7446
"3557",79.59594,846.7573
"3558",79.26879,846.771
"3559",78.89281,846.7837
"3560",78.48997,846.79736
"3561",78.08957,846.81006
"3562",77.713585,846.8237
"3563",77.366905,846.8364
"3564",77.05684,846.8501
"3565",76.78096,846.8628
"3566",76.53925,846.87646
"3567",76.317085,846.88916
"3568",76.11688,846.90283
"3569",75.9411,846.9155
"3570",75.79706,846.9292
"3571",75.699394,846.9419
"3572",75.701836,846.95557
"3573",75.88739,846.96826
"3574",76.3708,846.98193
"3575",77.23506,846.9946
"3576",78.47532,847.0083
"3577",80.008545,847.021
"3578",81.64919,847.03467
"3579",83.17998,847.04736
"3580",84.40803,847.06104
"3581",85.223465,847.0737
"3582",85.61166,847.0874
"3583",85.628746,847.1001
"3584",85.36263,847.1138
"3585",84.9305,847.12646
"3586",84.422676,847.14014
"3587",83.895325,847.15283
"3588",83.36797,847.1665
"3589",82.84062,847.1792
"3590",82.30595,847.1929
"3591",81.76883,847.20557
"3592",81.26101,847.21924
"3593",80.816666,847.23193
"3594",80.47242,847.2456
"3595",80.235596,847.2583
"3596",80.093994,847.272
"3597",80.01343,847.28467
"3598",79.95239,847.29834
"3599",79.869385,847.31104
"3600",79.73998,847.3247
"3601",79.53979,847.3374
"3602",79.27123,847.3511
"3603",78.93675,847.3638
"3604",78.555885,847.37744
"3605",78.14328,847.39014
"3606",77.73556,847.4038
"3607",77.349815,847.4165
"3608",77.00557,847.4302
"3609",76.70527,847.4429
"3610",76.456245,847.45654
"3611",76.23895,847.46924
"3612",76.05829,847.4829
"3613",75.90692,847.4956
"3614",75.77753,847.5093
"3615",75.665215,847.522
"3616",75.56512,847.53564
"3617",75.474785,847.54834
"3618",75.406425,847.562
"3619",75.40887,847.5747
"3620",75.577324,847.5884
"3621",76.02899,847.6011
"3622",76.86153,847.61475
"3623",78.09445,847.62744
"3624",79.65209,847.6411
"3625",81.36111,847.6538
"3626",82.99931,847.6675
"3627",84.349434,847.6802
"3628",85.28695,847.69385
"3629",85.7728,847.70654
"3630",85.85336,847.7202
"3631",85.62142,847.7329
"3632",85.19661,847.7466
"3633",84.68391,847.7593
"3634",84.15411,847.77295
"3635",83.63653,847.78564
"3636",83.12138,847.7993
"3637",82.598915,847.812
"3638",82.07156,847.8257
"3639",81.55642,847.8384
"3640",81.0901,847.85205
"3641",80.71168,847.86475
"3642",80.43824,847.8784
"3643",80.257576,847.8911
"3644",80.13306,847.9048
"3645",80.03052,847.9175
"3646",79.90845,847.93115
"3647",79.742424,847.94385
"3648",79.51537,847.9575
"3649",79.2224,847.9702
"3650",78.873276,847.9839
"3651",78.48264,847.9966
"3652",78.07248,848.01025
"3653",77.65743,848.02295
"3654",77.25704,848.0366
"3655",76.8835,848.0493
"3656",76.541695,848.063
"3657",76.241394,848.0757
"3658",75.98749,848.08936
"3659",75.77753,848.10205
"3660",75.613945,848.1157
"3661",75.494316,848.1284
"3662",75.41375,848.1421
"3663",75.36248,848.1548
"3664",75.34051,848.16846
"3665",75.338066,848.18115
"3666",75.34539,848.1948
"3667",75.36004,848.2075
"3668",75.36736,848.2212
"3669",75.352715,848.2339
"3670",75.30877,848.24756
"3671",75.2404,848.26025
"3672",75.157394,848.2739
"3673",75.07683,848.2866
"3674",75.04265,848.3003
"3675",75.15495,848.313
"3676",75.560234,848.32666
"3677",76.383,848.33936
"3678",77.67452,848.353
"3679",79.37621,848.3657
"3680",81.31716,848.3794
"3681",83.23613,848.3921
"3682",84.876785,848.40576
"3683",86.06821,848.41846
"3684",86.75426,848.4321
"3685",86.97398,848.4448
"3686",86.82506,848.4585
"3687",86.43687,848.4712
"3688",85.93149,848.48486
"3689",85.40658,848.49756
"3690",84.90364,848.5112
"3691",84.42512,848.5239
"3692",83.95392,848.5376
"3693",83.46563,848.5503
"3694",82.96025,848.56396
"3695",82.45487,848.57666
"3696",81.99588,848.59033
"3697",81.61013,848.603
"3698",81.30984,848.6167
"3699",81.08766,848.6294
"3700",80.90944,848.64307
"3701",80.740974,848.65576
"3702",80.552986,848.66943
"3703",80.31861,848.6821
"3704",80.02319,848.6958
"3705",79.674065,848.7085
"3706",79.273674,848.72217
"3707",78.84398,848.73486
"3708",78.40452,848.74854
"3709",77.979706,848.7612
"3710",77.58419,848.7749
"3711",77.225296,848.7876
"3712",76.90791,848.8013
"3713",76.63203,848.81396
"3714",76.40009,848.82764
"3715",76.20477,848.84033
"3716",76.04608,848.854
"3717",75.92157,848.8667
"3718",75.82391,848.8804
"3719",75.75067,848.89307
"3720",75.701836,848.90674
"3721",75.67498,848.91943
"3722",75.66277,848.9331
"3723",75.66033,848.9458
"3724",75.66277,848.9595
"3725",75.65789,848.97217
"3726",75.64568,848.98584
"3727",75.60906,848.99854
"3728",75.55291,849.0122
"3729",75.46746,849.0249
"3730",75.36736,849.0386
"3731",75.264824,849.0513
"3732",75.18913,849.06494
"3733",75.208664,849.07764
"3734",75.43084,849.0913
"3735",75.98993,849.104
"3736",76.97139,849.1177
"3737",78.380104,849.1304
"3738",80.11597,849.14404
"3739",81.969025,849.15674
"3740",83.69024,849.1704
"3741",85.067215,849.1831
"3742",85.980316,849.1968
"3743",86.40757,849.2095
"3744",86.414894,849.22314
"3745",86.11948,849.23584
"3746",85.64828,849.2495
"3747",85.120926,849.2622
"3748",84.613106,849.2759
"3749",84.15411,849.2886
"3750",83.72442,849.30225
"3751",83.302055,849.31494
"3752",82.86992,849.3286
"3753",82.4329,849.3413
"3754",82.020294,849.355
"3755",81.668724,849.3677
"3756",81.40017,849.38135
"3757",81.21706,849.39404
"3758",81.094986,849.4077
"3759",80.99733,849.4204
"3760",80.885025,849.4341
"3761",80.72877,849.4468
"3762",80.51148,849.46045
"3763",80.22827,849.47314
"3764",79.89136,849.4868
"3765",79.51537,849.4995
"3766",79.11986,849.5132
"3767",78.7219,849.5259
"3768",78.34348,849.53955
"3769",77.99924,849.55225
"3770",77.69161,849.5659
"3771",77.4255,849.5786
"3772",77.19844,849.5923
"3773",77.00557,849.605
"3774",76.841995,849.61865
"3775",76.70527,849.63135
"3776",76.60273,849.645
"3777",76.52216,849.6577
"3778",76.46601,849.6714
"3779",76.422066,849.6841
"3780",76.39277,849.69775
"3781",76.3708,849.71045
"3782",76.35371,849.7241
"3783",76.33906,849.7368
"3784",76.32929,849.7505
"3785",76.31953,849.7632
"3786",76.30244,849.77686
"3787",76.27314,849.78955
"3788",76.22919,849.8032
"3789",76.17059,849.8159
"3790",76.102234,849.8296
"3791",76.03143,849.8423
"3792",75.96796,849.85596
"3793",75.93622,849.86865
"3794",76.00214,849.8823
"3795",76.28535,849.895
"3796",76.912796,849.9087
"3797",77.96506,849.9214
"3798",79.4226,849.93506
"3799",81.163345,849.94775
"3800",82.97246,849.9614
"3801",84.59113,849.9741
"3802",85.82895,849.9878
"3803",86.59312,850.0005
"3804",86.88121,850.01416
"3805",86.77135,850.02686
"3806",86.38804,850.0405
"3807",85.855804,850.0532
"3808",85.28695,850.0669
"3809",84.749825,850.0796
"3810",84.26154,850.09326
"3811",83.81232,850.10596
"3812",83.3753,850.1196
"3813",82.948044,850.1323
"3814",82.53788,850.146
"3815",82.18143,850.1587
"3816",81.90555,850.17236
"3817",81.722435,850.18506
"3818",81.617455,850.1987
"3819",81.55886,850.2114
"3820",81.50027,850.2251
"3821",81.40749,850.2378
"3822",81.26345,850.25146
"3823",81.05348,850.26416
"3824",80.7776,850.27783
"3825",80.445564,850.2905
"3826",80.07202,850.3042
"3827",79.67895,850.3169
"3828",79.28832,850.33057
"3829",78.9099,850.34326
"3830",78.56077,850.35693
"3831",78.25071,850.3696
"3832",77.977264,850.3833
"3833",77.74532,850.396
"3834",77.557335,850.40967
"3835",77.40353,850.42236
"3836",77.27657,850.43604
"3837",77.17403,850.4487
"3838",77.09102,850.4624
"3839",77.032425,850.4751
"3840",76.995804,850.4888
"3841",76.978714,850.50146
"3842",76.978714,850.51514
"3843",76.9836,850.52783
"3844",76.98848,850.5415
"3845",76.978714,850.5542
"3846",76.94942,850.5679
"3847",76.90303,850.58057
"3848",76.83711,850.59424
"3849",76.749214,850.60693
"3850",76.65156,850.6206
"3851",76.55146,850.6333
"3852",76.456245,850.647
"3853",76.385445,850.65967
"3854",76.39521,850.67334
"3855",76.58564,850.68604
"3856",77.07881,850.6997
"3857",77.97238,850.7124
"3858",79.273674,850.7261
"3859",80.88991,850.7388
"3860",82.62821,850.75244
"3861",84.244446,850.76514
"3862",85.538414,850.7788
"3863",86.39048,850.7915
"3864",86.77867,850.8052
"3865",86.7567,850.8179
"3866",86.431984,850.83154
"3867",85.91196,850.84424
"3868",85.30892,850.8579
"3869",84.701,850.8706
"3870",84.13214,850.8843
"3871",83.60723,850.897
"3872",83.123825,850.91064
"3873",82.67704,850.92334
"3874",82.27421,850.937
"3875",81.93973,850.9497
"3876",81.69558,850.9634
"3877",81.55398,850.9761
"3878",81.495384,850.98975
"3879",81.48806,851.00244
"3880",81.48806,851.0161
"3881",81.45388,851.0288
"3882",81.35378,851.0425
"3883",81.17799,851.0552
"3884",80.921646,851.06885
"3885",80.601814,851.08154
"3886",80.23804,851.0952
"3887",79.852295,851.1079
"3888",79.45922,851.1216
"3889",79.07591,851.1343
"3890",78.71458,851.14795
"3891",78.382545,851.16064
"3892",78.09201,851.1743
"3893",77.84787,851.187
"3894",77.65011,851.2007
"3895",77.49142,851.2134
"3896",77.366905,851.22705
"3897",77.27169,851.23975
"3898",77.196,851.2534
"3899",77.137405,851.2661
"3900",77.08858,851.2798
"3901",77.0544,851.2925
"3902",77.032425,851.30615
"3903",77.02022,851.31885
"3904",77.015335,851.3325
"3905",77.01289,851.3452
"3906",77.00801,851.3589
"3907",76.98848,851.3716
"3908",76.95674,851.38525
"3909",76.90547,851.39795
"3910",76.841995,851.4116
"3911",76.756546,851.4243
"3912",76.65888,851.438
"3913",76.55634,851.4507
"3914",76.46357,851.46436
"3915",76.42451,851.47705
"3916",76.53681,851.4907
"3917",76.93233,851.5034
"3918",77.72335,851.5171
"3919",78.95384,851.5298
"3920",80.5481,851.54346
"3921",82.340126,851.55615
"3922",84.088196,851.5698
"3923",85.557945,851.5825
"3924",86.59312,851.5962
"3925",87.14244,851.6089
"3926",87.24498,851.62256
"3927",86.97887,851.63525
"3928",86.468605,851.6489
"3929",85.83383,851.6616
"3930",85.172195,851.6753
"3931",84.54963,851.688
"3932",83.980774,851.70166
"3933",83.46075,851.71436
"3934",82.97978,851.728
"3935",82.545204,851.7407
"3936",82.17166,851.7544
"3937",81.881134,851.7671
"3938",81.69558,851.78076
"3939",81.61257,851.79346
"3940",81.59792,851.8071
"3941",81.61013,851.8198
"3942",81.61501,851.8335
"3943",81.566185,851.8462
"3944",81.44167,851.85986
"3945",81.231705,851.87256
"3946",80.94118,851.8862
"3947",80.584724,851.8989
"3948",80.18677,851.9126
"3949",79.77417,851.9253
"3950",79.36889,851.93896
"3951",78.98558,851.95166
"3952",78.63157,851.96533
"3953",78.311745,851.978
"3954",78.03342,851.9917
"3955",77.79416,852.0044
"3956",77.5964,852.01807
"3957",77.44259,852.03076
"3958",77.32296,852.04443
"3959",77.2375,852.0571
"3960",77.18135,852.0708
"3961",77.14961,852.0835
"3962",77.134964,852.09717
"3963",77.134964,852.10986
"3964",77.137405,852.12354
"3965",77.13985,852.1362
"3966",77.13252,852.1499
"3967",77.11299,852.1626
"3968",77.07149,852.1763
"3969",77.00557,852.18896
"3970",76.912796,852.20264
"3971",76.80049,852.21533
"3972",76.68574,852.229
"3973",76.592964,852.2417
"3974",76.575874,852.2554
"3975",76.74189,852.26807
"3976",77.21797,852.28174
"3977",78.09201,852.29443
"3978",79.37133,852.3081
"3979",80.95827,852.3208
"3980",82.65995,852.3345
"3981",84.23468,852.34717
"3982",85.47738,852.36084
"3983",86.275734,852.37354
"3984",86.607765,852.3872
"3985",86.5272,852.3999
"3986",86.136566,852.4136
"3987",85.54574,852.4263
"3988",84.86458,852.43994
"3989",84.17853,852.45264
"3990",83.526665,852.4663
"3991",82.91875,852.479
"3992",82.36454,852.4927
"3993",81.864044,852.5054
"3994",81.43923,852.51904
"3995",81.12184,852.53174
"3996",80.936295,852.5454
"3997",80.885025,852.5581
"3998",80.94606,852.5718
"3999",81.07057,852.5845
"4000",81.20241,852.59814
"4001",81.287865,852.61084
"4002",81.287865,852.6245
"4003",81.18532,852.6372
"4004",80.970474,852.6509
"4005",80.655525,852.6636
"4006",80.272224,852.67725
"4007",79.84253,852.68994
"4008",79.40063,852.7036
"4009",78.97337,852.7163
"4010",78.58274,852.73
"4011",78.24094,852.7427
"4012",77.95773,852.75635
"4013",77.730675,852.76904
"4014",77.55978,852.7827
"4015",77.435265,852.7954
"4016",77.347374,852.8091
"4017",77.29122,852.8218
"4018",77.2546,852.83545
"4019",77.22041,852.84814
"4020",77.17403,852.8618
"4021",77.120316,852.8745
"4022",77.05684,852.8882
"4023",76.98848,852.9009
"4024",76.927444,852.91455
"4025",76.90791,852.92725
"4026",77.00069,852.9409
"4027",77.313194,852.9536
"4028",77.943085,852.9673
"4029",78.93431,852.98
"4030",80.24048,852.99365
"4031",81.72976,853.00635
"4032",83.19951,853.02
"4033",84.44465,853.0327
"4034",85.32357,853.0464
"4035",85.78256,853.0591
"4036",85.8436,853.07275
"4037",85.58236,853.08545
"4038",85.103836,853.0991
"4039",84.50324,853.1118
"4040",83.86603,853.1255
"4041",83.228806,853.1382
"4042",82.616005,853.15186
"4043",82.02762,853.16455
"4044",81.48562,853.1782
"4045",81.01442,853.1909
"4046",80.65064,853.2046
"4047",80.42115,853.2173
"4048",80.33814,853.23096
"4049",80.38209,853.24365
"4050",80.51392,853.2573
"4051",80.672615,853.27
"4052",80.799576,853.2837
"4053",80.850845,853.2964
"4054",80.78981,853.31006
"4055",80.61158,853.32275
"4056",80.33326,853.3364
"4057",79.97681,853.3491
"4058",79.57397,853.3628
"4059",79.16136,853.3755
"4060",78.75853,853.38916
"4061",78.38743,853.40186
"4062",78.065155,853.4155
"4063",77.7966,853.4282
"4064",77.576866,853.4419
"4065",77.3962,853.4546
"4066",77.239944,853.46826
"4067",77.10811,853.48096
"4068",76.99092,853.4946
"4069",76.88594,853.5073
"4070",76.79561,853.521
"4071",76.72724,853.5337
"4072",76.70283,853.54736
"4073",76.78584,853.56006
"4074",77.07637,853.5737
"4075",77.67452,853.5864
"4076",78.61692,853.6001
"4077",79.86694,853.6128
"4078",81.290306,853.62646
"4079",82.69657,853.63916
"4080",83.895325,853.65283
"4081",84.74738,853.6655
"4082",85.19905,853.6792
"4083",85.26986,853.6919
"4084",85.030594,853.70557
"4085",84.58625,853.71826
"4086",84.03693,853.73193
"4087",83.46807,853.7446
"4088",82.92607,853.7583
"4089",82.41581,853.771
"4090",81.92508,853.78467
"4091",81.446556,853.79736
"4092",80.99733,853.81104
"4093",80.61402,853.8237
"4094",80.325935,853.8374
"4095",80.15747,853.8501
"4096",80.10376,853.8638
"4097",80.12573,853.87646
"4098",80.181885,853.89014
"4099",80.22095,853.90283
"4100",80.20874,853.9165
"4101",80.1062,853.9292
"4102",79.91089,853.9429
"4103",79.62524,853.95557
"4104",79.26635,853.96924
"4105",78.873276,853.98193
"4106",78.47776,853.9956
"4107",78.1091,854.0083
"4108",77.77951,854.022
"4109",77.4963,854.03467
"4110",77.25704,854.04834
"4111",77.051956,854.06104
"4112",76.86641,854.0747
"4113",76.700386,854.0874
"4114",76.5539,854.1011
"4115",76.42695,854.1138
"4116",76.334175,854.12744
"4117",76.3122,854.14014
"4118",76.43427,854.1538
"4119",76.78096,854.1665
"4120",77.42794,854.1802
"4121",78.38987,854.1929
"4122",79.605705,854.20654
"4123",80.92653,854.21924
"4124",82.17166,854.2329
"4125",83.16777,854.2456
"4126",83.81232,854.2593
"4127",84.08087,854.272
"4128",84.0296,854.28564
"4129",83.74395,854.29834
"4130",83.33135,854.312
"4131",82.879684,854.3247
"4132",82.442665,854.3384
"4133",82.03006,854.3511
"4134",81.636986,854.36475
"4135",81.24635,854.37744
"4136",80.86061,854.3911
"4137",80.479744,854.4038
"4138",80.14038,854.4175
"4139",79.869385,854.4302
"4140",79.68627,854.44385
"4141",79.58373,854.45654
"4142",79.537346,854.4702
"4143",79.50805,854.4829
"4144",79.47143,854.4966
"4145",79.38842,854.5093
"4146",79.24437,854.52295
"4147",79.03685,854.53564
"4148",78.77074,854.5493
"4149",78.470436,854.562
"4150",78.15549,854.5757
"4151",77.84543,854.5884
"4152",77.55978,854.60205
"4153",77.30587,854.61475
"4154",77.083694,854.6284
"4155",76.88838,854.6411
"4156",76.715034,854.6548
"4157",76.56367,854.6675
"4158",76.43183,854.68115
"4159",76.32197,854.69385
"4160",76.243835,854.7075
"4161",76.209656,854.7202
"4162",76.2707,854.7339
"4163",76.507515,854.7466
"4164",76.99092,854.76025
"4165",77.7551,854.77295
"4166",78.77318,854.7866
"4167",79.9353,854.7993
"4168",81.075455,854.813
"4169",82.039825,854.8257
"4170",82.70634,854.83936
"4171",83.0457,854.85205
"4172",83.08476,854.8657
"4173",82.90166,854.8784
"4174",82.59403,854.8921
"4175",82.24246,854.9048
"4176",81.91043,854.91846
"4177",81.619896,854.93115
"4178",81.35378,854.9448
"4179",81.08278,854.9575
"4180",80.78981,854.9712
"4181",80.47486,854.9839
"4182",80.15747,854.99756
"4183",79.87427,855.01025
"4184",79.656975,855.0239
"4185",79.520256,855.0366
"4186",79.44213,855.0503
"4187",79.398186,855.063
"4188",79.35668,855.07666
"4189",79.28832,855.08936
"4190",79.17357,855.103
"4191",79.009995,855.1157
"4192",78.79759,855.1294
"4193",78.553444,855.1421
"4194",78.28489,855.15576
"4195",78.013885,855.16846
"4196",77.75754,855.1821
"4197",77.52804,855.1948
"4198",77.34005,855.2085
"4199",77.19356,855.2212
"4200",77.086136,855.23486
"4201",77.00557,855.24756
"4202",76.94209,855.2612
"4203",76.88594,855.2739
"4204",76.83467,855.2876
"4205",76.77852,855.3003
"4206",76.71992,855.31396
"4207",76.663765,855.32666
"4208",76.61738,855.34033
"4209",76.592964,855.353
"4210",76.64912,855.3667
"4211",76.86397,855.3794
"4212",77.31808,855.39307
"4213",78.05051,855.40576
"4214",79.03685,855.41943
"4215",80.16968,855.4321
"4216",81.290306,855.4458
"4217",82.23758,855.4585
"4218",82.896774,855.47217
"4219",83.23857,855.48486
"4220",83.299614,855.49854
"4221",83.158005,855.5112
"4222",82.91142,855.5249
"4223",82.633095,855.5376
"4224",82.38163,855.5513
"4225",82.176544,855.56396
"4226",82.003204,855.57764
"4227",81.815216,855.59033
"4228",81.5906,855.604
"4229",81.31716,855.6167
"4230",81.02174,855.6304
"4231",80.73121,855.64307
"4232",80.49195,855.65674
"4233",80.31861,855.66943
"4234",80.20874,855.6831
"4235",80.13306,855.6958
"4236",80.0647,855.7095
"4237",79.98169,855.72217
"4238",79.869385,855.73584
"4239",79.710686,855.74854
"4240",79.517815,855.7622
"4241",79.29565,855.7749
"4242",79.05394,855.7886
"4243",78.8098,855.8013
"4244",78.57542,855.81494
"4245",78.35569,855.82764
"4246",78.15793,855.8413
"4247",77.98947,855.854
"4248",77.85031,855.8677
"4249",77.738,855.8804
"4250",77.64767,855.89404
"4251",77.576866,855.90674
"4252",77.51827,855.9204
"4253",77.471886,855.9331
"4254",77.43282,855.9468
"4255",77.401085,855.9595
"4256",77.37423,855.97314
"4257",77.3547,855.98584
"4258",77.33761,855.9995
"4259",77.32296,856.0122
"4260",77.30831,856.0259
"4261",77.28878,856.0386
"4262",77.25948,856.05225
"4263",77.21553,856.06494
"4264",77.15694,856.0786
"4265",77.086136,856.0913
"4266",77.01778,856.105
"4267",76.97139,856.1177
"4268",76.978714,856.13135
"4269",77.12276,856.14404
"4270",77.49386,856.1577
"4271",78.16281,856.1704
"4272",79.132065,856.1841
"4273",80.323494,856.1968
"4274",81.57351,856.21045
"4275",82.703896,856.22314
"4276",83.55596,856.2368
"4277",84.06134,856.2495
"4278",84.244446,856.2632
"4279",84.18341,856.2759
"4280",83.97101,856.28955
"4281",83.70489,856.30225
"4282",83.46075,856.3159
"4283",83.27764,856.3286
"4284",83.15068,856.3423
"4285",83.04326,856.355
"4286",82.916306,856.36865
"4287",82.73075,856.38135
"4288",82.47929,856.395
"4289",82.18875,856.4077
"4290",81.90555,856.4214
"4291",81.66628,856.4341
"4292",81.4905,856.44775
"4293",81.36599,856.46045
"4294",81.26833,856.4741
"4295",81.17311,856.4868
"4296",81.058365,856.5005
"4297",80.91432,856.5132
"4298",80.73609,856.52686
"4299",80.52125,856.53955
"4300",80.28687,856.5532
"4301",80.04028,856.5659
"4302",79.7937,856.5796
"4303",79.5642,856.5923
"4304",79.35424,856.60596
"4305",79.168686,856.61865
"4306",79.00755,856.6323
"4307",78.86839,856.645
"4308",78.74876,856.6587
"4309",78.64622,856.6714
"4310",78.555885,856.68506
"4311",78.4802,856.69775
"4312",78.41917,856.7114
"4313",78.365456,856.7241
"4314",78.31907,856.7378
"4315",78.277565,856.7505
"4316",78.23117,856.76416
"4317",78.184784,856.77686
"4318",78.14328,856.7905
"4319",78.10422,856.8032
"4320",78.065155,856.8169
"4321",78.02365,856.8296
"4322",77.98459,856.84326
"4323",77.9382,856.85596
"4324",77.88693,856.8696
"4325",77.823456,856.8823
"4326",77.75754,856.896
"4327",77.69161,856.9087
"4328",77.6379,856.92236
"4329",77.61349,856.93506
"4330",77.67696,856.9487
"4331",77.90402,856.9614
"4332",78.382545,856.9751
"4333",79.149155,856.9878
"4334",80.17212,857.00146
"4335",81.341576,857.01416
"4336",82.48417,857.02783
"4337",83.43633,857.0405
"4338",84.07843,857.0542
"4339",84.38117,857.0669
"4340",84.39582,857.08057
"4341",84.207825,857.09326
"4342",83.914856,857.10693
"4343",83.60479,857.1196
"4344",83.34356,857.1333
"4345",83.14824,857.146
"4346",83.001755,857.15967
"4347",82.865036,857.17236
"4348",82.70634,857.18604
"4349",82.49882,857.1987
"4350",82.252235,857.2124
"4351",81.99832,857.2251
"4352",81.77371,857.2388
"4353",81.59792,857.25146
"4354",81.478294,857.26514
"4355",81.392845,857.27783
"4356",81.31716,857.2915
"4357",81.22926,857.3042
"4358",81.112076,857.3179
"4359",80.955826,857.33057
"4360",80.765396,857.34424
"4361",80.5481,857.35693
"4362",80.308846,857.3706
"4363",80.0647,857.3833
"4364",79.82544,857.397
"4365",79.60082,857.40967
"4366",79.3933,857.42334
"4367",79.21019,857.43604
"4368",79.05394,857.4497
"4369",78.92699,857.4624
"4370",78.82201,857.4761
"4371",78.73411,857.4888
"4372",78.660866,857.50244
"4373",78.59739,857.51514
"4374",78.538795,857.5288
"4375",78.485085,857.5415
"4376",78.4387,857.5552
"4377",78.399635,857.5679
"4378",78.365456,857.58154
"4379",78.3386,857.59424
"4380",78.3093,857.6079
"4381",78.277565,857.6206
"4382",78.23361,857.6343
"4383",78.17746,857.647
"4384",78.101776,857.66064
"4385",78.01633,857.67334
"4386",77.92844,857.687
"4387",77.84299,857.6997
"4388",77.77219,857.7134
"4389",77.72091,857.7261
"4390",77.70626,857.73975
"4391",77.78195,857.75244
"4392",78.028534,857.7661
"4393",78.52903,857.7788
"4394",79.30785,857.7925
"4395",80.323494,857.8052
"4396",81.45876,857.81885
"4397",82.54276,857.83154
"4398",83.41924,857.8452
"4399",83.99054,857.8579
"4400",84.242004,857.8716
"4401",84.22003,857.8843
"4402",84.00519,857.89795
"4403",83.6878,857.91064
"4404",83.35577,857.9243
"4405",83.06279,857.937
"4406",82.8333,857.9507
"4407",82.652626,857.9634
"4408",82.48417,857.97705
"4409",82.29862,857.98975
"4410",82.091095,858.0034
"4411",81.87625,858.0161
"4412",81.671165,858.0298
"4413",81.50515,858.0425
"4414",81.3904,858.05615
"4415",81.31472,858.06885
"4416",81.25857,858.0825
"4417",81.20241,858.0952
"4418",81.12428,858.1089
"4419",81.01198,858.1216
"4420",80.86305,858.13525
"4421",80.66773,858.14795
"4422",80.44312,858.1616
"4423",80.19653,858.1743
"4424",79.94507,858.188
"4425",79.69848,858.2007
"4426",79.47387,858.21436
"4427",79.273674,858.22705
"4428",79.10033,858.2407
"4429",78.95628,858.2534
"4430",78.83421,858.2671
"4431",78.73167,858.2798
"4432",78.643776,858.29346
"4433",78.56809,858.30615
"4434",78.49973,858.3198
"4435",78.4387,858.3325
"4436",78.38499,858.3462
"4437",78.34104,858.3589
"4438",78.30442,858.37256
"4439",78.27268,858.38525
"4440",78.24338,858.3989
"4441",78.21652,858.4116
"4442",78.184784,858.4253
"4443",78.14572,858.438
"4444",78.099335,858.45166
"4445",78.04318,858.46436
"4446",77.977264,858.478
"4447",77.90158,858.4907
"4448",77.821014,858.5044
"4449",77.74044,858.5171
"4450",77.662315,858.53076
"4451",77.5964,858.54346
"4452",77.574425,858.5571
"4453",77.65499,858.5698
"4454",77.93088,858.5835
"4455",78.47776,858.5962
"4456",79.32494,858.60986
"4457",80.41627,858.62256
"4458",81.62966,858.6362
"4459",82.78935,858.6489
"4460",83.73174,858.6626
"4461",84.35676,858.6753
"4462",84.63752,858.68896
"4463",84.61799,858.70166
"4464",84.37629,858.71533
"4465",84.017395,858.728
"4466",83.6292,858.7417
"4467",83.2752,858.7544
"4468",82.97978,858.76807
"4469",82.73319,858.78076
"4470",82.511024,858.79443
"4471",82.29374,858.8071
"4472",82.07156,858.8208
"4473",81.85672,858.8335
"4474",81.67605,858.84717
"4475",81.55154,858.85986
"4476",81.4905,858.87354
"4477",81.480736,858.8862
"4478",81.4905,858.8999
"4479",81.4905,858.9126
"4480",81.45144,858.9263
"4481",81.36355,858.93896
"4482",81.20973,858.95264
"4483",81.00221,858.96533
"4484",80.74586,858.979
"4485",80.46021,858.9917
"4486",80.164795,859.0054
"4487",79.87915,859.01807
"4488",79.61791,859.03174
"4489",79.38598,859.04443
"4490",79.183334,859.0581
"4491",79.00511,859.0708
"4492",78.856186,859.0845
"4493",78.729225,859.09717
"4494",78.63157,859.11084
"4495",78.56077,859.12354
"4496",78.51438,859.1372
"4497",78.485085,859.1499
"4498",78.467995,859.1636
"4499",78.45823,859.1763
"4500",78.4387,859.18994
"4501",78.40696,859.20264
"4502",78.36057,859.2163
"4503",78.28977,859.229
"4504",78.19943,859.2427
"4505",78.09445,859.2554
"4506",77.98215,859.26904
"4507",77.86984,859.28174
"4508",77.77463,859.2954
"4509",77.733116,859.3081
"4510",77.80881,859.3218
"4511",78.09445,859.3345
"4512",78.65354,859.34814
"4513",79.500725,859.36084
"4514",80.5774,859.3745
"4515",81.74685,859.3872
"4516",82.845505,859.4009
"4517",83.72198,859.4136
"4518",84.2884,859.42725
"4519",84.5301,859.43994
"4520",84.49592,859.4536
"4521",84.25666,859.4663
"4522",83.90509,859.48
"4523",83.51446,859.4927
"4524",83.13603,859.50635
"4525",82.78447,859.51904
"4526",82.45487,859.5327
"4527",82.13992,859.5454
"4528",81.83719,859.5591
"4529",81.56863,859.5718
"4530",81.35378,859.58545
"4531",81.21706,859.59814
"4532",81.17067,859.6118
"4533",81.1902,859.6245
"4534",81.25124,859.6382
"4535",81.31472,859.6509
"4536",81.3489,859.66455
"4537",81.324486,859.67725
"4538",81.22438,859.6909
"4539",81.04616,859.7036
"4540",80.80446,859.7173
"4541",80.5066,859.73
"4542",80.184326,859.74365
"4543",79.85962,859.75635
"4544",79.551994,859.77
"4545",79.27123,859.7827
"4546",79.02464,859.7964
"4547",78.82445,859.8091
"4548",78.66331,859.82275
"4549",78.538795,859.83545
"4550",78.44846,859.8491
"4551",78.38499,859.8618
"4552",78.34348,859.8755
"4553",78.30686,859.8882
"4554",78.27024,859.90186
"4555",78.221405,859.91455
"4556",78.15549,859.9282
"4557",78.07492,859.9409
"4558",77.98459,859.9546
"4559",77.89426,859.9673
"4560",77.8259,859.98096
"4561",77.83566,859.99365
"4562",77.99924,860.0073
"4563",78.40208,860.02
"4564",79.08568,860.0337
"4565",80.0354,860.0464
"4566",81.15602,860.06006
"4567",82.29618,860.07275
"4568",83.302055,860.0864
"4569",84.04913,860.0991
"4570",84.48615,860.1128
"4571",84.62531,860.1255
"4572",84.52033,860.13916
"4573",84.24933,860.15186
"4574",83.897766,860.1655
"4575",83.526665,860.1782
"4576",83.17021,860.1919
"4577",82.8333,860.2046
"4578",82.5037,860.21826
