"","ppg","time"
"1",79.75952,100.816895
"2",79.50317,100.83008
"3",79.26391,100.84326
"4",79.04173,100.856445
"5",78.84886,100.86963
"6",78.69016,100.88281
"7",78.56321,100.895996
"8",78.45823,100.90918
"9",78.37522,100.92236
"10",78.29954,100.93555
"11",78.22873,100.94873
"12",78.15793,100.961914
"13",78.09201,100.9751
"14",78.02121,100.98828
"15",77.95285,101.001465
"16",77.88205,101.01465
"17",77.81125,101.02783
"18",77.738,101.041016
"19",77.66476,101.0542
"20",77.593956,101.06738
"21",77.5256,101.08057
"22",77.45724,101.09375
"23",77.39132,101.10693
"24",77.32052,101.12012
"25",77.24971,101.1333
"26",77.18379,101.146484
"27",77.12276,101.15967
"28",77.07393,101.17285
"29",77.049515,101.186035
"30",77.08858,101.19922
"31",77.25948,101.2124
"32",77.645226,101.225586
"33",78.29954,101.23877
"34",79.21507,101.25195
"35",80.31129,101.26514
"36",81.45144,101.27832
"37",82.47196,101.291504
"38",83.245895,101.30469
"39",83.70733,101.31787
"40",83.86603,101.331055
"41",83.77081,101.34424
"42",83.509575,101.35742
"43",83.17998,101.370605
"44",82.865036,101.38379
"45",82.62089,101.39697
"46",82.45731,101.41016
"47",82.35966,101.42334
"48",82.28397,101.43652
"49",82.193634,101.44971
"50",82.074005,101.46289
"51",81.93729,101.476074
"52",81.80057,101.48926
"53",81.688255,101.50244
"54",81.60769,101.515625
"55",81.55154,101.52881
"56",81.48806,101.54199
"57",81.40017,101.555176
"58",81.27566,101.56836
"59",81.10719,101.58154
"60",80.89479,101.59473
"61",80.6482,101.60791
"62",80.37232,101.62109
"63",80.079346,101.63428
"64",79.78882,101.64746
"65",79.51537,101.660645
"66",79.26879,101.67383
"67",79.05394,101.68701
"68",78.87572,101.700195
"69",78.73167,101.71338
"70",78.61448,101.72656
"71",78.521706,101.739746
"72",78.45335,101.75293
"73",78.397194,101.76611
"74",78.35569,101.7793
"75",78.31907,101.79248
"76",78.28245,101.805664
"77",78.238495,101.81885
"78",78.18234,101.83203
"79",78.1091,101.845215
"80",78.01633,101.8584
"81",77.91135,101.87158
"82",77.79172,101.884766
"83",77.66964,101.89795
"84",77.54757,101.91113
"85",77.43282,101.92432
"86",77.34005,101.9375
"87",77.296104,101.95068
"88",77.36202,101.96387
"89",77.611046,101.97705
"90",78.10666,101.990234
"91",78.86107,102.00342
"92",79.82788,102.0166
"93",80.885025,102.029785
"94",81.8909,102.04297
"95",82.703896,102.05615
"96",83.243454,102.069336
"97",83.48272,102.08252
"98",83.46563,102.0957
"99",83.25567,102.10889
"100",82.948044,102.12207
"101",82.62089,102.135254
"102",82.33524,102.14844
"103",82.11551,102.16162
"104",81.94949,102.174805
"105",81.80789,102.18799
"106",81.6614,102.20117
"107",81.50759,102.214355
"108",81.356224,102.22754
"109",81.22682,102.24072
"110",81.13893,102.25391
"111",81.092545,102.26709
"112",81.07057,102.28027
"113",81.04372,102.29346
"114",80.987564,102.30664
"115",80.885025,102.319824
"116",80.72877,102.33301
"117",80.51881,102.34619
"118",80.26002,102.359375
"119",79.974365,102.37256
"120",79.676506,102.38574
"121",79.38598,102.398926
"122",79.114975,102.41211
"123",78.87572,102.42529
"124",78.675514,102.43848
"125",78.51438,102.45166
"126",78.38987,102.46484
"127",78.29954,102.47803
"128",78.24094,102.49121
"129",78.20187,102.504395
"130",78.170135,102.51758
"131",78.1384,102.53076
"132",78.101776,102.543945
"133",78.04562,102.55713
"134",77.97482,102.57031
"135",77.88693,102.583496
"136",77.78439,102.59668
"137",77.66964,102.60986
"138",77.55978,102.62305
"139",77.45968,102.63623
"140",77.37667,102.649414
"141",77.347374,102.6626
"142",77.43038,102.67578
"143",77.69894,102.688965
"144",78.221405,102.70215
"145",79.00755,102.71533
"146",79.99634,102.728516
"147",81.07301,102.7417
"148",82.08377,102.75488
"149",82.882126,102.76807
"150",83.389946,102.78125
"151",83.60235,102.79443
"152",83.560844,102.80762
"153",83.346,102.8208
"154",83.04814,102.833984
"155",82.7454,102.84717
"156",82.493935,102.86035
"157",82.31083,102.873535
"158",82.1741,102.88672
"159",82.04959,102.8999
"160",81.90555,102.913086
"161",81.73464,102.92627
"162",81.549095,102.93945
"163",81.3782,102.95264
"164",81.24147,102.96582
"165",81.15114,102.979004
"166",81.08278,102.99219
"167",81.01198,103.00537
"168",80.91432,103.018555
"169",80.7776,103.03174
"170",80.59449,103.04492
"171",80.37476,103.058105
"172",80.11841,103.07129
"173",79.83765,103.08447
"174",79.54711,103.09766
"175",79.26391,103.11084
"176",79.00023,103.12402
"177",78.76097,103.13721
"178",78.555885,103.15039
"179",78.38499,103.163574
"180",78.24582,103.17676
"181",78.1384,103.18994
"182",78.05051,103.203125
"183",77.979706,103.21631
"184",77.92111,103.22949
"185",77.86496,103.242676
"186",77.81125,103.25586
"187",77.76242,103.26904
"188",77.71847,103.28223
"189",77.67696,103.29541
"190",77.6379,103.30859
"191",77.593956,103.32178
"192",77.54757,103.33496
"193",77.488976,103.348145
"194",77.42306,103.36133
"195",77.347374,103.37451
"196",77.264366,103.387695
"197",77.17403,103.40088
"198",77.09346,103.41406
"199",77.02754,103.427246
"200",76.998245,103.44043
"201",77.049515,103.45361
"202",77.26925,103.4668
"203",77.73556,103.47998
"204",78.49973,103.493164
"205",79.537346,103.50635
"206",80.75563,103.51953
"207",81.99588,103.532715
"208",83.07744,103.5459
"209",83.87335,103.55908
"210",84.32746,103.572266
"211",84.46418,103.58545
"212",84.34699,103.59863
"213",84.07843,103.61182
"214",83.75372,103.625
"215",83.458305,103.63818
"216",83.24101,103.65137
"217",83.10918,103.66455
"218",83.02861,103.677734
"219",82.95537,103.69092
"220",82.85039,103.7041
"221",82.69413,103.717285
"222",82.493935,103.73047
"223",82.28397,103.74365
"224",82.08377,103.756836
"225",81.90799,103.77002
"226",81.75174,103.7832
"227",81.602806,103.79639
"228",81.444115,103.80957
"229",81.26589,103.822754
"230",81.05592,103.83594
"231",80.80934,103.84912
"232",80.53834,103.862305
"233",80.2478,103.87549
"234",79.95239,103.88867
"235",79.66674,103.901855
"236",79.40551,103.91504
"237",79.166245,103.92822
"238",78.95628,103.94141
"239",78.77318,103.95459
"240",78.61936,103.96777
"241",78.487526,103.98096
"242",78.37766,103.99414
"243",78.28489,104.007324
"244",78.19699,104.02051
"245",78.1091,104.03369
"246",78.02121,104.046875
"247",77.93332,104.06006
"248",77.84787,104.07324
"249",77.76242,104.086426
"250",77.68185,104.09961
"251",77.60616,104.11279
"252",77.53048,104.12598
"253",77.46456,104.13916
"254",77.40353,104.15234
"255",77.347374,104.16553
"256",77.29366,104.17871
"257",77.242386,104.191895
"258",77.188675,104.20508
"259",77.137405,104.21826
"260",77.086136,104.231445
"261",77.032425,104.24463
"262",76.97627,104.25781
"263",76.92012,104.270996
"264",76.86397,104.28418
"265",76.824905,104.29736
"266",76.82735,104.31055
"267",76.927444,104.32373
"268",77.21309,104.336914
"269",77.77463,104.3501
"270",78.643776,104.36328
"271",79.77905,104.376465
"272",81.06081,104.38965
"273",82.32304,104.40283
"274",83.387505,104.416016
"275",84.13458,104.4292
"276",84.52766,104.44238
"277",84.59846,104.45557
"278",84.420235,104.46875
"279",84.09308,104.48193
"280",83.717094,104.49512
"281",83.3753,104.5083
"282",83.1165,104.521484
"283",82.948044,104.53467
"284",82.84062,104.54785
"285",82.7454,104.561035
"286",82.62577,104.57422
"287",82.46464,104.5874
"288",82.28153,104.600586
"289",82.09842,104.61377
"290",81.94705,104.62695
"291",81.83475,104.64014
"292",81.74685,104.65332
"293",81.65896,104.666504
"294",81.54665,104.67969
"295",81.38796,104.69287
"296",81.18288,104.706055
"297",80.92897,104.71924
"298",80.63111,104.73242
"299",80.30396,104.745605
"300",79.96948,104.75879
"301",79.639885,104.77197
"302",79.327385,104.78516
"303",79.0515,104.79834
"304",78.81712,104.81152
"305",78.6218,104.82471
"306",78.46555,104.83789
"307",78.345924,104.851074
"308",78.260475,104.86426
"309",78.18967,104.87744
"310",78.13107,104.890625
"311",78.082245,104.90381
"312",78.03342,104.91699
"313",77.98459,104.930176
"314",77.92844,104.94336
"315",77.872284,104.95654
"316",77.806366,104.96973
"317",77.72579,104.98291
"318",77.63058,104.99609
"319",77.523155,105.00928
"320",77.39864,105.02246
"321",77.27413,105.035645
"322",77.154495,105.04883
"323",77.04707,105.06201
"324",76.961624,105.075195
"325",76.910355,105.08838
"326",76.927444,105.10156
"327",77.08858,105.114746
"328",77.469444,105.12793
"329",78.13107,105.14111
"330",79.07591,105.1543
"331",80.22583,105.16748
"332",81.43679,105.180664
"333",82.545204,105.19385
"334",83.404594,105.20703
"335",83.93927,105.220215
"336",84.139465,105.2334
"337",84.06378,105.24658
"338",83.79767,105.259766
"339",83.43633,105.27295
"340",83.06523,105.28613
"341",82.738075,105.29932
"342",82.476845,105.3125
"343",82.26444,105.32568
"344",82.074005,105.33887
"345",81.8909,105.35205
"346",81.71023,105.365234
"347",81.53933,105.37842
"348",81.40261,105.3916
"349",81.3196,105.404785
"350",81.2781,105.41797
"351",81.25857,105.43115
"352",81.231705,105.444336
"353",81.16823,105.45752
"354",81.05104,105.4707
"355",80.87526,105.48389
"356",80.638435,105.49707
"357",80.35279,105.510254
"358",80.03296,105.52344
"359",79.69604,105.53662
"360",79.36889,105.549805
"361",79.063705,105.56299
"362",78.79515,105.57617
"363",78.57053,105.589355
"364",78.38743,105.60254
"365",78.24826,105.61572
"366",78.14816,105.62891
"367",78.08713,105.64209
"368",78.05295,105.65527
"369",78.0383,105.66846
"370",78.02609,105.68164
"371",78.009,105.694824
"372",77.979706,105.70801
"373",77.92844,105.72119
"374",77.85031,105.734375
"375",77.752655,105.74756
"376",77.6379,105.76074
"377",77.51095,105.773926
"378",77.38644,105.78711
"379",77.27657,105.80029
"380",77.208206,105.81348
"381",77.222855,105.82666
"382",77.39132,105.83984
"383",77.80148,105.85303
"384",78.49973,105.86621
"385",79.47143,105.879395
"386",80.63355,105.89258
"387",81.83963,105.90576
"388",82.91875,105.918945
"389",83.736626,105.93213
"390",84.224915,105.94531
"391",84.386055,105.958496
"392",84.27863,105.97168
"393",83.99298,105.98486
"394",83.62432,105.99805
"395",83.25567,106.01123
"396",82.9456,106.024414
"397",82.703896,106.0376
"398",82.50614,106.05078
"399",82.32548,106.063965
"400",82.142365,106.07715
"401",81.94949,106.09033
"402",81.76395,106.103516
"403",81.60769,106.1167
"404",81.48806,106.12988
"405",81.40505,106.14307
"406",81.33669,106.15625
"407",81.26101,106.16943
"408",81.15358,106.18262
"409",81.00221,106.1958
"410",80.797134,106.208984
"411",80.54078,106.22217
"412",80.24048,106.23535
"413",79.91821,106.248535
"414",79.588615,106.26172
"415",79.26635,106.2749
"416",78.96605,106.288086
"417",78.69749,106.30127
"418",78.470436,106.31445
"419",78.28489,106.32764
"420",78.14572,106.34082
"421",78.04318,106.354004
"422",77.96506,106.36719
"423",77.90158,106.38037
"424",77.84787,106.393555
"425",77.7966,106.40674
"426",77.7551,106.41992
"427",77.71114,106.433105
"428",77.67208,106.44629
"429",77.625694,106.45947
"430",77.574425,106.47266
"431",77.51095,106.48584
"432",77.437706,106.49902
"433",77.349815,106.51221
"434",77.25216,106.52539
"435",77.14717,106.538574
"436",77.03731,106.55176
"437",76.93233,106.56494
"438",76.84444,106.578125
"439",76.79561,106.59131
"440",76.83467,106.60449
"441",77.04219,106.617676
"442",77.51583,106.63086
"443",78.314186,106.64404
"444",79.42016,106.65723
"445",80.73609,106.67041
"446",82.08865,106.68359
"447",83.29229,106.69678
"448",84.18585,106.70996
"449",84.701,106.723145
"450",84.857254,106.73633
"451",84.72541,106.74951
"452",84.40559,106.762695
"453",84.01495,106.77588
"454",83.64629,106.78906
"455",83.36309,106.802246
"456",83.17021,106.81543
"457",83.04082,106.82861
"458",82.92851,106.8418
"459",82.78935,106.85498
"460",82.60136,106.868164
"461",82.37919,106.88135
"462",82.14725,106.89453
"463",81.934845,106.907715
"464",81.75418,106.9209
"465",81.600365,106.93408
"466",81.449,106.947266
"467",81.28298,106.96045
"468",81.092545,106.97363
"469",80.86305,106.98682
"470",80.59449,107
"471",80.289314,107.01318
"472",79.95972,107.02637
"473",79.61547,107.03955
"474",79.27856,107.052734
"475",78.96361,107.06592
"476",78.68528,107.0791
"477",78.44358,107.092285
"478",78.24094,107.10547
"479",78.07004,107.11865
"480",77.925995,107.131836
"481",77.803925,107.14502
"482",77.70138,107.1582
"483",77.611046,107.17139
"484",77.5256,107.18457
"485",77.44747,107.197754
"486",77.37423,107.21094
"487",77.298546,107.22412
"488",77.225296,107.237305
"489",77.14717,107.25049
"490",77.06416,107.26367
"491",76.97383,107.276855
"492",76.88594,107.29004
"493",76.807816,107.30322
"494",76.74433,107.31641
"495",76.69306,107.32959
"496",76.65156,107.34277
"497",76.612495,107.35596
"498",76.57099,107.36914
"499",76.52705,107.382324
"500",76.47822,107.39551
"501",76.42695,107.40869
"502",76.38056,107.421875
"503",76.34394,107.43506
"504",76.32929,107.44824
"505",76.35371,107.461426
"506",76.4831,107.47461
"507",76.807816,107.48779
"508",77.41573,107.50098
"509",78.33372,107.51416
"510",79.51537,107.52734
"511",80.831314,107.54053
"512",82.108185,107.55371
"513",83.160446,107.566895
"514",83.87335,107.58008
"515",84.227356,107.59326
"516",84.26154,107.606445
"517",84.05646,107.61963
"518",83.717094,107.63281
"519",83.353325,107.645996
"520",83.0457,107.65918
"521",82.84062,107.67236
"522",82.73075,107.68555
"523",82.68192,107.69873
"524",82.63554,107.711914
"525",82.545204,107.7251
"526",82.4036,107.73828
"527",82.22049,107.751465
"528",82.02518,107.76465
"529",81.85184,107.77783
"530",81.7029,107.791016
"531",81.56863,107.8042
"532",81.43191,107.81738
"533",81.27566,107.83057
"534",81.08766,107.84375
"535",80.87038,107.85693
"536",80.62867,107.87012
"537",80.36256,107.8833
"538",80.08423,107.896484
"539",79.801025,107.90967
"540",79.53002,107.92285
"541",79.27123,107.936035
"542",79.03685,107.94922
"543",78.836655,107.9624
"544",78.67063,107.975586
"545",78.536354,107.98877
"546",78.42649,108.00195
"547",78.3386,108.01514
"548",78.2678,108.02832
"549",78.19699,108.041504
"550",78.12863,108.05469
"551",78.06027,108.06787
"552",77.99191,108.081055
"553",77.91867,108.09424
"554",77.84787,108.10742
"555",77.77463,108.120605
"556",77.70138,108.13379
"557",77.63058,108.14697
"558",77.56222,108.16016
"559",77.49874,108.17334
"560",77.44259,108.18652
"561",77.39376,108.19971
"562",77.35226,108.21289
"563",77.31808,108.226074
"564",77.28634,108.23926
"565",77.25704,108.25244
"566",77.222855,108.265625
"567",77.18623,108.27881
"568",77.14473,108.29199
"569",77.10567,108.305176
"570",77.07637,108.31836
"571",77.066605,108.33154
"572",77.09102,108.34473
"573",77.205765,108.35791
"574",77.48409,108.37109
"575",78.01633,108.38428
"576",78.83421,108.39746
"577",79.91089,108.410645
"578",81.13649,108.42383
"579",82.34745,108.43701
"580",83.370415,108.450195
"581",84.08331,108.46338
"582",84.44465,108.47656
"583",84.48615,108.489746
"584",84.281075,108.50293
"585",83.929504,108.51611
"586",83.54131,108.5293
"587",83.19707,108.54248
"588",82.9456,108.555664
"589",82.79668,108.56885
"590",82.7161,108.58203
"591",82.65507,108.595215
"592",82.57206,108.6084
"593",82.45731,108.62158
"594",82.320595,108.634766
"595",82.18143,108.64795
"596",82.06668,108.66113
"597",81.98367,108.67432
"598",81.91287,108.6875
"599",81.83719,108.70068
"600",81.73708,108.71387
"601",81.600365,108.72705
"602",81.4197,108.740234
"603",81.197525,108.75342
"604",80.94118,108.7666
"605",80.65797,108.779785
"606",80.36744,108.79297
"607",80.08911,108.80615
"608",79.82788,108.819336
"609",79.5935,108.83252
"610",79.39086,108.8457
"611",79.219955,108.85889
"612",79.078354,108.87207
"613",78.96849,108.885254
"614",78.88548,108.89844
"615",78.82689,108.91162
"616",78.78294,108.924805
"617",78.746315,108.93799
"618",78.70725,108.95117
"619",78.658424,108.964355
"620",78.60227,108.97754
"621",78.54124,108.99072
"622",78.4802,109.00391
"623",78.41428,109.01709
"624",78.35325,109.03027
"625",78.28489,109.04346
"626",78.2092,109.05664
"627",78.12375,109.069824
"628",78.030975,109.08301
"629",77.93088,109.09619
"630",77.83078,109.109375
"631",77.74532,109.12256
"632",77.67208,109.13574
"633",77.61837,109.148926
"634",77.59884,109.16211
"635",77.66476,109.17529
"636",77.88693,109.18848
"637",78.345924,109.20166
"638",79.08568,109.21484
"639",80.08179,109.22803
"640",81.22682,109.24121
"641",82.35966,109.254395
"642",83.319145,109.26758
"643",83.983215,109.28076
"644",84.31037,109.293945
"645",84.32746,109.30713
"646",84.105286,109.32031
"647",83.73907,109.333496
"648",83.32403,109.34668
"649",82.94072,109.35986
"650",82.62821,109.37305
"651",82.40116,109.38623
"652",82.22537,109.399414
"653",82.074005,109.4126
"654",81.92996,109.42578
"655",81.79324,109.438965
"656",81.68093,109.45215
"657",81.617455,109.46533
"658",81.602806,109.478516
"659",81.62478,109.4917
"660",81.654076,109.50488
"661",81.64919,109.51807
"662",81.59548,109.53125
"663",81.478294,109.54443
"664",81.29519,109.55762
"665",81.05348,109.5708
"666",80.77272,109.583984
"667",80.46998,109.59717
"668",80.164795,109.61035
"669",79.87671,109.623535
"670",79.61791,109.63672
"671",79.40307,109.6499
"672",79.22484,109.663086
"673",79.08812,109.67627
"674",78.99046,109.68945
"675",78.924545,109.70264
"676",78.88548,109.71582
"677",78.86595,109.729004
"678",78.853745,109.74219
"679",78.836655,109.75537
"680",78.80492,109.768555
"681",78.75365,109.78174
"682",78.6804,109.79492
"683",78.58518,109.808105
"684",78.470436,109.82129
"685",78.34348,109.83447
"686",78.21652,109.84766
"687",78.09201,109.86084
"688",77.99191,109.87402
"689",77.94064,109.88721
"690",77.98703,109.90039
"691",78.21164,109.913574
"692",78.68284,109.92676
"693",79.42748,109.93994
"694",80.396736,109.953125
"695",81.47341,109.96631
"696",82.49882,109.97949
"697",83.32647,109.992676
"698",83.85138,110.00586
"699",84.06134,110.01904
"700",83.99542,110.03223
"701",83.74395,110.04541
"702",83.39483,110.05859
"703",83.035934,110.07178
"704",82.73319,110.08496
"705",82.5037,110.098145
"706",82.32792,110.11133
"707",82.1741,110.12451
"708",82.01785,110.137695
"709",81.85184,110.15088
"710",81.688255,110.16406
"711",81.55154,110.177246
"712",81.45632,110.19043
"713",81.40505,110.20361
"714",81.3782,110.2168
"715",81.34646,110.22998
"716",81.28298,110.243164
"717",81.17311,110.25635
"718",81.007095,110.26953
"719",80.78493,110.282715
"720",80.52125,110.2959
"721",80.22827,110.30908
"722",79.93042,110.322266
"723",79.639885,110.33545
"724",79.37133,110.34863
"725",79.13451,110.36182
"726",78.93675,110.375
"727",78.77806,110.38818
"728",78.65354,110.40137
"729",78.56321,110.41455
"730",78.48997,110.427734
"731",78.43137,110.44092
"732",78.382545,110.4541
"733",78.34104,110.467285
"734",78.30198,110.48047
"735",78.26292,110.49365
"736",78.21652,110.506836
"737",78.16037,110.52002
"738",78.09201,110.5332
"739",78.00656,110.54639
"740",77.90646,110.55957
"741",77.786835,110.572754
"742",77.6672,110.58594
"743",77.55245,110.59912
"744",77.44747,110.612305
"745",77.366905,110.62549
"746",77.34005,110.63867
"747",77.43282,110.651855
"748",77.72823,110.66504
"749",78.30442,110.67822
"750",79.17845,110.69141
"751",80.289314,110.70459
"752",81.50515,110.71777
"753",82.64042,110.73096
"754",83.53643,110.74414
"755",84.09552,110.757324
"756",84.30549,110.77051
"757",84.21759,110.78369
"758",83.929504,110.796875
"759",83.5584,110.81006
"760",83.19707,110.82324
"761",82.916306,110.836426
"762",82.74052,110.84961
"763",82.6453,110.86279
"764",82.57694,110.87598
"765",82.48661,110.88916
"766",82.34989,110.90234
"767",82.16922,110.91553
"768",81.96658,110.92871
"769",81.77127,110.941895
"770",81.60769,110.95508
"771",81.480736,110.96826
"772",81.36843,110.981445
"773",81.24635,110.99463
"774",81.09987,111.00781
"775",80.919205,111.020996
"776",80.69947,111.03418
"777",80.44312,111.04736
"778",80.164795,111.06055
"779",79.87671,111.07373
"780",79.588615,111.086914
"781",79.31762,111.1001
"782",79.06615,111.11328
"783",78.84398,111.126465
"784",78.658424,111.13965
"785",78.50706,111.15283
"786",78.38499,111.166016
"787",78.28489,111.1792
"788",78.204315,111.19238
"789",78.133514,111.20557
"790",78.065155,111.21875
"791",77.99191,111.23193
"792",77.91379,111.24512
"793",77.83322,111.2583
"794",77.747765,111.271484
"795",77.659874,111.28467
"796",77.576866,111.29785
"797",77.503624,111.311035
"798",77.435265,111.32422
"799",77.36935,111.3374
"800",77.30831,111.350586
"801",77.24483,111.36377
"802",77.188675,111.37695
"803",77.13252,111.39014
"804",77.07881,111.40332
"805",77.02266,111.416504
"806",76.964066,111.42969
"807",76.90547,111.44287
"808",76.85664,111.456055
"809",76.824905,111.46924
"810",76.82735,111.48242
"811",76.90791,111.495605
"812",77.13985,111.50879
"813",77.61837,111.52197
"814",78.39475,111.53516
"815",79.45678,111.54834
"816",80.69947,111.56152
"817",81.95926,111.57471
"818",83.04814,111.58789
"819",83.82941,111.601074
"820",84.242004,111.61426
"821",84.31281,111.62744
"822",84.11749,111.640625
"823",83.77081,111.65381
"824",83.37774,111.66699
"825",83.04082,111.680176
"826",82.811325,111.69336
"827",82.69657,111.70654
"828",82.65995,111.71973
"829",82.63554,111.73291
"830",82.56962,111.74609
"831",82.44511,111.75928
"832",82.269325,111.77246
"833",82.06912,111.785645
"834",81.881134,111.79883
"835",81.72976,111.81201
"836",81.60525,111.825195
"837",81.48562,111.83838
"838",81.356224,111.85156
"839",81.19997,111.864746
"840",81.007095,111.87793
"841",80.780045,111.89111
"842",80.52369,111.9043
"843",80.2478,111.91748
"844",79.9646,111.930664
"845",79.68627,111.94385
"846",79.42504,111.95703
"847",79.1931,111.970215
"848",78.98802,111.9834
"849",78.819565,111.99658
"850",78.6804,112.009766
"851",78.56565,112.02295
"852",78.47288,112.03613
"853",78.399635,112.04932
"854",78.33372,112.0625
"855",78.27268,112.07568
"856",78.20676,112.08887
"857",78.133514,112.10205
"858",78.05539,112.115234
"859",77.97238,112.12842
"860",77.88937,112.1416
"861",77.81125,112.154785
"862",77.738,112.16797
"863",77.66476,112.18115
"864",77.591515,112.194336
"865",77.5256,112.20752
"866",77.46456,112.2207
"867",77.41085,112.23389
"868",77.37179,112.24707
"869",77.33761,112.260254
"870",77.30831,112.27344
"871",77.279015,112.28662
"872",77.242386,112.299805
"873",77.20088,112.31299
"874",77.15694,112.32617
"875",77.11543,112.339355
"876",77.083694,112.35254
"877",77.07149,112.36572
"878",77.11543,112.37891
"879",77.28634,112.39209
"880",77.679405,112.40527
"881",78.37278,112.41846
"882",79.364006,112.43164
"883",80.5774,112.444824
"884",81.8616,112.45801
"885",83.02373,112.47119
"886",83.90265,112.484375
"887",84.420235,112.49756
"888",84.576485,112.51074
"889",84.43,112.523926
"890",84.08331,112.53711
"891",83.65362,112.55029
"892",83.24101,112.56348
"893",82.916306,112.57666
"894",82.703896,112.58984
"895",82.58671,112.60303
"896",82.513466,112.61621
"897",82.4329,112.629395
"898",82.320595,112.64258
"899",82.18631,112.65576
"900",82.05203,112.668945
"901",81.94217,112.68213
"902",81.87625,112.69531
"903",81.83719,112.708496
"904",81.80057,112.72168
"905",81.739525,112.73486
"906",81.634544,112.74805
"907",81.47585,112.76123
"908",81.26345,112.774414
"909",81.004654,112.7876
"910",80.71412,112.80078
"911",80.4065,112.813965
"912",80.09888,112.82715
"913",79.80835,112.84033
"914",79.55688,112.853516
"915",79.34203,112.8667
"916",79.17357,112.87988
"917",79.04173,112.89307
"918",78.94408,112.90625
"919",78.86351,112.91943
"920",78.80003,112.93262
"921",78.74876,112.9458
"922",78.70725,112.958984
"923",78.67063,112.97217
"924",78.626686,112.98535
"925",78.57542,112.998535
"926",78.51194,113.01172
"927",78.43137,113.0249
"928",78.33372,113.038086
"929",78.22385,113.05127
"930",78.101776,113.06445
"931",77.97238,113.07764
"932",77.84299,113.09082
"933",77.72335,113.104004
"934",77.61837,113.11719
"935",77.54269,113.13037
"936",77.52804,113.143555
"937",77.63302,113.15674
"938",77.94797,113.16992
"939",78.53391,113.183105
"940",79.40307,113.19629
"941",80.482185,113.20947
"942",81.63943,113.22266
"943",82.69901,113.23584
"944",83.51446,113.24902
"945",83.99786,113.26221
"946",84.14435,113.27539
"947",84.01495,113.288574
"948",83.700005,113.30176
"949",83.29717,113.31494
"950",82.896774,113.328125
"951",82.56962,113.34131
"952",82.32792,113.35449
"953",82.15701,113.367676
"954",82.01053,113.38086
"955",81.8616,113.39404
"956",81.70046,113.40723
"957",81.549095,113.42041
"958",81.42214,113.43359
"959",81.34402,113.44678
"960",81.30984,113.45996
"961",81.307396,113.473145
"962",81.29275,113.48633
"963",81.24391,113.49951
"964",81.143814,113.512695
"965",80.98512,113.52588
"966",80.762955,113.53906
"967",80.49195,113.552246
"968",80.18677,113.56543
"969",79.869385,113.57861
"970",79.55688,113.5918
"971",79.27123,113.60498
"972",79.0222,113.618164
"973",78.819565,113.63135
"974",78.660866,113.64453
"975",78.54124,113.657715
"976",78.45579,113.6709
"977",78.39475,113.68408
"978",78.348366,113.697266
"979",78.311745,113.71045
"980",78.28001,113.72363
"981",78.24338,113.73682
"982",78.19699,113.75
"983",78.135956,113.76318
"984",78.05783,113.77637
"985",77.962616,113.78955
"986",77.85031,113.802734
"987",77.72579,113.81592
"988",77.60128,113.8291
"989",77.48409,113.842285
"990",77.38155,113.85547
"991",77.31075,113.86865
"992",77.32052,113.881836
"993",77.48165,113.89502
"994",77.88449,113.9082
"995",78.58518,113.92139
"996",79.571526,113.93457
"997",80.7483,113.947754
"998",81.95438,113.96094
"999",83.0164,113.97412
"1000",83.79523,113.987305
"1001",84.227356,114.00049
"1002",84.332344,114.01367
"1003",84.173645,114.026855
"1004",83.85138,114.04004
"1005",83.46319,114.05322
"1006",83.09941,114.06641
"1007",82.81865,114.07959
"1008",82.62821,114.09277
"1009",82.49882,114.10596
"1010",82.388954,114.11914
"1011",82.25956,114.132324
"1012",82.1033,114.14551
"1013",81.92752,114.15869
"1014",81.76639,114.171875
"1015",81.64187,114.18506
"1016",81.55398,114.19824
"1017",81.48806,114.211426
"1018",81.41482,114.22461
"1019",81.31228,114.23779
"1020",81.16579,114.25098
"1021",80.972916,114.26416
"1022",80.73609,114.27734
"1023",80.465096,114.29053
"1024",80.16724,114.30371
"1025",79.85474,114.316895
"1026",79.54223,114.33008
"1027",79.2517,114.34326
"1028",78.992905,114.356445
"1029",78.77074,114.36963
"1030",78.590065,114.38281
"1031",78.44846,114.395996
"1032",78.34104,114.40918
"1033",78.25559,114.42236
"1034",78.18234,114.43555
"1035",78.118866,114.44873
"1036",78.05783,114.461914
"1037",77.99191,114.4751
"1038",77.92111,114.48828
"1039",77.84299,114.501465
"1040",77.76242,114.51465
"1041",77.679405,114.52783
"1042",77.593956,114.541016
"1043",77.51827,114.5542
"1044",77.44991,114.56738
"1045",77.38644,114.58057
"1046",77.32296,114.59375
"1047",77.2546,114.60693
"1048",77.17891,114.62012
"1049",77.09346,114.6333
"1050",77.00557,114.646484
"1051",76.91768,114.65967
"1052",76.84444,114.67285
"1053",76.79561,114.686035
"1054",76.78584,114.69922
"1055",76.876175,114.7124
"1056",77.16426,114.725586
"1057",77.74532,114.73877
"1058",78.66819,114.75195
"1059",79.8938,114.76514
"1060",81.290306,114.77832
"1061",82.66239,114.791504
"1062",83.81964,114.80469
"1063",84.62043,114.81787
"1064",85.02571,114.831055
"1065",85.0721,114.84424
"1066",84.84505,114.85742
"1067",84.46174,114.870605
"1068",84.03693,114.88379
"1069",83.66827,114.89697
"1070",83.41924,114.91016
"1071",83.28985,114.92334
"1072",83.23125,114.93652
"1073",83.18974,114.94971
"1074",83.11162,114.96289
"1075",82.9749,114.976074
"1076",82.78935,114.98926
"1077",82.58427,115.00244
"1078",82.391396,115.015625
"1079",82.22293,115.02881
"1080",82.07156,115.04199
"1081",81.92508,115.055176
"1082",81.76395,115.06836
"1083",81.57107,115.08154
"1084",81.34402,115.09473
"1085",81.07301,115.10791
"1086",80.76784,115.12109
"1087",80.44312,115.13428
"1088",80.113525,115.14746
"1089",79.783936,115.160645
"1090",79.47631,115.17383
"1091",79.19798,115.18701
"1092",78.9514,115.200195
"1093",78.74387,115.21338
"1094",78.57786,115.22656
"1095",78.44114,115.239746
"1096",78.328835,115.25293
"1097",78.23117,115.26611
"1098",78.14328,115.2793
"1099",78.05783,115.29248
"1100",77.9675,115.305664
"1101",77.872284,115.31885
"1102",77.77463,115.33203
"1103",77.67208,115.345215
"1104",77.56954,115.3584
"1105",77.467,115.37158
"1106",77.366905,115.384766
"1107",77.26925,115.39795
"1108",77.17647,115.41113
"1109",77.09102,115.42432
"1110",77.02022,115.4375
"1111",76.96895,115.45068
"1112",76.927444,115.46387
"1113",76.893265,115.47705
"1114",76.85664,115.490234
"1115",76.81758,115.50342
"1116",76.76631,115.5166
"1117",76.715034,115.529785
"1118",76.663765,115.54297
"1119",76.62226,115.55615
"1120",76.595406,115.569336
"1121",76.60273,115.58252
"1122",76.69306,115.5957
"1123",76.95674,115.60889
"1124",77.49874,115.62207
"1125",78.37522,115.635254
"1126",79.55932,115.64844
"1127",80.94362,115.66162
"1128",82.337685,115.674805
"1129",83.55108,115.68799
"1130",84.42512,115.70117
"1131",85.030594,115.72754
"1132",84.859695,115.74072
"1133",84.505684,115.75391
"1134",84.08331,115.76709
"1135",83.69268,115.78027
"1136",83.39971,115.79346
"1137",83.22148,115.80664
"1138",83.13603,115.819824
"1139",83.08232,115.83301
"1140",83.004196,115.84619
"1141",82.882126,115.859375
"1142",82.71122,115.87256
"1143",82.51835,115.88574
"1144",82.337685,115.898926
"1145",82.18387,115.91211
"1146",82.05203,115.92529
"1147",81.92752,115.93848
"1148",81.78348,115.95166
"1149",81.60769,115.96484
"1150",81.39529,115.97803
"1151",81.13405,115.99121
"1152",80.831314,116.004395
"1153",80.50416,116.01758
"1154",80.15747,116.03076
"1155",79.81323,116.043945
"1156",79.48852,116.05713
"1157",79.18822,116.07031
"1158",78.92699,116.083496
"1159",78.70725,116.09668
"1160",78.53391,116.10986
"1161",78.399635,116.12305
"1162",78.29221,116.13623
"1163",78.20676,116.149414
"1164",78.12863,116.1626
"1165",78.048065,116.17578
"1166",77.9675,116.188965
"1167",77.88449,116.20215
"1168",77.79904,116.21533
"1169",77.71114,116.228516
"1170",77.61837,116.2417
"1171",77.51827,116.25488
"1172",77.41573,116.26807
"1173",77.313194,116.28125
"1174",77.21797,116.29443
"1175",77.134964,116.30762
"1176",77.06172,116.3208
"1177",77.00313,116.333984
"1178",76.9543,116.34717
"1179",76.91524,116.36035
"1180",76.88594,116.373535
"1181",76.86153,116.38672
"1182",76.83711,116.3999
"1183",76.805374,116.413086
"1184",76.76631,116.42627
"1185",76.72236,116.43945
"1186",76.67597,116.45264
"1187",76.63203,116.46582
"1188",76.60761,116.479004
"1189",76.63447,116.49219
"1190",76.7834,116.50537
"1191",77.15694,116.518555
"1192",77.84787,116.53174
"1193",78.88548,116.54492
"1194",80.198975,116.558105
"1195",81.64187,116.57129
"1196",83.01396,116.58447
"1197",84.1297,116.59766
"1198",84.8719,116.61084
"1199",85.21614,116.62402
"1200",85.20393,116.63721
"1201",84.92317,116.65039
"1202",84.48371,116.663574
"1203",84.000305,116.67676
"1204",83.56573,116.68994
"1205",83.228806,116.703125
"1206",82.99931,116.71631
"1207",82.83818,116.72949
"1208",82.70634,116.742676
"1209",82.56718,116.75586
"1210",82.423134,116.76904
"1211",82.28397,116.78223
"1212",82.1741,116.79541
"1213",82.11063,116.80859
"1214",82.08133,116.82178
"1215",82.056915,116.83496
"1216",82.00076,116.848145
"1217",81.89578,116.86133
"1218",81.72732,116.87451
"1219",81.495384,116.887695
"1220",81.20973,116.90088
"1221",80.88014,116.91406
"1222",80.52369,116.927246
"1223",80.15503,116.94043
"1224",79.79126,116.95361
"1225",79.45434,116.9668
"1226",79.15892,116.97998
"1227",78.91234,116.993164
"1228",78.7219,117.00635
"1229",78.5803,117.01953
"1230",78.47776,117.032715
"1231",78.40208,117.0459
"1232",78.35081,117.05908
"1233",78.30686,117.072266
"1234",78.27024,117.08545
"1235",78.23117,117.09863
"1236",78.187225,117.11182
"1237",78.12863,117.125
"1238",78.05295,117.13818
"1239",77.95773,117.15137
"1240",77.84299,117.16455
"1241",77.71114,117.177734
"1242",77.56466,117.19092
"1243",77.420616,117.2041
"1244",77.281456,117.217285
"1245",77.154495,117.23047
"1246",77.0544,117.24365
"1247",76.998245,117.256836
"1248",77.03975,117.27002
"1249",77.261925,117.2832
"1250",77.752655,117.29639
"1251",78.56321,117.30957
"1252",79.66186,117.322754
"1253",80.94118,117.33594
"1254",82.22781,117.34912
"1255",83.34356,117.362305
"1256",84.14435,117.37549
"1257",84.578926,117.38867
"1258",84.661934,117.401855
"1259",84.46662,117.41504
"1260",84.08087,117.42822
"1261",83.62188,117.44141
"1262",83.17265,117.45459
"1263",82.78935,117.46777
"1264",82.48905,117.48096
"1265",82.24979,117.49414
"1266",82.039825,117.507324
"1267",81.84207,117.52051
"1268",81.64919,117.53369
"1269",81.48562,117.546875
"1270",81.36843,117.56006
"1271",81.307396,117.57324
"1272",81.28298,117.586426
"1273",81.27322,117.59961
"1274",81.24391,117.61279
"1275",81.17067,117.62598
"1276",81.03395,117.63916
"1277",80.8362,117.65234
"1278",80.57496,117.66553
"1279",80.26734,117.67871
"1280",79.91821,117.691895
"1281",79.554436,117.70508
"1282",79.18822,117.71826
"1283",78.84398,117.731445
"1284",78.538795,117.74463
"1285",78.29221,117.75781
"1286",78.10422,117.770996
"1287",77.96994,117.78418
"1288",77.88205,117.79736
"1289",77.823456,117.81055
"1290",77.78439,117.82373
"1291",77.752655,117.836914
"1292",77.72823,117.8501
"1293",77.69894,117.86328
"1294",77.659874,117.876465
"1295",77.60372,117.88965
"1296",77.52804,117.90283
"1297",77.435265,117.916016
"1298",77.3254,117.9292
"1299",77.20088,117.94238
"1300",77.07393,117.95557
"1301",76.95186,117.96875
"1302",76.84444,117.98193
"1303",76.771194,117.99512
"1304",76.77852,118.0083
"1305",76.9543,118.021484
"1306",77.401085,118.03467
"1307",78.19211,118.04785
"1308",79.30785,118.061035
"1309",80.65308,118.07422
"1310",82.05203,118.0874
"1311",83.30694,118.100586
"1312",84.25422,118.11377
"1313",84.81331,118.12695
"1314",84.996414,118.14014
"1315",84.859695,118.15332
"1316",84.508125,118.166504
"1317",84.05646,118.17969
"1318",83.60723,118.19287
"1319",83.23369,118.206055
"1320",82.96025,118.21924
"1321",82.76494,118.23242
"1322",82.60624,118.245605
"1323",82.442665,118.25879
"1324",82.252235,118.27197
"1325",82.04471,118.28516
"1326",81.849396,118.29834
"1327",81.69314,118.31152
"1328",81.57595,118.32471
"1329",81.48562,118.33789
"1330",81.39529,118.351074
"1331",81.28054,118.36426
"1332",81.1194,118.37744
"1333",80.902115,118.390625
"1334",80.62867,118.40381
"1335",80.308846,118.41699
"1336",79.95239,118.430176
"1337",79.57885,118.44336
"1338",79.21507,118.45654
"1339",78.87572,118.46973
"1340",78.57053,118.48291
"1341",78.311745,118.49609
"1342",78.099335,118.50928
"1343",77.93088,118.52246
"1344",77.79904,118.535645
"1345",77.696495,118.54883
"1346",77.61593,118.56201
"1347",77.55245,118.575195
"1348",77.49386,118.58838
"1349",77.44015,118.60156
"1350",77.383995,118.614746
"1351",77.32296,118.62793
"1352",77.25704,118.64111
"1353",77.188675,118.6543
"1354",77.120316,118.66748
"1355",77.05684,118.680664
"1356",76.99336,118.69385
"1357",76.93233,118.70703
"1358",76.86641,118.720215
"1359",76.79561,118.7334
"1360",76.717476,118.74658
"1361",76.63447,118.759766
"1362",76.54658,118.77295
"1363",76.46357,118.78613
"1364",76.387886,118.79932
"1365",76.33662,118.8125
"1366",76.32441,118.82568
"1367",76.40742,118.83887
"1368",76.68574,118.85205
"1369",77.264366,118.865234
"1370",78.204315,118.87842
"1371",79.49096,118.8916
"1372",81.01198,118.904785
"1373",82.56962,118.91797
"1374",83.949036,118.93115
"1375",84.98421,118.944336
"1376",85.59945,118.95752
"1377",85.79477,118.9707
"1378",85.65072,118.98389
"1379",85.279625,118.99707
"1380",84.805984,119.010254
"1381",84.34455,119.02344
"1382",83.97833,119.03662
"1383",83.7293,119.049805
"1384",83.57305,119.06299
"1385",83.45342,119.07617
"1386",83.32403,119.089355
"1387",83.15556,119.10254
"1388",82.94072,119.11572
"1389",82.71122,119.12891
"1390",82.493935,119.14209
"1391",82.303505,119.15527
"1392",82.13992,119.16846
"1393",81.97879,119.18164
"1394",81.80057,119.194824
"1395",81.5906,119.20801
"1396",81.339134,119.22119
"1397",81.041275,119.234375
"1398",80.70191,119.24756
"1399",80.3357,119.26074
"1400",79.94995,119.273926
"1401",79.55932,119.28711
"1402",79.19066,119.30029
"1403",78.856186,119.31348
"1404",78.56565,119.32666
"1405",78.31907,119.33984
"1406",78.12131,119.35303
"1407",77.962616,119.36621
"1408",77.83566,119.379395
"1409",77.733116,119.39258
"1410",77.64767,119.40576
"1411",77.574425,119.418945
"1412",77.506065,119.43213
"1413",77.44015,119.44531
"1414",77.36935,119.458496
"1415",77.296104,119.47168
"1416",77.21553,119.48486
"1417",77.12764,119.49805
"1418",77.04219,119.51123
"1419",76.961624,119.524414
"1420",76.88594,119.5376
"1421",76.81758,119.55078
"1422",76.75166,119.563965
"1423",76.69062,119.57715
"1424",76.629585,119.59033
"1425",76.575874,119.603516
"1426",76.51728,119.6167
"1427",76.45869,119.62988
"1428",76.39765,119.64307
"1429",76.33906,119.65625
"1430",76.28779,119.66943
"1431",76.25849,119.68262
"1432",76.280464,119.6958
"1433",76.419624,119.708984
"1434",76.7834,119.72217
"1435",77.469444,119.73535
"1436",78.52415,119.748535
"1437",79.8938,119.76172
"1438",81.43923,119.7749
"1439",82.96025,119.788086
"1440",84.2591,119.80127
"1441",85.17952,119.81445
"1442",85.677574,119.82764
"1443",85.7728,119.84082
"1444",85.555504,119.854004
"1445",85.135574,119.86719
"1446",84.63508,119.88037
"1447",84.16144,119.893555
"1448",83.78058,119.90674
"1449",83.50225,119.91992
"1450",83.30694,119.933105
"1451",83.13603,119.94629
"1452",82.96269,119.95947
"1453",82.77226,119.97266
"1454",82.579384,119.98584
"1455",82.406044,119.99902
"1456",82.27665,120.01221
"1457",82.18631,120.02539
"1458",82.11307,120.038574
"1459",82.02518,120.05176
"1460",81.89578,120.06494
"1461",81.71267,120.078125
"1462",81.47341,120.09131
"1463",81.17555,120.10449
"1464",80.82643,120.117676
"1465",80.43824,120.13086
"1466",80.03296,120.14404
"1467",79.622795,120.15723
"1468",79.24193,120.17041
"1469",78.905014,120.18359
"1470",78.6218,120.19678
"1471",78.39231,120.20996
"1472",78.221405,120.223145
"1473",78.09445,120.23633
"1474",78.00168,120.24951
"1475",77.93576,120.262695
"1476",77.88449,120.27588
"1477",77.840546,120.28906
"1478",77.79904,120.302246
"1479",77.752655,120.31543
"1480",77.69894,120.32861
"1481",77.63302,120.3418
"1482",77.55001,120.35498
"1483",77.452354,120.368164
"1484",77.332726,120.38135
"1485",77.20332,120.39453
"1486",77.05928,120.407715
"1487",76.92012,120.4209
"1488",76.790726,120.43408
"1489",76.68574,120.447266
"1490",76.627144,120.46045
"1491",76.67109,120.47363
"1492",76.910355,120.48682
"1493",77.43282,120.5
"1494",78.29954,120.51318
"1495",79.49096,120.52637
"1496",80.88991,120.53955
"1497",82.320595,120.552734
"1498",83.580376,120.56592
"1499",84.51545,120.5791
"1500",85.050125,120.592285
"1501",85.186844,120.60547
"1502",85.0013,120.61865
"1503",84.596016,120.631836
"1504",84.09308,120.64502
"1505",83.597466,120.6582
"1506",83.177536,120.67139
"1507",82.847946,120.68457
"1508",82.581825,120.697754
"1509",82.34257,120.71094
"1510",82.108185,120.72412
"1511",81.87625,120.737305
"1512",81.66628,120.75049
"1513",81.50027,120.76367
"1514",81.39773,120.776855
"1515",81.339134,120.79004
"1516",81.30007,120.80322
"1517",81.24391,120.81641
"1518",81.1487,120.82959
"1519",80.990005,120.84277
"1520",80.762955,120.85596
"1521",80.46754,120.86914
"1522",80.11841,120.882324
"1523",79.73266,120.89551
"1524",79.33959,120.90869
"1525",78.958725,120.921875
"1526",78.61204,120.93506
"1527",78.30442,120.94824
"1528",78.05051,120.961426
"1529",77.84543,120.97461
"1530",77.69161,120.98779
"1531",77.57931,121.00098
"1532",77.503624,121.01416
"1533",77.454796,121.02734
"1534",77.42306,121.04053
"1535",77.39864,121.05371
"1536",77.38155,121.066895
"1537",77.36446,121.08008
"1538",77.34249,121.09326
"1539",77.31075,121.106445
"1540",77.26681,121.11963
"1541",77.19844,121.13281
"1542",77.11055,121.145996
"1543",77.00801,121.15918
"1544",76.89815,121.17236
"1545",76.78096,121.18555
"1546",76.67597,121.19873
"1547",76.5832,121.211914
"1548",76.52949,121.2251
"1549",76.55634,121.23828
"1550",76.756546,121.251465
"1551",77.239944,121.26465
"1552",78.08469,121.27783
"1553",79.30053,121.291016
"1554",80.78981,121.3042
"1555",82.371864,121.31738
"1556",83.81964,121.33057
"1557",84.95003,121.34375
"1558",85.65804,121.35693
"1559",85.93637,121.37012
"1560",85.8436,121.3833
"1561",85.49691,121.396484
"1562",85.015945,121.40967
"1563",84.52033,121.42285
"1564",84.09064,121.436035
"1565",83.77081,121.44922
"1566",83.54131,121.4624
"1567",83.35577,121.475586
"1568",83.17265,121.48877
"1569",82.96513,121.50195
"1570",82.72831,121.51514
"1571",82.48661,121.52832
"1572",82.269325,121.541504
"1573",82.091095,121.55469
"1574",81.93973,121.56787
"1575",81.79813,121.581055
"1576",81.63943,121.59424
"1577",81.44167,121.60742
"1578",81.19264,121.620605
"1579",80.88991,121.63379
"1580",80.5359,121.64697
"1581",80.147705,121.66016
"1582",79.74975,121.67334
"1583",79.35424,121.68652
"1584",78.98314,121.69971
"1585",78.6511,121.71289
"1586",78.37034,121.726074
"1587",78.14084,121.73926
"1588",77.960175,121.75244
"1589",77.81857,121.765625
"1590",77.7087,121.77881
"1591",77.62081,121.79199
"1592",77.55245,121.805176
"1593",77.488976,121.81836
"1594",77.43038,121.83154
"1595",77.37179,121.84473
"1596",77.31075,121.85791
"1597",77.239944,121.87109
"1598",77.16914,121.88428
"1599",77.100784,121.89746
"1600",77.032425,121.910645
"1601",76.96895,121.92383
"1602",76.912796,121.93701
"1603",76.859085,121.950195
"1604",76.807816,121.96338
"1605",76.75899,121.97656
"1606",76.70527,121.989746
"1607",76.646675,122.00293
"1608",76.5832,122.01611
"1609",76.51484,122.0293
"1610",76.453804,122.04248
"1611",76.40742,122.055664
"1612",76.385445,122.06885
"1613",76.419624,122.08203
"1614",76.575874,122.095215
"1615",76.95918,122.1084
"1616",77.679405,122.12158
"1617",78.78783,122.134766
"1618",80.24292,122.14795
"1619",81.90311,122.16113
"1620",83.55108,122.17432
"1621",84.95979,122.1875
"1622",85.96567,122.20068
"1623",86.50767,122.21387
"1624",86.61265,122.22705
"1625",86.37827,122.240234
"1626",85.92905,122.25342
"1627",85.40414,122.2666
"1628",84.91829,122.279785
"1629",84.542305,122.29297
"1630",84.29084,122.30615
"1631",84.122375,122.319336
"1632",83.97345,122.33252
"1633",83.792786,122.3457
"1634",83.560844,122.35889
"1635",83.28985,122.37207
"1636",83.01396,122.385254
"1637",82.76738,122.39844
"1638",82.55741,122.41162
"1639",82.374306,122.424805
"1640",82.18875,122.43799
"1641",81.98123,122.45117
"1642",81.739525,122.464355
"1643",81.45144,122.47754
"1644",81.1194,122.49072
"1645",80.74586,122.50391
"1646",80.34791,122.51709
"1647",79.937744,122.53027
"1648",79.534904,122.54346
"1649",79.15892,122.55664
"1650",78.82201,122.569824
"1651",78.52903,122.58301
"1652",78.28489,122.59619
"1653",78.08957,122.609375
"1654",77.93576,122.62256
"1655",77.823456,122.63574
"1656",77.738,122.648926
"1657",77.662315,122.66211
"1658",77.5964,122.67529
"1659",77.53292,122.68848
"1660",77.467,122.70166
"1661",77.39864,122.71484
"1662",77.332726,122.72803
"1663",77.27169,122.74121
"1664",77.205765,122.754395
"1665",77.13985,122.76758
"1666",77.069046,122.78076
"1667",76.98848,122.793945
"1668",76.90059,122.80713
"1669",76.80293,122.82031
"1670",76.697945,122.833496
"1671",76.595406,122.84668
"1672",76.490425,122.85986
"1673",76.39277,122.87305
"1674",76.314644,122.88623
"1675",76.27558,122.899414
"1676",76.314644,122.9126
"1677",76.524605,122.92578
"1678",77.02022,122.938965
"1679",77.874725,122.95215
"1680",79.09544,122.96533
"1681",80.59693,122.978516
"1682",82.20584,122.9917
"1683",83.70489,123.00488
"1684",84.89143,123.01807
"1685",85.65804,123.03125
"1686",85.977875,123.04443
"1687",85.909515,123.05762
"1688",85.557945,123.0708
"1689",85.05745,123.083984
"1690",84.525215,123.09717
"1691",84.04913,123.11035
"1692",83.66827,123.123535
"1693",83.36553,123.13672
"1694",83.10185,123.1499
"1695",82.84306,123.163086
"1696",82.58427,123.17627
"1697",82.337685,123.18945
"1698",82.13016,123.20264
"1699",81.98123,123.21582
"1700",81.89578,123.229004
"1701",81.846954,123.24219
"1702",81.7908,123.25537
"1703",81.70046,123.268555
"1704",81.54665,123.28174
"1705",81.3196,123.29492
"1706",81.01686,123.308105
"1707",80.64576,123.32129
"1708",80.22339,123.33447
"1709",79.783936,123.34766
"1710",79.34936,123.36084
"1711",78.94652,123.37402
"1712",78.58762,123.38721
"1713",78.29221,123.40039
"1714",78.06271,123.413574
"1715",77.8967,123.42676
"1716",77.786835,123.43994
"1717",77.72335,123.453125
"1718",77.69405,123.46631
"1719",77.679405,123.47949
"1720",77.662315,123.492676
"1721",77.63546,123.50586
"1722",77.58907,123.51904
"1723",77.51583,123.53223
"1724",77.42306,123.54541
"1725",77.30587,123.55859
"1726",77.171585,123.57178
"1727",77.02998,123.58496
"1728",76.893265,123.598145
"1729",76.773636,123.61133
"1730",76.6955,123.62451
"1731",76.71015,123.637695
"1732",76.90059,123.65088
"1733",77.36446,123.66406
"1734",78.17258,123.677246
"1735",79.32006,123.69043
"1736",80.71656,123.70361
"1737",82.18631,123.7168
"1738",83.52422,123.72998
"1739",84.55451,123.743164
"1740",85.18196,123.75635
"1741",85.399254,123.76953
"1742",85.26742,123.782715
"1743",84.88899,123.7959
"1744",84.39338,123.80908
"1745",83.88556,123.822266
"1746",83.438774,123.83545
"1747",83.075,123.84863
"1748",82.76982,123.86182
"1749",82.48173,123.875
"1750",82.19119,123.88818
"1751",81.90311,123.90137
"1752",81.64187,123.91455
"1753",81.43679,123.927734
"1754",81.304955,123.94092
"1755",81.234146,123.9541
"1756",81.18288,123.967285
"1757",81.11696,123.98047
"1758",81.004654,123.99365
"1759",80.82155,124.006836
"1760",80.56275,124.02002
"1761",80.235596,124.0332
"1762",79.84985,124.04639
"1763",79.429924,124.05957
"1764",79.00511,124.072754
"1765",78.59983,124.08594
"1766",78.23117,124.09912
"1767",77.91379,124.112305
"1768",77.662315,124.12549
"1769",77.469444,124.13867
"1770",77.332726,124.151855
"1771",77.24971,124.16504
"1772",77.20332,124.17822
"1773",77.17891,124.19141
"1774",77.16914,124.20459
"1775",77.16426,124.21777
"1776",77.152054,124.23096
"1777",77.1252,124.24414
"1778",77.07637,124.257324
"1779",77.00313,124.27051
"1780",76.90059,124.28369
"1781",76.773636,124.296875
"1782",76.63447,124.31006
"1783",76.50019,124.32324
"1784",76.383,124.336426
"1785",76.297554,124.34961
"1786",76.30244,124.36279
"1787",76.47822,124.37598
"1788",76.94209,124.38916
"1789",77.78195,124.40234
"1790",79.01488,124.41553
"1791",80.54566,124.42871
"1792",82.19852,124.441895
"1793",83.734184,124.45508
"1794",84.95003,124.46826
"1795",85.72884,124.481445
"1796",86.05356,124.49463
"1797",85.98276,124.50781
"1798",85.63851,124.520996
"1799",85.152664,124.53418
"1800",84.65217,124.54736
"1801",84.227356,124.56055
"1802",83.90509,124.57373
"1803",83.66338,124.586914
"1804",83.4461,124.6001
"1805",83.20439,124.61328
"1806",82.90898,124.626465
"1807",82.579384,124.63965
"1808",82.252235,124.65283
"1809",81.96414,124.666016
"1810",81.73464,124.6792
"1811",81.549095,124.69238
"1812",81.38308,124.70557
"1813",81.19997,124.71875
"1814",80.98512,124.73193
"1815",80.72144,124.74512
"1816",80.40894,124.7583
"1817",80.04761,124.771484
"1818",79.65453,124.78467
"1819",79.24193,124.79785
"1820",78.83421,124.811035
"1821",78.45335,124.82422
"1822",78.11154,124.8374
"1823",77.81857,124.850586
"1824",77.576866,124.86377
"1825",77.38644,124.87695
"1826",77.2375,124.89014
"1827",77.13008,124.90332
"1828",77.051956,124.916504
"1829",76.995804,124.92969
"1830",76.94942,124.94287
"1831",76.90303,124.956055
"1832",76.85176,124.96924
"1833",76.79561,124.98242
"1834",76.732124,124.995605
"1835",76.66621,125.00879
"1836",76.60761,125.02197
"1837",76.55146,125.03516
"1838",76.50263,125.04834
"1839",76.45136,125.06152
"1840",76.402534,125.07471
"1841",76.34638,125.08789
"1842",76.28535,125.101074
"1843",76.21454,125.11426
"1844",76.14374,125.12744
"1845",76.07294,125.140625
"1846",76.0119,125.15381
"1847",75.9704,125.16699
"1848",75.96796,125.180176
"1849",76.053406,125.19336
"1850",76.334175,125.20654
"1851",76.93233,125.21973
"1852",77.94064,125.23291
"1853",79.36889,125.24609
"1854",81.11696,125.25928
"1855",82.967575,125.27246
"1856",84.6717,125.285645
"1857",86.012054,125.29883
"1858",86.86412,125.31201
"1859",87.2108,125.325195
"1860",87.12291,125.33838
"1861",86.7396,125.35156
"1862",86.20981,125.364746
"1863",85.67025,125.37793
"1864",85.22591,125.39111
"1865",84.910965,125.4043
"1866",84.70344,125.41748
"1867",84.53498,125.430664
"1868",84.33723,125.44385
"1869",84.07355,125.45703
"1870",83.74639,125.470215
"1871",83.38262,125.4834
"1872",83.02617,125.49658
"1873",82.70634,125.509766
"1874",82.43046,125.52295
"1875",82.178986,125.53613
"1876",81.92508,125.54932
"1877",81.651634,125.5625
"1878",81.341576,125.57568
"1879",80.98512,125.58887
"1880",80.58961,125.60205
"1881",80.164795,125.615234
"1882",79.725334,125.62842
"1883",79.28832,125.6416
"1884",78.870834,125.654785
"1885",78.485085,125.66797
"1886",78.14816,125.68115
"1887",77.86496,125.694336
"1888",77.64034,125.70752
"1889",77.46212,125.7207
"1890",77.32296,125.73389
"1891",77.21553,125.74707
"1892",77.12276,125.760254
"1893",77.04219,125.77344
"1894",76.96651,125.78662
"1895",76.89082,125.799805
"1896",76.81514,125.81299
"1897",76.732124,125.82617
"1898",76.64912,125.839355
"1899",76.56367,125.85254
"1900",76.4831,125.86572
"1901",76.40986,125.87891
"1902",76.34882,125.89209
"1903",76.299995,125.90527
"1904",76.25605,125.91846
"1905",76.2121,125.93164
"1906",76.16571,125.944824
"1907",76.112,125.95801
"1908",76.050964,125.97119
"1909",75.98993,125.984375
"1910",75.931335,125.99756
"1911",75.880066,126.01074
"1912",75.84833,126.023926
"1913",75.84589,126.03711
"1914",75.911804,126.05029
"1915",76.13397,126.06348
"1916",76.63691,126.07666
"1917",77.53048,126.08984
"1918",78.84886,126.10303
"1919",80.52125,126.11621
"1920",82.36942,126.129395
"1921",84.14679,126.14258
"1922",85.61166,126.15576
"1923",86.61753,126.168945
"1924",87.10826,126.18213
"1925",87.13512,126.19531
"1926",86.81041,126.208496
"1927",86.275734,126.22168
"1928",85.680016,126.23486
"1929",85.14046,126.24805
"1930",84.72297,126.26123
"1931",84.422676,126.274414
"1932",84.19318,126.2876
"1933",83.97345,126.30078
"1934",83.72442,126.313965
"1935",83.43389,126.32715
"1936",83.12627,126.34033
"1937",82.84062,126.353516
"1938",82.60136,126.3667
"1939",82.406044,126.37988
"1940",82.23514,126.39307
"1941",82.056915,126.40625
"1942",81.846954,126.41943
"1943",81.583275,126.43262
"1944",81.26101,126.4458
"1945",80.8777,126.458984
"1946",80.445564,126.47217
"1947",79.97925,126.48535
"1948",79.50561,126.498535
"1949",79.05394,126.51172
"1950",78.63645,126.5249
"1951",78.2678,126.538086
"1952",77.95773,126.55127
"1953",77.71114,126.56445
"1954",77.52071,126.57764
"1955",77.37911,126.59082
"1956",77.281456,126.604004
"1957",77.21553,126.61719
"1958",77.16426,126.63037
"1959",77.12764,126.643555
"1960",77.08858,126.65674
"1961",77.049515,126.66992
"1962",76.998245,126.683105
"1963",76.944534,126.69629
"1964",76.8835,126.70947
"1965",76.81758,126.72266
"1966",76.749214,126.73584
"1967",76.67597,126.74902
"1968",76.595406,126.76221
"1969",76.49531,126.77539
"1970",76.383,126.788574
"1971",76.265816,126.80176
"1972",76.14618,126.81494
"1973",76.03876,126.828125
"1974",75.95087,126.84131
"1975",75.90692,126.85449
"1976",75.95331,126.867676
"1977",76.1828,126.88086
"1978",76.72724,126.89404
"1979",77.67696,126.90723
"1980",79.04173,126.92041
"1981",80.723885,126.93359
"1982",82.533,126.94678
"1983",84.22247,126.95996
"1984",85.57259,126.973145
"1985",86.451515,126.98633
"1986",86.8275,126.99951
"1987",86.76158,127.012695
"1988",86.35874,127.02588
"1989",85.770355,127.03906
"1990",85.13069,127.052246
"1991",84.54475,127.06543
"1992",84.051575,127.07861
"1993",83.648735,127.0918
"1994",83.299614,127.10498
"1995",82.96513,127.118164
"1996",82.64042,127.13135
"1997",82.34501,127.14453
"1998",82.11063,127.157715
"1999",81.951935,127.1709
"2000",81.864044,127.18408
"2001",81.815216,127.197266
"2002",81.761505,127.21045
"2003",81.66384,127.22363
"2004",81.50027,127.23682
"2005",81.25857,127.25
"2006",80.93385,127.26318
"2007",80.53101,127.27637
"2008",80.06958,127.28955
"2009",79.58129,127.302734
"2010",79.09056,127.31592
"2011",78.626686,127.3291
"2012",78.21652,127.342285
"2013",77.86984,127.35547
"2014",77.5964,127.36865
"2015",77.39376,127.381836
"2016",77.264366,127.39502
"2017",77.188675,127.4082
"2018",77.15694,127.42139
"2019",77.15694,127.43457
"2020",77.1667,127.447754
"2021",77.1667,127.46094
"2022",77.14717,127.47412
"2023",77.10567,127.487305
"2024",77.032425,127.50049
"2025",76.93233,127.51367
"2026",76.807816,127.526855
"2027",76.66621,127.54004
"2028",76.51484,127.55322
"2029",76.3708,127.56641
"2030",76.24628,127.57959
"2031",76.18036,127.59277
"2032",76.243835,127.60596
"2033",76.5539,127.61914
"2034",77.22774,127.632324
"2035",78.314186,127.64551
"2036",79.781494,127.65869
"2037",81.480736,127.671875
"2038",83.194626,127.68506
"2039",84.681465,127.69824
"2040",85.76303,127.711426
"2041",86.36118,127.72461
"2042",86.48814,127.73779
"2043",86.236664,127.75098
"2044",85.74105,127.76416
"2045",85.135574,127.77734
"2046",84.542305,127.79053
"2047",84.034485,127.80371
"2048",83.61944,127.816895
"2049",83.25811,127.83008
"2050",82.92363,127.84326
"2051",82.58427,127.856445
"2052",82.25468,127.86963
"2053",81.95682,127.88281
"2054",81.72488,127.895996
"2055",81.566185,127.90918
"2056",81.46853,127.92236
"2057",81.38796,127.93555
"2058",81.290306,127.94873
"2059",81.146255,127.961914
"2060",80.92897,127.9751
"2061",80.635994,127.98828
"2062",80.272224,128.00146
"2063",79.84253,128.01465
"2064",79.37133,128.02783
"2065",78.890366,128.04102
"2066",78.42649,128.0542
"2067",78.00412,128.06738
"2068",77.645226,128.08057
"2069",77.35226,128.09375
"2070",77.1252,128.10693
"2071",76.95186,128.12012
"2072",76.83223,128.1333
"2073",76.756546,128.14648
"2074",76.71259,128.15967
"2075",76.68818,128.17285
"2076",76.67353,128.18604
"2077",76.663765,128.19922
"2078",76.65156,128.2124
"2079",76.63691,128.22559
"2080",76.610054,128.23877
"2081",76.56855,128.25195
"2082",76.50507,128.26514
"2083",76.4123,128.27832
"2084",76.29267,128.2915
"2085",76.155945,128.30469
"2086",76.0119,128.31787
"2087",75.87518,128.33105
"2088",75.76532,128.34424
"2089",75.7116,128.35742
"2090",75.78241,128.3706
"2091",76.09735,128.38379
"2092",76.790726,128.39697
"2093",77.95041,128.41016
"2094",79.55688,128.42334
"2095",81.47097,128.43652
"2096",83.44854,128.4497
"2097",85.21614,128.46289
"2098",86.54429,128.47607
"2099",87.327995,128.48926
"2100",87.57458,128.50244
"2101",87.37682,128.51562
"2102",86.87633,128.52881
"2103",86.23178,128.54199
"2104",85.58724,128.55518
"2105",85.04524,128.56836
"2106",84.630196,128.58154
"2107",84.317696,128.59473
"2108",84.04913,128.60791
"2109",83.76837,128.6211
"2110",83.45342,128.63428
"2111",83.11162,128.64746
"2112",82.78447,128.66064
"2113",82.493935,128.67383
"2114",82.252235,128.68701
"2115",82.04227,128.7002
"2116",81.83963,128.71338
"2117",81.61501,128.72656
"2118",81.35378,128.73975
"2119",81.03639,128.75293
"2120",80.66285,128.76611
"2121",80.235596,128.7793
"2122",79.764404,128.79248
"2123",79.27123,128.80566
"2124",78.785385,128.81885
"2125",78.331276,128.83203
"2126",77.925995,128.84521
"2127",77.58175,128.8584
"2128",77.30343,128.87158
"2129",77.083694,128.88477
"2130",76.91524,128.89795
"2131",76.790726,128.91113
"2132",76.697945,128.92432
"2133",76.627144,128.9375
"2134",76.57343,128.95068
"2135",76.52949,128.96387
"2136",76.49287,128.97705
"2137",76.44892,128.99023
"2138",76.40009,129.00342
"2139",76.33906,129.0166
"2140",76.26826,129.02979
"2141",76.18768,129.04297
"2142",76.102234,129.05615
"2143",76.02655,129.06934
"2144",75.96063,129.08252
"2145",75.90692,129.0957
"2146",75.85809,129.10889
"2147",75.81903,129.12207
"2148",75.78729,129.13525
"2149",75.757996,129.14844
"2150",75.72137,129.16162
"2151",75.67986,129.1748
"2152",75.631035,129.18799
"2153",75.58465,129.20117
"2154",75.54803,129.21436
"2155",75.54803,129.22754
"2156",75.6408,129.24072
"2157",75.945984,129.2539
"2158",76.61494,129.26709
"2159",77.75998,129.28027
"2160",79.40063,129.29346
"2161",81.427025,129.30664
"2162",83.60479,129.31982
"2163",85.643394,129.33301
"2164",87.276726,129.34619
"2165",88.35096,129.35938
"2166",88.834366,129.37256
"2167",88.7953,129.38574
"2168",88.36561,129.39893
"2169",87.71374,129.41211
"2170",87.00084,129.4253
"2171",86.35386,129.43848
"2172",85.84848,129.45166
"2173",85.487144,129.46484
"2174",85.21858,129.47803
"2175",84.97444,129.49121
"2176",84.698555,129.5044
"2177",84.37629,129.51758
"2178",84.017395,129.53076
"2179",83.6585,129.54395
"2180",83.33379,129.55713
"2181",83.0457,129.57031
"2182",82.78203,129.5835
"2183",82.51591,129.59668
"2184",82.22293,129.60986
"2185",81.883575,129.62305
"2186",81.4905,129.63623
"2187",81.041275,129.64941
"2188",80.5481,129.6626
"2189",80.0354,129.67578
"2190",79.52514,129.68896
"2191",79.029526,129.70215
"2192",78.56809,129.71533
"2193",78.15793,129.72852
"2194",77.80148,129.7417
"2195",77.503624,129.75488
"2196",77.26681,129.76807
"2197",77.083694,129.78125
"2198",76.946976,129.79443
"2199",76.841995,129.80762
"2200",76.76143,129.8208
"2201",76.69306,129.83398
"2202",76.629585,129.84717
"2203",76.558784,129.86035
"2204",76.48066,129.87354
"2205",76.39521,129.88672
"2206",76.30244,129.8999
"2207",76.207214,129.91309
"2208",76.104675,129.92627
"2209",76.00458,129.93945
"2210",75.90448,129.95264
"2211",75.809265,129.96582
"2212",75.72381,129.979
"2213",75.65301,129.99219
"2214",75.59441,130.00537
"2215",75.55535,130.01855
"2216",75.53094,130.03174
"2217",75.51629,130.04492
"2218",75.50652,130.0581
"2219",75.50164,130.07129
"2220",75.48943,130.08447
"2221",75.4699,130.09766
"2222",75.44793,130.11084
"2223",75.43084,130.12402
"2224",75.43328,130.1372
"2225",75.48699,130.15039
"2226",75.67986,130.16357
"2227",76.15106,130.17676
"2228",77.04219,130.18994
"2229",78.41428,130.20312
"2230",80.22339,130.21631
"2231",82.29862,130.22949
"2232",84.37141,130.24268
"2233",86.16586,130.25586
"2234",87.4696,130.26904
"2235",88.199585,130.28223
"2236",88.38026,130.29541
"2237",88.11658,130.3086
"2238",87.55016,130.32178
"2239",86.84459,130.33496
"2240",86.151215,130.34814
"2241",85.56771,130.36133
"2242",85.12825,130.37451
"2243",84.81087,130.3877
"2244",84.55451,130.40088
"2245",84.30549,130.41406
"2246",84.02716,130.42725
"2247",83.72198,130.44043
"2248",83.41924,130.45361
"2249",83.1458,130.4668
"2250",82.916306,130.47998
"2251",82.71122,130.49316
"2252",82.511024,130.50635
"2253",82.28153,130.51953
"2254",82.005646,130.53271
"2255",81.67605,130.5459
"2256",81.287865,130.55908
"2257",80.850845,130.57227
"2258",80.37476,130.58545
"2259",79.87427,130.59863
"2260",79.37621,130.61182
"2261",78.89769,130.625
"2262",78.46311,130.63818
"2263",78.082245,130.65137
"2264",77.769745,130.66455
"2265",77.51827,130.67773
"2266",77.32296,130.69092
"2267",77.17891,130.7041
"2268",77.07149,130.71729
"2269",76.98604,130.73047
"2270",76.92012,130.74365
"2271",76.859085,130.75684
"2272",76.79561,130.77002
"2273",76.72724,130.7832
"2274",76.654,130.79639
"2275",76.57099,130.80957
"2276",76.48066,130.82275
"2277",76.387886,130.83594
"2278",76.29267,130.84912
"2279",76.20233,130.8623
"2280",76.112,130.87549
"2281",76.02655,130.88867
"2282",75.95087,130.90186
"2283",75.88739,130.91504
"2284",75.83368,130.92822
"2285",75.80194,130.9414
"2286",75.78485,130.95459
"2287",75.775085,130.96777
"2288",75.76532,130.98096
"2289",75.755554,130.99414
"2290",75.736015,131.00732
"2291",75.7116,131.02051
"2292",75.68719,131.03369
"2293",75.68719,131.04688
"2294",75.73846,131.06006
"2295",75.92401,131.07324
"2296",76.37812,131.08643
"2297",77.23262,131.09961
"2298",78.54856,131.1128
"2299",80.27955,131.12598
"2300",82.25712,131.13916
"2301",84.23468,131.15234
"2302",85.93637,131.16553
"2303",87.166855,131.17871
"2304",87.850464,131.1919
"2305",88.0116,131.20508
"2306",87.73815,131.21826
"2307",87.17662,131.23145
"2308",86.47837,131.24463
"2309",85.78012,131.25781
"2310",85.17952,131.271
"2311",84.72541,131.28418
"2312",84.403145,131.29736
"2313",84.15411,131.31055
"2314",83.931946,131.32373
"2315",83.70733,131.33691
"2316",83.475395,131.3501
"2317",83.267876,131.36328
"2318",83.104294,131.37646
"2319",82.98711,131.38965
"2320",82.896774,131.40283
"2321",82.79668,131.41602
"2322",82.652626,131.4292
"2323",82.442665,131.44238
"2324",82.15701,131.45557
"2325",81.79324,131.46875
"2326",81.36599,131.48193
"2327",80.88991,131.49512
"2328",80.38697,131.5083
"2329",79.886475,131.52148
"2330",79.412834,131.53467
"2331",78.98314,131.54785
"2332",78.6096,131.56104
"2333",78.30198,131.57422
"2334",78.06271,131.5874
"2335",77.88205,131.60059
"2336",77.75021,131.61377
"2337",77.659874,131.62695
"2338",77.59884,131.64014
"2339",77.557335,131.65332
"2340",77.523155,131.6665
"2341",77.49142,131.67969
"2342",77.44991,131.69287
"2343",77.39132,131.70605
"2344",77.32296,131.71924
"2345",77.239944,131.73242
"2346",77.14717,131.7456
"2347",77.0544,131.75879
"2348",76.964066,131.77197
"2349",76.88106,131.78516
"2350",76.80049,131.79834
"2351",76.71992,131.81152
"2352",76.63691,131.8247
"2353",76.54658,131.83789
"2354",76.44892,131.85107
"2355",76.34638,131.86426
"2356",76.24628,131.87744
"2357",76.155945,131.89062
"2358",76.087585,131.90381
"2359",76.068054,131.91699
"2360",76.16571,131.93018
"2361",76.49531,131.94336
"2362",77.18623,131.95654
"2363",78.31907,131.96973
"2364",79.871826,131.98291
"2365",81.71267,131.9961
"2366",83.614555,132.00928
"2367",85.316246,132.02246
"2368",86.60532,132.03564
"2369",87.379265,132.04883
"2370",87.62829,132.06201
"2371",87.430534,132.0752
"2372",86.91051,132.08838
"2373",86.21225,132.10156
"2374",85.46761,132.11475
"2375",84.77913,132.12793
"2376",84.2005,132.14111
"2377",83.73174,132.1543
"2378",83.34844,132.16748
"2379",83.0164,132.18066
"2380",82.738075,132.19385
"2381",82.528114,132.20703
"2382",82.406044,132.22021
"2383",82.374306,132.2334
"2384",82.41825,132.24658
"2385",82.49149,132.25977
"2386",82.54276,132.27295
"2387",82.528114,132.28613
"2388",82.42069,132.29932
"2389",82.20584,132.3125
"2390",81.881134,132.32568
"2391",81.461205,132.33887
"2392",80.96559,132.35205
"2393",80.43336,132.36523
"2394",79.89624,132.37842
"2395",79.38842,132.3916
"2396",78.92943,132.40479
"2397",78.538795,132.41797
"2398",78.22873,132.43115
"2399",77.99924,132.44434
"2400",77.84787,132.45752
"2401",77.76486,132.4707
"2402",77.738,132.48389
"2403",77.74044,132.49707
"2404",77.75754,132.51025
"2405",77.77707,132.52344
"2406",77.77951,132.53662
"2407",77.75754,132.5498
"2408",77.71114,132.56299
"2409",77.628136,132.57617
"2410",77.51095,132.58936
"2411",77.36202,132.60254
"2412",77.19112,132.61572
"2413",77.01045,132.6289
"2414",76.839554,132.64209
"2415",76.69306,132.65527
"2416",76.60517,132.66846
"2417",76.64423,132.68164
"2418",76.92012,132.69482
"2419",77.55245,132.70801
"2420",78.6096,132.72119
"2421",80.059814,132.73438
"2422",81.77127,132.74756
"2423",83.5169,132.76074
"2424",85.04768,132.77393
"2425",86.17319,132.78711
"2426",86.800644,132.8003
"2427",86.942245,132.81348
"2428",86.68101,132.82666
"2429",86.14389,132.83984
"2430",85.46273,132.85303
"2431",84.76936,132.86621
"2432",84.14923,132.8794
"2433",83.6292,132.89258
"2434",83.194626,132.90576
"2435",82.82109,132.91895
"2436",82.493935,132.93213
"2437",82.213165,132.94531
"2438",81.99588,132.9585
"2439",81.86893,132.97168
"2440",81.82498,132.98486
"2441",81.83719,132.99805
"2442",81.85916,133.01123
"2443",81.84451,133.02441
"2444",81.761505,133.0376
"2445",81.583275,133.05078
"2446",81.307396,133.06396
"2447",80.93385,133.07715
"2448",80.48463,133.09033
"2449",79.98657,133.10352
"2450",79.47143,133.1167
"2451",78.97093,133.12988
"2452",78.51194,133.14307
"2453",78.116425,133.15625
"2454",77.7966,133.16943
"2455",77.55489,133.18262
"2456",77.39132,133.1958
"2457",77.28634,133.20898
"2458",77.22774,133.22217
"2459",77.196,133.23535
"2460",77.18135,133.24854
"2461",77.1667,133.26172
"2462",77.14473,133.2749
"2463",77.11299,133.28809
"2464",77.05928,133.30127
"2465",76.978714,133.31445
"2466",76.86885,133.32764
"2467",76.734566,133.34082
"2468",76.58076,133.354
"2469",76.419624,133.36719
"2470",76.263374,133.38037
"2471",76.13153,133.39355
"2472",76.05829,133.40674
"2473",76.13153,133.41992
"2474",76.473335,133.4331
"2475",77.21065,133.44629
"2476",78.39231,133.45947
"2477",79.95972,133.47266
"2478",81.74929,133.48584
"2479",83.5169,133.49902
"2480",85.00862,133.5122
"2481",86.048676,133.52539
"2482",86.57603,133.53857
"2483",86.62241,133.55176
"2484",86.29038,133.56494
"2485",85.72152,133.57812
"2486",85.06233,133.59131
"2487",84.44221,133.60449
"2488",83.929504,133.61768
"2489",83.53399,133.63086
"2490",83.226364,133.64404
"2491",82.950485,133.65723
"2492",82.669716,133.67041
"2493",82.38407,133.6836
"2494",82.11307,133.69678
"2495",81.88846,133.70996
"2496",81.722435,133.72314
"2497",81.60525,133.73633
"2498",81.50271,133.74951
"2499",81.37087,133.7627
"2500",81.18776,133.77588
"2501",80.938736,133.78906
"2502",80.621346,133.80225
"2503",80.24048,133.81543
"2504",79.81079,133.82861
"2505",79.35424,133.8418
"2506",78.89281,133.85498
"2507",78.450905,133.86816
"2508",78.05051,133.88135
"2509",77.70382,133.89453
"2510",77.420616,133.90771
"2511",77.196,133.9209
"2512",77.02266,133.93408
"2513",76.895706,133.94727
"2514",76.80049,133.96045
"2515",76.72968,133.97363
"2516",76.67353,133.98682
"2517",76.627144,134
"2518",76.5832,134.01318
"2519",76.53925,134.02637
"2520",76.49287,134.03955
"2521",76.439156,134.05273
"2522",76.37324,134.06592
"2523",76.299995,134.0791
"2524",76.21454,134.09229
"2525",76.11688,134.10547
"2526",76.00946,134.11865
"2527",75.894714,134.13184
"2528",75.77997,134.14502
"2529",75.66277,134.1582
"2530",75.55779,134.17139
"2531",75.47723,134.18457
"2532",75.457695,134.19775
"2533",75.57244,134.21094
"2534",75.948425,134.22412
"2535",76.70527,134.2373
"2536",77.90646,134.25049
"2537",79.51049,134.26367
"2538",81.35378,134.27686
"2539",83.19707,134.29004
"2540",84.77425,134.30322
"2541",85.89975,134.3164
"2542",86.49302,134.32959
"2543",86.588234,134.34277
"2544",86.295265,134.35596
"2545",85.76547,134.36914
"2546",85.15755,134.38232
"2547",84.59846,134.39551
"2548",84.1712,134.40869
"2549",83.88556,134.42188
"2550",83.69512,134.43506
"2551",83.53155,134.44824
"2552",83.34112,134.46143
"2553",83.09697,134.47461
"2554",82.81377,134.4878
"2555",82.52323,134.50098
"2556",82.25956,134.51416
"2557",82.03494,134.52734
"2558",81.83719,134.54053
"2559",81.64675,134.55371
"2560",81.43923,134.5669
"2561",81.19997,134.58008
"2562",80.91188,134.59326
"2563",80.57496,134.60645
"2564",80.19165,134.61963
"2565",79.76929,134.63281
"2566",79.33471,134.646
"2567",78.9099,134.65918
"2568",78.5095,134.67236
"2569",78.15793,134.68555
"2570",77.86496,134.69873
"2571",77.6379,134.71191
"2572",77.46456,134.7251
"2573",77.33517,134.73828
"2574",77.23506,134.75146
"2575",77.154495,134.76465
"2576",77.07637,134.77783
"2577",77.00313,134.79102
"2578",76.927444,134.8042
"2579",76.84932,134.81738
"2580",76.771194,134.83057
"2581",76.69306,134.84375
"2582",76.61738,134.85693
"2583",76.55146,134.87012
"2584",76.4831,134.8833
"2585",76.40986,134.89648
"2586",76.32929,134.90967
"2587",76.23895,134.92285
"2588",76.13153,134.93604
"2589",76.01434,134.94922
"2590",75.897156,134.9624
"2591",75.78729,134.97559
"2592",75.69695,134.98877
"2593",75.65301,135.00195
"2594",75.716484,135.01514
"2595",75.99237,135.02832
"2596",76.610054,135.0415
"2597",77.63546,135.05469
"2598",79.0515,135.06787
"2599",80.73365,135.08105
"2600",82.46464,135.09424
"2601",83.99054,135.10742
"2602",85.11604,135.1206
"2603",85.750824,135.13379
"2604",85.90463,135.14697
"2605",85.67513,135.16016
"2606",85.20149,135.17334
"2607",84.63996,135.18652
"2608",84.119934,135.1997
"2609",83.72442,135.21289
"2610",83.47051,135.22607
"2611",83.30694,135.23926
"2612",83.16777,135.25244
"2613",82.99687,135.26562
"2614",82.76982,135.27881
"2615",82.50126,135.29199
"2616",82.22781,135.30518
"2617",81.986115,135.31836
"2618",81.79324,135.33154
"2619",81.634544,135.34473
"2620",81.48562,135.35791
"2621",81.31716,135.3711
"2622",81.112076,135.38428
"2623",80.86061,135.39746
"2624",80.55787,135.41064
"2625",80.21118,135.42383
"2626",79.83032,135.43701
"2627",79.43481,135.4502
"2628",79.04906,135.46338
"2629",78.692604,135.47656
"2630",78.380104,135.48975
"2631",78.118866,135.50293
"2632",77.908905,135.51611
"2633",77.75021,135.5293
"2634",77.63058,135.54248
"2635",77.54757,135.55566
"2636",77.48409,135.56885
"2637",77.435265,135.58203
"2638",77.38644,135.59521
"2639",77.332726,135.6084
"2640",77.261925,135.62158
"2641",77.17891,135.63477
"2642",77.07881,135.64795
"2643",76.95918,135.66113
"2644",76.824905,135.67432
"2645",76.69062,135.6875
"2646",76.561226,135.70068
"2647",76.44892,135.71387
"2648",76.37324,135.72705
"2649",76.368355,135.74023
"2650",76.51728,135.75342
"2651",76.91524,135.7666
"2652",77.65011,135.77979
"2653",78.729225,135.79297
"2654",80.07202,135.80615
"2655",81.51003,135.81934
"2656",82.8333,135.83252
"2657",83.85626,135.8457
"2658",84.46906,135.85889
"2659",84.66926,135.87207
"2660",84.52277,135.88525
"2661",84.14679,135.89844
"2662",83.66827,135.91162
"2663",83.19951,135.9248
"2664",82.811325,135.93799
"2665",82.51591,135.95117
"2666",82.286415,135.96436
"2667",82.07889,135.97754
"2668",81.8616,135.99072
"2669",81.6321,136.0039
"2670",81.41238,136.01709
"2671",81.234146,136.03027
"2672",81.11696,136.04346
"2673",81.0486,136.05664
"2674",81.007095,136.06982
"2675",80.95094,136.08301
"2676",80.85329,136.09619
"2677",80.69459,136.10938
"2678",80.46998,136.12256
"2679",80.184326,136.13574
"2680",79.852295,136.14893
"2681",79.48852,136.16211
"2682",79.1223,136.1753
"2683",78.77074,136.18848
"2684",78.45823,136.20166
"2685",78.19455,136.21484
"2686",77.979706,136.22803
"2687",77.81613,136.24121
"2688",77.69405,136.2544
"2689",77.60128,136.26758
"2690",77.5378,136.28076
"2691",77.4963,136.29395
"2692",77.469444,136.30713
"2693",77.44991,136.32031
"2694",77.4255,136.3335
"2695",77.39376,136.34668
"2696",77.347374,136.35986
"2697",77.279015,136.37305
"2698",77.19356,136.38623
"2699",77.09102,136.39941
"2700",76.97627,136.4126
"2701",76.84688,136.42578
"2702",76.72236,136.43896
"2703",76.60517,136.45215
"2704",76.507515,136.46533
"2705",76.46113,136.47852
"2706",76.52216,136.4917
"2707",76.790726,136.50488
"2708",77.37423,136.51807
"2709",78.33372,136.53125
"2710",79.64233,136.54443
"2711",81.160904,136.55762
"2712",82.68192,136.5708
"2713",83.980774,136.58398
"2714",84.88411,136.59717
"2715",85.32845,136.61035
"2716",85.34554,136.62354
"2717",85.04036,136.63672
"2718",84.542305,136.6499
"2719",83.99298,136.66309
"2720",83.50225,136.67627
"2721",83.13115,136.68945
"2722",82.879684,136.70264
"2723",82.701454,136.71582
"2724",82.54276,136.729
"2725",82.3621,136.74219
"2726",82.161896,136.75537
"2727",81.96414,136.76855
"2728",81.80301,136.78174
"2729",81.6907,136.79492
"2730",81.62234,136.8081
"2731",81.566185,136.82129
"2732",81.49294,136.83447
"2733",81.373314,136.84766
"2734",81.197525,136.86084
"2735",80.95827,136.87402
"2736",80.65797,136.8872
"2737",80.31129,136.90039
"2738",79.9353,136.91357
"2739",79.551994,136.92676
"2740",79.18822,136.93994
"2741",78.86351,136.95312
"2742",78.58762,136.96631
"2743",78.3679,136.97949
"2744",78.19699,136.99268
"2745",78.07248,137.00586
"2746",77.979706,137.01904
"2747",77.908905,137.03223
"2748",77.85275,137.04541
"2749",77.806366,137.0586
"2750",77.76486,137.07178
"2751",77.72579,137.08496
"2752",77.68917,137.09814
"2753",77.65499,137.11133
"2754",77.611046,137.12451
"2755",77.55001,137.1377
"2756",77.47433,137.15088
"2757",77.37423,137.16406
"2758",77.2546,137.17725
"2759",77.117874,137.19043
"2760",76.978714,137.20361
"2761",76.839554,137.2168
"2762",76.71015,137.22998
"2763",76.59785,137.24316
"2764",76.52216,137.25635
"2765",76.53681,137.26953
"2766",76.734566,137.28271
"2767",77.23506,137.2959
"2768",78.116425,137.30908
"2769",79.37377,137.32227
"2770",80.89235,137.33545
"2771",82.47196,137.34863
"2772",83.878235,137.36182
"2773",84.92561,137.375
"2774",85.514,137.38818
"2775",85.6556,137.40137
"2776",85.43099,137.41455
"2777",84.95491,137.42773
"2778",84.368965,137.44092
"2779",83.792786,137.4541
"2780",83.30694,137.46729
"2781",82.94072,137.48047
"2782",82.669716,137.49365
"2783",82.44999,137.50684
"2784",82.247345,137.52002
"2785",82.05203,137.5332
"2786",81.88846,137.54639
"2787",81.78836,137.55957
"2788",81.76395,137.57275
"2789",81.795685,137.58594
"2790",81.84451,137.59912
"2791",81.864044,137.6123
"2792",81.812775,137.62549
"2793",81.671165,137.63867
"2794",81.43923,137.65186
"2795",81.12428,137.66504
"2796",80.743416,137.67822
"2797",80.323494,137.6914
"2798",79.888916,137.70459
"2799",79.466545,137.71777
"2800",79.078354,137.73096
"2801",78.74387,137.74414
"2802",78.47288,137.75732
"2803",78.27024,137.77051
"2804",78.133514,137.78369
"2805",78.05539,137.79688
"2806",78.01633,137.81006
"2807",78.00412,137.82324
"2808",77.996796,137.83643
"2809",77.98215,137.84961
"2810",77.945526,137.8628
"2811",77.88205,137.87598
"2812",77.789276,137.88916
"2813",77.66476,137.90234
"2814",77.51827,137.91553
"2815",77.36202,137.92871
"2816",77.20332,137.9419
"2817",77.0544,137.95508
"2818",76.93721,137.96826
"2819",76.910355,137.98145
"2820",77.06172,137.99463
"2821",77.50118,138.00781
"2822",78.30198,138.021
"2823",79.449455,138.03418
"2824",80.84108,138.04736
"2825",82.29374,138.06055
"2826",83.58282,138.07373
"2827",84.53254,138.08691
"2828",85.05989,138.1001
"2829",85.17464,138.11328
"2830",84.947586,138.12646
"2831",84.5008,138.13965
"2832",83.9588,138.15283
"2833",83.43389,138.16602
"2834",82.984665,138.1792
"2835",82.62821,138.19238
"2836",82.340126,138.20557
"2837",82.08377,138.21875
"2838",81.83963,138.23193
"2839",81.619896,138.24512
"2840",81.444115,138.2583
"2841",81.341576,138.27148
"2842",81.31472,138.28467
"2843",81.34402,138.29785
"2844",81.38064,138.31104
"2845",81.38308,138.32422
"2846",81.31228,138.3374
"2847",81.15358,138.35059
"2848",80.90456,138.36377
"2849",80.57252,138.37695
"2850",80.17456,138.39014
"2851",79.742424,138.40332
"2852",79.30541,138.4165
"2853",78.88548,138.42969
"2854",78.51438,138.44287
"2855",78.19943,138.45605
"2856",77.94797,138.46924
"2857",77.75754,138.48242
"2858",77.625694,138.4956
"2859",77.54269,138.50879
"2860",77.50118,138.52197
"2861",77.48165,138.53516
"2862",77.469444,138.54834
"2863",77.452354,138.56152
"2864",77.420616,138.5747
"2865",77.36446,138.58789
"2866",77.281456,138.60107
"2867",77.16426,138.61426
"2868",77.0251,138.62744
"2869",76.86885,138.64062
"2870",76.71259,138.65381
"2871",76.575874,138.66699
"2872",76.50507,138.68018
"2873",76.5832,138.69336
"2874",76.93477,138.70654
"2875",77.65499,138.71973
"2876",78.77318,138.73291
"2877",80.216064,138.7461
"2878",81.81033,138.75928
"2879",83.32891,138.77246
"2880",84.55451,138.78564
"2881",85.347984,138.79883
"2882",85.68978,138.81201
"2883",85.62386,138.8252
"2884",85.25765,138.83838
"2885",84.72541,138.85156
"2886",84.156555,138.86475
"2887",83.65362,138.87793
"2888",83.265434,138.89111
"2889",82.98222,138.9043
"2890",82.760056,138.91748
"2891",82.55009,138.93066
"2892",82.32792,138.94385
"2893",82.1033,138.95703
"2894",81.90555,138.97021
"2895",81.75174,138.9834
"2896",81.654076,138.99658
"2897",81.5906,139.00977
"2898",81.52468,139.02295
"2899",81.42458,139.03613
"2900",81.26589,139.04932
"2901",81.03883,139.0625
"2902",80.73609,139.07568
"2903",80.36256,139.08887
"2904",79.94507,139.10205
"2905",79.50317,139.11523
"2906",79.063705,139.12842
"2907",78.6511,139.1416
"2908",78.28245,139.15479
"2909",77.96994,139.16797
"2910",77.713585,139.18115
"2911",77.51339,139.19434
"2912",77.36446,139.20752
"2913",77.25216,139.2207
"2914",77.1667,139.23389
"2915",77.103226,139.24707
"2916",77.051956,139.26025
"2917",77.00557,139.27344
"2918",76.961624,139.28662
"2919",76.91524,139.2998
"2920",76.859085,139.31299
"2921",76.78584,139.32617
"2922",76.697945,139.33936
"2923",76.592964,139.35254
"2924",76.470894,139.36572
"2925",76.32929,139.3789
"2926",76.17792,139.39209
"2927",76.02899,139.40527
"2928",75.894714,139.41846
"2929",75.78729,139.43164
"2930",75.73846,139.44482
"2931",75.81903,139.45801
"2932",76.14862,139.47119
"2933",76.859085,139.48438
"2934",78.011444,139.49756
"2935",79.56176,139.51074
"2936",81.35134,139.52393
"2937",83.123825,139.53711
"2938",84.61799,139.5503
"2939",85.65072,139.56348
"2940",86.16098,139.57666
"2941",86.19516,139.58984
"2942",85.86557,139.60303
"2943",85.316246,139.61621
"2944",84.69367,139.6294
"2945",84.122375,139.64258
"2946",83.67803,139.65576
"2947",83.37774,139.66895
"2948",83.177536,139.68213
"2949",83.01396,139.69531
"2950",82.83818,139.7085
"2951",82.62577,139.72168
"2952",82.391396,139.73486
"2953",82.15701,139.74805
"2954",81.94949,139.76123
"2955",81.778595,139.77441
"2956",81.6321,139.7876
"2957",81.480736,139.80078
"2958",81.30251,139.81396
"2959",81.08034,139.82715
"2960",80.799576,139.84033
"2961",80.45777,139.85352
"2962",80.05737,139.8667
"2963",79.62035,139.87988
"2964",79.17357,139.89307
"2965",78.74143,139.90625
"2966",78.34104,139.91943
"2967",77.98947,139.93262
"2968",77.696495,139.9458
"2969",77.45968,139.95898
"2970",77.27657,139.97217
"2971",77.134964,139.98535
"2972",77.0251,139.99854
"2973",76.946976,140.01172
"2974",76.88106,140.0249
"2975",76.824905,140.03809
"2976",76.76875,140.05127
"2977",76.71259,140.06445
"2978",76.64179,140.07764
"2979",76.561226,140.09082
"2980",76.47578,140.104
"2981",76.387886,140.11719
"2982",76.30244,140.13037
"2983",76.22186,140.14355
"2984",76.14862,140.15674
"2985",76.070496,140.16992
"2986",75.99237,140.1831
"2987",75.90936,140.19629
"2988",75.82147,140.20947
"2989",75.72869,140.22266
"2990",75.64324,140.23584
"2991",75.56512,140.24902
"2992",75.511406,140.2622
"2993",75.50164,140.27539
"2994",75.6115,140.28857
"2995",75.95575,140.30176
"2996",76.67109,140.31494
"2997",77.81857,140.32812
"2998",79.36645,140.34131
"2999",81.15602,140.35449
"3000",82.948044,140.36768
"3001",84.48615,140.38086
"3002",85.575035,140.39404
"3003",86.14877,140.40723
"3004",86.23422,140.42041
"3005",85.93881,140.4336
"3006",85.399254,140.44678
"3007",84.76936,140.45996
"3008",84.17609,140.47314
"3009",83.71221,140.48633
"3010",83.39239,140.49951
"3011",83.1873,140.5127
"3012",83.03105,140.52588
"3013",82.86992,140.53906
"3014",82.6746,140.55225
"3015",82.45487,140.56543
"3016",82.23758,140.57861
"3017",82.04715,140.5918
"3018",81.8909,140.60498
"3019",81.75662,140.61816
"3020",81.619896,140.63135
"3021",81.45876,140.64453
"3022",81.253685,140.65771
"3023",80.99489,140.6709
"3024",80.68238,140.68408
"3025",80.32105,140.69727
"3026",79.92554,140.71045
"3027",79.51049,140.72363
"3028",79.09544,140.73682
"3029",78.70481,140.75
"3030",78.35569,140.76318
"3031",78.05539,140.77637
"3032",77.80881,140.78955
"3033",77.62325,140.80273
"3034",77.48165,140.81592
"3035",77.37179,140.8291
"3036",77.28878,140.84229
"3037",77.22774,140.85547
"3038",77.17891,140.86865
"3039",77.134964,140.88184
"3040",77.09102,140.89502
"3041",77.03731,140.9082
"3042",76.97383,140.92139
"3043",76.90059,140.93457
"3044",76.82002,140.94775
"3045",76.73945,140.96094
"3046",76.66132,140.97412
"3047",76.58808,140.9873
"3048",76.51728,141.00049
"3049",76.453804,141.01367
"3050",76.39277,141.02686
"3051",76.334175,141.04004
"3052",76.2707,141.05322
"3053",76.20233,141.0664
"3054",76.12909,141.07959
"3055",76.05585,141.09277
"3056",75.999695,141.10596
"3057",75.9704,141.11914
"3058",76.00702,141.13232
"3059",76.19989,141.14551
"3060",76.663765,141.15869
"3061",77.51339,141.17188
"3062",78.79027,141.18506
"3063",80.41627,141.19824
"3064",82.210724,141.21143
"3065",83.92706,141.22461
"3066",85.32845,141.2378
"3067",86.261086,141.25098
"3068",86.68101,141.26416
"3069",86.641945,141.27734
"3070",86.25376,141.29053
"3071",85.65316,141.30371
"3072",84.99153,141.3169
"3073",84.39338,141.33008
"3074",83.93439,141.34326
"3075",83.62188,141.35645
"3076",83.421684,141.36963
"3077",83.265434,141.38281
"3078",83.10185,141.396
"3079",82.91875,141.40918
"3080",82.72587,141.42236
"3081",82.55741,141.43555
"3082",82.425575,141.44873
"3083",82.3328,141.46191
"3084",82.24979,141.4751
"3085",82.14725,141.48828
"3086",82.00076,141.50146
"3087",81.7908,141.51465
"3088",81.514915,141.52783
"3089",81.17311,141.54102
"3090",80.77516,141.5542
"3091",80.343025,141.56738
"3092",79.89868,141.58057
"3093",79.46899,141.59375
"3094",79.07103,141.60693
"3095",78.72434,141.62012
"3096",78.43626,141.6333
"3097",78.204315,141.64648
"3098",78.02609,141.65967
"3099",77.891815,141.67285
"3100",77.7966,141.68604
"3101",77.72579,141.69922
"3102",77.66964,141.7124
"3103",77.61837,141.72559
"3104",77.56954,141.73877
"3105",77.51339,141.75195
"3106",77.44747,141.76514
"3107",77.37667,141.77832
"3108",77.30587,141.7915
"3109",77.22774,141.80469
"3110",77.14961,141.81787
"3111",77.069046,141.83105
"3112",76.98848,141.84424
"3113",76.90059,141.85742
"3114",76.81026,141.8706
"3115",76.717476,141.88379
"3116",76.61982,141.89697
"3117",76.52216,141.91016
"3118",76.42451,141.92334
"3119",76.33173,141.93652
"3120",76.25605,141.9497
"3121",76.209656,141.96289
"3122",76.224304,141.97607
"3123",76.368355,141.98926
"3124",76.756546,142.00244
"3125",77.51095,142.01562
"3126",78.69016,142.02881
"3127",80.24536,142.04199
"3128",82.01785,142.05518
"3129",83.78302,142.06836
"3130",85.28451,142.08154
"3131",86.346535,142.09473
"3132",86.89342,142.10791
"3133",86.96178,142.1211
"3134",86.64439,142.13428
"3135",86.07065,142.14746
"3136",85.382164,142.16064
"3137",84.7132,142.17383
"3138",84.156555,142.18701
"3139",83.73907,142.2002
"3140",83.44366,142.21338
"3141",83.22148,142.22656
"3142",83.02861,142.23975
"3143",82.84306,142.25293
"3144",82.67216,142.26611
"3145",82.53544,142.2793
"3146",82.44999,142.29248
"3147",82.40116,142.30566
"3148",82.36942,142.31885
"3149",82.31083,142.33203
"3150",82.2034,142.34521
"3151",82.020294,142.3584
"3152",81.75906,142.37158
"3153",81.41726,142.38477
"3154",81.01442,142.39795
"3155",80.570076,142.41113
"3156",80.111084,142.42432
"3157",79.656975,142.4375
"3158",79.237045,142.45068
"3159",78.85863,142.46387
"3160",78.536354,142.47705
"3161",78.28001,142.49023
"3162",78.08713,142.50342
"3163",77.945526,142.5166
"3164",77.85031,142.52979
"3165",77.77707,142.54297
"3166",77.72335,142.55615
"3167",77.67208,142.56934
"3168",77.625694,142.58252
"3169",77.574425,142.5957
"3170",77.51583,142.60889
"3171",77.44503,142.62207
"3172",77.36446,142.63525
"3173",77.27413,142.64844
"3174",77.18623,142.66162
"3175",77.103226,142.6748
"3176",77.0251,142.68799
"3177",76.94942,142.70117
"3178",76.87373,142.71436
"3179",76.79317,142.72754
"3180",76.70527,142.74072
"3181",76.612495,142.7539
"3182",76.50996,142.76709
"3183",76.404976,142.78027
"3184",76.30732,142.79346
"3185",76.23163,142.80664
"3186",76.19745,142.81982
"3187",76.26826,142.83301
"3188",76.54902,142.84619
"3189",77.1667,142.85938
"3190",78.2092,142.87256
"3191",79.67162,142.88574
"3192",81.43191,142.89893
"3193",83.27276,142.91211
"3194",84.93538,142.9253
"3195",86.204926,142.93848
"3196",86.97154,142.95166
"3197",87.23277,142.96484
"3198",87.05943,142.97803
"3199",86.571144,142.99121
"3200",85.907074,143.0044
"3201",85.20393,143.01758
"3202",84.56916,143.03076
"3203",84.05646,143.04395
"3204",83.67071,143.05713
"3205",83.370415,143.07031
"3206",83.1165,143.0835
"3207",82.89189,143.09668
"3208",82.69901,143.10986
"3209",82.55253,143.12305
"3210",82.46952,143.13623
"3211",82.44511,143.14941
"3212",82.44999,143.1626
"3213",82.44022,143.17578
"3214",82.38407,143.18896
"3215",82.25468,143.20215
"3216",82.04227,143.21533
"3217",81.74197,143.22852
"3218",81.36355,143.2417
"3219",80.921646,143.25488
"3220",80.44312,143.26807
"3221",79.957275,143.28125
"3222",79.48852,143.29443
"3223",79.063705,143.30762
"3224",78.692604,143.3208
"3225",78.38743,143.33398
"3226",78.14572,143.34717
"3227",77.96506,143.36035
"3228",77.83322,143.37354
"3229",77.74288,143.38672
"3230",77.68429,143.3999
"3231",77.642784,143.41309
"3232",77.608604,143.42627
"3233",77.574425,143.43945
"3234",77.53292,143.45264
"3235",77.48165,143.46582
"3236",77.418175,143.479
"3237",77.3547,143.49219
"3238",77.29122,143.50537
"3239",77.222855,143.51855
"3240",77.14961,143.53174
"3241",77.06172,143.54492
"3242",76.9543,143.5581
"3243",76.824905,143.57129
"3244",76.6833,143.58447
"3245",76.53193,143.59766
"3246",76.39033,143.61084
"3247",76.265816,143.62402
"3248",76.175476,143.6372
"3249",76.15839,143.65039
"3250",76.30244,143.66357
"3251",76.734566,143.67676
"3252",77.5671,143.68994
"3253",78.836655,143.70312
"3254",80.46998,143.71631
"3255",82.28886,143.72949
"3256",84.04425,143.74268
"3257",85.49447,143.75586
"3258",86.48081,143.76904
"3259",86.956894,143.78223
"3260",86.94957,143.79541
"3261",86.56382,143.8086
"3262",85.92905,143.82178
"3263",85.17952,143.83496
"3264",84.43,143.84814
"3265",83.76593,143.86133
"3266",83.20683,143.87451
"3267",82.74296,143.8877
"3268",82.35966,143.90088
"3269",82.05203,143.91406
"3270",81.829865,143.92725
"3271",81.70779,143.94043
"3272",81.69802,143.95361
"3273",81.78104,143.9668
"3274",81.91287,143.97998
"3275",82.04227,143.99316
"3276",82.12039,144.00635
"3277",82.1033,144.01953
"3278",81.971466,144.03271
"3279",81.71755,144.0459
"3280",81.34402,144.05908
"3281",80.8777,144.07227
"3282",80.35767,144.08545
"3283",79.818115,144.09863
"3284",79.293205,144.11182
"3285",78.81468,144.125
"3286",78.40208,144.13818
"3287",78.06027,144.15137
"3288",77.80148,144.16455
"3289",77.62325,144.17773
"3290",77.51583,144.19092
"3291",77.471886,144.2041
"3292",77.471886,144.21729
"3293",77.49386,144.23047
"3294",77.52071,144.24365
"3295",77.5378,144.25684
"3296",77.5256,144.27002
"3297",77.48165,144.2832
"3298",77.401085,144.29639
"3299",77.28634,144.30957
"3300",77.14473,144.32275
"3301",76.98848,144.33594
"3302",76.824905,144.34912
"3303",76.67597,144.3623
"3304",76.58076,144.37549
"3305",76.61494,144.38867
"3306",76.89082,144.40186
"3307",77.52804,144.41504
"3308",78.57542,144.42822
"3309",79.98169,144.4414
"3310",81.602806,144.45459
"3311",83.2166,144.46777
"3312",84.58869,144.48096
"3313",85.55306,144.49414
"3314",86.04135,144.50732
"3315",86.07797,144.52051
"3316",85.748375,144.53369
"3317",85.17464,144.54688
"3318",84.491035,144.56006
"3319",83.80499,144.57324
"3320",83.18974,144.58643
"3321",82.66239,144.59961
"3322",82.213165,144.6128
"3323",81.81766,144.62598
"3324",81.480736,144.63916
"3325",81.22438,144.65234
"3326",81.06813,144.66553
"3327",81.02174,144.67871
"3328",81.075455,144.6919
"3329",81.18776,144.70508
"3330",81.29519,144.71826
"3331",81.34646,144.73145
"3332",81.307396,144.74463
"3333",81.15602,144.75781
"3334",80.88747,144.771
"3335",80.51392,144.78418
"3336",80.059814,144.79736
"3337",79.55688,144.81055
"3338",79.046616,144.82373
"3339",78.56565,144.83691
"3340",78.135956,144.8501
"3341",77.78195,144.86328
"3342",77.51095,144.87646
"3343",77.32052,144.88965
"3344",77.20088,144.90283
"3345",77.13985,144.91602
"3346",77.120316,144.9292
"3347",77.12276,144.94238
"3348",77.134964,144.95557
"3349",77.137405,144.96875
"3350",77.1252,144.98193
"3351",77.083694,144.99512
"3352",77.01045,145.0083
"3353",76.910355,145.02148
"3354",76.79561,145.03467
"3355",76.67597,145.04785
"3356",76.57099,145.06104
"3357",76.52705,145.07422
"3358",76.629585,145.0874
"3359",77.00069,145.10059
"3360",77.738,145.11377
"3361",78.87572,145.12695
"3362",80.34547,145.14014
"3363",81.97635,145.15332
"3364",83.54131,145.1665
"3365",84.81819,145.17969
"3366",85.67269,145.19287
"3367",86.05356,145.20605
"3368",86.00473,145.21924
"3369",85.62386,145.23242
"3370",85.0428,145.2456
"3371",84.39582,145.25879
"3372",83.792786,145.27197
"3373",83.28741,145.28516
"3374",82.87724,145.29834
"3375",82.54276,145.31152
"3376",82.24002,145.3247
"3377",81.96414,145.33789
"3378",81.72976,145.35107
"3379",81.55642,145.36426
"3380",81.45632,145.37744
"3381",81.42214,145.39062
"3382",81.41238,145.40381
"3383",81.3904,145.41699
"3384",81.31716,145.43018
"3385",81.17311,145.44336
"3386",80.94118,145.45654
"3387",80.62379,145.46973
"3388",80.233154,145.48291
"3389",79.78882,145.4961
"3390",79.32006,145.50928
"3391",78.86107,145.52246
"3392",78.4387,145.53564
"3393",78.065155,145.54883
"3394",77.752655,145.56201
"3395",77.50851,145.5752
"3396",77.332726,145.58838
"3397",77.21309,145.60156
"3398",77.14473,145.61475
"3399",77.11299,145.62793
"3400",77.10567,145.64111
"3401",77.10567,145.6543
"3402",77.100784,145.66748
"3403",77.07881,145.68066
"3404",77.032425,145.69385
"3405",76.95674,145.70703
"3406",76.84932,145.72021
"3407",76.717476,145.7334
"3408",76.575874,145.74658
"3409",76.439156,145.75977
"3410",76.317085,145.77295
"3411",76.243835,145.78613
"3412",76.27558,145.79932
"3413",76.52705,145.8125
"3414",77.117874,145.82568
"3415",78.116425,145.83887
"3416",79.500725,145.85205
"3417",81.13893,145.86523
"3418",82.811325,145.87842
"3419",84.27619,145.8916
"3420",85.3431,145.90479
"3421",85.926605,145.91797
"3422",86.04135,145.93115
"3423",85.77524,145.94434
"3424",85.262535,145.95752
"3425",84.647285,145.9707
"3426",84.0589,145.98389
"3427",83.577934,145.99707
"3428",83.2166,146.01025
"3429",82.94072,146.02344
"3430",82.69657,146.03662
"3431",82.44511,146.0498
"3432",82.16678,146.06299
"3433",81.8909,146.07617
"3434",81.63943,146.08936
"3435",81.44167,146.10254
"3436",81.290306,146.11572
"3437",81.15358,146.1289
"3438",81.007095,146.14209
"3439",80.816666,146.15527
"3440",80.56519,146.16846
"3441",80.255135,146.18164
"3442",79.888916,146.19482
"3443",79.47631,146.20801
"3444",79.04173,146.22119
"3445",78.607155,146.23438
"3446",78.19455,146.24756
"3447",77.821014,146.26074
"3448",77.50118,146.27393
"3449",77.239944,146.28711
"3450",77.02998,146.3003
"3451",76.86885,146.31348
"3452",76.74433,146.32666
"3453",76.64912,146.33984
"3454",76.57343,146.35303
"3455",76.5124,146.36621
"3456",76.453804,146.3794
"3457",76.40009,146.39258
"3458",76.3415,146.40576
"3459",76.280464,146.41895
"3460",76.21454,146.43213
"3461",76.15106,146.44531
"3462",76.085144,146.4585
"3463",76.019226,146.47168
"3464",75.945984,146.48486
"3465",75.86542,146.49805
"3466",75.77753,146.51123
"3467",75.682304,146.52441
"3468",75.58221,146.5376
"3469",75.48943,146.55078
"3470",75.41131,146.56396
"3471",75.36248,146.57715
"3472",75.36736,146.59033
"3473",75.48943,146.60352
"3474",75.843445,146.6167
"3475",76.53437,146.62988
"3476",77.611046,146.64307
"3477",79.03197,146.65625
"3478",80.64332,146.66943
"3479",82.22537,146.68262
"3480",83.546196,146.6958
"3481",84.454414,146.70898
"3482",84.89143,146.72217
"3483",84.90364,146.73535
"3484",84.60578,146.74854
"3485",84.1297,146.76172
"3486",83.612114,146.7749
"3487",83.16777,146.78809
"3488",82.85039,146.80127
"3489",82.65507,146.81445
"3490",82.528114,146.82764
"3491",82.406044,146.84082
"3492",82.247345,146.854
"3493",82.037384,146.86719
"3494",81.79813,146.88037
"3495",81.5613,146.89355
"3496",81.356224,146.90674
"3497",81.18776,146.91992
"3498",81.04372,146.9331
"3499",80.89479,146.94629
"3500",80.719,146.95947
"3501",80.50172,146.97266
"3502",80.235596,146.98584
"3503",79.92554,146.99902
"3504",79.58129,147.0122
"3505",79.219955,147.02539
"3506",78.86595,147.03857
"3507",78.53147,147.05176
"3508",78.23361,147.06494
"3509",77.98215,147.07812
"3510",77.77463,147.09131
"3511",77.608604,147.10449
"3512",77.48409,147.11768
"3513",77.39132,147.13086
"3514",77.31808,147.14404
"3515",77.25948,147.15723
"3516",77.208206,147.17041
"3517",77.15938,147.1836
"3518",77.10811,147.19678
"3519",77.049515,147.20996
"3520",76.98604,147.22314
"3521",76.91524,147.23633
"3522",76.84688,147.24951
"3523",76.78096,147.2627
"3524",76.7248,147.27588
"3525",76.680855,147.28906
"3526",76.64423,147.30225
"3527",76.60517,147.31543
"3528",76.56367,147.32861
"3529",76.51972,147.3418
"3530",76.470894,147.35498
"3531",76.4123,147.36816
"3532",76.35371,147.38135
"3533",76.299995,147.39453
"3534",76.265816,147.40771
"3535",76.25849,147.4209
"3536",76.30488,147.43408
"3537",76.470894,147.44727
"3538",76.84688,147.46045
"3539",77.5256,147.47363
"3540",78.54612,147.48682
"3541",79.85474,147.5
"3542",81.307396,147.51318
"3543",82.70634,147.52637
"3544",83.84161,147.53955
"3545",84.58625,147.55273
"3546",84.90852,147.56592
"3547",84.857254,147.5791
"3548",84.53986,147.59229
"3549",84.088196,147.60547
"3550",83.631645,147.61865
"3551",83.26299,147.63184
"3552",83.03105,147.64502
"3553",82.92119,147.6582
"3554",82.865036,147.67139
"3555",82.80156,147.68457
"3556",82.68192,147.69775
"3557",82.50126,147.71094
"3558",82.28886,147.72412
"3559",82.08621,147.7373
"3560",81.9202,147.75049
"3561",81.79813,147.76367
"3562",81.69802,147.77686
"3563",81.5906,147.79004
"3564",81.45388,147.80322
"3565",81.270775,147.8164
"3566",81.03883,147.82959
"3567",80.75807,147.84277
"3568",80.445564,147.85596
"3569",80.11597,147.86914
"3570",79.78882,147.88232
"3571",79.47875,147.89551
"3572",79.200424,147.90869
"3573",78.96605,147.92188
"3574",78.7805,147.93506
"3575",78.63889,147.94824
"3576",78.52659,147.96143
"3577",78.4387,147.97461
"3578",78.363014,147.9878
"3579",78.294655,148.00098
"3580",78.23117,148.01416
"3581",78.17258,148.02734
"3582",78.11154,148.04053
"3583",78.04562,148.05371
"3584",77.97482,148.0669
"3585",77.90158,148.08008
"3586",77.8259,148.09326
"3587",77.752655,148.10645
"3588",77.68673,148.11963
"3589",77.62081,148.13281
"3590",77.56222,148.146
"3591",77.506065,148.15918
"3592",77.45724,148.17236
"3593",77.40841,148.18555
"3594",77.36446,148.19873
"3595",77.31808,148.21191
"3596",77.26681,148.2251
"3597",77.21309,148.23828
"3598",77.16426,148.25146
"3599",77.12764,148.26465
"3600",77.10567,148.27783
"3601",77.120316,148.29102
"3602",77.20332,148.3042
"3603",77.43282,148.31738
"3604",77.90646,148.33057
"3605",78.695045,148.34375
"3606",79.79614,148.35693
"3607",81.126724,148.37012
"3608",82.513466,148.3833
"3609",83.75128,148.39648
"3610",84.67658,148.40967
"3611",85.19905,148.42285
"3612",85.32357,148.43604
"3613",85.12581,148.44922
"3614",84.71809,148.4624
"3615",84.23224,148.47559
"3616",83.78058,148.48877
"3617",83.43633,148.50195
"3618",83.22392,148.51514
"3619",83.11406,148.52832
"3620",83.04326,148.5415
"3621",82.95537,148.55469
"3622",82.828415,148.56787
"3623",82.667274,148.58105
"3624",82.49882,148.59424
"3625",82.357216,148.60742
"3626",82.25956,148.6206
"3627",82.19119,148.63379
"3628",82.12283,148.64697
"3629",82.0325,148.66016
"3630",81.89578,148.67334
"3631",81.70046,148.68652
"3632",81.45388,148.6997
"3633",81.15846,148.71289
"3634",80.82887,148.72607
"3635",80.48951,148.73926
"3636",80.15747,148.75244
"3637",79.852295,148.76562
"3638",79.588615,148.77881
"3639",79.37133,148.79199
"3640",79.200424,148.80518
"3641",79.07103,148.81836
"3642",78.97337,148.83154
"3643",78.89769,148.84473
"3644",78.839096,148.85791
"3645",78.79271,148.8711
"3646",78.74876,148.88428
"3647",78.70481,148.89746
"3648",78.658424,148.91064
"3649",78.60227,148.92383
"3650",78.536354,148.93701
"3651",78.46311,148.9502
"3652",78.380104,148.96338
"3653",78.294655,148.97656
"3654",78.204315,148.98975
"3655",78.1091,149.00293
"3656",78.009,149.01611
"3657",77.90402,149.0293
"3658",77.7966,149.04248
"3659",77.69161,149.05566
"3660",77.5964,149.06885
"3661",77.51339,149.08203
"3662",77.452354,149.09521
"3663",77.42794,149.1084
"3664",77.48409,149.12158
"3665",77.696495,149.13477
"3666",78.16037,149.14795
"3667",78.92699,149.16113
"3668",79.98657,149.17432
"3669",81.23659,149.1875
"3670",82.51591,149.20068
"3671",83.63409,149.21387
"3672",84.439766,149.22705
"3673",84.86214,149.24023
"3674",84.91341,149.25342
"3675",84.664375,149.2666
"3676",84.224915,149.27979
"3677",83.717094,149.29297
"3678",83.243454,149.30615
"3679",82.87236,149.31934
"3680",82.60868,149.33252
"3681",82.423134,149.3457
"3682",82.266884,149.35889
"3683",82.11063,149.37207
"3684",81.95438,149.38525
"3685",81.815216,149.39844
"3686",81.71999,149.41162
"3687",81.688255,149.4248
"3688",81.705345,149.43799
"3689",81.73464,149.45117
"3690",81.74197,149.46436
"3691",81.69558,149.47754
"3692",81.583275,149.49072
"3693",81.3904,149.5039
"3694",81.126724,149.51709
"3695",80.8069,149.53027
"3696",80.45533,149.54346
"3697",80.09155,149.55664
"3698",79.742424,149.56982
"3699",79.42748,149.58301
"3700",79.16136,149.59619
"3701",78.94896,149.60938
"3702",78.79759,149.62256
"3703",78.695045,149.63574
"3704",78.63645,149.64893
"3705",78.607155,149.66211
"3706",78.59739,149.6753
"3707",78.59251,149.68848
"3708",78.5803,149.70166
"3709",78.551,149.71484
"3710",78.49973,149.72803
"3711",78.41917,149.74121
"3712",78.3093,149.7544
"3713",78.1799,149.76758
"3714",78.03586,149.78076
"3715",77.891815,149.79395
"3716",77.7551,149.80713
"3717",77.6379,149.82031
"3718",77.55001,149.8335
"3719",77.523155,149.84668
"3720",77.608604,149.85986
"3721",77.90646,149.87305
"3722",78.48997,149.88623
"3723",79.378654,149.89941
"3724",80.516365,149.9126
"3725",81.76639,149.92578
"3726",82.94316,149.93896
"3727",83.87335,149.95215
"3728",84.44953,149.96533
"3729",84.65461,149.97852
"3730",84.5301,149.9917
"3731",84.18097,150.00488
"3732",83.719536,150.01807
"3733",83.26055,150.03125
"3734",82.87236,150.04443
"3735",82.58671,150.05762
"3736",82.38163,150.0708
"3737",82.213165,150.08398
"3738",82.039825,150.09717
"3739",81.8616,150.11035
"3740",81.6907,150.12354
"3741",81.55642,150.13672
"3742",81.47341,150.1499
"3743",81.446556,150.16309
"3744",81.444115,150.17627
"3745",81.43435,150.18945
"3746",81.38796,150.20264
"3747",81.28054,150.21582
"3748",81.09987,150.229
"3749",80.85329,150.24219
"3750",80.550545,150.25537
"3751",80.2063,150.26855
"3752",79.84985,150.28174
"3753",79.500725,150.29492
"3754",79.183334,150.3081
"3755",78.9099,150.32129
"3756",78.68772,150.33447
"3757",78.51438,150.34766
"3758",78.382545,150.36084
"3759",78.28001,150.37402
"3760",78.19943,150.3872
"3761",78.14084,150.40039
"3762",78.101776,150.41357
"3763",78.07492,150.42676
"3764",78.05539,150.43994
"3765",78.030975,150.45312
"3766",77.99191,150.46631
"3767",77.93332,150.47949
"3768",77.85275,150.49268
"3769",77.752655,150.50586
"3770",77.63546,150.51904
"3771",77.503624,150.53223
"3772",77.36446,150.54541
"3773",77.225296,150.5586
"3774",77.09834,150.57178
"3775",76.995804,150.58496
"3776",76.94942,150.59814
"3777",77.02998,150.61133
"3778",77.34005,150.62451
"3779",77.96994,150.6377
"3780",78.95628,150.65088
"3781",80.24048,150.66406
"3782",81.67605,150.67725
"3783",83.055466,150.69043
"3784",84.18341,150.70361
"3785",84.928055,150.7168
"3786",85.25521,150.72998
"3787",85.21126,150.74316
"3788",84.893875,150.75635
"3789",84.437325,150.76953
"3790",83.95392,150.78271
"3791",83.54864,150.7959
"3792",83.27032,150.80908
"3793",83.10918,150.82227
"3794",83.004196,150.83545
"3795",82.90166,150.84863
"3796",82.760056,150.86182
"3797",82.56962,150.875
"3798",82.357216,150.88818
"3799",82.159454,150.90137
"3800",82.005646,150.91455
"3801",81.88602,150.92773
"3802",81.78836,150.94092
"3803",81.68093,150.9541
"3804",81.54665,150.96729
"3805",81.36843,150.98047
"3806",81.13161,150.99365
"3807",80.84108,151.00684
"3808",80.5066,151.02002
"3809",80.14282,151.0332
"3810",79.77173,151.04639
"3811",79.41039,151.05957
"3812",79.08324,151.07275
"3813",78.79271,151.08594
"3814",78.54612,151.09912
"3815",78.35081,151.1123
"3816",78.19699,151.12549
"3817",78.082245,151.13867
"3818",77.996796,151.15186
"3819",77.925995,151.16504
"3820",77.86496,151.17822
"3821",77.80148,151.1914
"3822",77.72823,151.20459
"3823",77.645226,151.21777
"3824",77.55489,151.23096
"3825",77.45724,151.24414
"3826",77.3547,151.25732
"3827",77.2546,151.27051
"3828",77.15938,151.28369
"3829",77.069046,151.29688
"3830",76.9836,151.31006
"3831",76.90791,151.32324
"3832",76.841995,151.33643
"3833",76.78584,151.34961
"3834",76.732124,151.3628
"3835",76.680855,151.37598
"3836",76.629585,151.38916
"3837",76.57343,151.40234
"3838",76.51728,151.41553
"3839",76.46601,151.42871
"3840",76.422066,151.4419
"3841",76.39277,151.45508
"3842",76.40009,151.46826
"3843",76.507515,151.48145
"3844",76.824905,151.49463
"3845",77.469444,151.50781
"3846",78.51194,151.521
"3847",79.91089,151.53418
"3848",81.529564,151.54736
"3849",83.15068,151.56055
"3850",84.54963,151.57373
"3851",85.55062,151.58691
"3852",86.09018,151.6001
"3853",86.19272,151.61328
"3854",85.95346,151.62646
"3855",85.49447,151.63965
"3856",84.962234,151.65283
"3857",84.473946,151.66602
"3858",84.11505,151.6792
"3859",83.90753,151.69238
"3860",83.81232,151.70557
"3861",83.758606,151.71875
"3862",83.68047,151.73193
"3863",83.543755,151.74512
"3864",83.346,151.7583
"3865",83.11406,151.77148
"3866",82.88457,151.78467
"3867",82.686806,151.79785
"3868",82.50858,151.81104
"3869",82.337685,151.82422
"3870",82.15213,151.8374
"3871",81.934845,151.85059
"3872",81.67361,151.86377
"3873",81.36843,151.87695
"3874",81.024185,151.89014
"3875",80.6482,151.90332
"3876",80.255135,151.9165
"3877",79.8645,151.92969
"3878",79.4934,151.94287
"3879",79.15648,151.95605
"3880",78.86107,151.96924
"3881",78.61204,151.98242
"3882",78.40696,151.9956
"3883",78.23605,152.00879
"3884",78.09689,152.02197
"3885",77.98459,152.03516
"3886",77.88693,152.04834
"3887",77.7966,152.06152
"3888",77.7087,152.0747
"3889",77.61837,152.08789
"3890",77.52804,152.10107
"3891",77.435265,152.11426
"3892",77.34493,152.12744
"3893",77.24971,152.14062
"3894",77.14717,152.15381
"3895",77.03975,152.16699
"3896",76.927444,152.18018
"3897",76.81514,152.19336
"3898",76.71992,152.20654
"3899",76.63691,152.21973
"3900",76.57343,152.23291
"3901",76.524605,152.2461
"3902",76.48554,152.25928
"3903",76.456245,152.27246
"3904",76.436714,152.28564
"3905",76.41718,152.29883
"3906",76.402534,152.31201
"3907",76.383,152.3252
"3908",76.35371,152.33838
"3909",76.32441,152.35156
"3910",76.297554,152.36475
"3911",76.282906,152.37793
"3912",76.31953,152.39111
"3913",76.48554,152.4043
"3914",76.90303,152.41748
"3915",77.68917,152.43066
"3916",78.87816,152.44385
"3917",80.413826,152.45703
"3918",82.12283,152.47021
"3919",83.77814,152.4834
"3920",85.152664,152.49658
"3921",86.0975,152.50977
"3922",86.56626,152.52295
"3923",86.60044,152.53613
"3924",86.295265,152.54932
"3925",85.787445,152.5625
"3926",85.21126,152.57568
"3927",84.68879,152.58887
"3928",84.29328,152.60205
"3929",84.04669,152.61523
"3930",83.90265,152.62842
"3931",83.80011,152.6416
"3932",83.68047,152.65479
"3933",83.51446,152.66797
"3934",83.31182,152.68115
"3935",83.10185,152.69434
"3936",82.90654,152.70752
"3937",82.74296,152.7207
"3938",82.60136,152.73389
"3939",82.45487,152.74707
"3940",82.27421,152.76025
"3941",82.04959,152.77344
"3942",81.77127,152.78662
"3943",81.43679,152.7998
"3944",81.05592,152.81299
"3945",80.64332,152.82617
"3946",80.22095,152.83936
"3947",79.80347,152.85254
"3948",79.40795,152.86572
"3949",79.04906,152.8789
"3950",78.74143,152.89209
"3951",78.48264,152.90527
"3952",78.27512,152.91846
"3953",78.116425,152.93164
"3954",77.99191,152.94482
"3955",77.891815,152.95801
"3956",77.806366,152.97119
"3957",77.72579,152.98438
"3958",77.645226,152.99756
"3959",77.56222,153.01074
"3960",77.47677,153.02393
"3961",77.38888,153.03711
"3962",77.29366,153.0503
"3963",77.19112,153.06348
"3964",77.083694,153.07666
"3965",76.97627,153.08984
"3966",76.876175,153.10303
"3967",76.78584,153.11621
"3968",76.71015,153.1294
"3969",76.646675,153.14258
"3970",76.59052,153.15576
"3971",76.53925,153.16895
"3972",76.48798,153.18213
"3973",76.44404,153.19531
"3974",76.40009,153.2085
"3975",76.35615,153.22168
"3976",76.3122,153.23486
"3977",76.26826,153.24805
"3978",76.22919,153.26123
"3979",76.2121,153.27441
"3980",76.26826,153.2876
"3981",76.48798,153.30078
"3982",76.995804,153.31396
"3983",77.891815,153.32715
"3984",79.19066,153.34033
"3985",80.80202,153.35352
"3986",82.547646,153.3667
"3987",84.18829,153.37988
"3988",85.51156,153.39307
"3989",86.383156,153.40625
"3990",86.77623,153.41943
"3991",86.7396,153.43262
"3992",86.36851,153.4458
"3993",85.79965,153.45898
"3994",85.16243,153.47217
"3995",84.57404,153.48535
"3996",84.102844,153.49854
"3997",83.76593,153.51172
"3998",83.529106,153.5249
"3999",83.346,153.53809
"4000",83.17021,153.55127
"4001",82.99443,153.56445
"4002",82.81865,153.57764
"4003",82.667274,153.59082
"4004",82.55497,153.604
"4005",82.476845,153.61719
"4006",82.4036,153.63037
"4007",82.31083,153.64355
"4008",82.1741,153.65674
"4009",81.97635,153.66992
"4010",81.705345,153.6831
"4011",81.36355,153.69629
"4012",80.96803,153.70947
"4013",80.533455,153.72266
"4014",80.08179,153.73584
"4015",79.639885,153.74902
"4016",79.22972,153.7622
"4017",78.86107,153.77539
"4018",78.54856,153.78857
"4019",78.29221,153.80176
"4020",78.09201,153.81494
"4021",77.94064,153.82812
"4022",77.83078,153.84131
"4023",77.75021,153.85449
"4024",77.68917,153.86768
"4025",77.63546,153.88086
"4026",77.58663,153.89404
"4027",77.53536,153.90723
"4028",77.47921,153.92041
"4029",77.41573,153.9336
"4030",77.35226,153.94678
"4031",77.28634,153.95996
"4032",77.21309,153.97314
"4033",77.137405,153.98633
"4034",77.06172,153.99951
"4035",76.981155,154.0127
"4036",76.88594,154.02588
"4037",76.7834,154.03906
"4038",76.67109,154.05225
"4039",76.55634,154.06543
"4040",76.439156,154.07861
"4041",76.33662,154.0918
"4042",76.263374,154.10498
"4043",76.24628,154.11816
"4044",76.36347,154.13135
"4045",76.72968,154.14453
"4046",77.452354,154.15771
"4047",78.58274,154.1709
"4048",80.07446,154.18408
"4049",81.77127,154.19727
"4050",83.455864,154.21045
"4051",84.89876,154.22363
"4052",85.92905,154.23682
"4053",86.48814,154.25
"4054",86.59312,154.26318
"4055",86.31968,154.27637
"4056",85.787445,154.28955
"4057",85.12581,154.30273
"4058",84.45197,154.31592
"4059",83.85138,154.3291
"4060",83.35821,154.34229
"4061",82.95781,154.35547
"4062",82.62577,154.36865
"4063",82.340126,154.38184
"4064",82.10086,154.39502
"4065",81.92508,154.4082
"4066",81.83719,154.42139
"4067",81.83719,154.43457
"4068",81.90311,154.44775
"4069",81.991,154.46094
"4070",82.05936,154.47412
"4071",82.0618,154.4873
"4072",81.96658,154.50049
"4073",81.76639,154.51367
"4074",81.45388,154.52686
"4075",81.0486,154.54004
"4076",80.57252,154.55322
"4077",80.062256,154.5664
"4078",79.551994,154.57959
"4079",79.080795,154.59277
"4080",78.67063,154.60596
"4081",78.331276,154.61914
"4082",78.07248,154.63232
"4083",77.88937,154.64551
"4084",77.77219,154.65869
"4085",77.7087,154.67188
"4086",77.69405,154.68506
"4087",77.70382,154.69824
"4088",77.72823,154.71143
"4089",77.74288,154.72461
"4090",77.730675,154.7378
"4091",77.68429,154.75098
"4092",77.60128,154.76416
"4093",77.488976,154.77734
"4094",77.347374,154.79053
"4095",77.19356,154.80371
"4096",77.04219,154.8169
"4097",76.90791,154.83008
"4098",76.82002,154.84326
"4099",76.85664,154.85645
"4100",77.1252,154.86963
"4101",77.730675,154.88281
"4102",78.7219,154.896
"4103",80.05737,154.90918
"4104",81.61013,154.92236
"4105",83.160446,154.93555
"4106",84.49348,154.94873
"4107",85.4432,154.96191
"4108",85.95102,154.9751
"4109",86.029144,154.98828
"4110",85.75571,155.00146
"4111",85.243,155.01465
"4112",84.62043,155.02783
"4113",83.99298,155.04102
"4114",83.42657,155.0542
"4115",82.94072,155.06738
"4116",82.52323,155.08057
"4117",82.15213,155.09375
"4118",81.82742,155.10693
"4119",81.55642,155.12012
"4120",81.36355,155.1333
"4121",81.270775,155.14648
"4122",81.26589,155.15967
"4123",81.31716,155.17285
"4124",81.38552,155.18604
"4125",81.4197,155.19922
"4126",81.38308,155.2124
"4127",81.24635,155.22559
"4128",81.00221,155.23877
"4129",80.65064,155.25195
"4130",80.216064,155.26514
"4131",79.727776,155.27832
"4132",79.22728,155.2915
"4133",78.73655,155.30469
"4134",78.294655,155.31787
"4135",77.91623,155.33105
"4136",77.62081,155.34424
"4137",77.40597,155.35742
"4138",77.26925,155.3706
"4139",77.20088,155.38379
"4140",77.17891,155.39697
"4141",77.18379,155.41016
"4142",77.20088,155.42334
"4143",77.21065,155.43652
"4144",77.196,155.4497
"4145",77.152054,155.46289
"4146",77.07393,155.47607
"4147",76.964066,155.48926
"4148",76.83711,155.50244
"4149",76.70527,155.51562
"4150",76.595406,155.52881
"4151",76.54658,155.54199
"4152",76.654,155.55518
"4153",77.03731,155.56836
"4154",77.79416,155.58154
"4155",78.9514,155.59473
"4156",80.44312,155.60791
"4157",82.08865,155.6211
"4158",83.6585,155.63428
"4159",84.93538,155.64746
"4160",85.77768,155.66064
"4161",86.14633,155.67383
"4162",86.09262,155.68701
"4163",85.711754,155.7002
"4164",85.14046,155.71338
"4165",84.508125,155.72656
"4166",83.92218,155.73975
"4167",83.43145,155.75293
"4168",83.03105,155.76611
"4169",82.686806,155.7793
"4170",82.36942,155.79248
"4171",82.0618,155.80566
"4172",81.778595,155.81885
"4173",81.549095,155.83203
"4174",81.40017,155.84521
"4175",81.32693,155.8584
"4176",81.29519,155.87158
"4177",81.26345,155.88477
"4178",81.19264,155.89795
"4179",81.0486,155.91113
"4180",80.814224,155.92432
"4181",80.48951,155.9375
"4182",80.08667,155.95068
"4183",79.63012,155.96387
"4184",79.14671,155.97705
"4185",78.66575,155.99023
"4186",78.21652,156.00342
"4187",77.81857,156.0166
"4188",77.486534,156.02979
"4189",77.22774,156.04297
"4190",77.03975,156.05615
"4191",76.912796,156.06934
"4192",76.83711,156.08252
"4193",76.79805,156.0957
"4194",76.78584,156.10889
"4195",76.78584,156.12207
"4196",76.79317,156.13525
"4197",76.788284,156.14844
"4198",76.76143,156.16162
"4199",76.70283,156.1748
"4200",76.612495,156.18799
"4201",76.49287,156.20117
"4202",76.351265,156.21436
"4203",76.19989,156.22754
"4204",76.06561,156.24072
"4205",75.97528,156.2539
"4206",76.00458,156.26709
"4207",76.265816,156.28027
"4208",76.88594,156.29346
"4209",77.93576,156.30664
"4210",79.3933,156.31982
"4211",81.126724,156.33301
"4212",82.90654,156.34619
"4213",84.48615,156.35938
"4214",85.65804,156.37256
"4215",86.3148,156.38574
"4216",86.46616,156.39893
"4217",86.19516,156.41211
"4218",85.645836,156.4253
"4219",84.97688,156.43848
"4220",84.32014,156.45166
"4221",83.76837,156.46484
"4222",83.34112,156.47803
"4223",83.00664,156.49121
"4224",82.7161,156.5044
"4225",82.4329,156.51758
"4226",82.144806,156.53076
"4227",81.864044,156.54395
"4228",81.617455,156.55713
"4229",81.42947,156.57031
"4230",81.28542,156.5835
"4231",81.16579,156.59668
"4232",81.03395,156.60986
"4233",80.86305,156.62305
"4234",80.63111,156.63623
"4235",80.33082,156.64941
"4236",79.96216,156.6626
"4237",79.53979,156.67578
"4238",79.078354,156.68896
"4239",78.60471,156.70215
"4240",78.14328,156.71533
"4241",77.72579,156.72852
"4242",77.366905,156.7417
"4243",77.07637,156.75488
"4244",76.84688,156.76807
"4245",76.67597,156.78125
"4246",76.54902,156.79443
"4247",76.46113,156.80762
"4248",76.39521,156.8208
"4249",76.34882,156.83398
"4250",76.3122,156.84717
"4251",76.27558,156.86035
"4252",76.23895,156.87354
"4253",76.19989,156.88672
"4254",76.1535,156.8999
"4255",76.102234,156.91309
"4256",76.0412,156.92627
"4257",75.98016,156.93945
"4258",75.911804,156.95264
"4259",75.83612,156.96582
"4260",75.755554,156.979
"4261",75.667656,156.99219
"4262",75.560234,157.00537
"4263",75.45281,157.01855
"4264",75.35027,157.03174
"4265",75.27215,157.04492
"4266",75.23308,157.0581
"4267",75.29168,157.07129
"4268",75.5407,157.08447
"4269",76.112,157.09766
"4270",77.103226,157.11084
"4271",78.52659,157.12402
"4272",80.27711,157.1372
"4273",82.14725,157.15039
"4274",83.86847,157.16357
"4275",85.20882,157.17676
"4276",86.0267,157.18994
"4277",86.312355,157.20312
"4278",86.14145,157.21631
"4279",85.64828,157.22949
"4280",85.00374,157.24268
"4281",84.35432,157.25586
"4282",83.81232,157.26904
"4283",83.41924,157.28223
"4284",83.16777,157.29541
"4285",82.98222,157.3086
"4286",82.80644,157.32178
"4287",82.59159,157.33496
"4288",82.33524,157.34814
"4289",82.054474,157.36133
"4290",81.78836,157.37451
"4291",81.55642,157.3877
"4292",81.358665,157.40088
"4293",81.17311,157.41406
"4294",80.98024,157.42725
"4295",80.76051,157.44043
"4296",80.49439,157.45361
"4297",80.177,157.4668
"4298",79.81079,157.47998
"4299",79.40307,157.49316
"4300",78.975815,157.50635
"4301",78.551,157.51953
"4302",78.150604,157.53271
"4303",77.79172,157.5459
"4304",77.486534,157.55908
"4305",77.2375,157.57227
"4306",77.04219,157.58545
"4307",76.89815,157.59863
"4308",76.79561,157.61182
"4309",76.72236,157.625
"4310",76.67109,157.63818
"4311",76.63203,157.65137
"4312",76.59052,157.66455
"4313",76.544136,157.67773
"4314",76.48798,157.69092
"4315",76.422066,157.7041
"4316",76.34882,157.71729
"4317",76.2707,157.73047
"4318",76.19989,157.74365
"4319",76.138855,157.75684
"4320",76.085144,157.77002
"4321",76.04364,157.7832
"4322",76.00946,157.79639
"4323",75.97772,157.80957
"4324",75.945984,157.82275
"4325",75.91669,157.83594
"4326",75.88739,157.84912
"4327",75.85321,157.8623
"4328",75.81903,157.87549
"4329",75.78729,157.88867
"4330",75.7702,157.90186
"4331",75.77753,157.91504
"4332",75.84833,157.92822
"4333",76.07538,157.9414
"4334",76.58076,157.95459
"4335",77.45724,157.96777
"4336",78.72434,157.98096
"4337",80.29664,157.99414
"4338",81.991,158.00732
"4339",83.57061,158.02051
"4340",84.81087,158.03369
"4341",85.592125,158.04688
"4342",85.89975,158.06006
"4343",85.79233,158.07324
"4344",85.39437,158.08643
"4345",84.84993,158.09961
"4346",84.298164,158.1128
"4347",83.84161,158.12598
"4348",83.529106,158.13916
"4349",83.346,158.15234
"4350",83.23857,158.16553
"4351",83.13603,158.17871
"4352",82.99199,158.1919
"4353",82.79912,158.20508
"4354",82.579384,158.21826
"4355",82.36698,158.23145
"4356",82.18631,158.24463
"4357",82.037384,158.25781
"4358",81.900665,158.271
"4359",81.74441,158.28418
"4360",81.55642,158.29736
"4361",81.322044,158.31055
"4362",81.04372,158.32373
"4363",80.723885,158.33691
"4364",80.37232,158.3501
"4365",79.99634,158.36328
"4366",79.61547,158.37646
"4367",79.2517,158.38965
"4368",78.91966,158.40283
"4369",78.63157,158.41602
"4370",78.397194,158.4292
"4371",78.21408,158.44238
"4372",78.07492,158.45557
"4373",77.96994,158.46875
"4374",77.89426,158.48193
"4375",77.83566,158.49512
"4376",77.78195,158.5083
"4377",77.733116,158.52148
"4378",77.67696,158.53467
"4379",77.61349,158.54785
"4380",77.54757,158.56104
"4381",77.471886,158.57422
"4382",77.39376,158.5874
"4383",77.313194,158.60059
"4384",77.2375,158.61377
"4385",77.16182,158.62695
"4386",77.0959,158.64014
"4387",77.03975,158.65332
"4388",76.99336,158.6665
"4389",76.94942,158.67969
"4390",76.90303,158.69287
"4391",76.85664,158.70605
"4392",76.81514,158.71924
"4393",76.76875,158.73242
"4394",76.72724,158.7456
"4395",76.69306,158.75879
"4396",76.66865,158.77197
"4397",76.66621,158.78516
"4398",76.71259,158.79834
"4399",76.88594,158.81152
"4400",77.298546,158.8247
"4401",78.048065,158.83789
"4402",79.168686,158.85107
"4403",80.59693,158.86426
"4404",82.18143,158.87744
"4405",83.69512,158.89062
"4406",84.928055,158.90381
"4407",85.73617,158.91699
"4408",86.09262,158.93018
"4409",86.03647,158.94336
"4410",85.67025,158.95654
"4411",85.12581,158.96973
"4412",84.54963,158.98291
"4413",84.04181,158.9961
"4414",83.67559,159.00928
"4415",83.44854,159.02246
"4416",83.3167,159.03564
"4417",83.2166,159.04883
"4418",83.10185,159.06201
"4419",82.950485,159.0752
"4420",82.78203,159.08838
"4421",82.62333,159.10156
"4422",82.493935,159.11475
"4423",82.39628,159.12793
"4424",82.31571,159.14111
"4425",82.213165,159.1543
"4426",82.07645,159.16748
"4427",81.883575,159.18066
"4428",81.6321,159.19385
"4429",81.322044,159.20703
"4430",80.96559,159.22021
"4431",80.5774,159.2334
"4432",80.17944,159.24658
"4433",79.801025,159.25977
"4434",79.45678,159.27295
"4435",79.16136,159.28613
"4436",78.91966,159.29932
"4437",78.73411,159.3125
"4438",78.590065,159.32568
"4439",78.48264,159.33887
"4440",78.40696,159.35205
"4441",78.348366,159.36523
"4442",78.30442,159.37842
"4443",78.26536,159.3916
"4444",78.22385,159.40479
"4445",78.17258,159.41797
"4446",78.1091,159.43115
"4447",78.03342,159.44434
"4448",77.95285,159.45752
"4449",77.86984,159.4707
"4450",77.79172,159.48389
"4451",77.71847,159.49707
"4452",77.65011,159.51025
"4453",77.58175,159.52344
"4454",77.51095,159.53662
"4455",77.43282,159.5498
"4456",77.349815,159.56299
"4457",77.264366,159.57617
"4458",77.17891,159.58936
"4459",77.09834,159.60254
"4460",77.02998,159.61572
