"","ppg","time"
"1",78.16525,310.3512
"2",78.0676,310.36453
"3",78.01633,310.37787
"4",78.09689,310.3912
"5",78.416725,310.40454
"6",79.04906,310.41788
"7",79.957275,310.4312
"8",81.02663,310.44455
"9",82.06668,310.4579
"10",82.87724,310.47122
"11",83.3167,310.48456
"12",83.38018,310.4979
"13",83.15068,310.51123
"14",82.74052,310.52457
"15",82.25468,310.5379
"16",81.77615,310.55124
"17",81.341576,310.56458
"18",80.970474,310.5779
"19",80.67017,310.59125
"20",80.430916,310.60458
"21",80.23071,310.61792
"22",80.04761,310.63126
"23",79.869385,310.6446
"24",79.68627,310.65793
"25",79.500725,310.67126
"26",79.33715,310.6846
"27",79.2224,310.69794
"28",79.168686,310.71127
"29",79.17357,310.7246
"30",79.219955,310.73795
"31",79.281,310.75128
"32",79.32983,310.76462
"33",79.34203,310.77795
"34",79.30785,310.7913
"35",79.22728,310.80463
"36",79.10521,310.81796
"37",78.958725,310.8313
"38",78.80492,310.84464
"39",78.658424,310.85797
"40",78.51682,310.8713
"41",78.38987,310.88464
"42",78.27268,310.89798
"43",78.170135,310.91132
"44",78.07736,310.92465
"45",78.00656,310.938
"46",77.98947,310.95132
"47",78.1091,310.96466
"48",78.46555,310.978
"49",79.11986,310.99133
"50",80.03784,311.00467
"51",81.08766,311.018
"52",82.08377,311.03134
"53",82.83574,311.04468
"54",83.226364,311.058
"55",83.250786,311.07135
"56",83.004196,311.0847
"57",82.59403,311.09802
"58",82.12283,311.11136
"59",81.654076,311.1247
"60",81.234146,311.13803
"61",80.88258,311.15137
"62",80.601814,311.1647
"63",80.377205,311.17804
"64",80.18921,311.19138
"65",80.01343,311.2047
"66",79.83032,311.21805
"67",79.64721,311.23138
"68",79.47631,311.24472
"69",79.344475,311.25806
"70",79.26635,311.2714
"71",79.24925,311.28473
"72",79.27856,311.29807
"73",79.33471,311.3114
"74",79.395744,311.32474
"75",79.43725,311.33807
"76",79.43969,311.3514
"77",79.395744,311.36475
"78",79.310295,311.37808
"79",79.18822,311.39142
"80",79.04173,311.40475
"81",78.887924,311.4181
"82",78.73899,311.43143
"83",78.59251,311.44476
"84",78.45823,311.4581
"85",78.33616,311.47144
"86",78.23361,311.48477
"87",78.14572,311.4981
"88",78.09689,311.51144
"89",78.1384,311.52478
"90",78.37278,311.53812
"91",78.87816,311.55145
"92",79.66186,311.5648
"93",80.63111,311.57812
"94",81.62478,311.59146
"95",82.44511,311.6048
"96",82.9456,311.61813
"97",83.075,311.63147
"98",82.896774,311.6448
"99",82.5037,311.65814
"100",82.005646,311.67148
"101",81.48562,311.6848
"102",80.99733,311.69815
"103",80.57496,311.7115
"104",80.235596,311.72482
"105",79.971924,311.73816
"106",79.76196,311.7515
"107",79.586174,311.76483
"108",79.429924,311.77817
"109",79.290764,311.7915
"110",79.17357,311.80484
"111",79.093,311.81818
"112",79.063705,311.8315
"113",79.08324,311.84485
"114",79.14183,311.8582
"115",79.21507,311.87152
"116",79.28344,311.88486
"117",79.3225,311.8982
"118",79.31762,311.91153
"119",79.27123,311.92487
"120",79.185776,311.9382
"121",79.063705,311.95154
"122",78.922104,311.96487
"123",78.77074,311.9782
"124",78.61448,311.99155
"125",78.46555,312.00488
"126",78.328835,312.01822
"127",78.20676,312.03156
"128",78.10422,312.0449
"129",78.01877,312.05823
"130",77.960175,312.07156
"131",77.960175,312.0849
"132",78.101776,312.09824
"133",78.485085,312.11157
"134",79.1638,312.1249
"135",80.08911,312.13824
"136",81.13161,312.15158
"137",82.1033,312.16492
"138",82.811325,312.17825
"139",83.15068,312.1916
"140",83.12871,312.20493
"141",82.83086,312.21826
"142",82.36942,312.2316
"143",81.84207,312.24493
"144",81.31228,312.25827
"145",80.82887,312.2716
"146",80.413826,312.28494
"147",80.08423,312.29828
"148",79.82544,312.3116
"149",79.61547,312.32495
"150",79.44213,312.3383
"151",79.290764,312.35162
"152",79.16136,312.36496
"153",79.07103,312.3783
"154",79.03441,312.39163
"155",79.05638,312.40497
"156",79.12718,312.4183
"157",79.2224,312.43164
"158",79.31274,312.44498
"159",79.378654,312.4583
"160",79.40307,312.47165
"161",79.38598,312.485
"162",79.3225,312.49832
"163",79.22728,312.51166
"164",79.10521,312.525
"165",78.96117,312.53833
"166",78.80492,312.55167
"167",78.64622,312.565
"168",78.502174,312.57834
"169",78.37522,312.59167
"170",78.27268,312.605
"171",78.19455,312.61835
"172",78.135956,312.63168
"173",78.101776,312.64502
"174",78.150604,312.65836
"175",78.37522,312.6717
"176",78.87816,312.68503
"177",79.68139,312.69836
"178",80.709236,312.7117
"179",81.795685,312.72504
"180",82.738075,312.73837
"181",83.36309,312.7517
"182",83.597466,312.76505
"183",83.48028,312.77838
"184",83.11894,312.79172
"185",82.616005,312.80505
"186",82.056915,312.8184
"187",81.512474,312.83173
"188",81.02663,312.84506
"189",80.61646,312.8584
"190",80.2942,312.87173
"191",80.04761,312.88507
"192",79.85474,312.8984
"193",79.693596,312.91174
"194",79.551994,312.92508
"195",79.43481,312.93842
"196",79.3518,312.95175
"197",79.31518,312.9651
"198",79.33227,312.97842
"199",79.39086,312.99176
"200",79.466545,313.0051
"201",79.537346,313.01843
"202",79.58373,313.03177
"203",79.588615,313.0451
"204",79.551994,313.05844
"205",79.466545,313.07178
"206",79.34936,313.0851
"207",79.20775,313.09845
"208",79.05638,313.1118
"209",78.905014,313.12512
"210",78.76341,313.13846
"211",78.63157,313.1518
"212",78.51682,313.16513
"213",78.416725,313.17847
"214",78.328835,313.1918
"215",78.25315,313.20514
"216",78.19455,313.21848
"217",78.18234,313.2318
"218",78.30198,313.24515
"219",78.66819,313.25848
"220",79.34936,313.27182
"221",80.31373,313.28516
"222",81.43191,313.2985
"223",82.50858,313.31183
"224",83.346,313.32516
"225",83.80499,313.3385
"226",83.87335,313.35184
"227",83.62432,313.36517
"228",83.17021,313.3785
"229",82.6038,313.39185
"230",82.01297,313.40518
"231",81.45632,313.41852
"232",80.972916,313.43185
"233",80.58228,313.4452
"234",80.28443,313.45853
"235",80.06714,313.47186
"236",79.89868,313.4852
"237",79.75464,313.49854
"238",79.63012,313.51187
"239",79.5227,313.5252
"240",79.44457,313.53854
"241",79.40795,313.55188
"242",79.41772,313.56522
"243",79.45678,313.57855
"244",79.51537,313.5919
"245",79.569084,313.60522
"246",79.603264,313.61856
"247",79.603264,313.6319
"248",79.56176,313.64523
"249",79.47875,313.65857
"250",79.35424,313.6719
"251",79.20775,313.68524
"252",79.04173,313.69858
"253",78.87572,313.7119
"254",78.71946,313.72525
"255",78.58274,313.7386
"256",78.46311,313.75192
"257",78.37034,313.76526
"258",78.30198,313.7786
"259",78.25803,313.79193
"260",78.22873,313.80527
"261",78.21408,313.8186
"262",78.21164,313.83194
"263",78.25315,313.84528
"264",78.433815,313.8586
"265",78.873276,313.87195
"266",79.63744,313.88528
"267",80.67994,313.89862
"268",81.86893,313.91196
"269",82.98955,313.9253
"270",83.83429,313.93863
"271",84.27375,313.95197
"272",84.30549,313.9653
"273",84.01007,313.97864
"274",83.49981,313.99197
"275",82.882126,314.0053
"276",82.247345,314.01865
"277",81.654076,314.03198
"278",81.146255,314.04532
"279",80.740974,314.05865
"280",80.44312,314.072
"281",80.233154,314.08533
"282",80.07446,314.09866
"283",79.93286,314.112
"284",79.79614,314.12534
"285",79.66186,314.13867
"286",79.54955,314.152
"287",79.46899,314.16534
"288",79.43481,314.17868
"289",79.43969,314.19202
"290",79.47143,314.20535
"291",79.50317,314.2187
"292",79.52514,314.23203
"293",79.5227,314.24536
"294",79.48852,314.2587
"295",79.41772,314.27203
"296",79.31518,314.28537
"297",79.185776,314.2987
"298",79.04173,314.31204
"299",78.89525,314.32538
"300",78.75609,314.3387
"301",78.63401,314.35205
"302",78.53391,314.3654
"303",78.45579,314.37872
"304",78.39475,314.39206
"305",78.345924,314.4054
"306",78.30198,314.41873
"307",78.26292,314.43207
"308",78.25071,314.4454
"309",78.348366,314.45874
"310",78.6804,314.47208
"311",79.32006,314.4854
"312",80.2649,314.49875
"313",81.40749,314.5121
"314",82.55253,314.52542
"315",83.48028,314.53876
"316",84.034485,314.5521
"317",84.1712,314.56543
"318",83.95636,314.57877
"319",83.492485,314.5921
"320",82.89189,314.60544
"321",82.252235,314.61877
"322",81.64187,314.6321
"323",81.10475,314.64545
"324",80.66285,314.65878
"325",80.323494,314.67212
"326",80.06958,314.68546
"327",79.87427,314.6988
"328",79.7058,314.71213
"329",79.55932,314.72546
"330",79.429924,314.7388
"331",79.3225,314.75214
"332",79.24925,314.76547
"333",79.21507,314.7788
"334",79.219955,314.79214
"335",79.24925,314.80548
"336",79.28344,314.81882
"337",79.30541,314.83215
"338",79.30297,314.8455
"339",79.26391,314.85883
"340",79.183334,314.87216
"341",79.07103,314.8855
"342",78.93431,314.89883
"343",78.785385,314.91217
"344",78.63889,314.9255
"345",78.49973,314.93884
"346",78.37766,314.95218
"347",78.27268,314.9655
"348",78.18234,314.97885
"349",78.1091,314.9922
"350",78.048065,315.00552
"351",77.996796,315.01886
"352",77.96506,315.0322
"353",78.01633,315.04553
"354",78.260475,315.05887
"355",78.80736,315.0722
"356",79.693596,315.08554
"357",80.84352,315.09888
"358",82.07889,315.1122
"359",83.177536,315.12555
"360",83.92706,315.1389
"361",84.23956,315.15222
"362",84.14923,315.16556
"363",83.75372,315.1789
"364",83.175095,315.19223
"365",82.51591,315.20557
"366",81.85184,315.2189
"367",81.234146,315.23224
"368",80.69947,315.24557
"369",80.26002,315.2589
"370",79.91089,315.27225
"371",79.63012,315.28558
"372",79.40063,315.29892
"373",79.21019,315.31226
"374",79.05882,315.3256
"375",78.95384,315.33893
"376",78.905014,315.35226
"377",78.91478,315.3656
"378",78.97337,315.37894
"379",79.063705,315.39227
"380",79.1638,315.4056
"381",79.25414,315.41895
"382",79.31518,315.43228
"383",79.34203,315.44562
"384",79.3225,315.45895
"385",79.259026,315.4723
"386",79.15648,315.48563
"387",79.029526,315.49896
"388",78.887924,315.5123
"389",78.74387,315.52563
"390",78.61204,315.53897
"391",78.49973,315.5523
"392",78.4094,315.56564
"393",78.34104,315.57898
"394",78.294655,315.59232
"395",78.27512,315.60565
"396",78.345924,315.619
"397",78.6096,315.63232
"398",79.149155,315.64566
"399",79.98657,315.659
"400",81.03883,315.67233
"401",82.13992,315.68567
"402",83.07744,315.699
"403",83.67803,315.71234
"404",83.88068,315.72568
"405",83.72442,315.739
"406",83.3045,315.75235
"407",82.72831,315.7657
"408",82.08377,315.77902
"409",81.44167,315.79236
"410",80.84596,315.8057
"411",80.31861,315.81903
"412",79.869385,315.83237
"413",79.4934,315.8457
"414",79.185776,315.85904
"415",78.93919,315.87238
"416",78.75609,315.8857
"417",78.641335,315.89905
"418",78.60227,315.91238
"419",78.643776,315.92572
"420",78.751205,315.93906
"421",78.90257,315.9524
"422",79.06859,315.96573
"423",79.217514,315.97906
"424",79.31762,315.9924
"425",79.35912,316.00574
"426",79.34203,316.01907
"427",79.281,316.0324
"428",79.185776,316.04575
"429",79.07591,316.05908
"430",78.96361,316.07242
"431",78.853745,316.08575
"432",78.75365,316.0991
"433",78.67063,316.11243
"434",78.60227,316.12576
"435",78.54856,316.1391
"436",78.504616,316.15244
"437",78.485085,316.16577
"438",78.53391,316.1791
"439",78.76341,316.19244
"440",79.27856,316.20578
"441",80.11841,316.21912
"442",81.21217,316.23245
"443",82.39872,316.2458
"444",83.45342,316.25912
"445",84.18097,316.27246
"446",84.47883,316.2858
"447",84.37629,316.29913
"448",83.966125,316.31247
"449",83.35577,316.3258
"450",82.64774,316.33914
"451",81.91043,316.35248
"452",81.197525,316.3658
"453",80.5359,316.37915
"454",79.94751,316.3925
"455",79.43969,316.40582
"456",79.01732,316.41916
"457",78.66331,316.4325
"458",78.382545,316.44583
"459",78.18234,316.45917
"460",78.065155,316.4725
"461",78.04318,316.48584
"462",78.11154,316.49918
"463",78.25315,316.5125
"464",78.43626,316.52585
"465",78.6218,316.53918
"466",78.77806,316.55252
"467",78.88548,316.56586
"468",78.924545,316.5792
"469",78.90013,316.59253
"470",78.82201,316.60587
"471",78.69993,316.6192
"472",78.551,316.63254
"473",78.38987,316.64587
"474",78.23117,316.6592
"475",78.07492,316.67255
"476",77.92844,316.68588
"477",77.789276,316.69922
"478",77.659874,316.71255
"479",77.5964,316.7259
"480",77.71114,316.73923
"481",78.14328,316.75256
"482",78.96849,316.7659
"483",80.13306,316.77924
"484",81.46853,316.79257
"485",82.72831,316.8059
"486",83.67071,316.81924
"487",84.15167,316.83258
"488",84.17853,316.84592
"489",83.85138,316.85925
"490",83.28985,316.8726
"491",82.59647,316.88593
"492",81.85672,316.89926
"493",81.1194,316.9126
"494",80.41871,316.92593
"495",79.77905,316.93927
"496",79.20775,316.9526
"497",78.70725,316.96594
"498",78.28245,316.97928
"499",77.94797,316.9926
"500",77.72091,317.00595
"501",77.625694,317.0193
"502",77.66964,317.03262
"503",77.85275,317.04596
"504",78.14328,317.0593
"505",78.49729,317.07263
"506",78.853745,317.08597
"507",79.15648,317.0993
"508",79.36645,317.11264
"509",79.47387,317.12598
"510",79.483635,317.1393
"511",79.412834,317.15265
"512",79.29565,317.166
"513",79.14427,317.17932
"514",78.96849,317.19266
"515",78.77318,317.206
"516",78.56565,317.21933
"517",78.35569,317.23267
"518",78.19211,317.246
"519",78.187225,317.25934
"520",78.487526,317.27267
"521",79.183334,317.286
"522",80.22827,317.29935
"523",81.46853,317.31268
"524",82.66239,317.32602
"525",83.57061,317.33936
"526",84.03937,317.3527
"527",84.06134,317.36603
"528",83.736626,317.37936
"529",83.18242,317.3927
"530",82.49882,317.40604
"531",81.761505,317.41937
"532",81.02174,317.4327
"533",80.31129,317.44604
"534",79.65209,317.45938
"535",79.0515,317.47272
"536",78.519264,317.48605
"537",78.06271,317.4994
"538",77.69894,317.51273
"539",77.454796,317.52606
"540",77.35958,317.5394
"541",77.435265,317.55273
"542",77.67452,317.56607
"543",78.04318,317.5794
"544",78.47776,317.59274
"545",78.905014,317.60608
"546",79.26879,317.61942
"547",79.52758,317.63275
"548",79.66918,317.6461
"549",79.708244,317.65942
"550",79.66186,317.67276
"551",79.55932,317.6861
"552",79.415276,317.69943
"553",79.2517,317.71277
"554",79.07591,317.7261
"555",78.905014,317.73944
"556",78.768295,317.75278
"557",78.76097,317.7661
"558",79.0222,317.77945
"559",79.66674,317.7928
"560",80.69459,317.80612
"561",81.971466,317.81946
"562",83.27276,317.8328
"563",84.33967,317.84613
"564",84.97688,317.85947
"565",85.138016,317.8728
"566",84.90364,317.88614
"567",84.39094,317.89948
"568",83.717094,317.9128
"569",82.96269,317.92615
"570",82.18387,317.93948
"571",81.42214,317.95282
"572",80.706795,317.96616
"573",80.05493,317.9795
"574",79.47387,317.99283
"575",78.975815,318.00616
"576",78.56809,318.0195
"577",78.27024,318.03284
"578",78.10666,318.04617
"579",78.09201,318.0595
"580",78.23605,318.07285
"581",78.51438,318.08618
"582",78.87572,318.09952
"583",79.256584,318.11285
"584",79.59838,318.1262
"585",79.84741,318.13953
"586",79.98657,318.15286
"587",80.01343,318.1662
"588",79.95239,318.17953
"589",79.82544,318.19287
"590",79.65942,318.2062
"591",79.4641,318.21954
"592",79.26147,318.23288
"593",79.061264,318.24622
"594",78.90257,318.25955
"595",78.890366,318.2729
"596",79.17113,318.28622
"597",79.83765,318.29956
"598",80.87526,318.3129
"599",82.144806,318.32623
"600",83.41436,318.33957
"601",84.42512,318.3529
"602",84.998856,318.36624
"603",85.103836,318.37958
"604",84.825516,318.3929
"605",84.281075,318.40625
"606",83.58526,318.4196
"607",82.82353,318.43292
"608",82.054474,318.44626
"609",81.31472,318.4596
"610",80.62867,318.47293
"611",80.01099,318.48627
"612",79.466545,318.4996
"613",78.995346,318.51294
"614",78.60227,318.52628
"615",78.30442,318.5396
"616",78.116425,318.55295
"617",78.06027,318.56628
"618",78.1384,318.57962
"619",78.32639,318.59296
"620",78.5803,318.6063
"621",78.853745,318.61963
"622",79.08812,318.63297
"623",79.25414,318.6463
"624",79.33227,318.65964
"625",79.327385,318.67297
"626",79.2517,318.6863
"627",79.1223,318.69965
"628",78.958725,318.71298
"629",78.7805,318.72632
"630",78.590065,318.73965
"631",78.40208,318.753
"632",78.26292,318.76633
"633",78.28733,318.77966
"634",78.6218,318.793
"635",79.35912,318.80634
"636",80.46998,318.81967
"637",81.80057,318.833
"638",83.09941,318.84634
"639",84.11017,318.85968
"640",84.661934,318.87302
"641",84.74006,318.88635
"642",84.43244,318.8997
"643",83.86847,318.91302
"644",83.16777,318.92636
"645",82.41581,318.9397
"646",81.671165,318.95303
"647",80.970474,318.96637
"648",80.33814,318.9797
"649",79.77905,318.99304
"650",79.29809,319.00638
"651",78.887924,319.0197
"652",78.54612,319.03305
"653",78.28001,319.0464
"654",78.101776,319.05972
"655",78.02121,319.07306
"656",78.04318,319.0864
"657",78.153046,319.09973
"658",78.32639,319.11307
"659",78.52415,319.1264
"660",78.709694,319.13974
"661",78.853745,319.15308
"662",78.941635,319.1664
"663",78.958725,319.17975
"664",78.91966,319.19308
"665",78.82689,319.20642
"666",78.70237,319.21976
"667",78.555885,319.2331
"668",78.397194,319.24643
"669",78.24094,319.25977
"670",78.16281,319.2731
"671",78.29221,319.28644
"672",78.77318,319.29977
"673",79.65453,319.3131
"674",80.85817,319.32645
"675",82.196075,319.33978
"676",83.40948,319.35312
"677",84.266426,319.36646
"678",84.661934,319.3798
"679",84.62287,319.39313
"680",84.25666,319.40646
"681",83.68047,319.4198
"682",82.99443,319.43314
"683",82.27177,319.44647
"684",81.55642,319.4598
"685",80.88258,319.47314
"686",80.26978,319.48648
"687",79.727776,319.49982
"688",79.259026,319.51315
"689",78.853745,319.5265
"690",78.51682,319.53983
"691",78.25803,319.55316
"692",78.08713,319.5665
"693",78.01633,319.57983
"694",78.04562,319.59317
"695",78.16525,319.6065
"696",78.345924,319.61984
"697",78.553444,319.63318
"698",78.74387,319.6465
"699",78.890366,319.65985
"700",78.975815,319.6732
"701",78.995346,319.68652
"702",78.94408,319.69986
"703",78.84398,319.7132
"704",78.70725,319.72653
"705",78.551,319.73987
"706",78.39231,319.7532
"707",78.277565,319.76654
"708",78.32151,319.77988
"709",78.66575,319.7932
"710",79.3933,319.80655
"711",80.4773,319.8199
"712",81.76395,319.83322
"713",83.01152,319.84656
"714",83.97589,319.8599
"715",84.5008,319.87323
"716",84.56672,319.88657
"717",84.26887,319.8999
"718",83.719536,319.91324
"719",83.03105,319.92657
"720",82.286415,319.9399
"721",81.53933,319.95325
"722",80.82643,319.96658
"723",80.17456,319.97992
"724",79.5935,319.99326
"725",79.078354,320.0066
"726",78.62913,320.01993
"727",78.24826,320.03326
"728",77.95285,320.0466
"729",77.75754,320.05994
"730",77.679405,320.07327
"731",77.71847,320.0866
"732",77.86008,320.09995
"733",78.07736,320.11328
"734",78.31907,320.12662
"735",78.54856,320.13995
"736",78.73167,320.1533
"737",78.856186,320.16663
"738",78.91234,320.17996
"739",78.9099,320.1933
"740",78.85863,320.20663
"741",78.77074,320.21997
"742",78.6511,320.2333
"743",78.51438,320.24664
"744",78.41184,320.25998
"745",78.46067,320.27332
"746",78.80736,320.28665
"747",79.537346,320.3
"748",80.621346,320.31332
"749",81.91043,320.32666
"750",83.16289,320.34
"751",84.12482,320.35333
"752",84.6424,320.36667
"753",84.70344,320.38
"754",84.3885,320.39334
"755",83.82208,320.40668
"756",83.11406,320.42
"757",82.34257,320.43335
"758",81.55886,320.4467
"759",80.80446,320.46002
"760",80.10132,320.47336
"761",79.46166,320.4867
"762",78.89769,320.50003
"763",78.41428,320.51337
"764",78.02609,320.5267
"765",77.74288,320.54004
"766",77.58419,320.55338
"767",77.55489,320.5667
"768",77.65011,320.58005
"769",77.84543,320.59338
"770",78.10666,320.60672
"771",78.38499,320.62006
"772",78.63645,320.6334
"773",78.82201,320.64673
"774",78.92943,320.66006
"775",78.96117,320.6734
"776",78.922104,320.68674
"777",78.83177,320.70007
"778",78.70237,320.7134
"779",78.54612,320.72675
"780",78.38743,320.74008
"781",78.30198,320.75342
"782",78.42405,320.76675
"783",78.89281,320.7801
"784",79.742424,320.79343
"785",80.88991,320.80676
"786",82.142365,320.8201
"787",83.24834,320.83344
"788",84.000305,320.84677
"789",84.29084,320.8601
"790",84.16876,320.87344
"791",83.73174,320.88678
"792",83.10185,320.90012
"793",82.371864,320.91345
"794",81.60525,320.9268
"795",80.850845,320.94012
"796",80.1355,320.95346
"797",79.47875,320.9668
"798",78.88548,320.98013
"799",78.36057,320.99347
"800",77.91623,321.0068
"801",77.57198,321.02014
"802",77.349815,321.03348
"803",77.27169,321.0468
"804",77.34005,321.06015
"805",77.540245,321.0735
"806",77.83322,321.08682
"807",78.167694,321.10016
"808",78.487526,321.1135
"809",78.75365,321.12683
"810",78.93431,321.14017
"811",79.02464,321.1535
"812",79.03441,321.16684
"813",78.975815,321.18018
"814",78.86839,321.1935
"815",78.729225,321.20685
"816",78.572975,321.22018
"817",78.47776,321.23352
"818",78.57786,321.24686
"819",79.00755,321.2602
"820",79.82056,321.27353
"821",80.94362,321.28687
"822",82.19119,321.3002
"823",83.31426,321.31354
"824",84.085754,321.32687
"825",84.403145,321.3402
"826",84.298164,321.35355
"827",83.87579,321.36688
"828",83.25323,321.38022
"829",82.530556,321.39355
"830",81.76639,321.4069
"831",81.007095,321.42023
"832",80.27711,321.43356
"833",79.5935,321.4469
"834",78.96605,321.46024
"835",78.4094,321.47357
"836",77.93332,321.4869
"837",77.56222,321.50024
"838",77.3254,321.51358
"839",77.24483,321.52692
"840",77.3254,321.54025
"841",77.54757,321.5536
"842",77.872284,321.56693
"843",78.24582,321.58026
"844",78.6096,321.5936
"845",78.91722,321.60693
"846",79.14183,321.62027
"847",79.27123,321.6336
"848",79.30785,321.64694
"849",79.27123,321.66028
"850",79.18089,321.6736
"851",79.061264,321.68695
"852",78.94408,321.7003
"853",78.91722,321.71362
"854",79.1223,321.72696
"855",79.67895,321.7403
"856",80.59693,321.75363
"857",81.77127,321.76697
"858",82.99199,321.7803
"859",84.01495,321.79364
"860",84.6424,321.80698
"861",84.808426,321.8203
"862",84.58137,321.83365
"863",84.08087,321.847
"864",83.41924,321.86032
"865",82.67948,321.87366
"866",81.92264,321.887
"867",81.18532,321.90033
"868",80.48951,321.91367
"869",79.84741,321.927
"870",79.26635,321.94034
"871",78.746315,321.95367
"872",78.29954,321.967
"873",77.943085,321.98035
"874",77.696495,321.99368
"875",77.58419,322.00702
"876",77.608604,322.02036
"877",77.75754,322.0337
"878",78.00412,322.04703
"879",78.30198,322.06036
"880",78.59495,322.0737
"881",78.84154,322.08704
"882",79.012436,322.10037
"883",79.09544,322.1137
"884",79.08812,322.12704
"885",79.012436,322.14038
"886",78.88548,322.15372
"887",78.72678,322.16705
"888",78.59495,322.1804
"889",78.61936,322.19373
"890",78.95384,322.20706
"891",79.67162,322.2204
"892",80.73365,322.23373
"893",81.98367,322.24707
"894",83.17265,322.2604
"895",84.06134,322.27374
"896",84.51545,322.28708
"897",84.53498,322.3004
"898",84.21515,322.31375
"899",83.67559,322.3271
"900",83.01152,322.34042
"901",82.29862,322.35376
"902",81.58083,322.3671
"903",80.89723,322.38043
"904",80.26002,322.39377
"905",79.68383,322.4071
"906",79.1638,322.42044
"907",78.70237,322.43378
"908",78.30198,322.4471
"909",77.99191,322.46045
"910",77.786835,322.4738
"911",77.70382,322.48712
"912",77.7551,322.50046
"913",77.91867,322.5138
"914",78.16525,322.52713
"915",78.44114,322.54047
"916",78.69993,322.5538
"917",78.90013,322.56714
"918",79.0222,322.58047
"919",79.05882,322.5938
"920",79.01732,322.60715
"921",78.91722,322.62048
"922",78.78294,322.63382
"923",78.64622,322.64716
"924",78.60227,322.6605
"925",78.802475,322.67383
"926",79.36645,322.68716
"927",80.306404,322.7005
"928",81.514915,322.71384
"929",82.777145,322.72717
"930",83.83429,322.7405
"931",84.49348,322.75385
"932",84.69611,322.76718
"933",84.508125,322.78052
"934",84.04425,322.79385
"935",83.421684,322.8072
"936",82.718544,322.82053
"937",81.99588,322.83386
"938",81.28054,322.8472
"939",80.61402,322.86053
"940",80.00366,322.87387
"941",79.45678,322.8872
"942",78.96605,322.90054
"943",78.536354,322.91388
"944",78.17746,322.92722
"945",77.908905,322.94055
"946",77.752655,322.9539
"947",77.72091,322.96722
"948",77.80881,322.98056
"949",77.98703,322.9939
"950",78.2092,323.00723
"951",78.43137,323.02057
"952",78.61936,323.0339
"953",78.74876,323.04724
"954",78.80736,323.06058
"955",78.802475,323.0739
"956",78.73899,323.08725
"957",78.63645,323.1006
"958",78.51194,323.11392
"959",78.44846,323.12726
"960",78.5803,323.1406
"961",79.05882,323.15393
"962",79.92798,323.16727
"963",81.11696,323.1806
"964",82.43046,323.19394
"965",83.614555,323.20728
"966",84.439766,323.2206
"967",84.79866,323.23395
"968",84.72785,323.24728
"969",84.33723,323.26062
"970",83.74639,323.27396
"971",83.05058,323.2873
"972",82.320595,323.30063
"973",81.600365,323.31396
"974",80.921646,323.3273
"975",80.30396,323.34064
"976",79.744865,323.35397
"977",79.24193,323.3673
"978",78.80003,323.38065
"979",78.42405,323.39398
"980",78.133514,323.40732
"981",77.945526,323.42065
"982",77.86984,323.434
"983",77.90646,323.44733
"984",78.028534,323.46066
"985",78.2092,323.474
"986",78.40208,323.48734
"987",78.572975,323.50067
"988",78.69749,323.514
"989",78.76097,323.52734
"990",78.76097,323.54068
"991",78.70481,323.55402
"992",78.59983,323.56735
"993",78.470436,323.5807
"994",78.38743,323.59402
"995",78.48264,323.60736
"996",78.90257,323.6207
"997",79.708244,323.63403
"998",80.84352,323.64737
"999",82.125275,323.6607
"1000",83.302055,323.67404
"1001",84.14191,323.68738
"1002",84.5301,323.7007
"1003",84.48371,323.71405
"1004",84.11017,323.7274
"1005",83.53155,323.74072
"1006",82.847946,323.75406
"1007",82.125275,323.7674
"1008",81.40261,323.78073
"1009",80.723885,323.79407
"1010",80.096436,323.8074
"1011",79.53002,323.82074
"1012",79.01976,323.83408
"1013",78.57053,323.8474
"1014",78.18234,323.86075
"1015",77.874725,323.87408
"1016",77.66964,323.88742
"1017",77.58175,323.90076
"1018",77.611046,323.9141
"1019",77.738,323.92743
"1020",77.92844,323.94077
"1021",78.14084,323.9541
"1022",78.3386,323.96744
"1023",78.487526,323.98077
"1024",78.57542,323.9941
"1025",78.59251,324.00745
"1026",78.54856,324.02078
"1027",78.45579,324.03412
"1028",78.34348,324.04745
"1029",78.29954,324.0608
"1030",78.46555,324.07413
"1031",78.9807,324.08746
"1032",79.88159,324.1008
"1033",81.08522,324.11414
"1034",82.38407,324.12747
"1035",83.529106,324.1408
"1036",84.29572,324.15414
"1037",84.596016,324.16748
"1038",84.471504,324.18082
"1039",84.04181,324.19415
"1040",83.4168,324.2075
"1041",82.69413,324.22083
"1042",81.94461,324.23416
"1043",81.21706,324.2475
"1044",80.54078,324.26083
"1045",79.93286,324.27417
"1046",79.39086,324.2875
"1047",78.9099,324.30084
"1048",78.485085,324.31418
"1049",78.12863,324.3275
"1050",77.857635,324.34085
"1051",77.69161,324.3542
"1052",77.63546,324.36752
"1053",77.68673,324.38086
"1054",77.81857,324.3942
"1055",77.996796,324.40753
"1056",78.18234,324.42087
"1057",78.34104,324.4342
"1058",78.45335,324.44754
"1059",78.50706,324.46088
"1060",78.49973,324.4742
"1061",78.44114,324.48755
"1062",78.345924,324.5009
"1063",78.260475,324.51422
"1064",78.30442,324.52756
"1065",78.6218,324.5409
"1066",79.31762,324.55423
"1067",80.37476,324.56757
"1068",81.64675,324.5809
"1069",82.90654,324.59424
"1070",83.897766,324.60757
"1071",84.454414,324.6209
"1072",84.54963,324.63425
"1073",84.27619,324.64758
"1074",83.75128,324.66092
"1075",83.089645,324.67426
"1076",82.36454,324.6876
"1077",81.636986,324.70093
"1078",80.936295,324.71426
"1079",80.28443,324.7276
"1080",79.693596,324.74094
"1081",79.17113,324.75427
"1082",78.712135,324.7676
"1083",78.314186,324.78094
"1084",77.994354,324.79428
"1085",77.7673,324.80762
"1086",77.64767,324.82095
"1087",77.63546,324.8343
"1088",77.72335,324.84763
"1089",77.87717,324.86096
"1090",78.06027,324.8743
"1091",78.23361,324.88763
"1092",78.3679,324.90097
"1093",78.44846,324.9143
"1094",78.467995,324.92764
"1095",78.42893,324.94098
"1096",78.345924,324.9543
"1097",78.25803,324.96765
"1098",78.26292,324.981
"1099",78.50706,324.99432
"1100",79.11253,325.00766
"1101",80.08423,325.021
"1102",81.31472,325.03433
"1103",82.58671,325.04767
"1104",83.648735,325.061
"1105",84.30793,325.07434
"1106",84.51057,325.08768
"1107",84.317696,325.101
"1108",83.844055,325.11435
"1109",83.209274,325.1277
"1110",82.49882,325.14102
"1111",81.76883,325.15436
"1112",81.06081,325.1677
"1113",80.40162,325.18103
"1114",79.79126,325.19437
"1115",79.23949,325.2077
"1116",78.746315,325.22104
"1117",78.31663,325.23438
"1118",77.9675,325.2477
"1119",77.71847,325.26105
"1120",77.58175,325.27438
"1121",77.55245,325.28772
"1122",77.62081,325.30106
"1123",77.75754,325.3144
"1124",77.925995,325.32773
"1125",78.09201,325.34106
"1126",78.22873,325.3544
"1127",78.32395,325.36774
"1128",78.365456,325.38107
"1129",78.35325,325.3944
"1130",78.28977,325.40775
"1131",78.20676,325.42108
"1132",78.19943,325.43442
"1133",78.41917,325.44775
"1134",78.992905,325.4611
"1135",79.94263,325.47443
"1136",81.15358,325.48776
"1137",82.408485,325.5011
"1138",83.46075,325.51443
"1139",84.11749,325.52777
"1140",84.315254,325.5411
"1141",84.12482,325.55444
"1142",83.66338,325.56778
"1143",83.038376,325.58112
"1144",82.33524,325.59445
"1145",81.61501,325.6078
"1146",80.90944,325.62112
"1147",80.24536,325.63446
"1148",79.635,325.6478
"1149",79.08324,325.66113
"1150",78.590065,325.67447
"1151",78.170135,325.6878
"1152",77.823456,325.70114
"1153",77.57198,325.71448
"1154",77.42794,325.7278
"1155",77.39376,325.74115
"1156",77.454796,325.7545
"1157",77.591515,325.76782
"1158",77.76486,325.78116
"1159",77.9382,325.7945
"1160",78.08957,325.80783
"1161",78.19943,325.82117
"1162",78.25315,325.8345
"1163",78.25315,325.84784
"1164",78.2092,325.86118
"1165",78.15793,325.8745
"1166",78.204315,325.88785
"1167",78.50706,325.90118
"1168",79.166245,325.91452
"1169",80.17456,325.92786
"1170",81.40017,325.9412
"1171",82.61845,325.95453
"1172",83.5877,325.96786
"1173",84.14191,325.9812
"1174",84.25178,325.99454
"1175",83.99786,326.00787
"1176",83.492485,326.0212
"1177",82.83818,326.03455
"1178",82.11795,326.04788
"1179",81.38796,326.06122
"1180",80.6775,326.07455
"1181",80.01099,326.0879
"1182",79.40063,326.10123
"1183",78.8513,326.11456
"1184",78.35813,326.1279
"1185",77.943085,326.14124
"1186",77.62081,326.15457
"1187",77.401085,326.1679
"1188",77.298546,326.18124
"1189",77.315636,326.19458
"1190",77.4255,326.20792
"1191",77.59884,326.22125
"1192",77.79904,326.2346
"1193",77.98703,326.24792
"1194",78.1384,326.26126
"1195",78.23605,326.2746
"1196",78.27268,326.28793
"1197",78.25559,326.30127
"1198",78.2092,326.3146
"1199",78.204315,326.32794
"1200",78.382545,326.34128
"1201",78.8806,326.3546
"1202",79.7522,326.36795
"1203",80.907,326.3813
"1204",82.15701,326.39462
"1205",83.26055,326.40796
"1206",84.00519,326.4213
"1207",84.300606,326.43463
"1208",84.18829,326.44797
"1209",83.775696,326.4613
"1210",83.18486,326.47464
"1211",82.496376,326.48798
"1212",81.77615,326.5013
"1213",81.06325,326.51465
"1214",80.38697,326.52798
"1215",79.74975,326.54132
"1216",79.15892,326.55466
"1217",78.61936,326.568
"1218",78.14328,326.58133
"1219",77.7551,326.59467
"1220",77.47433,326.608
"1221",77.31075,326.62134
"1222",77.26925,326.63467
"1223",77.33517,326.648
"1224",77.48165,326.66135
"1225",77.67452,326.67468
"1226",77.87961,326.68802
"1227",78.065155,326.70135
"1228",78.20676,326.7147
"1229",78.28977,326.72803
"1230",78.3093,326.74136
"1231",78.28489,326.7547
"1232",78.2678,326.76804
"1233",78.380104,326.78137
"1234",78.76341,326.7947
"1235",79.49096,326.80804
"1236",80.52369,326.82138
"1237",81.71267,326.83472
"1238",82.82353,326.84805
"1239",83.63653,326.8614
"1240",84.02472,326.87473
"1241",84.000305,326.88806
"1242",83.6585,326.9014
"1243",83.11162,326.91473
"1244",82.45731,326.92807
"1245",81.75662,326.9414
"1246",81.05592,326.95474
"1247",80.377205,326.96808
"1248",79.7351,326.9814
"1249",79.14671,326.99475
"1250",78.61204,327.0081
"1251",78.135956,327.02142
"1252",77.738,327.03476
"1253",77.44015,327.0481
"1254",77.25704,327.06143
"1255",77.196,327.07477
"1256",77.24971,327.0881
"1257",77.3962,327.10144
"1258",77.5964,327.11478
"1259",77.81369,327.1281
"1260",78.009,327.14145
"1261",78.16281,327.1548
"1262",78.260475,327.16812
"1263",78.30442,327.18146
"1264",78.29954,327.1948
"1265",78.28733,327.20813
"1266",78.37522,327.22147
"1267",78.69749,327.2348
"1268",79.33959,327.24814
"1269",80.28687,327.26147
"1270",81.40749,327.2748
"1271",82.49149,327.28815
"1272",83.31426,327.30148
"1273",83.73907,327.31482
"1274",83.756165,327.32816
"1275",83.45098,327.3415
"1276",82.93584,327.35483
"1277",82.31327,327.36816
"1278",81.654076,327.3815
"1279",80.99489,327.39484
"1280",80.35767,327.40817
"1281",79.7522,327.4215
"1282",79.185776,327.43484
"1283",78.66575,327.44818
"1284",78.2092,327.46152
"1285",77.83566,327.47485
"1286",77.56222,327.4882
"1287",77.40841,327.50153
"1288",77.37911,327.51486
"1289",77.45724,327.5282
"1290",77.62325,327.54153
"1291",77.838104,327.55487
"1292",78.06271,327.5682
"1293",78.26292,327.58154
"1294",78.41428,327.59488
"1295",78.5095,327.60822
"1296",78.54612,327.62155
"1297",78.538795,327.6349
"1298",78.538795,327.64822
"1299",78.65354,327.66156
"1300",79.012436,327.6749
"1301",79.68383,327.68823
"1302",80.618904,327.70157
"1303",81.671165,327.7149
"1304",82.633095,327.72824
"1305",83.30938,327.74158
"1306",83.595024,327.7549
"1307",83.51202,327.76825
"1308",83.158005,327.7816
"1309",82.6453,327.79492
"1310",82.05936,327.80826
"1311",81.446556,327.8216
"1312",80.84108,327.83493
"1313",80.26002,327.84827
"1314",79.71313,327.8616
"1315",79.200424,327.87494
"1316",78.73899,327.88828
"1317",78.34348,327.9016
"1318",78.02365,327.91495
"1319",77.79416,327.92828
"1320",77.66964,327.94162
"1321",77.65011,327.95496
"1322",77.72579,327.9683
"1323",77.86984,327.98163
"1324",78.06027,327.99496
"1325",78.25803,328.0083
"1326",78.43626,328.02164
"1327",78.56809,328.03497
"1328",78.64622,328.0483
"1329",78.675514,328.06165
"1330",78.68528,328.07498
"1331",78.76097,328.08832
"1332",79.0222,328.10165
"1333",79.5642,328.115
"1334",80.38941,328.12833
"1335",81.39529,328.14166
"1336",82.408485,328.155
"1337",83.23369,328.16833
"1338",83.72198,328.18167
"1339",83.83429,328.195
"1340",83.63897,328.20834
"1341",83.23125,328.22168
"1342",82.69901,328.23502
"1343",82.12039,328.24835
"1344",81.53445,328.2617
"1345",80.96315,328.27502
"1346",80.42603,328.28836
"1347",79.923096,328.3017
"1348",79.45922,328.31503
"1349",79.03929,328.32837
"1350",78.677956,328.3417
"1351",78.39475,328.35504
"1352",78.20187,328.36838
"1353",78.1091,328.3817
"1354",78.11154,328.39505
"1355",78.19699,328.4084
"1356",78.3386,328.42172
"1357",78.50706,328.43506
"1358",78.66575,328.4484
"1359",78.79515,328.46173
"1360",78.87816,328.47507
"1361",78.9099,328.4884
"1362",78.907455,328.50174
"1363",78.92943,328.51508
"1364",79.097885,328.5284
"1365",79.51537,328.54175
"1366",80.216064,328.55508
"1367",81.126724,328.56842
"1368",82.10086,328.58176
"1369",82.94316,328.5951
"1370",83.49004,328.60843
"1371",83.682915,328.62177
"1372",83.560844,328.6351
"1373",83.22148,328.64844
"1374",82.74784,328.66177
"1375",82.20828,328.6751
"1376",81.651634,328.68845
"1377",81.10231,328.70178
"1378",80.57984,328.71512
"1379",80.08911,328.72845
"1380",79.63744,328.7418
"1381",79.22728,328.75513
"1382",78.86351,328.76846
"1383",78.55833,328.7818
"1384",78.331276,328.79514
"1385",78.18967,328.80847
"1386",78.1384,328.8218
"1387",78.170135,328.83514
"1388",78.2678,328.84848
"1389",78.40208,328.86182
"1390",78.54612,328.87515
"1391",78.68284,328.8885
"1392",78.78783,328.90182
"1393",78.84398,328.91516
"1394",78.86107,328.9285
"1395",78.88548,328.94183
"1396",79.01488,328.95517
"1397",79.364006,328.9685
"1398",79.98901,328.98184
"1399",80.83864,328.99518
"1400",81.78348,329.0085
"1401",82.64042,329.02185
"1402",83.24101,329.0352
"1403",83.50469,329.04852
"1404",83.44854,329.06186
"1405",83.160446,329.0752
"1406",82.72587,329.08853
"1407",82.22293,329.10187
"1408",81.69558,329.1152
"1409",81.17799,329.12854
"1410",80.68238,329.14188
"1411",80.218506,329.1552
"1412",79.783936,329.16855
"1413",79.381096,329.1819
"1414",79.01732,329.19522
"1415",78.71458,329.20856
"1416",78.485085,329.2219
"1417",78.35081,329.23523
"1418",78.314186,329.24857
"1419",78.3679,329.2619
"1420",78.485085,329.27524
"1421",78.63645,329.28857
"1422",78.78294,329.3019
"1423",78.90257,329.31525
"1424",78.9807,329.32858
"1425",79.012436,329.34192
"1426",79.012436,329.35526
"1427",79.0222,329.3686
"1428",79.149155,329.38193
"1429",79.4934,329.39526
"1430",80.10864,329.4086
"1431",80.95827,329.42194
"1432",81.91287,329.43527
"1433",82.794235,329.4486
"1434",83.424126,329.46194
"1435",83.70977,329.47528
"1436",83.67071,329.48862
"1437",83.38506,329.50195
"1438",82.9456,329.5153
"1439",82.43046,329.52863
"1440",81.898224,329.54196
"1441",81.373314,329.5553
"1442",80.87526,329.56863
"1443",80.40894,329.58197
"1444",79.971924,329.5953
"1445",79.571526,329.60864
"1446",79.21019,329.62198
"1447",78.905014,329.6353
"1448",78.66575,329.64865
"1449",78.504616,329.662
"1450",78.42893,329.67532
"1451",78.43137,329.68866
"1452",78.49241,329.702
"1453",78.590065,329.71533
"1454",78.69993,329.72867
"1455",78.79515,329.742
"1456",78.853745,329.75534
"1457",78.87816,329.76868
"1458",78.870834,329.782
"1459",78.8806,329.79535
"1460",79.00023,329.8087
"1461",79.344475,329.82202
"1462",79.9646,329.83536
"1463",80.82643,329.8487
"1464",81.80057,329.86203
"1465",82.70878,329.87537
"1466",83.370415,329.8887
"1467",83.69024,329.90204
"1468",83.67559,329.91537
"1469",83.40215,329.9287
"1470",82.96269,329.94205
"1471",82.44022,329.95538
"1472",81.88602,329.96872
"1473",81.33669,329.98206
"1474",80.81178,329.9954
"1475",80.325935,330.00873
"1476",79.87427,330.02206
"1477",79.466545,330.0354
"1478",79.10521,330.04874
"1479",78.79759,330.06207
"1480",78.55833,330.0754
"1481",78.39231,330.08875
"1482",78.3093,330.10208
"1483",78.294655,330.11542
"1484",78.3386,330.12875
"1485",78.41184,330.1421
"1486",78.49973,330.15543
"1487",78.57542,330.16876
"1488",78.624245,330.1821
"1489",78.63889,330.19543
"1490",78.624245,330.20877
"1491",78.61936,330.2221
"1492",78.71702,330.23544
"1493",79.04173,330.24878
"1494",79.65453,330.26212
"1495",80.52369,330.27545
"1496",81.52468,330.2888
"1497",82.476845,330.30212
"1498",83.194626,330.31546
"1499",83.563286,330.3288
"1500",83.5877,330.34213
"1501",83.346,330.35547
"1502",82.92851,330.3688
"1503",82.41093,330.38214
"1504",81.846954,330.39548
"1505",81.27566,330.4088
"1506",80.72144,330.42215
"1507",80.19409,330.4355
"1508",79.7058,330.44882
"1509",79.26635,330.46216
"1510",78.8806,330.4755
"1511",78.56321,330.48883
"1512",78.31907,330.50217
"1513",78.16525,330.5155
"1514",78.099335,330.52884
"1515",78.11154,330.54218
"1516",78.18234,330.5555
"1517",78.28245,330.56885
"1518",78.38743,330.58218
"1519",78.4802,330.59552
"1520",78.54124,330.60886
"1521",78.56565,330.6222
"1522",78.55833,330.63553
"1523",78.555885,330.64886
"1524",78.63645,330.6622
"1525",78.9099,330.67554
"1526",79.45922,330.68887
"1527",80.26734,330.7022
"1528",81.22926,330.71555
"1529",82.17166,330.72888
"1530",82.913864,330.74222
"1531",83.32891,330.75555
"1532",83.39483,330.7689
"1533",83.17998,330.78223
"1534",82.774704,330.79556
"1535",82.262,330.8089
"1536",81.7029,330.82224
"1537",81.13649,330.83557
"1538",80.58228,330.8489
"1539",80.05249,330.86224
"1540",79.55688,330.87558
"1541",79.11009,330.88892
"1542",78.71702,330.90225
"1543",78.397194,330.9156
"1544",78.16281,330.92892
"1545",78.02609,330.94226
"1546",77.979706,330.9556
"1547",78.01877,330.96893
"1548",78.116425,330.98227
"1549",78.24582,330.9956
"1550",78.37766,331.00894
"1551",78.487526,331.02228
"1552",78.56077,331.0356
"1553",78.59251,331.04895
"1554",78.58762,331.0623
"1555",78.5803,331.07562
"1556",78.65354,331.08896
"1557",78.91234,331.1023
"1558",79.44457,331.11563
"1559",80.24048,331.12897
"1560",81.20241,331.1423
"1561",82.15457,331.15564
"1562",82.916306,331.16898
"1563",83.35088,331.1823
"1564",83.44366,331.19565
"1565",83.245895,331.20898
"1566",82.847946,331.22232
"1567",82.3328,331.23566
"1568",81.75418,331.249
"1569",81.15358,331.26233
"1570",80.56031,331.27567
"1571",79.991455,331.289
"1572",79.46166,331.30234
"1573",78.98802,331.31567
"1574",78.5803,331.329
"1575",78.25315,331.34235
"1576",78.02609,331.35568
"1577",77.90158,331.36902
"1578",77.87717,331.38235
"1579",77.93576,331.3957
"1580",78.05295,331.40903
"1581",78.19943,331.42236
"1582",78.34348,331.4357
"1583",78.46555,331.44904
"1584",78.54856,331.46237
"1585",78.59251,331.4757
"1586",78.59983,331.48904
"1587",78.59983,331.50238
"1588",78.67063,331.51572
"1589",78.922104,331.52905
"1590",79.432365,331.5424
"1591",80.2063,331.55573
"1592",81.146255,331.56906
"1593",82.091095,331.5824
"1594",82.862595,331.59573
"1595",83.32159,331.60907
"1596",83.43633,331.6224
"1597",83.265434,331.63574
"1598",82.89189,331.64908
"1599",82.38407,331.6624
"1600",81.80301,331.67575
"1601",81.19264,331.6891
"1602",80.57984,331.70242
"1603",79.98413,331.71576
"1604",79.429924,331.7291
"1605",78.92699,331.74243
"1606",78.49485,331.75577
"1607",78.14816,331.7691
"1608",77.908905,331.78244
"1609",77.77951,331.79578
"1610",77.75998,331.8091
"1611",77.83078,331.82245
"1612",77.9675,331.8358
"1613",78.133514,331.84912
"1614",78.30198,331.86246
"1615",78.44602,331.8758
"1616",78.551,331.88913
"1617",78.61448,331.90247
"1618",78.643776,331.9158
"1619",78.67063,331.92914
"1620",78.78294,331.94247
"1621",79.08812,331.9558
"1622",79.65453,331.96915
"1623",80.47242,331.98248
"1624",81.44167,331.99582
"1625",82.39384,332.00916
"1626",83.140915,332.0225
"1627",83.563286,332.03583
"1628",83.63897,332.04916
"1629",83.42901,332.0625
"1630",83.0164,332.07584
"1631",82.48417,332.08917
"1632",81.88846,332.1025
"1633",81.26101,332.11584
"1634",80.62867,332.12918
"1635",80.01343,332.14252
"1636",79.43969,332.15585
"1637",78.924545,332.1692
"1638",78.49485,332.18253
"1639",78.16281,332.19586
"1640",77.945526,332.2092
"1641",77.84299,332.22253
"1642",77.84787,332.23587
"1643",77.943085,332.2492
"1644",78.099335,332.26254
"1645",78.28245,332.27588
"1646",78.45579,332.2892
"1647",78.59495,332.30255
"1648",78.695045,332.3159
"1649",78.751205,332.32922
"1650",78.77318,332.34256
"1651",78.8098,332.3559
"1652",78.9514,332.36923
"1653",79.30541,332.38257
"1654",79.93042,332.3959
"1655",80.78981,332.40924
"1656",81.75906,332.42258
"1657",82.65995,332.4359
"1658",83.3167,332.44925
"1659",83.631645,332.4626
"1660",83.60479,332.47592
"1661",83.319145,332.48926
"1662",82.86015,332.5026
"1663",82.29374,332.51593
"1664",81.671165,332.52927
"1665",81.02663,332.5426
"1666",80.38941,332.55594
"1667",79.77905,332.56927
"1668",79.2224,332.5826
"1669",78.73655,332.59595
"1670",78.33616,332.60928
"1671",78.04074,332.62262
"1672",77.86252,332.63596
"1673",77.79904,332.6493
"1674",77.84299,332.66263
"1675",77.977264,332.67596
"1676",78.15793,332.6893
"1677",78.348366,332.70264
"1678",78.521706,332.71597
"1679",78.660866,332.7293
"1680",78.751205,332.74265
"1681",78.79759,332.75598
"1682",78.819565,332.76932
"1683",78.88304,332.78265
"1684",79.09544,332.796
"1685",79.54955,332.80933
"1686",80.2649,332.82266
"1687",81.17555,332.836
"1688",82.127716,332.84933
"1689",82.933395,332.86267
"1690",83.45098,332.876
"1691",83.62432,332.88934
"1692",83.49493,332.90268
"1693",83.13847,332.91602
"1694",82.63798,332.92935
"1695",82.04959,332.9427
"1696",81.4197,332.95602
"1697",80.7776,332.96936
"1698",80.147705,332.9827
"1699",79.554436,332.99603
"1700",79.012436,333.00937
"1701",78.551,333.0227
"1702",78.187225,333.03604
"1703",77.93576,333.04938
"1704",77.803925,333.0627
"1705",77.79172,333.07605
"1706",77.88205,333.0894
"1707",78.03586,333.10272
"1708",78.21896,333.11606
"1709",78.40208,333.1294
"1710",78.555885,333.14273
"1711",78.66819,333.15607
"1712",78.73655,333.1694
"1713",78.768295,333.18274
"1714",78.802475,333.19608
"1715",78.92943,333.2094
"1716",79.25414,333.22275
"1717",79.83765,333.23608
"1718",80.655525,333.24942
"1719",81.600365,333.26276
"1720",82.496376,333.2761
"1721",83.17998,333.28943
"1722",83.53887,333.30276
"1723",83.56573,333.3161
"1724",83.32647,333.32944
"1725",82.899216,333.34277
"1726",82.354774,333.3561
"1727",81.74441,333.36945
"1728",81.09987,333.38278
"1729",80.45289,333.39612
"1730",79.82788,333.40945
"1731",79.24925,333.4228
"1732",78.73899,333.43613
"1733",78.31907,333.44946
"1734",78.00656,333.4628
"1735",77.81613,333.47614
"1736",77.74288,333.48947
"1737",77.78195,333.5028
"1738",77.908905,333.51614
"1739",78.09201,333.52948
"1740",78.28977,333.54282
"1741",78.47776,333.55615
"1742",78.63157,333.5695
"1743",78.73167,333.58282
"1744",78.785385,333.59616
"1745",78.81468,333.6095
"1746",78.89281,333.62283
"1747",79.12962,333.63617
"1748",79.61303,333.6495
"1749",80.35279,333.66284
"1750",81.27322,333.67618
"1751",82.210724,333.6895
"1752",82.98955,333.70285
"1753",83.46563,333.7162
"1754",83.595024,333.72952
"1755",83.42657,333.74286
"1756",83.04082,333.7562
"1757",82.51591,333.76953
"1758",81.91531,333.78287
"1759",81.2781,333.7962
"1760",80.63355,333.80954
"1761",80.0061,333.82288
"1762",79.415276,333.8362
"1763",78.8806,333.84955
"1764",78.42893,333.86288
"1765",78.0798,333.87622
"1766",77.84787,333.88956
"1767",77.738,333.9029
"1768",77.74532,333.91623
"1769",77.84299,333.92957
"1770",78.009,333.9429
"1771",78.19699,333.95624
"1772",78.382545,333.96957
"1773",78.536354,333.9829
"1774",78.65598,333.99625
"1775",78.73167,334.00958
"1776",78.78294,334.02292
"1777",78.870834,334.03625
"1778",79.09056,334.0496
"1779",79.537346,334.06293
"1780",80.235596,334.07626
"1781",81.126724,334.0896
"1782",82.07156,334.10294
"1783",82.88945,334.11627
"1784",83.43389,334.1296
"1785",83.63897,334.14294
"1786",83.53155,334.15628
"1787",83.18974,334.16962
"1788",82.69657,334.18295
"1789",82.11795,334.1963
"1790",81.497826,334.20963
"1791",80.867935,334.22296
"1792",80.25025,334.2363
"1793",79.656975,334.24963
"1794",79.11742,334.26297
"1795",78.64866,334.2763
"1796",78.27512,334.28964
"1797",78.013885,334.30298
"1798",77.87717,334.3163
"1799",77.855194,334.32965
"1800",77.93088,334.343
"1801",78.082245,334.35632
"1802",78.27268,334.36966
"1803",78.47532,334.383
"1804",78.6511,334.39633
"1805",78.78294,334.40967
"1806",78.86595,334.423
"1807",78.91234,334.43634
"1808",78.97826,334.44968
"1809",79.1638,334.463
"1810",79.571526,334.47635
"1811",80.23804,334.4897
"1812",81.10475,334.50302
"1813",82.039825,334.51636
"1814",82.87236,334.5297
"1815",83.4461,334.54303
"1816",83.685356,334.55637
"1817",83.614555,334.5697
"1818",83.3045,334.58304
"1819",82.83574,334.59637
"1820",82.26444,334.6097
"1821",81.636986,334.62305
"1822",80.98268,334.63638
"1823",80.33082,334.64972
"1824",79.7058,334.66306
"1825",79.12962,334.6764
"1826",78.63401,334.68973
"1827",78.238495,334.70306
"1828",77.95773,334.7164
"1829",77.80148,334.72974
"1830",77.76486,334.74307
"1831",77.83078,334.7564
"1832",77.97482,334.76974
"1833",78.16281,334.78308
"1834",78.36057,334.79642
"1835",78.536354,334.80975
"1836",78.66819,334.8231
"1837",78.75853,334.83643
"1838",78.80736,334.84976
"1839",78.86595,334.8631
"1840",79.03197,334.87643
"1841",79.40795,334.88977
"1842",80.042725,334.9031
"1843",80.89235,334.91644
"1844",81.83963,334.92978
"1845",82.70634,334.9431
"1846",83.33379,334.95645
"1847",83.631645,334.9698
"1848",83.614555,334.98312
"1849",83.336235,334.99646
"1850",82.879684,335.0098
"1851",82.30839,335.02313
"1852",81.668724,335.03647
"1853",80.99733,335.0498
"1854",80.323494,335.06314
"1855",79.674065,335.07648
"1856",79.07347,335.0898
"1857",78.538795,335.10315
"1858",78.09201,335.1165
"1859",77.74288,335.12982
"1860",77.50851,335.14316
"1861",77.39132,335.1565
"1862",77.39132,335.16983
"1863",77.49386,335.18317
"1864",77.67208,335.1965
"1865",77.90158,335.20984
"1866",78.1384,335.22318
"1867",78.35569,335.2365
"1868",78.53147,335.24985
"1869",78.66575,335.26318
"1870",78.77806,335.27652
"1871",78.94652,335.28986
"1872",79.26635,335.3032
"1873",79.80835,335.31653
"1874",80.56031,335.32986
"1875",81.43923,335.3432
"1876",82.28886,335.35654
"1877",82.95293,335.36987
"1878",83.32159,335.3832
"1879",83.37774,335.39655
"1880",83.17021,335.40988
"1881",82.774704,335.42322
"1882",82.262,335.43655
"1883",81.68337,335.4499
"1884",81.07057,335.46323
"1885",80.448006,335.47656
"1886",79.84497,335.4899
"1887",79.28344,335.50323
"1888",78.78294,335.51657
"1889",78.365456,335.5299
"1890",78.05783,335.54324
"1891",77.872284,335.55658
"1892",77.803925,335.56992
"1893",77.84299,335.58325
"1894",77.97238,335.5966
"1895",78.15793,335.60992
"1896",78.3679,335.62326
"1897",78.57053,335.6366
"1898",78.74876,335.64993
"1899",78.8806,335.66327
"1900",78.96849,335.6766
"1901",79.044174,335.68994
"1902",79.19798,335.70328
"1903",79.53002,335.7166
"1904",80.10864,335.72995
"1905",80.91188,335.7433
"1906",81.83963,335.75662
"1907",82.72587,335.76996
"1908",83.407036,335.7833
"1909",83.77814,335.79663
"1910",83.81964,335.80997
"1911",83.59991,335.8233
"1912",83.194626,335.83664
"1913",82.6746,335.84998
"1914",82.08621,335.8633
"1915",81.46609,335.87665
"1916",80.84352,335.88998
"1917",80.23804,335.90332
"1918",79.67162,335.91666
"1919",79.17357,335.93
"1920",78.765854,335.94333
"1921",78.46311,335.95667
"1922",78.277565,335.97
"1923",78.204315,335.98334
"1924",78.22873,335.99667
"1925",78.33372,336.01
"1926",78.485085,336.02335
"1927",78.658424,336.03668
"1928",78.819565,336.05002
"1929",78.94896,336.06335
"1930",79.03685,336.0767
"1931",79.114975,336.09003
"1932",79.256584,336.10336
"1933",79.57397,336.1167
"1934",80.15015,336.13004
"1935",80.9778,336.14337
"1936",81.96658,336.1567
"1937",82.95293,336.17004
"1938",83.758606,336.18338
"1939",84.25422,336.19672
"1940",84.40803,336.21005
"1941",84.2591,336.2234
"1942",83.895325,336.23672
"1943",83.389946,336.25006
"1944",82.811325,336.2634
"1945",82.19852,336.27673
"1946",81.57839,336.29007
"1947",80.96803,336.3034
"1948",80.38941,336.31674
"1949",79.85718,336.33008
"1950",79.395744,336.3434
"1951",79.03197,336.35675
"1952",78.7805,336.3701
"1953",78.6511,336.38342
"1954",78.62913,336.39676
"1955",78.692604,336.4101
"1956",78.80736,336.42343
"1957",78.93919,336.43677
"1958",79.05882,336.4501
"1959",79.14427,336.46344
"1960",79.183334,336.47678
"1961",79.202866,336.4901
"1962",79.27856,336.50345
"1963",79.51049,336.51678
"1964",79.98413,336.53012
"1965",80.71412,336.54346
"1966",81.62722,336.5568
"1967",82.56962,336.57013
"1968",83.36797,336.58347
"1969",83.88556,336.5968
"1970",84.07843,336.61014
"1971",83.97833,336.62347
"1972",83.67071,336.6368
"1973",83.228806,336.65015
"1974",82.7161,336.66348
"1975",82.17166,336.67682
"1976",81.617455,336.69016
"1977",81.07057,336.7035
"1978",80.54322,336.71683
"1979",80.05737,336.73016
"1980",79.63012,336.7435
"1981",79.281,336.75684
"1982",79.01976,336.77017
"1983",78.856186,336.7835
"1984",78.785385,336.79684
"1985",78.79271,336.81018
"1986",78.8513,336.82352
"1987",78.93919,336.83685
"1988",79.0222,336.8502
"1989",79.07103,336.86353
"1990",79.08568,336.87686
"1991",79.078354,336.8902
"1992",79.10521,336.90353
"1993",79.26635,336.91687
"1994",79.65209,336.9302
"1995",80.291756,336.94354
"1996",81.13161,336.95688
"1997",82.04715,336.9702
"1998",82.865036,336.98355
"1999",83.44854,336.9969
"2000",83.72686,337.01022
"2001",83.70733,337.02356
"2002",83.46075,337.0369
"2003",83.06279,337.05023
"2004",82.58427,337.06357
"2005",82.07156,337.0769
"2006",81.5613,337.09024
"2007",81.06569,337.10358
"2008",80.59449,337.1169
"2009",80.15747,337.13025
"2010",79.764404,337.1436
"2011",79.42748,337.15692
"2012",79.168686,337.17026
"2013",78.99779,337.1836
"2014",78.905014,337.19693
"2015",78.87816,337.21027
"2016",78.89769,337.2236
"2017",78.93675,337.23694
"2018",78.975815,337.25027
"2019",78.995346,337.2636
"2020",78.98802,337.27695
"2021",78.95384,337.29028
"2022",78.93431,337.30362
"2023",79.012436,337.31696
"2024",79.28588,337.3303
"2025",79.81079,337.34363
"2026",80.56519,337.35696
"2027",81.45144,337.3703
"2028",82.31083,337.38364
"2029",82.984665,337.39697
"2030",83.36797,337.4103
"2031",83.45342,337.42365
"2032",83.29717,337.43698
"2033",82.97002,337.45032
"2034",82.545204,337.46365
"2035",82.074005,337.477
"2036",81.59304,337.49033
"2037",81.11452,337.50366
"2038",80.655525,337.517
"2039",80.22095,337.53033
"2040",79.82544,337.54367
"2041",79.47875,337.557
"2042",79.19798,337.57034
"2043",78.99046,337.58368
"2044",78.86107,337.59702
"2045",78.802475,337.61035
"2046",78.79271,337.6237
"2047",78.80736,337.63702
"2048",78.82689,337.65036
"2049",78.836655,337.6637
"2050",78.82201,337.67703
"2051",78.78294,337.69037
"2052",78.74387,337.7037
"2053",78.7805,337.71704
"2054",78.98314,337.73038
"2055",79.42504,337.7437
"2056",80.10864,337.75705
"2057",80.96315,337.7704
"2058",81.84207,337.78372
"2059",82.57694,337.79706
"2060",83.04814,337.8104
"2061",83.2166,337.82373
"2062",83.12138,337.83707
"2063",82.83574,337.8504
"2064",82.43778,337.86374
"2065",81.986115,337.87708
"2066",81.52712,337.8904
"2067",81.075455,337.90375
"2068",80.64576,337.91708
"2069",80.235596,337.93042
"2070",79.85474,337.94376
"2071",79.51293,337.9571
"2072",79.22484,337.97043
"2073",79.00023,337.98376
"2074",78.84398,337.9971
"2075",78.751205,338.01044
"2076",78.71458,338.02377
"2077",78.712135,338.0371
"2078",78.72678,338.05045
"2079",78.73167,338.06378
"2080",78.71702,338.07712
"2081",78.677956,338.09045
"2082",78.624245,338.1038
"2083",78.61448,338.11713
"2084",78.751205,338.13046
"2085",79.11742,338.1438
"2086",79.73754,338.15714
"2087",80.56275,338.17047
"2088",81.45632,338.1838
"2089",82.25712,338.19714
"2090",82.82109,338.21048
"2091",83.08476,338.22382
"2092",83.06523,338.23715
"2093",82.83818,338.2505
"2094",82.48661,338.26382
"2095",82.06668,338.27716
"2096",81.62234,338.2905
"2097",81.17799,338.30383
"2098",80.740974,338.31717
"2099",80.31617,338.3305
"2100",79.920654,338.34384
"2101",79.5642,338.35718
"2102",79.26147,338.3705
"2103",79.01976,338.38385
"2104",78.84886,338.3972
"2105",78.73899,338.41052
"2106",78.68772,338.42386
"2107",78.67307,338.4372
"2108",78.68284,338.45053
"2109",78.69016,338.46387
"2110",78.68284,338.4772
"2111",78.64866,338.49054
"2112",78.590065,338.50388
"2113",78.54612,338.5172
"2114",78.607155,338.53055
"2115",78.86351,338.54388
"2116",79.36889,338.55722
"2117",80.113525,338.57056
"2118",80.99733,338.5839
"2119",81.85916,338.59723
"2120",82.53788,338.61057
"2121",82.933395,338.6239
"2122",83.018845,338.63724
"2123",82.85283,338.65057
"2124",82.511024,338.6639
"2125",82.08377,338.67725
"2126",81.62478,338.69058
"2127",81.16579,338.70392
"2128",80.723885,338.71725
"2129",80.29908,338.7306
"2130",79.89136,338.74393
"2131",79.520256,338.75726
"2132",79.19798,338.7706
"2133",78.93675,338.78394
"2134",78.751205,338.79727
"2135",78.641335,338.8106
"2136",78.59495,338.82394
"2137",78.59495,338.83728
"2138",78.61692,338.85062
"2139",78.643776,338.86395
"2140",78.64866,338.8773
"2141",78.61936,338.89062
"2142",78.55833,338.90396
"2143",78.49241,338.9173
"2144",78.48264,338.93063
"2145",78.63401,338.94397
"2146",79.03197,338.9573
"2147",79.68871,338.97064
"2148",80.53834,338.98398
"2149",81.43923,338.9973
"2150",82.21561,339.01065
"2151",82.720985,339.024
"2152",82.913864,339.03732
"2153",82.82109,339.05066
"2154",82.528114,339.064
"2155",82.12283,339.07733
"2156",81.67849,339.09067
"2157",81.22682,339.104
"2158",80.782486,339.11734
"2159",80.35279,339.13068
"2160",79.937744,339.144
"2161",79.54223,339.15735
"2162",79.19066,339.1707
"2163",78.90013,339.18402
"2164",78.68284,339.19736
"2165",78.54612,339.2107
"2166",78.4802,339.22403
"2167",78.467995,339.23737
"2168",78.485085,339.2507
"2169",78.5095,339.26404
"2170",78.519264,339.27737
"2171",78.502174,339.2907
"2172",78.45579,339.30405
"2173",78.38987,339.31738
"2174",78.3386,339.33072
"2175",78.38987,339.34406
"2176",78.63889,339.3574
"2177",79.149155,339.37073
"2178",79.89624,339.38406
"2179",80.782486,339.3974
"2180",81.64431,339.41074
"2181",82.31815,339.42407
"2182",82.69413,339.4374
"2183",82.7625,339.45074
"2184",82.579384,339.46408
"2185",82.23514,339.47742
"2186",81.81033,339.49075
"2187",81.356224,339.5041
"2188",80.90456,339.51743
"2189",80.465096,339.53076
"2190",80.04028,339.5441
"2191",79.635,339.55743
"2192",79.26635,339.57077
"2193",78.94652,339.5841
"2194",78.69749,339.59744
"2195",78.52415,339.61078
"2196",78.42893,339.6241
"2197",78.39475,339.63745
"2198",78.399635,339.6508
"2199",78.42161,339.66412
"2200",78.44358,339.67746
"2201",78.44602,339.6908
"2202",78.416725,339.70413
"2203",78.36057,339.71747
"2204",78.29221,339.7308
"2205",78.27512,339.74414
"2206",78.399635,339.75748
"2207",78.76097,339.7708
"2208",79.3933,339.78415
"2209",80.233154,339.7975
"2210",81.14137,339.81082
"2211",81.94461,339.82416
"2212",82.493935,339.8375
"2213",82.72343,339.85083
"2214",82.65751,339.86417
"2215",82.38407,339.8775
"2216",81.991,339.89084
"2217",81.54665,339.90417
"2218",81.10231,339.9175
"2219",80.67017,339.93085
"2220",80.25025,339.94418
"2221",79.84985,339.95752
"2222",79.47143,339.97086
"2223",79.11986,339.9842
"2224",78.82201,339.99753
"2225",78.58762,340.01086
"2226",78.42649,340.0242
"2227",78.33616,340.03754
"2228",78.30442,340.05087
"2229",78.314186,340.0642
"2230",78.3386,340.07755
"2231",78.35569,340.09088
"2232",78.35081,340.10422
"2233",78.314186,340.11755
"2234",78.24826,340.1309
"2235",78.17746,340.14423
"2236",78.17746,340.15756
"2237",78.35081,340.1709
"2238",78.77318,340.18423
"2239",79.4519,340.19757
"2240",80.31617,340.2109
"2241",81.20973,340.22424
"2242",81.9617,340.23758
"2243",82.43534,340.25092
"2244",82.59403,340.26425
"2245",82.47196,340.2776
"2246",82.16678,340.29092
"2247",81.75662,340.30426
"2248",81.31228,340.3176
"2249",80.86061,340.33093
"2250",80.42115,340.34427
"2251",79.9939,340.3576
"2252",79.58373,340.37094
"2253",79.202866,340.38428
"2254",78.86595,340.3976
"2255",78.59251,340.41095
"2256",78.397194,340.4243
"2257",78.28001,340.43762
"2258",78.23117,340.45096
"2259",78.23361,340.4643
"2260",78.260475,340.47763
"2261",78.294655,340.49097
"2262",78.311745,340.5043
"2263",78.30686,340.51764
"2264",78.27024,340.53098
"2265",78.204315,340.5443
"2266",78.1384,340.55765
"2267",78.14084,340.57098
"2268",78.30686,340.58432
"2269",78.72434,340.59766
"2270",79.398186,340.611
"2271",80.257576,340.62433
"2272",81.15358,340.63766
"2273",81.90555,340.651
"2274",82.38407,340.66434
"2275",82.547646,340.67767
"2276",82.43534,340.691
"2277",82.1326,340.70435
"2278",81.72976,340.71768
"2279",81.290306,340.73102
"2280",80.84596,340.74435
"2281",80.411385,340.7577
"2282",79.98413,340.77103
"2283",79.571526,340.78436
"2284",79.17845,340.7977
"2285",78.819565,340.81104
"2286",78.52659,340.82437
"2287",78.30686,340.8377
"2288",78.17258,340.85104
"2289",78.1091,340.86438
"2290",78.101776,340.87772
"2291",78.118866,340.89105
"2292",78.14328,340.9044
"2293",78.15793,340.91772
"2294",78.150604,340.93106
"2295",78.116425,340.9444
"2296",78.05295,340.95773
"2297",77.977264,340.97107
"2298",77.945526,340.9844
"2299",78.05051,340.99774
"2300",78.38743,341.01108
"2301",78.98558,341.0244
"2302",79.79126,341.03775
"2303",80.672615,341.0511
"2304",81.45876,341.06442
"2305",81.99344,341.07776
"2306",82.21805,341.0911
"2307",82.15457,341.10443
"2308",81.88602,341.11777
"2309",81.497826,341.1311
"2310",81.05592,341.14444
"2311",80.61158,341.15778
"2312",80.17456,341.1711
"2313",79.7522,341.18445
"2314",79.34692,341.19778
"2315",78.97337,341.21112
"2316",78.64622,341.22446
"2317",78.38743,341.2378
"2318",78.204315,341.25113
"2319",78.10666,341.26447
"2320",78.08469,341.2778
"2321",78.11154,341.29114
"2322",78.16525,341.30447
"2323",78.21896,341.3178
"2324",78.25559,341.33115
"2325",78.26292,341.34448
"2326",78.238495,341.35782
"2327",78.18234,341.37115
"2328",78.11154,341.3845
"2329",78.06027,341.39783
"2330",78.10422,341.41116
"2331",78.3386,341.4245
"2332",78.82445,341.43784
"2333",79.534904,341.45117
"2334",80.365,341.4645
"2335",81.16823,341.47784
"2336",81.77127,341.49118
"2337",82.07156,341.50452
"2338",82.06912,341.51785
"2339",81.82742,341.5312
"2340",81.444115,341.54453
"2341",80.99489,341.55786
"2342",80.54078,341.5712
"2343",80.10132,341.58453
"2344",79.67895,341.59787
"2345",79.276115,341.6112
"2346",78.905014,341.62454
"2347",78.5803,341.63788
"2348",78.32395,341.6512
"2349",78.15549,341.66455
"2350",78.082245,341.6779
"2351",78.08957,341.69122
"2352",78.153046,341.70456
"2353",78.24338,341.7179
"2354",78.331276,341.73123
"2355",78.399635,341.74457
"2356",78.433815,341.7579
"2357",78.42893,341.77124
"2358",78.38499,341.78458
"2359",78.314186,341.7979
"2360",78.25559,341.81125
"2361",78.30442,341.8246
"2362",78.54856,341.83792
"2363",79.0515,341.85126
"2364",79.77661,341.8646
"2365",80.61646,341.87793
"2366",81.40261,341.89127
"2367",81.97635,341.9046
"2368",82.24246,341.91794
"2369",82.210724,341.93127
"2370",81.9617,341.9446
"2371",81.58572,341.95795
"2372",81.160904,341.97128
"2373",80.73853,341.98462
"2374",80.3357,341.99796
"2375",79.94751,342.0113
"2376",79.569084,342.02463
"2377",79.21019,342.03796
"2378",78.8806,342.0513
"2379",78.60471,342.06464
"2380",78.40208,342.07797
"2381",78.28733,342.0913
"2382",78.25559,342.10464
"2383",78.29221,342.11798
"2384",78.37278,342.13132
"2385",78.467995,342.14465
"2386",78.54856,342.158
"2387",78.59983,342.17133
"2388",78.60471,342.18466
"2389",78.56321,342.198
"2390",78.49241,342.21133
"2391",78.44358,342.22467
"2392",78.5095,342.238
"2393",78.785385,342.25134
"2394",79.31762,342.26468
"2395",80.06714,342.278
"2396",80.90944,342.29135
"2397",81.671165,342.3047
"2398",82.2034,342.31802
"2399",82.42802,342.33136
"2400",82.36942,342.3447
"2401",82.11063,342.35803
"2402",81.74685,342.37137
"2403",81.358665,342.3847
"2404",80.98024,342.39804
"2405",80.62379,342.41138
"2406",80.27955,342.4247
"2407",79.940186,342.43805
"2408",79.59838,342.4514
"2409",79.26147,342.46472
"2410",78.95384,342.47806
"2411",78.70725,342.4914
"2412",78.538795,342.50473
"2413",78.46067,342.51807
"2414",78.46311,342.5314
"2415",78.51194,342.54474
"2416",78.58518,342.55807
"2417",78.64622,342.5714
"2418",78.68528,342.58475
"2419",78.69016,342.59808
"2420",78.66331,342.61142
"2421",78.6096,342.62476
"2422",78.57053,342.6381
"2423",78.63645,342.65143
"2424",78.89525,342.66476
"2425",79.40063,342.6781
"2426",80.11597,342.69144
"2427",80.92897,342.70477
"2428",81.668724,342.7181
"2429",82.18631,342.73145
"2430",82.4036,342.74478
"2431",82.34989,342.75812
"2432",82.10086,342.77145
"2433",81.75906,342.7848
"2434",81.38308,342.79813
"2435",81.0193,342.81146
"2436",80.67506,342.8248
"2437",80.35035,342.83813
"2438",80.028076,342.85147
"2439",79.70336,342.8648
"2440",79.378654,342.87814
"2441",79.07103,342.89148
"2442",78.80003,342.90482
"2443",78.59739,342.91815
"2444",78.4802,342.9315
"2445",78.44846,342.94482
"2446",78.48997,342.95816
"2447",78.56809,342.9715
"2448",78.65598,342.98483
"2449",78.7219,342.99817
"2450",78.751205,343.0115
"2451",78.74143,343.02484
"2452",78.70237,343.03818
"2453",78.66331,343.0515
"2454",78.695045,343.06485
"2455",78.89281,343.0782
"2456",79.32006,343.09152
"2457",79.96704,343.10486
"2458",80.74586,343.1182
"2459",81.50271,343.13153
"2460",82.08133,343.14487
"2461",82.38651,343.1582
"2462",82.408485,343.17154
"2463",82.21805,343.18488
"2464",81.91531,343.1982
"2465",81.57351,343.21155
"2466",81.23659,343.22488
"2467",80.919205,343.23822
"2468",80.61646,343.25156
"2469",80.31129,343.2649
"2470",79.98901,343.27823
"2471",79.65453,343.29156
"2472",79.32006,343.3049
"2473",79.01732,343.31824
"2474",78.77318,343.33157
"2475",78.6096,343.3449
"2476",78.538795,343.35825
"2477",78.54612,343.37158
"2478",78.60227,343.38492
"2479",78.68284,343.39825
"2480",78.75365,343.4116
"2481",78.79027,343.42493
"2482",78.79027,343.43826
"2483",78.75853,343.4516
"2484",78.712135,343.46494
"2485",78.69016,343.47827
"2486",78.77562,343.4916
"2487",79.05394,343.50494
"2488",79.56664,343.51828
"2489",80.27955,343.53162
"2490",81.08522,343.54495
"2491",81.82254,343.5583
"2492",82.34745,343.57162
"2493",82.581825,343.58496
"2494",82.545204,343.5983
"2495",82.31815,343.61163
"2496",81.99588,343.62497
"2497",81.651634,343.6383
"2498",81.3196,343.65164
"2499",81.004654,343.66498
"2500",80.70435,343.6783
"2501",80.4065,343.69165
"2502",80.096436,343.705
"2503",79.76929,343.71832
"2504",79.447014,343.73166
"2505",79.151596,343.745
"2506",78.91234,343.75833
"2507",78.751205,343.77167
"2508",78.67307,343.785
"2509",78.66819,343.79834
"2510",78.709694,343.81168
"2511",78.768295,343.825
"2512",78.81468,343.83835
"2513",78.839096,343.85168
"2514",78.82933,343.86502
"2515",78.78783,343.87836
"2516",78.71946,343.8917
"2517",78.658424,343.90503
"2518",78.677956,343.91837
"2519",78.86351,343.9317
"2520",79.28344,343.94504
"2521",79.937744,343.95837
"2522",80.73365,343.9717
"2523",81.51736,343.98505
"2524",82.13016,343.99838
"2525",82.46708,344.01172
"2526",82.513466,344.02505
"2527",82.337685,344.0384
"2528",82.03494,344.05173
"2529",81.68093,344.06506
"2530",81.32693,344.0784
"2531",80.99489,344.09174
"2532",80.68482,344.10507
"2533",80.38453,344.1184
"2534",80.08179,344.13174
"2535",79.77173,344.14508
"2536",79.45678,344.15842
"2537",79.16136,344.17175
"2538",78.91234,344.1851
"2539",78.73411,344.19843
"2540",78.63645,344.21176
"2541",78.61204,344.2251
"2542",78.63889,344.23843
"2543",78.69016,344.25177
"2544",78.73899,344.2651
"2545",78.77074,344.27844
"2546",78.7805,344.29178
"2547",78.76341,344.3051
"2548",78.72434,344.31845
"2549",78.66331,344.3318
"2550",78.60471,344.34512
"2551",78.6096,344.35846
"2552",78.77562,344.3718
"2553",79.17357,344.38513
"2554",79.81079,344.39847
"2555",80.6067,344.4118
"2556",81.4197,344.42514
"2557",82.07645,344.43848
"2558",82.459755,344.4518
"2559",82.54032,344.46515
"2560",82.37919,344.4785
"2561",82.06912,344.49182
"2562",81.7029,344.50516
"2563",81.33425,344.5185
"2564",80.99489,344.53183
"2565",80.689705,344.54517
"2566",80.39918,344.5585
"2567",80.1062,344.57184
"2568",79.80835,344.58517
"2569",79.51537,344.5985
"2570",79.24925,344.61185
"2571",79.027084,344.62518
"2572",78.870834,344.63852
"2573",78.7805,344.65186
"2574",78.74876,344.6652
"2575",78.75853,344.67853
"2576",78.79515,344.69186
"2577",78.836655,344.7052
"2578",78.870834,344.71854
"2579",78.8806,344.73187
"2580",78.86595,344.7452
"2581",78.819565,344.75854
"2582",78.751205,344.77188
"2583",78.66819,344.78522
"2584",78.60471,344.79855
"2585",78.62913,344.8119
"2586",78.83421,344.82523
"2587",79.28832,344.83856
"2588",79.97925,344.8519
"2589",80.814224,344.86523
"2590",81.63943,344.87857
"2591",82.286415,344.8919
"2592",82.63798,344.90524
"2593",82.68925,344.91858
"2594",82.49882,344.93192
"2595",82.16678,344.94525
"2596",81.77615,344.9586
"2597",81.38796,344.97192
"2598",81.024185,344.98526
"2599",80.69215,344.9986
"2600",80.38209,345.01193
"2601",80.079346,345.02527
"2602",79.781494,345.0386
"2603",79.49584,345.05194
"2604",79.237045,345.06528
"2605",79.027084,345.0786
"2606",78.88304,345.09195
"2607",78.80736,345.1053
"2608",78.79271,345.11862
"2609",78.81712,345.13196
"2610",78.853745,345.1453
"2611",78.88304,345.15863
"2612",78.89525,345.17197
"2613",78.87816,345.1853
"2614",78.836655,345.19864
"2615",78.77562,345.21198
"2616",78.69993,345.2253
"2617",78.61448,345.23865
"2618",78.52903,345.25198
"2619",78.46311,345.26532
"2620",78.4802,345.27866
"2621",78.675514,345.292
"2622",79.11986,345.30533
"2623",79.81323,345.31866
"2624",80.672615,345.332
"2625",81.54177,345.34534
"2626",82.247345,345.35867
"2627",82.669716,345.372
"2628",82.76738,345.38535
"2629",82.60624,345.39868
"2630",82.27909,345.41202
"2631",81.87625,345.42535
"2632",81.46609,345.4387
"2633",81.08522,345.45203
"2634",80.73609,345.46536
"2635",80.411385,345.4787
"2636",80.10132,345.49203
"2637",79.798584,345.50537
"2638",79.50805,345.5187
"2639",79.25414,345.53204
"2640",79.04906,345.54538
"2641",78.91478,345.55872
"2642",78.84642,345.57205
"2643",78.83421,345.5854
"2644",78.853745,345.59872
"2645",78.887924,345.61206
"2646",78.91478,345.6254
"2647",78.92943,345.63873
"2648",78.91966,345.65207
"2649",78.89281,345.6654
"2650",78.84398,345.67874
"2651",78.78294,345.69208
"2652",78.709694,345.7054
"2653",78.6218,345.71875
"2654",78.52903,345.7321
"2655",78.467995,345.74542
"2656",78.50706,345.75876
"2657",78.746315,345.7721
"2658",79.2517,345.78543
"2659",80.008545,345.79877
"2660",80.90456,345.8121
"2661",81.76639,345.82544
"2662",82.425575,345.83878
"2663",82.76494,345.8521
"2664",82.77959,345.86545
"2665",82.547646,345.87878
"2666",82.16678,345.89212
"2667",81.72976,345.90546
"2668",81.29763,345.9188
"2669",80.89479,345.93213
"2670",80.52125,345.94547
"2671",80.177,345.9588
"2672",79.85718,345.97214
"2673",79.5642,345.98547
"2674",79.30297,345.9988
"2675",79.08812,346.01215
"2676",78.93675,346.02548
"2677",78.85863,346.03882
"2678",78.836655,346.05215
"2679",78.86351,346.0655
"2680",78.91478,346.07883
"2681",78.96361,346.09216
"2682",78.992905,346.1055
"2683",78.99779,346.11884
"2684",78.97337,346.13217
"2685",78.924545,346.1455
"2686",78.856186,346.15884
"2687",78.77074,346.17218
"2688",78.677956,346.18552
"2689",78.58274,346.19885
"2690",78.49485,346.2122
"2691",78.44602,346.22552
"2692",78.5095,346.23886
"2693",78.77562,346.2522
"2694",79.30541,346.26553
"2695",80.08423,346.27887
"2696",81.004654,346.2922
"2697",81.900665,346.30554
"2698",82.598915,346.31888
"2699",82.97978,346.3322
"2700",83.021286,346.34555
"2701",82.791794,346.3589
"2702",82.39384,346.37222
"2703",81.917755,346.38556
"2704",81.427025,346.3989
"2705",80.953384,346.41223
"2706",80.516365,346.42557
"2707",80.11841,346.4389
"2708",79.76196,346.45224
"2709",79.4519,346.46558
"2710",79.200424,346.4789
"2711",79.01976,346.49225
"2712",78.91722,346.50558
"2713",78.88548,346.51892
"2714",78.91478,346.53226
"2715",78.98558,346.5456
"2716",79.06615,346.55893
"2717",79.12962,346.57227
"2718",79.1638,346.5856
"2719",79.16136,346.59894
"2720",79.1223,346.61227
"2721",79.061264,346.6256
"2722",78.98558,346.63895
"2723",78.90257,346.65228
"2724",78.8098,346.66562
"2725",78.712135,346.67896
"2726",78.61448,346.6923
"2727",78.54368,346.70563
"2728",78.56077,346.71896
"2729",78.768295,346.7323
"2730",79.23949,346.74564
"2731",79.96948,346.75897
"2732",80.85817,346.7723
"2733",81.74929,346.78564
"2734",82.45731,346.79898
"2735",82.85039,346.81232
"2736",82.90166,346.82565
"2737",82.6746,346.839
"2738",82.26444,346.85233
"2739",81.76639,346.86566
"2740",81.24391,346.879
"2741",80.73121,346.89233
"2742",80.24292,346.90567
"2743",79.7937,346.919
"2744",79.395744,346.93234
"2745",79.06615,346.94568
"2746",78.819565,346.959
"2747",78.66819,346.97235
"2748",78.61204,346.9857
"2749",78.641335,346.99902
"2750",78.729225,347.01236
"2751",78.8513,347.0257
"2752",78.975815,347.03903
"2753",79.078354,347.05237
"2754",79.14427,347.0657
"2755",79.1638,347.07904
"2756",79.14427,347.09238
"2757",79.09544,347.1057
"2758",79.02464,347.11905
"2759",78.94408,347.1324
"2760",78.8513,347.14572
"2761",78.74876,347.15906
"2762",78.641335,347.1724
"2763",78.555885,347.18573
"2764",78.55833,347.19907
"2765",78.74876,347.2124
"2766",79.20775,347.22574
"2767",79.93042,347.23907
"2768",80.81911,347.2524
"2769",81.71999,347.26575
"2770",82.44022,347.27908
"2771",82.847946,347.29242
"2772",82.913864,347.30576
"2773",82.69413,347.3191
"2774",82.27665,347.33243
"2775",81.75906,347.34576
"2776",81.20241,347.3591
"2777",80.64576,347.37244
"2778",80.12085,347.38577
"2779",79.639885,347.3991
"2780",79.2224,347.41245
"2781",78.88304,347.42578
"2782",78.63401,347.43912
"2783",78.48997,347.45245
"2784",78.44846,347.4658
"2785",78.50706,347.47913
"2786",78.63645,347.49246
"2787",78.80736,347.5058
"2788",78.98314,347.51913
"2789",79.12962,347.53247
"2790",79.22484,347.5458
"2791",79.26635,347.55914
"2792",79.25414,347.57248
"2793",79.20531,347.58582
"2794",79.132065,347.59915
"2795",79.04173,347.6125
"2796",78.93431,347.62582
"2797",78.81712,347.63916
"2798",78.69749,347.6525
"2799",78.60471,347.66583
"2800",78.61204,347.67917
"2801",78.81712,347.6925
"2802",79.290764,347.70584
"2803",80.01831,347.71918
"2804",80.89235,347.7325
"2805",81.75174,347.74585
"2806",82.41825,347.7592
"2807",82.777145,347.77252
"2808",82.81377,347.78586
"2809",82.58427,347.7992
"2810",82.18143,347.81253
"2811",81.685814,347.82587
"2812",81.15114,347.8392
"2813",80.60914,347.85254
"2814",80.08179,347.86588
"2815",79.59594,347.8792
"2816",79.17601,347.89255
"2817",78.84154,347.90588
"2818",78.61204,347.91922
"2819",78.49241,347.93256
"2820",78.4802,347.9459
"2821",78.55833,347.95923
"2822",78.69749,347.97256
"2823",78.870834,347.9859
"2824",79.044174,347.99924
"2825",79.1931,348.01257
"2826",79.29565,348.0259
"2827",79.34692,348.03925
"2828",79.34936,348.05258
"2829",79.31518,348.06592
"2830",79.24925,348.07925
"2831",79.166245,348.0926
"2832",79.07591,348.10593
"2833",78.98802,348.11926
"2834",78.95384,348.1326
"2835",79.05394,348.14594
"2836",79.37133,348.15927
"2837",79.93042,348.1726
"2838",80.68238,348.18594
"2839",81.495384,348.19928
"2840",82.210724,348.21262
"2841",82.67948,348.22595
"2842",82.83574,348.2393
"2843",82.701454,348.25262
"2844",82.34501,348.26596
"2845",81.849396,348.2793
"2846",81.28054,348.29263
"2847",80.6775,348.30597
"2848",80.08667,348.3193
"2849",79.537346,348.33264
"2850",79.05638,348.34598
"2851",78.66575,348.3593
"2852",78.38743,348.37265
"2853",78.22873,348.386
"2854",78.19211,348.39932
"2855",78.25803,348.41266
"2856",78.40696,348.426
"2857",78.607155,348.43933
"2858",78.82201,348.45267
"2859",79.01976,348.466
"2860",79.17845,348.47934
"2861",79.28588,348.49268
"2862",79.33959,348.506
"2863",79.34936,348.51935
"2864",79.32494,348.53268
"2865",79.27123,348.54602
"2866",79.20775,348.55936
"2867",79.14427,348.5727
"2868",79.132065,348.58603
"2869",79.273674,348.59937
"2870",79.66918,348.6127
"2871",80.34547,348.62604
"2872",81.23903,348.63937
"2873",82.20584,348.6527
"2874",83.05791,348.66605
"2875",83.6292,348.67938
"2876",83.8465,348.69272
"2877",83.73907,348.70605
"2878",83.38262,348.7194
"2879",82.87236,348.73273
"2880",82.27665,348.74606
"2881",81.64919,348.7594
"2882",81.024185,348.77274
"2883",80.430916,348.78607
"2884",79.88403,348.7994
"2885",79.41039,348.81274
"2886",79.01976,348.82608
"2887",78.74143,348.83942
"2888",78.5803,348.85275
"2889",78.538795,348.8661
"2890",78.59983,348.87943
"2891",78.73899,348.89276
"2892",78.91966,348.9061
"2893",79.10521,348.91943
"2894",79.26635,348.93277
"2895",79.38598,348.9461
"2896",79.4519,348.95944
"2897",79.466545,348.97278
"2898",79.43725,348.9861
"2899",79.37133,348.99945
"2900",79.281,349.0128
"2901",79.1931,349.02612
"2902",79.17357,349.03946
"2903",79.32494,349.0528
"2904",79.727776,349.06613
"2905",80.40162,349.07947
"2906",81.26589,349.0928
"2907",82.16922,349.10614
"2908",82.93828,349.11948
"2909",83.41924,349.1328
"2910",83.56573,349.14615
"2911",83.421684,349.1595
"2912",83.05791,349.17282
"2913",82.55985,349.18616
"2914",81.988556,349.1995
"2915",81.3904,349.21283
"2916",80.797134,349.22617
"2917",80.22339,349.2395
"2918",79.70092,349.25284
"2919",79.24437,349.26617
"2920",78.87816,349.2795
"2921",78.6096,349.29285
"2922",78.46067,349.30618
"2923",78.42405,349.31952
"2924",78.48264,349.33286
"2925",78.61204,349.3462
"2926",78.7805,349.35953
"2927",78.94896,349.37286
"2928",79.09056,349.3862
"2929",79.19554,349.39954
"2930",79.2517,349.41287
"2931",79.26879,349.4262
"2932",79.24681,349.43954
"2933",79.1931,349.45288
"2934",79.114975,349.46622
"2935",79.044174,349.47955
"2936",79.05394,349.4929
"2937",79.23949,349.50623
"2938",79.67895,349.51956
"2939",80.365,349.5329
"2940",81.20973,349.54623
"2941",82.0618,349.55957
"2942",82.75273,349.5729
"2943",83.15068,349.58624
"2944",83.22392,349.59958
"2945",83.018845,349.6129
"2946",82.61845,349.62625
"2947",82.091095,349.6396
"2948",81.50271,349.65292
"2949",80.89723,349.66626
"2950",80.30152,349.6796
"2951",79.73754,349.69293
"2952",79.22728,349.70627
"2953",78.79271,349.7196
"2954",78.44846,349.73294
"2955",78.21164,349.74628
"2956",78.09201,349.7596
"2957",78.08957,349.77295
"2958",78.184784,349.7863
"2959",78.35081,349.79962
"2960",78.551,349.81296
"2961",78.74876,349.8263
"2962",78.91722,349.83963
"2963",79.04173,349.85297
"2964",79.114975,349.8663
"2965",79.14427,349.87964
"2966",79.13695,349.89297
"2967",79.09544,349.9063
"2968",79.04173,349.91965
"2969",79.0222,349.93298
"2970",79.11986,349.94632
"2971",79.42504,349.95966
"2972",79.97925,349.973
"2973",80.740974,349.98633
"2974",81.583275,349.99966
"2975",82.354774,350.013
"2976",82.896774,350.02634
"2977",83.13115,350.03967
"2978",83.06523,350.053
"2979",82.76494,350.06635
"2980",82.31083,350.07968
"2981",81.761505,350.09302
"2982",81.16579,350.10635
"2983",80.55543,350.1197
"2984",79.95972,350.13303
"2985",79.40307,350.14636
"2986",78.9099,350.1597
"2987",78.502174,350.17303
"2988",78.20187,350.18637
"2989",78.02365,350.1997
"2990",77.96506,350.21304
"2991",78.01633,350.22638
"2992",78.15549,350.23972
"2993",78.34104,350.25305
"2994",78.54368,350.2664
"2995",78.729225,350.27972
"2996",78.887924,350.29306
"2997",78.99779,350.3064
"2998",79.063705,350.31973
"2999",79.09056,350.33307
"3000",79.07591,350.3464
"3001",79.03685,350.35974
"3002",79.00755,350.37308
"3003",79.063705,350.3864
"3004",79.29565,350.39975
"3005",79.77417,350.4131
"3006",80.48951,350.42642
"3007",81.34402,350.43976
"3008",82.178986,350.4531
"3009",82.83574,350.46643
"3010",83.194626,350.47977
"3011",83.23125,350.4931
"3012",83.001755,350.50644
"3013",82.581825,350.51978
"3014",82.04227,350.5331
"3015",81.43191,350.54645
"3016",80.799576,350.55978
"3017",80.16968,350.57312
"3018",79.569084,350.58646
"3019",79.01488,350.5998
"3020",78.53147,350.61313
"3021",78.135956,350.62646
"3022",77.84543,350.6398
"3023",77.67696,350.65314
"3024",77.628136,350.66647
"3025",77.69405,350.6798
"3026",77.857635,350.69315
"3027",78.082245,350.70648
"3028",78.33372,350.71982
"3029",78.5803,350.73315
"3030",78.79759,350.7465
"3031",78.97093,350.75983
"3032",79.08324,350.77316
"3033",79.14183,350.7865
"3034",79.15892,350.79984
"3035",79.151596,350.81317
"3036",79.15892,350.8265
"3037",79.26879,350.83984
"3038",79.56176,350.85318
"3039",80.07446,350.86652
"3040",80.765396,350.87985
"3041",81.53689,350.8932
"3042",82.23514,350.90652
"3043",82.72587,350.91986
"3044",82.933395,350.9332
"3045",82.86992,350.94653
"3046",82.59403,350.95987
"3047",82.16922,350.9732
"3048",81.65896,350.98654
"3049",81.09743,350.99988
"3050",80.52369,351.0132
"3051",79.96216,351.02655
"3052",79.43725,351.0399
"3053",78.97826,351.05322
"3054",78.60471,351.06656
"3055",78.32639,351.0799
"3056",78.15549,351.09323
"3057",78.08713,351.10657
"3058",78.116425,351.1199
"3059",78.221405,351.13324
"3060",78.37766,351.14658
"3061",78.55833,351.1599
"3062",78.746315,351.17325
"3063",78.91966,351.18658
"3064",79.061264,351.19992
"3065",79.168686,351.21326
"3066",79.23216,351.2266
"3067",79.26635,351.23993
"3068",79.31274,351.25327
"3069",79.46166,351.2666
"3070",79.815674,351.27994
"3071",80.42359,351.29327
"3072",81.24391,351.3066
"3073",82.16922,351.31995
"3074",83.03349,351.33328
"3075",83.67803,351.34662
"3076",84.00519,351.35995
"3077",84.017395,351.3733
"3078",83.77814,351.38663
"3079",83.36309,351.39996
"3080",82.8333,351.4133
"3081",82.24979,351.42664
"3082",81.63943,351.43997
"3083",81.02907,351.4533
"3084",80.43824,351.46664
"3085",79.888916,351.47998
"3086",79.398186,351.49332
"3087",78.99779,351.50665
"3088",78.69993,351.52
"3089",78.51194,351.53333
"3090",78.4387,351.54666
"3091",78.46555,351.56
"3092",78.56565,351.57333
"3093",78.712135,351.58667
"3094",78.87816,351.6
"3095",79.03685,351.61334
"3096",79.168686,351.62668
"3097",79.26635,351.64
"3098",79.31762,351.65335
"3099",79.34203,351.6667
"3100",79.38598,351.68002
"3101",79.53979,351.69336
"3102",79.90845,351.7067
"3103",80.54322,351.72003
"3104",81.40749,351.73337
"3105",82.38407,351.7467
"3106",83.30694,351.76004
"3107",84.01007,351.77338
"3108",84.39582,351.7867
"3109",84.46418,351.80005
"3110",84.26887,351.8134
"3111",83.88312,351.82672
"3112",83.38262,351.84006
"3113",82.81377,351.8534
"3114",82.21805,351.86673
"3115",81.62234,351.88007
"3116",81.041275,351.8934
"3117",80.49195,351.90674
"3118",79.98657,351.92007
"3119",79.551994,351.9334
"3120",79.19798,351.94675
"3121",78.9514,351.96008
"3122",78.80736,351.97342
"3123",78.765854,351.98676
"3124",78.80492,352.0001
"3125",78.89281,352.01343
"3126",79.00267,352.02676
"3127",79.10521,352.0401
"3128",79.183334,352.05344
"3129",79.2224,352.06677
"3130",79.22484,352.0801
"3131",79.202866,352.09344
"3132",79.19554,352.10678
"3133",79.290764,352.12012
"3134",79.58129,352.13345
"3135",80.12329,352.1468
"3136",80.89235,352.16013
"3137",81.795685,352.17346
"3138",82.67704,352.1868
"3139",83.37774,352.20013
"3140",83.790344,352.21347
"3141",83.90021,352.2268
"3142",83.74639,352.24014
"3143",83.40215,352.25348
"3144",82.9456,352.2668
"3145",82.42802,352.28015
"3146",81.8909,352.2935
"3147",81.356224,352.30682
"3148",80.8362,352.32016
"3149",80.34547,352.3335
"3150",79.89136,352.34683
"3151",79.4934,352.36017
"3152",79.168686,352.3735
"3153",78.92943,352.38684
"3154",78.77806,352.40018
"3155",78.712135,352.4135
"3156",78.709694,352.42685
"3157",78.76097,352.4402
"3158",78.83421,352.45352
"3159",78.905014,352.46686
"3160",78.96117,352.4802
"3161",78.99046,352.49353
"3162",78.98558,352.50687
"3163",78.9514,352.5202
"3164",78.924545,352.53354
"3165",78.98314,352.54688
"3166",79.22484,352.5602
"3167",79.710686,352.57355
"3168",80.43336,352.58688
"3169",81.304955,352.60022
"3170",82.18143,352.61356
"3171",82.9041,352.6269
"3172",83.35088,352.64023
"3173",83.49981,352.65356
"3174",83.38506,352.6669
"3175",83.075,352.68024
"3176",82.6453,352.69357
"3177",82.15457,352.7069
"3178",81.64675,352.72025
"3179",81.146255,352.73358
"3180",80.66773,352.74692
"3181",80.218506,352.76025
"3182",79.80835,352.7736
"3183",79.447014,352.78693
"3184",79.14183,352.80026
"3185",78.9099,352.8136
"3186",78.75609,352.82693
"3187",78.6804,352.84027
"3188",78.67063,352.8536
"3189",78.70481,352.86694
"3190",78.75609,352.88028
"3191",78.80736,352.89362
"3192",78.839096,352.90695
"3193",78.84886,352.9203
"3194",78.83421,352.93362
"3195",78.79515,352.94696
"3196",78.75853,352.9603
"3197",78.79759,352.97363
"3198",78.99779,352.98697
"3199",79.4226,353.0003
"3200",80.08667,353.01364
"3201",80.91676,353.02698
"3202",81.77371,353.0403
"3203",82.50614,353.05365
"3204",82.99199,353.067
"3205",83.18974,353.08032
"3206",83.123825,353.09366
"3207",82.86748,353.107
"3208",82.48661,353.12033
"3209",82.039825,353.13367
"3210",81.5613,353.147
"3211",81.08766,353.16034
"3212",80.62867,353.17368
"3213",80.184326,353.187
"3214",79.781494,353.20035
"3215",79.432365,353.21368
"3216",79.14427,353.22702
"3217",78.92943,353.24036
"3218",78.79515,353.2537
"3219",78.73167,353.26703
"3220",78.72434,353.28036
"3221",78.75365,353.2937
"3222",78.79515,353.30704
"3223",78.83421,353.32037
"3224",78.86107,353.3337
"3225",78.86107,353.34705
"3226",78.82445,353.36038
"3227",78.75853,353.37372
"3228",78.68528,353.38705
"3229",78.66819,353.4004
"3230",78.80003,353.41373
"3231",79.16136,353.42706
"3232",79.77173,353.4404
"3233",80.57252,353.45374
"3234",81.43435,353.46707
"3235",82.19852,353.4804
"3236",82.73075,353.49374
"3237",82.97246,353.50708
"3238",82.94072,353.52042
"3239",82.701454,353.53375
"3240",82.32548,353.5471
"3241",81.883575,353.56042
"3242",81.42214,353.57376
"3243",80.96559,353.5871
"3244",80.52857,353.60043
"3245",80.113525,353.61377
"3246",79.73266,353.6271
"3247",79.40307,353.64044
"3248",79.132065,353.65378
"3249",78.93187,353.6671
"3250",78.8098,353.68045
"3251",78.75609,353.6938
"3252",78.75365,353.70712
"3253",78.78294,353.72046
"3254",78.82201,353.7338
"3255",78.8513,353.74713
"3256",78.86595,353.76047
"3257",78.856186,353.7738
"3258",78.819565,353.78714
"3259",78.76097,353.80048
"3260",78.69993,353.8138
"3261",78.68772,353.82715
"3262",78.81712,353.84048
"3263",79.166245,353.85382
"3264",79.75952,353.86716
"3265",80.54566,353.8805
"3266",81.40261,353.89383
"3267",82.1741,353.90717
"3268",82.72343,353.9205
"3269",82.984665,353.93384
"3270",82.97246,353.94717
"3271",82.74052,353.9605
"3272",82.36942,353.97385
"3273",81.92752,353.98718
"3274",81.45876,354.00052
"3275",80.99245,354.01385
"3276",80.552986,354.0272
"3277",80.14282,354.04053
"3278",79.77173,354.05386
"3279",79.45434,354.0672
"3280",79.20531,354.08054
"3281",79.03197,354.09387
"3282",78.93187,354.1072
"3283",78.89525,354.12054
"3284",78.90257,354.13388
"3285",78.93431,354.14722
"3286",78.975815,354.16055
"3287",79.00267,354.1739
"3288",79.00755,354.18723
"3289",78.98314,354.20056
"3290",78.93187,354.2139
"3291",78.856186,354.22723
"3292",78.78294,354.24057
"3293",78.77074,354.2539
"3294",78.9099,354.26724
"3295",79.273674,354.28058
"3296",79.88159,354.2939
"3297",80.6775,354.30725
"3298",81.529564,354.3206
"3299",82.28397,354.33392
"3300",82.80888,354.34726
"3301",83.038376,354.3606
"3302",83.001755,354.37393
"3303",82.76982,354.38727
"3304",82.41337,354.4006
"3305",82.00076,354.41394
"3306",81.56863,354.42728
"3307",81.14137,354.4406
"3308",80.723885,354.45395
"3309",80.33082,354.4673
"3310",79.96948,354.48062
"3311",79.65453,354.49396
"3312",79.395744,354.5073
"3313",79.19798,354.52063
"3314",79.06859,354.53397
"3315",78.995346,354.5473
"3316",78.96605,354.56064
"3317",78.96605,354.57397
"3318",78.975815,354.5873
"3319",78.97826,354.60065
"3320",78.96117,354.61398
"3321",78.91966,354.62732
"3322",78.856186,354.64066
"3323",78.77562,354.654
"3324",78.69993,354.66733
"3325",78.69993,354.68066
"3326",78.86107,354.694
"3327",79.2517,354.70734
"3328",79.88403,354.72067
"3329",80.69215,354.734
"3330",81.54665,354.74734
"3331",82.29374,354.76068
"3332",82.794235,354.77402
"3333",83.00908,354.78735
"3334",82.95781,354.8007
"3335",82.7161,354.81403
"3336",82.357216,354.82736
"3337",81.94705,354.8407
"3338",81.52468,354.85403
"3339",81.112076,354.86737
"3340",80.71412,354.8807
"3341",80.33326,354.89404
"3342",79.98901,354.90738
"3343",79.68627,354.92072
"3344",79.43725,354.93405
"3345",79.24925,354.9474
"3346",79.12718,354.96072
"3347",79.061264,354.97406
"3348",79.03685,354.9874
"3349",79.04173,355.00073
"3350",79.046616,355.01407
"3351",79.04173,355.0274
"3352",79.01488,355.04074
"3353",78.96605,355.05408
"3354",78.890366,355.0674
"3355",78.80003,355.08075
"3356",78.729225,355.0941
"3357",78.74143,355.10742
"3358",78.924545,355.12076
"3359",79.34203,355.1341
"3360",79.9939,355.14743
"3361",80.80202,355.16077
"3362",81.6321,355.1741
"3363",82.33036,355.18744
"3364",82.78203,355.20078
"3365",82.95293,355.2141
"3366",82.87724,355.22745
"3367",82.62333,355.24078
"3368",82.26444,355.25412
"3369",81.8616,355.26746
"3370",81.45388,355.2808
"3371",81.05104,355.29413
"3372",80.66529,355.30746
"3373",80.30152,355.3208
"3374",79.96704,355.33414
"3375",79.67162,355.34747
"3376",79.42504,355.3608
"3377",79.23949,355.37415
"3378",79.11253,355.38748
"3379",79.03685,355.40082
"3380",79.00267,355.41415
"3381",78.99046,355.4275
"3382",78.98802,355.44083
"3383",78.97337,355.45416
"3384",78.93675,355.4675
"3385",78.87572,355.48083
"3386",78.78783,355.49417
"3387",78.68284,355.5075
"3388",78.59983,355.52084
"3389",78.607155,355.53418
"3390",78.79515,355.54752
"3391",79.22728,355.56085
"3392",79.89868,355.5742
"3393",80.719,355.58752
"3394",81.55398,355.60086
"3395",82.2449,355.6142
"3396",82.67948,355.62753
"3397",82.828415,355.64087
"3398",82.73319,355.6542
"3399",82.46708,355.66754
"3400",82.10574,355.68088
"3401",81.71023,355.6942
"3402",81.31228,355.70755
"3403",80.92897,355.7209
"3404",80.55787,355.73422
"3405",80.198975,355.74756
"3406",79.852295,355.7609
"3407",79.53979,355.77423
"3408",79.27856,355.78757
"3409",79.078354,355.8009
"3410",78.94408,355.81424
"3411",78.86839,355.82758
"3412",78.836655,355.8409
"3413",78.82445,355.85425
"3414",78.81712,355.86758
"3415",78.79759,355.88092
"3416",78.75853,355.89426
"3417",78.69749,355.9076
"3418",78.61692,355.92093
"3419",78.52415,355.93427
"3420",78.44602,355.9476
"3421",78.44846,355.96094
"3422",78.61936,355.97427
"3423",79.02464,355.9876
"3424",79.66674,356.00095
"3425",80.4773,356.01428
"3426",81.31716,356.02762
"3427",82.0325,356.04095
"3428",82.496376,356.0543
"3429",82.667274,356.06763
"3430",82.58915,356.08096
"3431",82.33524,356.0943
"3432",81.986115,356.10764
"3433",81.602806,356.12097
"3434",81.2195,356.1343
"3435",80.83864,356.14764
"3436",80.462654,356.16098
"3437",80.093994,356.17432
"3438",79.744865,356.18765
"3439",79.42504,356.201
"3440",79.15648,356.21432
"3441",78.941635,356.22766
"3442",78.79515,356.241
"3443",78.69993,356.25433
"3444",78.64866,356.26767
"3445",78.61936,356.281
"3446",78.6096,356.29434
"3447",78.59739,356.30768
"3448",78.572975,356.321
"3449",78.52415,356.33435
"3450",78.45335,356.3477
"3451",78.36057,356.36102
"3452",78.26536,356.37436
"3453",78.21652,356.3877
"3454",78.30442,356.40103
"3455",78.61204,356.41437
"3456",79.17113,356.4277
"3457",79.9353,356.44104
"3458",80.78493,356.45438
"3459",81.56374,356.4677
"3460",82.125275,356.48105
"3461",82.4036,356.4944
"3462",82.41825,356.50772
"3463",82.2327,356.52106
"3464",81.92752,356.5344
"3465",81.57107,356.54773
"3466",81.20241,356.56107
"3467",80.83864,356.5744
"3468",80.479744,356.58774
"3469",80.130615,356.60107
"3470",79.79126,356.6144
"3471",79.47143,356.62775
"3472",79.185776,356.64108
"3473",78.94896,356.65442
"3474",78.77562,356.66776
"3475",78.660866,356.6811
"3476",78.60227,356.69443
"3477",78.58274,356.70776
"3478",78.58274,356.7211
"3479",78.58762,356.73444
"3480",78.57786,356.74777
"3481",78.54612,356.7611
"3482",78.48997,356.77444
"3483",78.41428,356.78778
"3484",78.31907,356.80112
"3485",78.23605,356.81445
"3486",78.22385,356.8278
"3487",78.37522,356.84113
"3488",78.76097,356.85446
"3489",79.39086,356.8678
"3490",80.19409,356.88113
"3491",81.03883,356.89447
"3492",81.76395,356.9078
"3493",82.24246,356.92114
"3494",82.4329,356.93448
"3495",82.36942,356.9478
"3496",82.1326,356.96115
"3497",81.79324,356.9745
"3498",81.41482,356.98782
"3499",81.03151,357.00116
"3500",80.65797,357.0145
"3501",80.30152,357.02783
"3502",79.957275,357.04117
"3503",79.62768,357.0545
"3504",79.32006,357.06784
"3505",79.05638,357.08118
"3506",78.84642,357.0945
"3507",78.70237,357.10785
"3508",78.61448,357.1212
"3509",78.572975,357.13452
"3510",78.555885,357.14786
"3511",78.54368,357.1612
"3512",78.521706,357.17453
"3513",78.485085,357.18787
"3514",78.433815,357.2012
"3515",78.3679,357.21454
"3516",78.28489,357.22787
"3517",78.18967,357.2412
"3518",78.10666,357.25455
"3519",78.09445,357.26788
"3520",78.24094,357.28122
"3521",78.61692,357.29456
"3522",79.23216,357.3079
"3523",80.01343,357.32123
"3524",80.82399,357.33456
"3525",81.512474,357.3479
"3526",81.951935,357.36124
"3527",82.1033,357.37457
"3528",81.73708,357.40125
"3529",81.38064,357.41458
"3530",80.99489,357.42792
"3531",80.61402,357.44125
"3532",80.25269,357.4546
"3533",79.89868,357.46793
"3534",79.55688,357.48126
"3535",79.22484,357.4946
"3536",78.91722,357.50793
"3537",78.65354,357.52127
"3538",78.45335,357.5346
"3539",78.32395,357.54794
"3540",78.25803,357.56128
"3541",78.25071,357.57462
"3542",78.27024,357.58795
"3543",78.294655,357.6013
"3544",78.311745,357.61462
"3545",78.3093,357.62796
"3546",78.28001,357.6413
"3547",78.22873,357.65463
"3548",78.16037,357.66797
"3549",78.07736,357.6813
"3550",77.996796,357.69464
"3551",77.977264,357.70798
"3552",78.099335,357.7213
"3553",78.4387,357.73465
"3554",79.02464,357.748
"3555",79.79614,357.76132
"3556",80.61646,357.77466
"3557",81.32937,357.788
"3558",81.80301,357.80133
"3559",81.98123,357.81467
"3560",81.898224,357.828
"3561",81.6321,357.84134
"3562",81.27566,357.85468
"3563",80.88014,357.868
"3564",80.48951,357.88135
"3565",80.11597,357.89468
"3566",79.76196,357.90802
"3567",79.42748,357.92136
"3568",79.12474,357.9347
"3569",78.85863,357.94803
"3570",78.64866,357.96136
"3571",78.50706,357.9747
"3572",78.433815,357.98804
"3573",78.41917,358.00137
"3574",78.44114,358.0147
"3575",78.47776,358.02805
"3576",78.51194,358.04138
"3577",78.52903,358.05472
"3578",78.519264,358.06805
"3579",78.48997,358.0814
"3580",78.4387,358.09473
"3581",78.363014,358.10806
"3582",78.27268,358.1214
"3583",78.19211,358.13474
"3584",78.18234,358.14807
"3585",78.33372,358.1614
"3586",78.712135,358.17474
"3587",79.327385,358.18808
"3588",80.10376,358.20142
"3589",80.89723,358.21475
"3590",81.549095,358.2281
"3591",81.94461,358.24142
"3592",82.05203,358.25476
"3593",81.92264,358.2681
"3594",81.636986,358.28143
"3595",81.28298,358.29477
"3596",80.91432,358.3081
"3597",80.55543,358.32144
"3598",80.216064,358.33478
"3599",79.8938,358.3481
"3600",79.586174,358.36145
"3601",79.29565,358.3748
"3602",79.03685,358.38812
"3603",78.82201,358.40146
"3604",78.66575,358.4148
"3605",78.57786,358.42813
"3606",78.553444,358.44147
"3607",78.57053,358.4548
"3608",78.6096,358.46814
"3609",78.65598,358.48148
"3610",78.69016,358.4948
"3611",78.70481,358.50815
"3612",78.69016,358.52148
"3613",78.64622,358.53482
"3614",78.5803,358.54816
"3615",78.49729,358.5615
"3616",78.433815,358.57483
"3617",78.467995,358.58817
"3618",78.68528,358.6015
"3619",79.13451,358.61484
"3620",79.798584,358.62817
"3621",80.584724,358.6415
"3622",81.35134,358.65485
"3623",81.94461,358.66818
"3624",82.27177,358.68152
"3625",82.32304,358.69485
"3626",82.161896,358.7082
"3627",81.87381,358.72153
"3628",81.53689,358.73486
"3629",81.19997,358.7482
"3630",80.88258,358.76154
"3631",80.58228,358.77487
"3632",80.289314,358.7882
"3633",79.99878,358.80154
"3634",79.708244,358.81488
"3635",79.429924,358.82822
"3636",79.1931,358.84155
"3637",79.00755,358.8549
"3638",78.890366,358.86823
"3639",78.836655,358.88156
"3640",78.83421,358.8949
"3641",78.86107,358.90823
"3642",78.89281,358.92157
"3643",78.91722,358.9349
"3644",78.91478,358.94824
"3645",78.887924,358.96158
"3646",78.836655,358.9749
"3647",78.75609,358.98825
"3648",78.67063,359.0016
"3649",78.626686,359.01492
"3650",78.70237,359.02826
"3651",78.975815,359.0416
"3652",79.48852,359.05493
"3653",80.19409,359.06827
"3654",80.98024,359.0816
"3655",81.69314,359.09494
"3656",82.196075,359.10828
"3657",82.42802,359.1216
"3658",82.40116,359.13495
"3659",82.19119,359.1483
"3660",81.88846,359.16162
"3661",81.55886,359.17496
"3662",81.23903,359.1883
"3663",80.94362,359.20163
"3664",80.66773,359.21497
"3665",80.396736,359.2283
"3666",80.113525,359.24164
"3667",79.82056,359.25497
"3668",79.534904,359.2683
"3669",79.27123,359.28165
"3670",79.05882,359.29498
"3671",78.91478,359.30832
"3672",78.84154,359.32166
"3673",78.82445,359.335
"3674",78.84642,359.34833
"3675",78.87816,359.36166
"3676",78.905014,359.375
"3677",78.9099,359.38834
"3678",78.89769,359.40167
"3679",78.86107,359.415
"3680",78.80492,359.42834
"3681",78.74387,359.44168
"3682",78.712135,359.45502
"3683",78.78783,359.46835
"3684",79.05882,359.4817
"3685",79.56176,359.49503
"3686",80.257576,359.50836
"3687",81.03395,359.5217
"3688",81.73708,359.53503
"3689",82.2327,359.54837
"3690",82.459755,359.5617
"3691",82.442665,359.57504
"3692",82.252235,359.58838
"3693",81.97391,359.6017
"3694",81.6614,359.61505
"3695",81.35134,359.6284
"3696",81.05592,359.64172
"3697",80.77028,359.65506
"3698",80.48951,359.6684
"3699",80.20386,359.68173
"3700",79.906006,359.69507
"3701",79.603264,359.7084
"3702",79.31518,359.72174
"3703",79.06859,359.73508
"3704",78.890366,359.7484
"3705",78.79027,359.76175
"3706",78.76097,359.7751
"3707",78.78294,359.78842
"3708",78.82689,359.80176
"3709",78.870834,359.8151
"3710",78.89769,359.82843
"3711",78.89525,359.84177
"3712",78.86839,359.8551
"3713",78.81712,359.86844
"3714",78.74876,359.88177
"3715",78.69016,359.8951
"3716",78.712135,359.90845
"3717",78.89525,359.92178
"3718",79.30785,359.93512
"3719",79.940186,359.94846
"3720",80.709236,359.9618
"3721",81.47585,359.97513
"3722",82.08621,359.98846
"3723",82.43778,360.0018
"3724",82.52079,360.01514
"3725",82.39384,360.02847
"3726",82.13748,360.0418
"3727",81.832306,360.05515
"3728",81.51736,360.06848
"3729",81.2195,360.08182
"3730",80.936295,360.09515
"3731",80.65797,360.1085
"3732",80.37476,360.12183
"3733",80.076904,360.13516
"3734",79.766846,360.1485
"3735",79.45678,360.16183
"3736",79.17601,360.17517
"3737",78.94896,360.1885
"3738",78.802475,360.20184
"3739",78.73167,360.21518
"3740",78.729225,360.22852
"3741",78.765854,360.24185
"3742",78.8098,360.2552
"3743",78.84154,360.26852
"3744",78.856186,360.28186
"3745",78.84398,360.2952
"3746",78.81468,360.30853
"3747",78.768295,360.32187
"3748",78.70725,360.3352
"3749",78.643776,360.34854
"3750",78.62913,360.36188
"3751",78.751205,360.3752
"3752",79.093,360.38855
"3753",79.676506,360.4019
"3754",80.44068,360.41522
"3755",81.25857,360.42856
"3756",81.971466,360.4419
"3757",82.44755,360.45523
"3758",82.63554,360.46857
"3759",82.5745,360.4819
"3760",82.34989,360.49524
"3761",82.04471,360.50858
"3762",81.71755,360.5219
"3763",81.40261,360.53525
"3764",81.10719,360.54858
"3765",80.82643,360.56192
"3766",80.54566,360.57526
"3767",80.257576,360.5886
"3768",79.957275,360.60193
"3769",79.65453,360.61526
"3770",79.37133,360.6286
"3771",79.12962,360.64194
"3772",78.95384,360.65527
"3773",78.84886,360.6686
"3774",78.81224,360.68195
"3775",78.82445,360.69528
"3776",78.86351,360.70862
"3777",78.90257,360.72195
"3778",78.92943,360.7353
"3779",78.92943,360.74863
"3780",78.90013,360.76196
"3781",78.84642,360.7753
"3782",78.77562,360.78864
"3783",78.69016,360.80197
"3784",78.61204,360.8153
"3785",78.58274,360.82864
"3786",78.68772,360.84198
"3787",79.00023,360.85532
"3788",79.56176,360.86865
"3789",80.32838,360.882
"3790",81.17799,360.89532
"3791",81.94949,360.90866
"3792",82.5037,360.922
"3793",82.76982,360.93533
"3794",82.76494,360.94867
"3795",82.56962,360.962
"3796",82.266884,360.97534
"3797",81.9324,360.98868
"3798",81.60525,361.002
"3799",81.30251,361.01535
"3800",81.02174,361.0287
"3801",80.75319,361.04202
"3802",80.479744,361.05536
"3803",80.201416,361.0687
"3804",79.91821,361.08203
"3805",79.64477,361.09537
"3806",79.40551,361.1087
"3807",79.217514,361.12204
"3808",79.09056,361.13538
"3809",79.0222,361.1487
"3810",79.00023,361.16205
"3811",78.99779,361.17538
"3812",78.99779,361.18872
"3813",78.98558,361.20206
"3814",78.9514,361.2154
"3815",78.89769,361.22873
"3816",78.82933,361.24207
"3817",78.74876,361.2554
"3818",78.66331,361.26874
"3819",78.5803,361.28207
"3820",78.49729,361.2954
"3821",78.41917,361.30875
"3822",78.365456,361.32208
"3823",78.399635,361.33542
"3824",78.607155,361.34875
"3825",79.05882,361.3621
"3826",79.76196,361.37543
"3827",80.64332,361.38876
"3828",81.55398,361.4021
"3829",82.32548,361.41544
"3830",82.81865,361.42877
"3831",82.99687,361.4421
"3832",82.90898,361.45544
"3833",82.6453,361.46878
"3834",82.29862,361.48212
"3835",81.93973,361.49545
"3836",81.600365,361.5088
"3837",81.29275,361.52213
"3838",81.004654,361.53546
"3839",80.726326,361.5488
"3840",80.445564,361.56213
"3841",80.15747,361.57547
"3842",79.8645,361.5888
"3843",79.588615,361.60214
"3844",79.16136,361.6288
"3845",79.04173,361.64215
"3846",78.98314,361.6555
"3847",78.97093,361.66882
"3848",78.98558,361.68216
"3849",79.00023,361.6955
"3850",78.995346,361.70883
"3851",78.96849,361.72217
"3852",78.91478,361.7355
"3853",78.839096,361.74884
"3854",78.74387,361.76218
"3855",78.641335,361.7755
"3856",78.54124,361.78885
"3857",78.44358,361.8022
"3858",78.35081,361.81552
"3859",78.27512,361.82886
"3860",78.25559,361.8422
"3861",78.37278,361.85553
"3862",78.709694,361.86887
"3863",79.31518,361.8822
"3864",80.15503,361.89554
"3865",81.10475,361.90887
"3866",81.991,361.9222
"3867",82.64774,361.93555
"3868",82.98711,361.94888
"3869",83.01396,361.96222
"3870",82.804,361.97556
"3871",82.45731,361.9889
"3872",82.05203,362.00223
"3873",81.651634,362.01556
"3874",81.28298,362.0289
"3875",80.9485,362.04224
"3876",80.64576,362.05557
"3877",80.35767,362.0689
"3878",80.07446,362.08224
"3879",79.7937,362.09558
"3880",79.53002,362.10892
"3881",79.30297,362.12225
"3882",79.132065,362.1356
"3883",79.01732,362.14893
"3884",78.96117,362.16226
"3885",78.94652,362.1756
"3886",78.95384,362.18893
"3887",78.96117,362.20227
"3888",78.9514,362.2156
"3889",78.91966,362.22894
"3890",78.86595,362.24228
"3891",78.78783,362.2556
"3892",78.695045,362.26895
"3893",78.59983,362.2823
"3894",78.502174,362.29562
"3895",78.40452,362.30896
"3896",78.314186,362.3223
"3897",78.22873,362.33563
"3898",78.15793,362.34897
"3899",78.116425,362.3623
"3900",78.16525,362.37564
"3901",78.397194,362.38898
"3902",78.88304,362.4023
"3903",79.635,362.41565
"3904",80.567635,362.429
"3905",81.53933,362.44232
"3906",82.36454,362.45566
"3907",82.896774,362.469
"3908",83.08232,362.48233
"3909",82.97002,362.49567
"3910",82.64774,362.509
"3911",82.210724,362.52234
"3912",81.74197,362.53568
"3913",81.29763,362.549
"3914",80.885025,362.56235
"3915",80.5066,362.57568
"3916",80.15747,362.58902
"3917",79.835205,362.60236
"3918",79.54467,362.6157
"3919",79.30297,362.62903
"3920",79.1223,362.64236
"3921",79.012436,362.6557
"3922",78.96849,362.66904
"3923",78.9807,362.68237
"3924",79.0222,362.6957
"3925",79.07103,362.70905
"3926",79.11009,362.72238
"3927",79.11986,362.73572
"3928",79.097885,362.74905
"3929",79.03929,362.7624
"3930",78.958725,362.77573
"3931",78.85863,362.78906
"3932",78.74876,362.8024
"3933",78.63645,362.81573
"3934",78.52903,362.82907
"3935",78.43137,362.8424
"3936",78.345924,362.85574
"3937",78.27024,362.86908
"3938",78.20187,362.88242
"3939",78.167694,362.89575
"3940",78.22873,362.9091
"3941",78.47776,362.92242
"3942",78.995346,362.93576
"3943",79.783936,362.9491
"3944",80.740974,362.96243
"3945",81.705345,362.97577
"3946",82.48417,362.9891
"3947",82.94316,363.00244
"3948",83.04814,363.01578
"3949",82.85283,363.0291
"3950",82.45487,363.04245
"3951",81.95438,363.0558
"3952",81.4197,363.06912
"3953",80.89479,363.08246
"3954",80.40894,363.0958
"3955",79.971924,363.10913
"3956",79.59106,363.12247
"3957",79.276115,363.1358
"3958",79.03685,363.14914
"3959",78.8806,363.16248
"3960",78.81224,363.1758
"3961",78.82689,363.18915
"3962",78.905014,363.20248
"3963",79.01732,363.21582
"3964",79.132065,363.22916
"3965",79.22728,363.2425
"3966",79.281,363.25583
"3967",79.290764,363.26917
"3968",79.25414,363.2825
"3969",79.185776,363.29584
"3970",79.08568,363.30917
"3971",78.97093,363.3225
"3972",78.84886,363.33585
"3973",78.73411,363.34918
"3974",78.624245,363.36252
"3975",78.52659,363.37585
"3976",78.4387,363.3892
"3977",78.35813,363.40253
"3978",78.294655,363.41586
"3979",78.28245,363.4292
"3980",78.40452,363.44254
"3981",78.751205,363.45587
"3982",79.36889,363.4692
"3983",80.22095,363.48254
"3984",81.18288,363.49588
"3985",82.07645,363.50922
"3986",82.72831,363.52255
"3987",83.038376,363.5359
"3988",83.004196,363.54922
"3989",82.703896,363.56256
"3990",82.22781,363.5759
"3991",81.66628,363.58923
"3992",81.08034,363.60257
"3993",80.51392,363.6159
"3994",79.991455,363.62924
"3995",79.537346,363.64258
"3996",79.168686,363.6559
"3997",78.89525,363.66925
"3998",78.72678,363.6826
"3999",78.66819,363.69592
"4000",78.712135,363.70926
"4001",78.836655,363.7226
"4002",79.009995,363.73593
"4003",79.185776,363.74927
"4004",79.33715,363.7626
"4005",79.43481,363.77594
"4006",79.47631,363.78928
"4007",79.4641,363.8026
"4008",79.40795,363.81595
"4009",79.3225,363.82928
"4010",79.21507,363.84262
"4011",79.097885,363.85596
"4012",78.97826,363.8693
"4013",78.86107,363.88263
"4014",78.75365,363.89597
"4015",78.658424,363.9093
"4016",78.57542,363.92264
"4017",78.51194,363.93597
"4018",78.52659,363.9493
"4019",78.69749,363.96265
"4020",79.11009,363.97598
"4021",79.78882,363.98932
"4022",80.66041,364.00266
"4023",81.583275,364.016
"4024",82.37919,364.02933
"4025",82.89433,364.04266
"4026",83.06523,364.056
"4027",82.92119,364.06934
"4028",82.547646,364.08267
"4029",82.02762,364.096
"4030",81.43679,364.10934
"4031",80.82887,364.12268
"4032",80.24048,364.13602
"4033",79.70092,364.14935
"4034",79.23949,364.1627
"4035",78.873276,364.17603
"4036",78.6218,364.18936
"4037",78.49973,364.2027
"4038",78.49973,364.21603
"4039",78.60471,364.22937
"4040",78.78783,364.2427
"4041",79.00511,364.25604
"4042",79.219955,364.26938
"4043",79.395744,364.2827
"4044",79.51293,364.29605
"4045",79.56664,364.3094
"4046",79.5642,364.32272
"4047",79.51049,364.33606
"4048",79.4226,364.3494
"4049",79.31762,364.36273
"4050",79.200424,364.37607
"4051",79.078354,364.3894
"4052",78.95628,364.40274
"4053",78.839096,364.41608
"4054",78.73411,364.4294
"4055",78.660866,364.44275
"4056",78.6804,364.4561
"4057",78.890366,364.46942
"4058",79.35912,364.48276
"4059",80.08911,364.4961
"4060",80.99245,364.50943
"4061",81.91287,364.52277
"4062",82.66239,364.5361
"4063",83.10918,364.54944
"4064",83.209274,364.56277
"4065",83.00664,364.5761
"4066",82.58427,364.58945
"4067",82.03006,364.60278
"4068",81.41482,364.61612
"4069",80.78737,364.62946
"4070",80.184326,364.6428
"4071",79.64477,364.65613
"4072",79.18822,364.66946
"4073",78.83421,364.6828
"4074",78.60227,364.69614
"4075",78.504616,364.70947
"4076",78.536354,364.7228
"4077",78.675514,364.73615
"4078",78.88548,364.74948
"4079",79.11986,364.76282
"4080",79.33715,364.77615
"4081",79.51049,364.7895
"4082",79.622795,364.80283
"4083",79.674065,364.81616
"4084",79.66918,364.8295
"4085",79.61791,364.84283
"4086",79.537346,364.85617
"4087",79.43481,364.8695
"4088",79.31762,364.88284
"4089",79.19554,364.89618
"4090",79.07103,364.90952
"4091",78.95384,364.92285
"4092",78.87572,364.9362
"4093",78.905014,364.94952
"4094",79.13939,364.96286
"4095",79.64233,364.9762
"4096",80.39185,364.98953
"4097",81.28054,365.00287
"4098",82.142365,365.0162
"4099",82.80644,365.02954
"4100",83.15068,365.04288
"4101",83.15312,365.0562
"4102",82.87724,365.06955
"4103",82.406044,365.0829
"4104",81.82498,365.09622
"4105",81.19508,365.10956
"4106",80.56031,365.1229
"4107",79.957275,365.13623
"4108",79.42016,365.14957
"4109",78.975815,365.1629
"4110",78.641335,365.17624
"4111",78.43626,365.18958
"4112",78.37034,365.2029
"4113",78.433815,365.21625
"4114",78.60227,365.22958
"4115",78.839096,365.24292
"4116",79.10033,365.25626
"4117",79.344475,365.2696
"4118",79.537346,365.28293
"4119",79.656975,365.29626
"4120",79.7058,365.3096
"4121",79.69848,365.32294
"4122",79.64477,365.33627
"4123",79.55932,365.3496
"4124",79.45678,365.36295
"4125",79.34203,365.37628
"4126",79.217514,365.38962
"4127",79.093,365.40295
"4128",79.00023,365.4163
"4129",79.00511,365.42963
"4130",79.200424,365.44296
"4131",79.66186,365.4563
"4132",80.37476,365.46964
"4133",81.24635,365.48297
"4134",82.12039,365.4963
"4135",82.82109,365.50964
"4136",83.21904,365.52298
"4137",83.27764,365.53632
"4138",83.04082,365.54965
"4139",82.59403,365.563
"4140",82.020294,365.57632
"4141",81.38552,365.58966
"4142",80.743416,365.603
"4143",80.1355,365.61633
"4144",79.588615,365.62967
"4145",79.12474,365.643
"4146",78.765854,365.65634
"4147",78.52903,365.66968
"4148",78.42161,365.683
"4149",78.44114,365.69635
"4150",78.57542,365.7097
"4151",78.78783,365.72302
"4152",79.03685,365.73636
"4153",79.27856,365.7497
"4154",79.47631,365.76303
"4155",79.61059,365.77637
"4156",79.676506,365.7897
"4157",79.67895,365.80304
"4158",79.63012,365.81638
"4159",79.54467,365.8297
"4160",79.43481,365.84305
"4161",79.30785,365.85638
"4162",79.17845,365.86972
"4163",79.05882,365.88306
"4164",79.00023,365.8964
"4165",79.08568,365.90973
"4166",79.398186,365.92307
"4167",79.97681,365.9364
"4168",80.77272,365.94974
"4169",81.6614,365.96307
"4170",82.46708,365.9764
"4171",83.02861,365.98975
"4172",83.25567,366.00308
"4173",83.158005,366.01642
"4174",82.80156,366.02975
"4175",82.28153,366.0431
"4176",81.67361,366.05643
"4177",81.03395,366.06976
"4178",80.40406,366.0831
"4179",79.815674,366.09644
"4180",79.29809,366.10977
"4181",78.870834,366.1231
"4182",78.555885,366.13644
"4183",78.37034,366.14978
"4184",78.314186,366.16312
"4185",78.380104,366.17645
"4186",78.551,366.1898
"4187",78.78783,366.20312
"4188",79.05394,366.21646
"4189",79.29565,366.2298
"4190",79.48608,366.24313
"4191",79.61303,366.25647
"4192",79.67162,366.2698
"4193",79.66918,366.28314
"4194",79.622795,366.29648
"4195",79.54467,366.3098
"4196",79.44213,366.32315
"4197",79.32494,366.3365
"4198",79.20531,366.34982
"4199",79.12962,366.36316
"4200",79.17357,366.3765
"4201",79.432365,366.38983
"4202",79.957275,366.40317
"4203",80.709236,366.4165
"4204",81.57595,366.42984
"4205",82.38407,366.44318
"4206",82.96269,366.4565
"4207",83.2166,366.46985
"4208",83.140915,366.4832
"4209",82.804,366.49652
"4210",82.28886,366.50986
"4211",81.67849,366.5232
"4212",81.02907,366.53653
"4213",80.38941,366.54987
"4214",79.78882,366.5632
"4215",79.256584,366.57654
"4216",78.81224,366.58987
"4217",78.47776,366.6032
"4218",78.2678,366.61655
"4219",78.19699,366.62988
"4220",78.260475,366.64322
"4221",78.4387,366.65656
"4222",78.695045,366.6699
"4223",78.9807,366.68323
"4224",79.24925,366.69656
"4225",79.4641,366.7099
"4226",79.60082,366.72324
"4227",79.65942,366.73657
"4228",79.64965,366.7499
"4229",79.59106,366.76324
"4230",79.500725,366.77658
"4231",79.39086,366.78992
"4232",79.273674,366.80325
"4233",79.166245,366.8166
"4234",79.12474,366.82993
"4235",79.22728,366.84326
"4236",79.55688,366.8566
"4237",80.1355,366.86993
"4238",80.90456,366.88327
"4239",81.739525,366.8966
"4240",82.46708,366.90994
"4241",82.948044,366.92328
"4242",83.106735,366.9366
"4243",82.96513,366.94995
"4244",82.58915,366.9633
"4245",82.0618,366.97662
"4246",81.45632,366.98996
"4247",80.82643,367.0033
"4248",80.2063,367.01663
"4249",79.63012,367.02997
"4250",79.1223,367.0433
"4251",78.712135,367.05664
"4252",78.41917,367.06998
"4253",78.26536,367.0833
"4254",78.25559,367.09665
"4255",78.380104,367.11
"4256",78.607155,367.12332
"4257",78.890366,367.13666
"4258",79.183334,367.15
"4259",79.43969,367.16333
"4260",79.63012,367.17667
"4261",79.742424,367.19
"4262",79.77905,367.20334
"4263",79.75708,367.21667
"4264",79.693596,367.23
"4265",79.603264,367.24335
"4266",79.4934,367.25668
"4267",79.38842,367.27002
"4268",79.32006,367.28336
"4269",79.35424,367.2967
"4270",79.58373,367.31003
"4271",80.05737,367.32336
"4272",80.7483,367.3367
"4273",81.549095,367.35004
"4274",82.303505,367.36337
"4275",82.85283,367.3767
"4276",83.104294,367.39005
"4277",83.04082,367.40338
"4278",82.72587,367.41672
"4279",82.23514,367.43005
"4280",81.64919,367.4434
"4281",81.0193,367.45673
"4282",80.38941,367.47006
"4283",79.801025,367.4834
"4284",79.28344,367.49673
"4285",78.86107,367.51007
"4286",78.56077,367.5234
"4287",78.38743,367.53674
"4288",78.35325,367.55008
"4289",78.44602,367.56342
"4290",78.643776,367.57675
"4291",78.90013,367.5901
"4292",79.17845,367.60342
"4293",79.432365,367.61676
"4294",79.62768,367.6301
"4295",79.74975,367.64343
"4296",79.798584,367.65677
"4297",79.783936,367.6701
"4298",79.71557,367.68344
"4299",79.61547,367.69678
"4300",79.4934,367.7101
"4301",79.36889,367.72345
"4302",79.28588,367.7368
"4303",79.3225,367.75012
"4304",79.55688,367.76346
"4305",80.04028,367.7768
"4306",80.73609,367.79013
"4307",81.53933,367.80347
"4308",82.28886,367.8168
"4309",82.83086,367.83014
"4310",83.06767,367.84348
"4311",82.99443,367.8568
"4312",82.67704,367.87015
"4313",82.18875,367.88348
"4314",81.602806,367.89682
"4315",80.98268,367.91016
"4316",80.36988,367.9235
"4317",79.7937,367.93683
"4318",79.28588,367.95016
"4319",78.87816,367.9635
"4320",78.590065,367.97684
"4321",78.4387,367.99017
"4322",78.42161,368.0035
"4323",78.53147,368.01685
"4324",78.73899,368.03018
"4325",79.00023,368.04352
"4326",79.26879,368.05685
"4327",79.500725,368.0702
"4328",79.67162,368.08353
"4329",79.75952,368.09686
"4330",79.77173,368.1102
"4331",79.71801,368.12354
"4332",79.62035,368.13687
"4333",79.48608,368.1502
"4334",79.344475,368.16354
"4335",79.202866,368.17688
"4336",79.1223,368.19022
"4337",79.18089,368.20355
"4338",79.46899,368.2169
"4339",80.01099,368.23022
"4340",80.76051,368.24356
"4341",81.5906,368.2569
"4342",82.33524,368.27023
"4343",82.83574,368.28357
"4344",83.021286,368.2969
"4345",82.90166,368.31024
"4346",82.54276,368.32358
"4347",82.02518,368.3369
"4348",81.42458,368.35025
"4349",80.79469,368.3636
"4350",80.17212,368.37692
"4351",79.59106,368.39026
"4352",79.07347,368.4036
"4353",78.64622,368.41693
"4354",78.32395,368.43027
"4355",78.12863,368.4436
"4356",78.065155,368.45694
"4357",78.13107,368.47028
"4358",78.3093,368.4836
"4359",78.56809,368.49695
"4360",78.856186,368.51028
"4361",79.13451,368.52362
"4362",79.36645,368.53696
"4363",79.53246,368.5503
"4364",79.62524,368.56363
"4365",79.65453,368.57697
"4366",79.62768,368.5903
"4367",79.56176,368.60364
"4368",79.47143,368.61697
"4369",79.37133,368.6303
"4370",79.293205,368.64365
"4371",79.30541,368.65698
"4372",79.48608,368.67032
"4373",79.88403,368.68365
"4374",80.47242,368.697
"4375",81.17555,368.71033
"4376",81.849396,368.72366
"4377",82.354774,368.737
"4378",82.59159,368.75034
"4379",82.55253,368.76367
"4380",82.27909,368.777
"4381",81.83963,368.79034
"4382",81.307396,368.80368
"4383",80.73365,368.81702
"4384",80.16724,368.83035
"4385",79.64233,368.8437
"4386",79.19066,368.85703
"4387",78.84398,368.87036
"4388",78.61448,368.8837
"4389",78.519264,368.89703
"4390",78.555885,368.91037
"4391",78.709694,368.9237
"4392",78.94408,368.93704
"4393",79.219955,368.95038
"4394",79.48608,368.9637
"4395",79.7058,368.97705
"4396",79.85718,368.9904
"4397",79.937744,369.00372
"4398",79.95239,369.01706
"4399",79.91089,369.0304
"4400",79.83032,369.04373
"4401",79.727776,369.05707
"4402",79.63744,369.0704
"4403",79.635,369.08374
"4404",79.81323,369.09708
"4405",80.233154,369.1104
"4406",80.87526,369.12375
"4407",81.64675,369.1371
"4408",82.40116,369.15042
"4409",82.98222,369.16376
"4410",83.27764,369.1771
"4411",83.27764,369.19043
"4412",83.03105,369.20377
"4413",82.60624,369.2171
"4414",82.07645,369.23044
"4415",81.50759,369.24377
"4416",80.93141,369.2571
"4417",80.38941,369.27045
"4418",79.90845,369.28378
"4419",79.5227,369.29712
"4420",79.24925,369.31046
"4421",79.10033,369.3238
"4422",79.07591,369.33713
"4423",79.15892,369.35046
"4424",79.31518,369.3638
"4425",79.50805,369.37714
"4426",79.7058,369.39047
"4427",79.869385,369.4038
"4428",79.98169,369.41714
"4429",80.03052,369.43048
"4430",80.025635,369.44382
"4431",79.971924,369.45715
"4432",79.87915,369.4705
"4433",79.76196,369.48383
"4434",79.65453,369.49716
"4435",79.61791,369.5105
"4436",79.74975,369.52383
"4437",80.130615,369.53717
"4438",80.7776,369.5505
"4439",81.62478,369.56384
"4440",82.52079,369.57718
"4441",83.28985,369.5905
"4442",83.792786,369.60385
"4443",83.97345,369.6172
"4444",83.85138,369.63052
"4445",83.51446,369.64386
"4446",83.04814,369.6572
"4447",82.533,369.67053
"4448",82.01541,369.68387
"4449",81.529564,369.6972
"4450",81.08522,369.71054
"4451",80.68482,369.72388
"4452",80.3357,369.7372
"4453",80.05005,369.75055
"4454",79.835205,369.7639
"4455",79.70336,369.77722
"4456",79.65453,369.79056
"4457",79.66918,369.8039
"4458",79.725334,369.81723
"4459",79.78638,369.83057
"4460",79.82788,369.8439
"4461",79.83032,369.85724
"4462",79.7937,369.87057
"4463",79.725334,369.8839
"4464",79.62768,369.89725
"4465",79.517815,369.91058
"4466",79.40551,369.92392
"4467",79.33715,369.93726
"4468",79.38598,369.9506
"4469",79.64477,369.96393
"4470",80.15503,369.97726
"4471",80.88258,369.9906
"4472",81.722435,370.00394
"4473",82.51591,370.01727
"4474",83.106735,370.0306
"4475",83.40948,370.04395
"4476",83.421684,370.05728
"4477",83.211716,370.07062
"4478",82.865036,370.08395
"4479",82.4622,370.0973
"4480",82.05936,370.11063
"4481",81.68093,370.12396
"4482",81.33181,370.1373
"4483",81.00221,370.15063
"4484",80.68482,370.16397
"4485",80.38453,370.1773
"4486",80.10864,370.19064
"4487",79.87427,370.20398
"4488",79.693596,370.21732
"4489",79.5642,370.23065
"4490",79.49096,370.244
"4491",79.45922,370.25732
"4492",79.44213,370.27066
"4493",79.429924,370.284
"4494",79.40795,370.29733
"4495",79.36889,370.31067
"4496",79.310295,370.324
"4497",79.22728,370.33734
"4498",79.132065,370.35068
"4499",79.04173,370.364
"4500",79.01732,370.37735
"4501",79.14183,370.3907
"4502",79.49584,370.40402
"4503",80.096436,370.41736
"4504",80.88014,370.4307
"4505",81.71511,370.44403
"4506",82.43778,370.45737
"4507",82.92119,370.4707
"4508",83.11894,370.48404
"4509",83.06523,370.49738
"4510",82.84062,370.5107
"4511",82.528114,370.52405
"4512",82.18875,370.53738
"4513",81.85428,370.55072
"4514",81.532005,370.56406
"4515",81.21706,370.5774
"4516",80.907,370.59073
"4517",80.59205,370.60406
"4518",80.27955,370.6174
