"","ppg","time"
"1",78.69749,75.04856
"2",78.57053,75.0619
"3",78.45335,75.075226
"4",78.35081,75.08856
"5",78.25803,75.10189
"6",78.1799,75.11523
"7",78.11398,75.128555
"8",78.06271,75.14189
"9",78.02121,75.15522
"10",77.99924,75.16856
"11",77.98703,75.181885
"12",77.98947,75.19522
"13",78.00168,75.20855
"14",78.01877,75.221886
"15",78.04074,75.235214
"16",78.05539,75.24855
"17",78.06027,75.26188
"18",78.05783,75.275215
"19",78.05539,75.28854
"20",78.099335,75.30188
"21",78.277565,75.31521
"22",78.6804,75.328545
"23",79.35668,75.34187
"24",80.27955,75.35521
"25",81.34646,75.36854
"26",82.39384,75.381874
"27",83.243454,75.3952
"28",83.78546,75.40854
"29",83.99298,75.42187
"30",83.90997,75.4352
"31",83.60479,75.44853
"32",83.16533,75.46187
"33",82.66483,75.4752
"34",82.15213,75.48853
"35",81.68093,75.50186
"36",81.2781,75.5152
"37",80.96559,75.52853
"38",80.740974,75.54186
"39",80.584724,75.55519
"40",80.47486,75.56853
"41",80.38453,75.581856
"42",80.2942,75.59519
"43",80.19653,75.60852
"44",80.09888,75.62186
"45",80.01099,75.635185
"46",79.937744,75.64852
"47",79.88159,75.66185
"48",79.84009,75.675186
"49",79.80591,75.688515
"50",79.77661,75.70185
"51",79.7351,75.71518
"52",79.67162,75.728516
"53",79.58129,75.741844
"54",79.47143,75.75518
"55",79.33959,75.76851
"56",79.202866,75.781845
"57",79.063705,75.79517
"58",78.93187,75.80851
"59",78.80736,75.82184
"60",78.69016,75.835175
"61",78.58762,75.8485
"62",78.49729,75.86184
"63",78.42405,75.87517
"64",78.37034,75.888504
"65",78.33372,75.90183
"66",78.311745,75.91517
"67",78.30442,75.9285
"68",78.30686,75.94183
"69",78.311745,75.95516
"70",78.31907,75.9685
"71",78.31663,75.98183
"72",78.314186,75.99516
"73",78.32151,76.00849
"74",78.38499,76.02183
"75",78.590065,76.03516
"76",79.01488,76.04849
"77",79.68871,76.06182
"78",80.57252,76.07516
"79",81.549095,76.088486
"80",82.45731,76.10182
"81",83.14824,76.11515
"82",83.53155,76.12849
"83",83.60967,76.141815
"84",83.43145,76.15515
"85",83.070114,76.16848
"86",82.6038,76.181816
"87",82.091095,76.195145
"88",81.5906,76.20848
"89",81.13649,76.22181
"90",80.75563,76.235146
"91",80.45045,76.248474
"92",80.218506,76.26181
"93",80.045166,76.27514
"94",79.90845,76.288475
"95",79.80835,76.3018
"96",79.744865,76.31514
"97",79.71801,76.32847
"98",79.727776,76.341805
"99",79.766846,76.35513
"100",79.818115,76.36847
"101",79.8645,76.3818
"102",79.8938,76.395134
"103",79.888916,76.40846
"104",79.85474,76.4218
"105",79.78638,76.43513
"106",79.68627,76.44846
"107",79.5642,76.46179
"108",79.42748,76.47513
"109",79.27856,76.48846
"110",79.12474,76.50179
"111",78.97826,76.51512
"112",78.839096,76.52846
"113",78.71458,76.54179
"114",78.607155,76.55512
"115",78.521706,76.56845
"116",78.45335,76.58179
"117",78.40208,76.595116
"118",78.365456,76.60845
"119",78.34348,76.62178
"120",78.33372,76.63512
"121",78.33616,76.648445
"122",78.34104,76.66178
"123",78.345924,76.67511
"124",78.35081,76.688446
"125",78.35325,76.701775
"126",78.35325,76.71511
"127",78.37766,76.72844
"128",78.49729,76.741776
"129",78.80736,76.755104
"130",79.38354,76.76844
"131",80.233154,76.78177
"132",81.28298,76.795105
"133",82.37919,76.80843
"134",83.336235,76.82177
"135",84.00763,76.8351
"136",84.334785,76.848434
"137",84.334785,76.86176
"138",84.08087,76.8751
"139",83.6585,76.88843
"140",83.14824,76.901764
"141",82.62089,76.91509
"142",82.125275,76.92843
"143",81.69314,76.94176
"144",81.34402,76.95509
"145",81.08034,76.96842
"146",80.88747,76.98176
"147",80.743416,76.99509
"148",80.62623,77.00842
"149",80.516365,77.02175
"150",80.40162,77.03509
"151",80.28199,77.048416
"152",80.17212,77.06175
"153",80.07446,77.07508
"154",79.9939,77.08842
"155",79.93286,77.101746
"156",79.88403,77.11508
"157",79.835205,77.12841
"158",79.77905,77.14175
"159",79.710686,77.155075
"160",79.62524,77.16841
"161",79.520256,77.18174
"162",79.40795,77.195076
"163",79.27856,77.208405
"164",79.14427,77.22174
"165",79.01488,77.23507
"166",78.890366,77.248405
"167",78.768295,77.261734
"168",78.66331,77.27507
"169",78.57053,77.2884
"170",78.487526,77.301735
"171",78.41917,77.31506
"172",78.365456,77.3284
"173",78.328835,77.34173
"174",78.30198,77.355064
"175",78.28489,77.36839
"176",78.27512,77.38173
"177",78.2678,77.39506
"178",78.25559,77.408394
"179",78.24582,77.42172
"180",78.25559,77.43506
"181",78.33616,77.44839
"182",78.57786,77.46172
"183",79.05882,77.47505
"184",79.80591,77.48839
"185",80.765396,77.50172
"186",81.80789,77.51505
"187",82.760056,77.52838
"188",83.46319,77.54172
"189",83.83673,77.555046
"190",83.88556,77.56838
"191",83.67315,77.58171
"192",83.282524,77.59505
"193",82.794235,77.608376
"194",82.27665,77.62171
"195",81.778595,77.63504
"196",81.33181,77.64838
"197",80.96315,77.661705
"198",80.68238,77.67504
"199",80.47486,77.68837
"200",80.325935,77.701706
"201",80.21118,77.715034
"202",80.111084,77.72837
"203",80.02075,77.7417
"204",79.9353,77.755035
"205",79.8645,77.768364
"206",79.81079,77.7817
"207",79.77417,77.79503
"208",79.7522,77.808365
"209",79.7351,77.82169
"210",79.71557,77.83503
"211",79.68139,77.84836
"212",79.62768,77.861694
"213",79.54955,77.87502
"214",79.44457,77.88836
"215",79.31762,77.90169
"216",79.17601,77.91502
"217",79.02464,77.92835
"218",78.87572,77.94169
"219",78.73411,77.95502
"220",78.60471,77.96835
"221",78.487526,77.98168
"222",78.38499,77.99502
"223",78.2971,78.00835
"224",78.22873,78.02168
"225",78.1799,78.03501
"226",78.14328,78.04835
"227",78.118866,78.061676
"228",78.099335,78.07501
"229",78.08957,78.08834
"230",78.118866,78.10168
"231",78.25803,78.115005
"232",78.59251,78.12834
"233",79.17357,78.14167
"234",79.98413,78.15501
"235",80.93141,78.168335
"236",81.866486,78.18167
"237",82.62577,78.195
"238",83.09697,78.208336
"239",83.26055,78.221664
"240",83.15312,78.235
"241",82.85283,78.24833
"242",82.4329,78.261665
"243",81.96414,78.274994
"244",81.49294,78.28833
"245",81.058365,78.30166
"246",80.67994,78.314995
"247",80.37476,78.32832
"248",80.13306,78.34166
"249",79.94507,78.35499
"250",79.79614,78.368324
"251",79.67162,78.38165
"252",79.57885,78.39499
"253",79.517815,78.408325
"254",79.49584,78.42166
"255",79.51537,78.435
"256",79.5642,78.44833
"257",79.62768,78.46167
"258",79.68871,78.475006
"259",79.727776,78.48834
"260",79.7351,78.50168
"261",79.70092,78.515015
"262",79.62768,78.52835
"263",79.517815,78.54169
"264",79.38354,78.55502
"265",79.22972,78.56836
"266",79.06859,78.581696
"267",78.905014,78.59503
"268",78.75609,78.60837
"269",78.6218,78.621704
"270",78.5095,78.63504
"271",78.42405,78.64838
"272",78.365456,78.66171
"273",78.328835,78.67505
"274",78.30686,78.688385
"275",78.28977,78.70172
"276",78.27512,78.71506
"277",78.2678,78.72839
"278",78.2971,78.74173
"279",78.433815,78.755066
"280",78.765854,78.7684
"281",79.34936,78.78174
"282",80.16724,78.795074
"283",81.13161,78.80841
"284",82.091095,78.82175
"285",82.87724,78.83508
"286",83.37774,78.84842
"287",83.5584,78.861755
"288",83.46319,78.87509
"289",83.17265,78.88843
"290",82.760056,78.901764
"291",82.29374,78.9151
"292",81.82742,78.92844
"293",81.3904,78.94177
"294",81.00954,78.95511
"295",80.69703,78.968445
"296",80.44312,78.98178
"297",80.23804,78.99512
"298",80.06714,79.00845
"299",79.920654,79.02179
"300",79.79614,79.035126
"301",79.69848,79.04846
"302",79.635,79.0618
"303",79.60815,79.075134
"304",79.61547,79.08847
"305",79.64965,79.10181
"306",79.69848,79.11514
"307",79.73754,79.12848
"308",79.75708,79.141815
"309",79.742424,79.15515
"310",79.68871,79.16849
"311",79.60082,79.18182
"312",79.483635,79.19516
"313",79.34692,79.208496
"314",79.19798,79.22183
"315",79.046616,79.23517
"316",78.89769,79.248505
"317",78.75853,79.26184
"318",78.63401,79.27518
"319",78.52903,79.28851
"320",78.44846,79.30185
"321",78.38743,79.315186
"322",78.345924,79.32852
"323",78.32395,79.34186
"324",78.311745,79.355194
"325",78.314186,79.36853
"326",78.35569,79.38187
"327",78.51194,79.3952
"328",78.86839,79.40854
"329",79.48119,79.421875
"330",80.33082,79.43521
"331",81.31472,79.44855
"332",82.27665,79.46188
"333",83.053024,79.47522
"334",83.529106,79.488556
"335",83.68047,79.50189
"336",83.5584,79.51523
"337",83.24834,79.528564
"338",82.8333,79.5419
"339",82.37919,79.55524
"340",81.92996,79.56857
"341",81.52224,79.58191
"342",81.17067,79.595245
"343",80.88258,79.60858
"344",80.65064,79.62192
"345",80.46021,79.635254
"346",80.29664,79.64859
"347",80.15015,79.66193
"348",80.00366,79.67526
"349",79.86206,79.6886
"350",79.73754,79.701935
"351",79.64721,79.71527
"352",79.586174,79.72861
"353",79.56176,79.74194
"354",79.5642,79.75528
"355",79.58373,79.768616
"356",79.5935,79.78195
"357",79.58129,79.79529
"358",79.537346,79.808624
"359",79.45678,79.82196
"360",79.34692,79.8353
"361",79.217514,79.84863
"362",79.07347,79.86197
"363",78.922104,79.875305
"364",78.77074,79.88864
"365",78.626686,79.90198
"366",78.502174,79.91531
"367",78.399635,79.92865
"368",78.32151,79.941986
"369",78.260475,79.95532
"370",78.21408,79.96866
"371",78.18234,79.981995
"372",78.16281,79.99533
"373",78.15549,80.00867
"374",78.15549,80.022
"375",78.153046,80.03534
"376",78.153046,80.048676
"377",78.15793,80.06201
"378",78.21896,80.07535
"379",78.42161,80.088684
"380",78.856186,80.10202
"381",79.55688,80.11536
"382",80.47486,80.12869
"383",81.495384,80.14203
"384",82.442665,80.155365
"385",83.158005,80.1687
"386",83.55108,80.18204
"387",83.631645,80.19537
"388",83.458305,80.20871
"389",83.1165,80.222046
"390",82.68192,80.23538
"391",82.21805,80.24872
"392",81.76883,80.262054
"393",81.36111,80.27539
"394",81.01686,80.28873
"395",80.740974,80.30206
"396",80.52613,80.3154
"397",80.35279,80.328735
"398",80.201416,80.34207
"399",80.05005,80.35541
"400",79.89868,80.368744
"401",79.76196,80.38208
"402",79.64721,80.39542
"403",79.56664,80.40875
"404",79.52758,80.42209
"405",79.5227,80.435425
"406",79.53246,80.44876
"407",79.54467,80.4621
"408",79.54223,80.47543
"409",79.51537,80.48877
"410",79.45678,80.502106
"411",79.36889,80.51544
"412",79.2517,80.52878
"413",79.11986,80.542114
"414",78.97337,80.55545
"415",78.819565,80.56879
"416",78.66819,80.58212
"417",78.52903,80.59546
"418",78.40452,80.608795
"419",78.30198,80.62213
"420",78.22873,80.63547
"421",78.1799,80.6488
"422",78.14328,80.66214
"423",78.12131,80.675476
"424",78.11154,80.68881
"425",78.11154,80.70215
"426",78.118866,80.715485
"427",78.13107,80.72882
"428",78.150604,80.74216
"429",78.17258,80.75549
"430",78.187225,80.76883
"431",78.19699,80.782166
"432",78.20676,80.7955
"433",78.21408,80.80884
"434",78.21896,80.822174
"435",78.22629,80.83551
"436",78.23361,80.84885
"437",78.24094,80.86218
"438",78.24826,80.87552
"439",78.25071,80.888855
"440",78.2678,80.90219
"441",78.35813,80.91553
"442",78.62913,80.92886
"443",79.168686,80.9422
"444",80.00122,80.955536
"445",81.05348,80.96887
"446",82.18143,80.98221
"447",83.1873,80.995544
"448",83.912415,81.00888
"449",84.2884,81.02222
"450",84.33967,81.03555
"451",84.139465,81.04889
"452",83.773254,81.062225
"453",83.3167,81.07556
"454",82.82597,81.0889
"455",82.337685,81.102234
"456",81.88602,81.11557
"457",81.495384,81.12891
"458",81.17799,81.14224
"459",80.92897,81.15558
"460",80.73365,81.168915
"461",80.570076,81.18225
"462",80.42115,81.19559
"463",80.28443,81.20892
"464",80.16235,81.22226
"465",80.062256,81.235596
"466",79.99878,81.24893
"467",79.96948,81.26227
"468",79.971924,81.275604
"469",79.98657,81.28894
"470",80.00122,81.30228
"471",79.99878,81.31561
"472",79.9646,81.32895
"473",79.89136,81.342285
"474",79.781494,81.35562
"475",79.64965,81.36896
"476",79.50561,81.38229
"477",79.3518,81.39563
"478",79.19554,81.408966
"479",79.04173,81.4223
"480",78.89769,81.43564
"481",78.765854,81.448975
"482",78.65354,81.46231
"483",78.56565,81.47565
"484",78.504616,81.48898
"485",78.470436,81.50232
"486",78.45823,81.515656
"487",78.46311,81.52899
"488",78.47288,81.54233
"489",78.48997,81.555664
"490",78.504616,81.569
"491",78.519264,81.58234
"492",78.53147,81.59567
"493",78.54612,81.60901
"494",78.56077,81.622345
"495",78.56809,81.63568
"496",78.57053,81.64902
"497",78.57542,81.66235
"498",78.572975,81.67569
"499",78.56809,81.689026
"500",78.56565,81.70236
"501",78.55833,81.7157
"502",78.54612,81.729034
"503",78.536354,81.74237
"504",78.54856,81.75571
"505",78.6511,81.76904
"506",78.94896,81.78238
"507",79.5227,81.795715
"508",80.38453,81.80905
"509",81.45388,81.82239
"510",82.57206,81.835724
"511",83.55352,81.84906
"512",84.23956,81.8624
"513",84.57404,81.87573
"514",84.58137,81.88907
"515",84.34455,81.902405
"516",83.93683,81.91574
"517",83.43633,81.92908
"518",82.899216,81.94241
"519",82.36698,81.95575
"520",81.866486,81.969086
"521",81.427025,81.98242
"522",81.06569,81.99576
"523",80.782486,82.009094
"524",80.56275,82.02243
"525",80.38941,82.03577
"526",80.25269,82.0491
"527",80.14526,82.06244
"528",80.0647,82.075775
"529",80.02075,82.08911
"530",80.01343,82.10245
"531",80.03296,82.11578
"532",80.062256,82.12912
"533",80.09155,82.142456
"534",80.10376,82.15579
"535",80.08911,82.16913
"536",80.042725,82.182465
"537",79.95972,82.1958
"538",79.84253,82.20914
"539",79.69848,82.22247
"540",79.534904,82.23581
"541",79.35912,82.249146
"542",79.18089,82.26248
"543",79.00511,82.27582
"544",78.83177,82.289154
"545",78.6804,82.30249
"546",78.553444,82.31583
"547",78.45335,82.32916
"548",78.37766,82.3425
"549",78.33616,82.355835
"550",78.314186,82.36917
"551",78.3093,82.38251
"552",78.311745,82.39584
"553",78.31663,82.40918
"554",78.32151,82.422516
"555",78.32151,82.43585
"556",78.32395,82.44919
"557",78.328835,82.462524
"558",78.3386,82.47586
"559",78.345924,82.4892
"560",78.35569,82.50253
"561",78.363014,82.51587
"562",78.363014,82.529205
"563",78.35813,82.54254
"564",78.35081,82.55588
"565",78.3386,82.569214
"566",78.32395,82.58255
"567",78.32151,82.59589
"568",78.365456,82.60922
"569",78.555885,82.62256
"570",79.00023,82.635895
"571",79.75952,82.64923
"572",80.799576,82.66257
"573",81.99344,82.6759
"574",83.15312,82.68924
"575",84.07599,82.702576
"576",84.647285,82.71591
"577",84.84749,82.72925
"578",84.73762,82.742584
"579",84.403145,82.75592
"580",83.929504,82.76926
"581",83.370415,82.78259
"582",82.78203,82.79593
"583",82.20096,82.809265
"584",81.65896,82.8226
"585",81.18288,82.83594
"586",80.799576,82.84927
"587",80.5066,82.86261
"588",80.291756,82.875946
"589",80.14282,82.88928
"590",80.045166,82.90262
"591",79.98657,82.915955
"592",79.95972,82.92929
"593",79.96704,82.94263
"594",79.99878,82.95596
"595",80.04761,82.9693
"596",80.10132,82.982635
"597",80.14038,82.99597
"598",80.15747,83.00931
"599",80.13306,83.022644
"600",80.062256,83.03598
"601",79.94751,83.04932
"602",79.80591,83.06265
"603",79.639885,83.07599
"604",79.4641,83.089325
"605",79.27856,83.10266
"606",79.08568,83.116
"607",78.89525,83.12933
"608",78.71458,83.14267
"609",78.555885,83.156006
"610",78.42649,83.16934
"611",78.328835,83.18268
"612",78.260475,83.196014
"613",78.21896,83.20935
"614",78.19211,83.22269
"615",78.1799,83.23602
"616",78.1799,83.24936
"617",78.18234,83.262695
"618",78.187225,83.27603
"619",78.19455,83.28937
"620",78.20187,83.302704
"621",78.21164,83.31604
"622",78.221405,83.32938
"623",78.22873,83.34271
"624",78.24094,83.35605
"625",78.25071,83.369385
"626",78.25559,83.38272
"627",78.25803,83.39606
"628",78.26292,83.40939
"629",78.260475,83.42273
"630",78.25559,83.436066
"631",78.25559,83.4494
"632",78.3093,83.46274
"633",78.50706,83.476074
"634",78.96849,83.48941
"635",79.75464,83.50275
"636",80.82887,83.51608
"637",82.06668,83.52942
"638",83.27276,83.542755
"639",84.244446,83.55609
"640",84.859695,83.56943
"641",85.09163,83.58276
"642",85.00374,83.5961
"643",84.67658,83.609436
"644",84.19318,83.62277
"645",83.62432,83.63611
"646",83.021286,83.649445
"647",82.42069,83.66278
"648",81.85428,83.67612
"649",81.3489,83.68945
"650",80.919205,83.70279
"651",80.5774,83.716125
"652",80.31861,83.72946
"653",80.1355,83.7428
"654",80.01343,83.756134
"655",79.94507,83.76947
"656",79.923096,83.78281
"657",79.94263,83.79614
"658",79.99878,83.80948
"659",80.076904,83.822815
"660",80.15747,83.83615
"661",80.218506,83.84949
"662",80.24292,83.86282
"663",80.22583,83.87616
"664",80.16235,83.889496
"665",80.05737,83.90283
"666",79.91821,83.91617
"667",79.75464,83.929504
"668",79.57641,83.94284
"669",79.38842,83.95618
"670",79.1931,83.96951
"671",78.99779,83.98285
"672",78.81224,83.996185
"673",78.63889,84.00952
"674",78.49241,84.02286
"675",78.37766,84.036194
"676",78.28733,84.04953
"677",78.22385,84.06287
"678",78.184784,84.0762
"679",78.15549,84.08954
"680",78.14084,84.102875
"681",78.135956,84.11621
"682",78.1384,84.12955
"683",78.1384,84.14288
"684",78.14328,84.15622
"685",78.14816,84.169556
"686",78.15793,84.18289
"687",78.16525,84.19623
"688",78.17746,84.209564
"689",78.187225,84.2229
"690",78.19699,84.23624
"691",78.20187,84.24957
"692",78.20676,84.26291
"693",78.21164,84.276245
"694",78.21652,84.28958
"695",78.21896,84.30292
"696",78.21896,84.31625
"697",78.24826,84.32959
"698",78.38987,84.342926
"699",78.768295,84.35626
"700",79.466545,84.3696
"701",80.49683,84.382935
"702",81.74929,84.39627
"703",83.035934,84.40961
"704",84.14435,84.42294
"705",84.90364,84.43628
"706",85.26009,84.449615
"707",85.262535,84.46295
"708",85.0013,84.47629
"709",84.559395,84.489624
"710",84.01251,84.50296
"711",83.40948,84.5163
"712",82.79668,84.52963
"713",82.193634,84.54297
"714",81.63943,84.556305
"715",81.15602,84.56964
"716",80.75807,84.58298
"717",80.445564,84.59631
"718",80.216064,84.60965
"719",80.05249,84.622986
"720",79.94995,84.63632
"721",79.903564,84.64966
"722",79.903564,84.662994
"723",79.94995,84.67633
"724",80.028076,84.68967
"725",80.12085,84.703
"726",80.20386,84.71634
"727",80.26002,84.729675
"728",80.272224,84.74301
"729",80.23804,84.75635
"730",80.15503,84.769684
"731",80.03296,84.78302
"732",79.87671,84.79636
"733",79.7058,84.80969
"734",79.520256,84.82303
"735",79.327385,84.836365
"736",79.12718,84.8497
"737",78.93675,84.86304
"738",78.75853,84.87637
"739",78.59983,84.88971
"740",78.46311,84.903046
"741",78.35569,84.91638
"742",78.27268,84.92972
"743",78.21408,84.943054
"744",78.17502,84.95639
"745",78.14816,84.96973
"746",78.133514,84.98306
"747",78.12863,84.9964
"748",78.12863,85.009735
"749",78.12863,85.02307
"750",78.133514,85.03641
"751",78.14084,85.04974
"752",78.14816,85.06308
"753",78.153046,85.076416
"754",78.15549,85.08975
"755",78.16281,85.10309
"756",78.170135,85.116425
"757",78.17502,85.12976
"758",78.18234,85.1431
"759",78.18967,85.15643
"760",78.18967,85.16977
"761",78.19211,85.183105
"762",78.24094,85.19644
"763",78.4387,85.20978
"764",78.90257,85.223114
"765",79.70336,85.23645
"766",80.8069,85.24979
"767",82.08865,85.26312
"768",83.34356,85.27646
"769",84.36652,85.289795
"770",85.01839,85.30313
"771",85.28207,85.31647
"772",85.21614,85.3298
"773",84.89876,85.34314
"774",84.420235,85.356476
"775",83.8465,85.36981
"776",83.22148,85.38315
"777",82.58671,85.396484
"778",81.97879,85.40982
"779",81.42214,85.42316
"780",80.93385,85.43649
"781",80.52613,85.44983
"782",80.20386,85.463165
"783",79.96704,85.4765
"784",79.81079,85.48984
"785",79.725334,85.503174
"786",79.71313,85.51651
"787",79.75708,85.52985
"788",79.852295,85.54318
"789",79.97925,85.55652
"790",80.11597,85.569855
"791",80.22827,85.58319
"792",80.30152,85.59653
"793",80.32105,85.60986
"794",80.28443,85.6232
"795",80.19409,85.636536
"796",80.05737,85.64987
"797",79.886475,85.66321
"798",79.691154,85.676544
"799",79.47387,85.68988
"800",79.24681,85.70322
"801",79.009995,85.71655
"802",78.7805,85.72989
"803",78.55833,85.743225
"804",78.363014,85.75656
"805",78.19455,85.7699
"806",78.06027,85.78323
"807",77.962616,85.79657
"808",77.90402,85.809906
"809",77.87717,85.82324
"810",77.872284,85.83658
"811",77.88449,85.849915
"812",77.90646,85.86325
"813",77.93088,85.87659
"814",77.95041,85.88992
"815",77.9675,85.90326
"816",77.97482,85.916595
"817",77.97238,85.92993
"818",77.960175,85.94327
"819",77.94064,85.956604
"820",77.91623,85.96994
"821",77.891815,85.98328
"822",77.86496,85.99661
"823",77.840546,86.00995
"824",77.821014,86.023285
"825",77.80881,86.03662
"826",77.806366,86.04996
"827",77.82834,86.06329
"828",77.92844,86.07663
"829",78.20187,86.089966
"830",78.75609,86.1033
"831",79.63256,86.11664
"832",80.780045,86.129974
"833",82.04715,86.14331
"834",83.23857,86.15665
"835",84.16144,86.16998
"836",84.7132,86.18332
"837",84.89876,86.196655
"838",84.788895,86.20999
"839",84.473946,86.22333
"840",84.02716,86.236664
"841",83.50469,86.25
"842",82.93584,86.263336
"843",82.34257,86.27667
"844",81.75174,86.29001
"845",81.180435,86.303345
"846",80.655525,86.31668
"847",80.18677,86.33002
"848",79.798584,86.34335
"849",79.49828,86.35669
"850",79.30297,86.370026
"851",79.22728,86.38336
"852",79.273674,86.3967
"853",79.42748,86.410034
"854",79.66674,86.42337
"855",79.95239,86.43671
"856",80.23071,86.45004
"857",80.46754,86.46338
"858",80.63355,86.476715
"859",80.71412,86.49005
"860",80.71412,86.50339
"861",80.64576,86.51672
"862",80.52125,86.53006
"863",80.35523,86.543396
"864",80.15991,86.55673
"865",79.94263,86.57007
"866",79.710686,86.583405
"867",79.48119,86.59674
"868",79.259026,86.61008
"869",79.05882,86.62341
"870",78.8806,86.63675
"871",78.73167,86.650085
"872",78.6096,86.66342
"873",78.51682,86.67676
"874",78.44846,86.690094
"875",78.40452,86.70343
"876",78.380104,86.71677
"877",78.3679,86.7301
"878",78.37034,86.74344
"879",78.380104,86.756775
"880",78.397194,86.77011
"881",78.41428,86.78345
"882",78.43626,86.79678
"883",78.45335,86.81012
"884",78.46555,86.823456
"885",78.47288,86.83679
"886",78.4802,86.85013
"887",78.519264,86.863464
"888",78.677956,86.8768
"889",79.063705,86.89014
"890",79.744865,86.90347
"891",80.70435,86.91681
"892",81.83963,86.930145
"893",82.98222,86.94348
"894",83.93927,86.95682
"895",84.58381,86.97015
"896",84.87923,86.98349
"897",84.86702,86.996826
"898",84.61799,87.01016
"899",84.207825,87.0235
"900",83.702446,87.036835
"901",83.13847,87.05017
"902",82.55497,87.06351
"903",81.971466,87.07684
"904",81.40505,87.09018
"905",80.87282,87.103516
"906",80.39185,87.11685
"907",79.96948,87.13019
"908",79.61547,87.143524
"909",79.34936,87.15686
"910",79.185776,87.1702
"911",79.132065,87.18353
"912",79.185776,87.19687
"913",79.33471,87.210205
"914",79.54955,87.22354
"915",79.78882,87.23688
"916",80.008545,87.25021
"917",80.184326,87.26355
"918",80.2942,87.276886
"919",80.32838,87.29022
"920",80.2942,87.30356
"921",80.201416,87.316895
"922",80.0647,87.33023
"923",79.89624,87.34357
"924",79.70336,87.3569
"925",79.49584,87.37024
"926",79.27856,87.383575
"927",79.063705,87.39691
"928",78.853745,87.41025
"929",78.66331,87.423584
"930",78.49729,87.43692
"931",78.365456,87.45026
"932",78.26292,87.46359
"933",78.18967,87.47693
"934",78.14328,87.490265
"935",78.118866,87.5036
"936",78.10666,87.51694
"937",78.10422,87.53027
"938",78.10666,87.54361
"939",78.1091,87.556946
"940",78.10666,87.57028
"941",78.10666,87.58362
"942",78.133514,87.596954
"943",78.260475,87.61029
"944",78.59495,87.62363
"945",79.22728,87.63696
"946",80.16968,87.6503
"947",81.34646,87.663635
"948",82.59159,87.67697
"949",83.70489,87.69031
"950",84.52033,87.70364
"951",84.97444,87.71698
"952",85.084305,87.730316
"953",84.92073,87.74365
"954",84.56428,87.75699
"955",84.088196,87.770325
"956",83.543755,87.78366
"957",82.967575,87.797
"958",82.388954,87.81033
"959",81.83475,87.82367
"960",81.31716,87.837006
"961",80.86061,87.85034
"962",80.46754,87.86368
"963",80.14282,87.877014
"964",79.886475,87.89035
"965",79.69848,87.90369
"966",79.58129,87.91702
"967",79.53246,87.93036
"968",79.54955,87.943695
"969",79.62035,87.95703
"970",79.725334,87.97037
"971",79.84741,87.9837
"972",79.95239,87.99704
"973",80.028076,88.010376
"974",80.059814,88.02371
"975",80.042725,88.03705
"976",79.974365,88.050385
"977",79.869385,88.06372
"978",79.727776,88.07706
"979",79.5642,88.09039
"980",79.38354,88.10373
"981",79.19554,88.117065
"982",79.00511,88.1304
"983",78.819565,88.14374
"984",78.64622,88.157074
"985",78.49241,88.17041
"986",78.36057,88.18375
"987",78.25559,88.19708
"988",78.17502,88.21042
"989",78.12375,88.223755
"990",78.08957,88.23709
"991",78.0676,88.25043
"992",78.05783,88.26376
"993",78.05051,88.2771
"994",78.04318,88.290436
"995",78.03586,88.30377
"996",78.05295,88.31711
"997",78.167694,88.330444
"998",78.487526,88.34378
"999",79.10277,88.35712
"1000",80.02319,88.37045
"1001",81.17555,88.38379
"1002",82.39872,88.397125
"1003",83.50225,88.41046
"1004",84.32746,88.4238
"1005",84.805984,88.43713
"1006",84.95003,88.45047
"1007",84.825516,88.463806
"1008",84.49836,88.47714
"1009",84.04425,88.49048
"1010",83.51446,88.503815
"1011",82.95537,88.51715
"1012",82.40116,88.53049
"1013",81.881134,88.54382
"1014",81.41482,88.55716
"1015",81.01198,88.570496
"1016",80.67506,88.58383
"1017",80.4065,88.59717
"1018",80.19165,88.610504
"1019",80.025635,88.62384
"1020",79.903564,88.63718
"1021",79.818115,88.65051
"1022",79.764404,88.66385
"1023",79.744865,88.677185
"1024",79.7522,88.69052
"1025",79.77661,88.70386
"1026",79.801025,88.71719
"1027",79.818115,88.73053
"1028",79.80835,88.743866
"1029",79.76929,88.7572
"1030",79.70336,88.77054
"1031",79.60815,88.783875
"1032",79.49096,88.79721
"1033",79.3518,88.81055
"1034",79.19554,88.82388
"1035",79.029526,88.83722
"1036",78.85863,88.850555
"1037",78.692604,88.86389
"1038",78.538795,88.87723
"1039",78.4094,88.890564
"1040",78.2971,88.9039
"1041",78.20187,88.91724
"1042",78.12375,88.93057
"1043",78.06027,88.94391
"1044",78.009,88.957245
"1045",77.96506,88.97058
"1046",77.9382,88.98392
"1047",77.92111,88.99725
"1048",77.93332,89.01059
"1049",78.02365,89.023926
"1050",78.29221,89.03726
"1051",78.82201,89.0506
"1052",79.64233,89.063934
"1053",80.70191,89.07727
"1054",81.85916,89.09061
"1055",82.92607,89.10394
"1056",83.74639,89.11728
"1057",84.23468,89.130615
"1058",84.39338,89.14395
"1059",84.28596,89.15729
"1060",83.9881,89.17062
"1061",83.57061,89.18396
"1062",83.089645,89.197296
"1063",82.58427,89.21063
"1064",82.091095,89.22397
"1065",81.636986,89.237305
"1066",81.24391,89.25064
"1067",80.919205,89.26398
"1068",80.66041,89.27731
"1069",80.46021,89.29065
"1070",80.29664,89.303986
"1071",80.15503,89.31732
"1072",80.03296,89.33066
"1073",79.92554,89.343994
"1074",79.83276,89.35733
"1075",79.764404,89.37067
"1076",79.72045,89.384
"1077",79.693596,89.39734
"1078",79.676506,89.410675
"1079",79.66186,89.42401
"1080",79.635,89.43735
"1081",79.59106,89.45068
"1082",79.52514,89.46402
"1083",79.43725,89.477356
"1084",79.33227,89.49069
"1085",79.21507,89.50403
"1086",79.08568,89.517365
"1087",78.94408,89.5307
"1088",78.80492,89.54404
"1089",78.66575,89.55737
"1090",78.536354,89.57071
"1091",78.42161,89.584045
"1092",78.32639,89.59738
"1093",78.24826,89.61072
"1094",78.1799,89.624054
"1095",78.12375,89.63739
"1096",78.07736,89.65073
"1097",78.03586,89.66406
"1098",77.99924,89.6774
"1099",77.97238,89.690735
"1100",77.97238,89.70407
"1101",78.065155,89.71741
"1102",78.34104,89.73074
"1103",78.88304,89.74408
"1104",79.70336,89.757416
"1105",80.74586,89.77075
"1106",81.87137,89.78409
"1107",82.90654,89.797424
"1108",83.69512,89.81076
"1109",84.15411,89.8241
"1110",84.2884,89.83743
"1111",84.15167,89.85077
"1112",83.824524,89.864105
"1113",83.38506,89.87744
"1114",82.899216,89.89078
"1115",82.41093,89.90411
"1116",81.94949,89.91745
"1117",81.53445,89.930786
"1118",81.18288,89.94412
"1119",80.89723,89.95746
"1120",80.672615,89.970795
"1121",80.49195,89.98413
"1122",80.34547,89.99747
"1123",80.21362,90.0108
"1124",80.093994,90.02414
"1125",79.98901,90.037476
"1126",79.903564,90.05081
"1127",79.84009,90.06415
"1128",79.801025,90.077484
"1129",79.77661,90.09082
"1130",79.75464,90.10416
"1131",79.73022,90.11749
"1132",79.69604,90.13083
"1133",79.64721,90.144165
"1134",79.57397,90.1575
"1135",79.47631,90.17084
"1136",79.35912,90.18417
"1137",79.22728,90.19751
"1138",79.08812,90.210846
"1139",78.95384,90.22418
"1140",78.82689,90.23752
"1141",78.709694,90.250854
"1142",78.59983,90.26419
"1143",78.502174,90.27753
"1144",78.416725,90.29086
"1145",78.34104,90.3042
"1146",78.28001,90.317535
"1147",78.23117,90.33087
"1148",78.18967,90.34421
"1149",78.153046,90.357544
"1150",78.12375,90.37088
"1151",78.099335,90.38422
"1152",78.09445,90.39755
"1153",78.167694,90.41089
"1154",78.41184,90.424225
"1155",78.90257,90.43756
"1156",79.67162,90.4509
"1157",80.66285,90.46423
"1158",81.74929,90.47757
"1159",82.75029,90.490906
"1160",83.51202,90.50424
"1161",83.949036,90.51758
"1162",84.06622,90.530914
"1163",83.9173,90.54425
"1164",83.58282,90.55759
"1165",83.14336,90.57092
"1166",82.66239,90.58426
"1167",82.19119,90.597595
"1168",81.761505,90.61093
"1169",81.39773,90.62427
"1170",81.10475,90.6376
"1171",80.8777,90.65094
"1172",80.69703,90.664276
"1173",80.5481,90.67761
"1174",80.40406,90.69095
"1175",80.25269,90.704285
"1176",80.09888,90.71762
"1177",79.94751,90.73096
"1178",79.815674,90.74429
"1179",79.710686,90.75763
"1180",79.635,90.770966
"1181",79.57885,90.7843
"1182",79.54223,90.79764
"1183",79.50317,90.810974
"1184",79.4519,90.82431
"1185",79.38598,90.83765
"1186",79.30053,90.85098
"1187",79.19554,90.86432
"1188",79.07347,90.877655
"1189",78.941635,90.89099
"1190",78.802475,90.90433
"1191",78.67063,90.91766
"1192",78.54612,90.931
"1193",78.43137,90.944336
"1194",78.328835,90.95767
"1195",78.238495,90.97101
"1196",78.15793,90.984344
"1197",78.09201,90.99768
"1198",78.03586,91.01102
"1199",77.994354,91.02435
"1200",77.960175,91.03769
"1201",77.93576,91.051025
"1202",77.91867,91.06436
"1203",77.90402,91.0777
"1204",77.89426,91.091034
"1205",77.90646,91.10437
"1206",77.99924,91.11771
"1207",78.26536,91.13104
"1208",78.78783,91.14438
"1209",79.586174,91.157715
"1210",80.604256,91.17105
"1211",81.69314,91.18439
"1212",82.67948,91.19772
"1213",83.407036,91.21106
"1214",83.80499,91.224396
"1215",83.888,91.23773
"1216",83.717094,91.25107
"1217",83.37774,91.264404
"1218",82.95293,91.27774
"1219",82.49882,91.29108
"1220",82.0618,91.30441
"1221",81.67605,91.31775
"1222",81.35134,91.331085
"1223",81.092545,91.34442
"1224",80.88747,91.35776
"1225",80.723885,91.37109
"1226",80.57252,91.38443
"1227",80.42359,91.397766
"1228",80.26978,91.4111
"1229",80.113525,91.42444
"1230",79.96704,91.437775
"1231",79.835205,91.45111
"1232",79.73022,91.46445
"1233",79.65209,91.47778
"1234",79.59106,91.49112
"1235",79.537346,91.504456
"1236",79.483635,91.51779
"1237",79.42016,91.53113
"1238",79.33715,91.544464
"1239",79.237045,91.5578
"1240",79.1223,91.57114
"1241",79.00023,91.58447
"1242",78.87572,91.59781
"1243",78.74876,91.611145
"1244",78.624245,91.62448
"1245",78.504616,91.63782
"1246",78.39231,91.65115
"1247",78.28977,91.66449
"1248",78.20187,91.677826
"1249",78.12619,91.69116
"1250",78.06271,91.7045
"1251",78.009,91.717834
"1252",77.96506,91.73117
"1253",77.9382,91.74451
"1254",77.91867,91.75784
"1255",77.90646,91.77118
"1256",77.89426,91.784515
"1257",77.88449,91.79785
"1258",77.8967,91.81119
"1259",77.99191,91.824524
"1260",78.25803,91.83786
"1261",78.765854,91.8512
"1262",79.53246,91.86453
"1263",80.49195,91.87787
"1264",81.51003,91.891205
"1265",82.41581,91.90454
"1266",83.06767,91.91788
"1267",83.404594,91.93121
"1268",83.43633,91.94455
"1269",83.22392,91.957886
"1270",82.85283,91.97122
"1271",82.406044,91.98456
"1272",81.9324,91.997894
"1273",81.47585,92.01123
"1274",81.06813,92.02457
"1275",80.723885,92.0379
"1276",80.445564,92.05124
"1277",80.22827,92.064575
"1278",80.05493,92.07791
"1279",79.91089,92.09125
"1280",79.78638,92.10458
"1281",79.67162,92.11792
"1282",79.57885,92.131256
"1283",79.520256,92.14459
"1284",79.49828,92.15793
"1285",79.50805,92.171265
"1286",79.53979,92.1846
"1287",79.571526,92.19794
"1288",79.586174,92.21127
"1289",79.569084,92.22461
"1290",79.51537,92.237946
"1291",79.42504,92.25128
"1292",79.30785,92.26462
"1293",79.17357,92.277954
"1294",79.02464,92.29129
"1295",78.870834,92.30463
"1296",78.7219,92.31796
"1297",78.58274,92.3313
"1298",78.45823,92.344635
"1299",78.35325,92.35797
"1300",78.26536,92.37131
"1301",78.19699,92.38464
"1302",78.1384,92.39798
"1303",78.08713,92.411316
"1304",78.0383,92.42465
"1305",78.00168,92.43799
"1306",77.97482,92.451324
"1307",77.996796,92.46466
"1308",78.133514,92.478
"1309",78.46311,92.49133
"1310",79.027084,92.50467
"1311",79.81079,92.518005
"1312",80.71656,92.53134
"1313",81.602806,92.54468
"1314",82.31083,92.558014
"1315",82.74052,92.57135
"1316",82.86992,92.58469
"1317",82.74784,92.59802
"1318",82.44999,92.61136
"1319",82.054474,92.624695
"1320",81.619896,92.63803
"1321",81.1902,92.65137
"1322",80.78981,92.6647
"1323",80.43336,92.67804
"1324",80.12573,92.691376
"1325",79.86206,92.70471
"1326",79.64233,92.71805
"1327",79.46166,92.731384
"1328",79.32006,92.74472
"1329",79.22484,92.75806
"1330",79.17845,92.77139
"1331",79.185776,92.78473
"1332",79.24437,92.798065
"1333",79.33471,92.8114
"1334",79.43969,92.82474
"1335",79.53246,92.83807
"1336",79.588615,92.85141
"1337",79.59594,92.864746
"1338",79.55688,92.87808
"1339",79.46899,92.89142
"1340",79.35424,92.904755
"1341",79.2224,92.91809
"1342",79.078354,92.93143
"1343",78.93187,92.94476
"1344",78.79027,92.9581
"1345",78.65354,92.971436
"1346",78.53147,92.98477
"1347",78.43137,92.99811
"1348",78.35081,93.011444
"1349",78.29221,93.02478
"1350",78.25071,93.03812
"1351",78.22385,93.05145
"1352",78.204315,93.06479
"1353",78.19455,93.078125
"1354",78.204315,93.09146
"1355",78.28733,93.1048
"1356",78.52903,93.11813
"1357",79.00023,93.13147
"1358",79.71801,93.144806
"1359",80.61402,93.15814
"1360",81.56374,93.17148
"1361",82.39872,93.184814
"1362",82.98955,93.19815
"1363",83.28008,93.21149
"1364",83.29229,93.22482
"1365",83.09453,93.23816
"1366",82.760056,93.251495
"1367",82.357216,93.26483
"1368",81.92996,93.27817
"1369",81.5198,93.291504
"1370",81.146255,93.30484
"1371",80.82643,93.31818
"1372",80.55787,93.33151
"1373",80.34058,93.34485
"1374",80.16235,93.358185
"1375",80.00366,93.37152
"1376",79.86206,93.38486
"1377",79.742424,93.39819
"1378",79.64965,93.41153
"1379",79.59838,93.424866
"1380",79.588615,93.4382
"1381",79.622795,93.45154
"1382",79.67895,93.464874
"1383",79.73266,93.47821
"1384",79.766846,93.49155
"1385",79.766846,93.50488
"1386",79.72045,93.51822
"1387",79.63256,93.531555
"1388",79.517815,93.54489
"1389",79.381096,93.55823
"1390",79.23216,93.57156
"1391",79.08324,93.5849
"1392",78.93675,93.598236
"1393",78.79515,93.61157
"1394",78.66819,93.62491
"1395",78.555885,93.638245
"1396",78.45823,93.65158
"1397",78.380104,93.66492
"1398",78.31663,93.67825
"1399",78.2678,93.69159
"1400",78.23117,93.704926
"1401",78.204315,93.71826
"1402",78.19455,93.7316
"1403",78.24094,93.744934
"1404",78.41184,93.75827
"1405",78.78294,93.77161
"1406",79.39086,93.78494
"1407",80.198975,93.79828
"1408",81.10475,93.811615
"1409",81.95682,93.82495
"1410",82.60868,93.83829
"1411",82.9749,93.85162
"1412",83.06279,93.86496
"1413",82.92363,93.878296
"1414",82.633095,93.89163
"1415",82.266884,93.90497
"1416",81.87869,93.918304
"1417",81.50271,93.93164
"1418",81.160904,93.94498
"1419",80.87282,93.95831
"1420",80.635994,93.97165
"1421",80.448006,93.984985
"1422",80.2942,93.99832
"1423",80.15015,94.01166
"1424",80.00366,94.024994
"1425",79.85718,94.03833
"1426",79.72289,94.05167
"1427",79.61303,94.065
"1428",79.54711,94.07834
"1429",79.52758,94.091675
"1430",79.537346,94.10501
"1431",79.55932,94.11835
"1432",79.57641,94.13168
"1433",79.571526,94.14502
"1434",79.53979,94.158356
"1435",79.48119,94.17169
"1436",79.398186,94.18503
"1437",79.29809,94.198364
"1438",79.185776,94.2117
"1439",79.061264,94.22504
"1440",78.93187,94.23837
"1441",78.80492,94.25171
"1442",78.68284,94.265045
"1443",78.56809,94.27838
"1444",78.470436,94.29172
"1445",78.399635,94.30505
"1446",78.34348,94.31839
"1447",78.29954,94.331726
"1448",78.27024,94.34506
"1449",78.24826,94.3584
"1450",78.23605,94.371735
"1451",78.22629,94.38507
"1452",78.221405,94.39841
"1453",78.21408,94.41174
"1454",78.21408,94.42508
"1455",78.25315,94.438416
"1456",78.4094,94.45175
"1457",78.77074,94.46509
"1458",79.38598,94.478424
"1459",80.21362,94.49176
"1460",81.143814,94.5051
"1461",82.020294,94.51843
"1462",82.69413,94.53177
"1463",83.070114,94.545105
"1464",83.15556,94.55844
"1465",83.00908,94.57178
"1466",82.71366,94.58511
"1467",82.340126,94.59845
"1468",81.94217,94.611786
"1469",81.5613,94.62512
"1470",81.22194,94.63846
"1471",80.9485,94.651794
"1472",80.73365,94.66513
"1473",80.570076,94.67847
"1474",80.44068,94.6918
"1475",80.323494,94.70514
"1476",80.201416,94.718475
"1477",80.07446,94.73181
"1478",79.94507,94.74515
"1479",79.82544,94.758484
"1480",79.727776,94.77182
"1481",79.65453,94.78516
"1482",79.60815,94.79849
"1483",79.58373,94.81183
"1484",79.57397,94.825165
"1485",79.56176,94.8385
"1486",79.534904,94.85184
"1487",79.48119,94.86517
"1488",79.398186,94.87851
"1489",79.290764,94.891846
"1490",79.166245,94.90518
"1491",79.03685,94.91852
"1492",78.907455,94.931854
"1493",78.785385,94.94519
"1494",78.67063,94.95853
"1495",78.56077,94.97186
"1496",78.46311,94.9852
"1497",78.38499,94.998535
"1498",78.31907,95.01187
"1499",78.27024,95.02521
"1500",78.23117,95.03854
"1501",78.20187,95.05188
"1502",78.17746,95.065216
"1503",78.16037,95.07855
"1504",78.15549,95.09189
"1505",78.153046,95.105225
"1506",78.150604,95.11856
"1507",78.14328,95.1319
"1508",78.133514,95.14523
"1509",78.12375,95.15857
"1510",78.12131,95.171906
"1511",78.12619,95.18524
"1512",78.1384,95.19858
"1513",78.14816,95.211914
"1514",78.153046,95.22525
"1515",78.14572,95.23859
"1516",78.135956,95.25192
"1517",78.12619,95.26526
"1518",78.14572,95.278595
"1519",78.2678,95.29193
"1520",78.58518,95.30527
"1521",79.166245,95.3186
"1522",80.0061,95.33194
"1523",81.01442,95.345276
"1524",82.037384,95.35861
"1525",82.9041,95.37195
"1526",83.48272,95.385284
"1527",83.74395,95.39862
"1528",83.72198,95.41196
"1529",83.492485,95.42529
"1530",83.13603,95.43863
"1531",82.71366,95.451965
"1532",82.28153,95.4653
"1533",81.87137,95.47864
"1534",81.514915,95.491974
"1535",81.22682,95.50531
"1536",81.01198,95.51865
"1537",80.86549,95.53198
"1538",80.765396,95.54532
"1539",80.69215,95.558655
"1540",80.62623,95.57199
"1541",80.56031,95.58533
"1542",80.48707,95.59866
"1543",80.42359,95.612
"1544",80.37476,95.625336
"1545",80.343025,95.63867
"1546",80.323494,95.65201
"1547",80.30396,95.665344
"1548",80.27955,95.67868
"1549",80.233154,95.69202
"1550",80.16235,95.70535
"1551",80.06958,95.71869
"1552",79.95972,95.732025
"1553",79.84253,95.74536
"1554",79.71801,95.7587
"1555",79.588615,95.77203
"1556",79.45922,95.78537
"1557",79.33471,95.798706
"1558",79.217514,95.81204
"1559",79.11009,95.82538
"1560",79.01488,95.838715
"1561",78.93675,95.85205
"1562",78.873276,95.86539
"1563",78.82201,95.87872
"1564",78.7805,95.89206
"1565",78.751205,95.905396
"1566",78.729225,95.91873
"1567",78.709694,95.93207
"1568",78.695045,95.945404
"1569",78.68528,95.95874
"1570",78.6804,95.97208
"1571",78.677956,95.98541
"1572",78.675514,95.99875
"1573",78.675514,96.012085
"1574",78.675514,96.02542
"1575",78.675514,96.03876
"1576",78.67063,96.05209
"1577",78.66819,96.06543
"1578",78.66575,96.078766
"1579",78.66819,96.0921
"1580",78.67063,96.10544
"1581",78.677956,96.118774
"1582",78.68528,96.13211
"1583",78.70237,96.14545
"1584",78.768295,96.15878
"1585",78.97337,96.17212
"1586",79.40063,96.185455
"1587",80.09155,96.19879
"1588",81.007095,96.21213
"1589",82.02762,96.225464
"1590",82.98711,96.2388
"1591",83.72442,96.25214
"1592",84.14679,96.26547
"1593",84.25178,96.27881
"1594",84.09796,96.292145
"1595",83.77081,96.30548
"1596",83.346,96.31882
"1597",82.88457,96.33215
"1598",82.43046,96.34549
"1599",82.01297,96.358826
"1600",81.64919,96.37216
"1601",81.35378,96.3855
"1602",81.13161,96.398834
"1603",80.972916,96.41217
"1604",80.86549,96.42551
"1605",80.78737,96.43884
"1606",80.723885,96.45218
"1607",80.65797,96.465515
"1608",80.59449,96.47885
"1609",80.53101,96.49219
"1610",80.4773,96.50552
"1611",80.428474,96.51886
"1612",80.38209,96.532196
"1613",80.33326,96.54553
"1614",80.28199,96.55887
"1615",80.21362,96.572205
"1616",80.128174,96.58554
"1617",80.028076,96.59888
"1618",79.90845,96.61221
"1619",79.77661,96.62555
"1620",79.63744,96.638885
"1621",79.49828,96.65222
"1622",79.361565,96.66556
"1623",79.234604,96.678894
"1624",79.11009,96.69223
"1625",78.99779,96.70557
"1626",78.89769,96.7189
"1627",78.81224,96.73224
"1628",78.73899,96.745575
"1629",78.677956,96.75891
"1630",78.63157,96.77225
"1631",78.59495,96.78558
"1632",78.56321,96.79892
"1633",78.536354,96.812256
"1634",78.51194,96.82559
"1635",78.48997,96.83893
"1636",78.470436,96.852264
"1637",78.45823,96.8656
"1638",78.450905,96.87894
"1639",78.45335,96.89227
"1640",78.46067,96.90561
"1641",78.470436,96.918945
"1642",78.4802,96.93228
"1643",78.48997,96.94562
"1644",78.49241,96.958954
"1645",78.50706,96.97229
"1646",78.59251,96.98563
"1647",78.839096,96.99896
"1648",79.32494,97.0123
"1649",80.07202,97.025635
"1650",81.01442,97.03897
"1651",82.020294,97.05231
"1652",82.916306,97.06564
"1653",83.560844,97.07898
"1654",83.888,97.092316
"1655",83.9173,97.10565
"1656",83.70977,97.11899
"1657",83.34844,97.132324
"1658",82.90166,97.14566
"1659",82.423134,97.159
"1660",81.951935,97.17233
"1661",81.51736,97.18567
"1662",81.13649,97.199005
"1663",80.82643,97.21234
"1664",80.584724,97.22568
"1665",80.411385,97.23901
"1666",80.28199,97.25235
"1667",80.18677,97.265686
"1668",80.113525,97.27902
"1669",80.0647,97.29236
"1670",80.03784,97.305695
"1671",80.03784,97.31903
"1672",80.05493,97.33237
"1673",80.079346,97.3457
"1674",80.09888,97.35904
"1675",80.096436,97.372375
"1676",80.06714,97.38571
"1677",80.008545,97.39905
"1678",79.920654,97.412384
"1679",79.80835,97.42572
"1680",79.676506,97.43906
"1681",79.53979,97.45239
"1682",79.395744,97.46573
"1683",79.259026,97.479065
"1684",79.12718,97.4924
"1685",79.00755,97.50574
"1686",78.90257,97.51907
"1687",78.8098,97.53241
"1688",78.729225,97.545746
"1689",78.66575,97.55908
"1690",78.61692,97.57242
"1691",78.58274,97.585754
"1692",78.55833,97.59909
"1693",78.54124,97.61243
"1694",78.53147,97.62576
"1695",78.521706,97.6391
"1696",78.5095,97.652435
"1697",78.49729,97.66577
"1698",78.487526,97.67911
"1699",78.4802,97.692444
"1700",78.47532,97.70578
"1701",78.47288,97.71912
"1702",78.47532,97.73245
"1703",78.47532,97.74579
"1704",78.467995,97.759125
"1705",78.46311,97.77246
"1706",78.487526,97.7858
"1707",78.61204,97.79913
"1708",78.922104,97.81247
"1709",79.48608,97.825806
"1710",80.291756,97.83914
"1711",81.24635,97.85248
"1712",82.20096,97.865814
"1713",82.98711,97.87915
"1714",83.49004,97.89249
"1715",83.67559,97.90582
"1716",83.58526,97.91916
"1717",83.29229,97.932495
"1718",82.8748,97.94583
"1719",82.388954,97.95917
"1720",81.87625,97.9725
"1721",81.36843,97.98584
"1722",80.88991,97.999176
"1723",80.46021,98.01251
"1724",80.08667,98.02585
"1725",79.783936,98.039185
"1726",79.554436,98.05252
"1727",79.40795,98.06586
"1728",79.344475,98.07919
"1729",79.361565,98.09253
"1730",79.45678,98.105865
"1731",79.61059,98.1192
"1732",79.7937,98.13254
"1733",79.971924,98.145874
"1734",80.11841,98.15921
"1735",80.21362,98.17255
"1736",80.24048,98.18588
"1737",80.2063,98.19922
"1738",80.12329,98.212555
"1739",80.00366,98.22589
"1740",79.84985,98.23923
"1741",79.676506,98.25256
"1742",79.4934,98.2659
"1743",79.310295,98.279236
"1744",79.132065,98.29257
"1745",78.96849,98.30591
"1746",78.82445,98.319244
"1747",78.70481,98.33258
"1748",78.6096,98.34592
"1749",78.538795,98.35925
"1750",78.485085,98.37259
"1751",78.45335,98.385925
"1752",78.433815,98.39926
"1753",78.42161,98.4126
"1754",78.41184,98.425934
"1755",78.40452,98.43927
"1756",78.40208,98.45261
"1757",78.399635,98.46594
"1758",78.40452,98.47928
"1759",78.41428,98.492615
"1760",78.43137,98.50595
"1761",78.45335,98.51929
"1762",78.47288,98.53262
"1763",78.48264,98.54596
"1764",78.48264,98.559296
"1765",78.49729,98.57263
"1766",78.57542,98.58597
"1767",78.80736,98.599304
"1768",79.27123,98.61264
"1769",79.98169,98.62598
"1770",80.86305,98.63931
"1771",81.78348,98.65265
"1772",82.579384,98.665985
"1773",83.11894,98.67932
"1774",83.346,98.69266
"1775",83.29473,98.70599
"1776",83.038376,98.71933
"1777",82.64774,98.732666
"1778",82.18143,98.746
"1779",81.68337,98.75934
"1780",81.180435,98.772675
"1781",80.68482,98.78601
"1782",80.21362,98.79935
"1783",79.77905,98.81268
"1784",79.3933,98.82602
"1785",79.06859,98.839355
"1786",78.82689,98.85269
"1787",78.692604,98.86603
"1788",78.68528,98.879364
"1789",78.81224,98.8927
"1790",79.05394,98.90604
"1791",79.37133,98.91937
"1792",79.70092,98.93271
"1793",79.98901,98.946045
"1794",80.20386,98.95938
"1795",80.31861,98.97272
"1796",80.343025,98.98605
"1797",80.291756,98.99939
"1798",80.18921,99.012726
"1799",80.042725,99.02606
"1800",79.87671,99.0394
"1801",79.69848,99.052734
"1802",79.5227,99.06607
"1803",79.3518,99.07941
"1804",79.19554,99.09274
"1805",79.0515,99.10608
"1806",78.91966,99.119415
"1807",78.802475,99.13275
"1808",78.69993,99.14609
"1809",78.61936,99.159424
"1810",78.553444,99.17276
"1811",78.504616,99.1861
"1812",78.46311,99.19943
"1813",78.42893,99.21277
"1814",78.39475,99.226105
"1815",78.363014,99.23944
"1816",78.3386,99.25278
"1817",78.32395,99.26611
"1818",78.32151,99.27945
"1819",78.33372,99.292786
"1820",78.35081,99.30612
"1821",78.37522,99.31946
"1822",78.41184,99.332794
"1823",78.4802,99.34613
"1824",78.6511,99.35947
"1825",78.99779,99.3728
"1826",79.57397,99.38614
"1827",80.35279,99.399475
"1828",81.24147,99.41281
"1829",82.09354,99.42615
"1830",82.76738,99.43948
"1831",83.16533,99.45282
"1832",83.27276,99.466156
"1833",83.1458,99.47949
"1834",82.85771,99.49283
"1835",82.46708,99.506165
"1836",82.020294,99.5195
"1837",81.54421,99.53284
"1838",81.06081,99.54617
"1839",80.57984,99.55951
"1840",80.10376,99.572845
"1841",79.656975,99.58618
"1842",79.24925,99.59952
"1843",78.90013,99.612854
"1844",78.63645,99.62619
"1845",78.485085,99.63953
"1846",78.467995,99.65286
"1847",78.58274,99.6662
"1848",78.819565,99.679535
"1849",79.13695,99.69287
"1850",79.47875,99.70621
"1851",79.79614,99.71954
"1852",80.04761,99.73288
"1853",80.2063,99.746216
"1854",80.27711,99.75955
"1855",80.272224,99.77289
"1856",80.21362,99.786224
"1857",80.12085,99.79956
"1858",80.008545,99.8129
"1859",79.886475,99.82623
"1860",79.75464,99.83957
"1861",79.61547,99.852905
"1862",79.47631,99.86624
"1863",79.33959,99.87958
"1864",79.21507,99.892914
"1865",79.10521,99.90625
"1866",79.00755,99.919586
"1867",78.924545,99.93292
"1868",78.856186,99.94626
"1869",78.80003,99.959595
"1870",78.75609,99.97293
"1871",78.7219,99.98627
"1872",78.695045,99.9996
"1873",78.677956,100.01294
"1874",78.66819,100.026276
"1875",78.677956,100.03961
"1876",78.746315,100.05295
"1877",78.94896,100.066284
"1878",79.3518,100.07962
"1879",79.971924,100.09296
"1880",80.75807,100.10629
"1881",81.600365,100.11963
"1882",82.354774,100.132965
"1883",82.88945,100.1463
"1884",83.15312,100.15964
"1885",83.158005,100.17297
"1886",82.97002,100.18631
"1887",82.650185,100.199646
"1888",82.24979,100.21298
"1889",81.80301,100.22632
"1890",81.33425,100.239655
"1891",80.85573,100.25299
"1892",80.37476,100.26633
"1893",79.906006,100.27966
"1894",79.466545,100.293
"1895",79.080795,100.306335
"1896",78.77562,100.31967
"1897",78.58274,100.33301
"1898",78.521706,100.346344
"1899",78.60471,100.35968
"1900",78.819565,100.37302
"1901",79.12962,100.38635
"1902",79.48119,100.39969
"1903",79.82544,100.413025
"1904",80.11841,100.42636
"1905",80.323494,100.4397
"1906",80.43824,100.45303
"1907",80.47242,100.46637
"1908",80.44068,100.479706
"1909",80.365,100.49304
"1910",80.255135,100.50638
"1911",80.12573,100.519714
"1912",79.97925,100.53305
"1913",79.82544,100.54639
"1914",79.66918,100.55972
"1915",79.51293,100.57306
"1916",79.36645,100.586395
"1917",79.237045,100.59973
"1918",79.12718,100.61307
"1919",79.03441,100.6264
"1920",78.96605,100.63974
"1921",78.91722,100.653076
"1922",78.887924,100.66641
"1923",78.870834,100.67975
"1924",78.86595,100.693085
"1925",78.86839,100.70642
"1926",78.86839,100.71976
"1927",78.873276,100.73309
"1928",78.90013,100.74643
"1929",79.027084,100.759766
"1930",79.35912,100.7731
"1931",79.96948,100.78644
"1932",80.85817,100.799774
"1933",81.94217,100.81311
"1934",83.055466,100.82645
"1935",84.01251,100.83978
"1936",84.66682,100.85312
"1937",84.964676,100.866455
"1938",84.95003,100.87979
"1939",84.69611,100.89313
"1940",84.28596,100.90646
"1941",83.78302,100.9198
"1942",83.23613,100.933136
"1943",82.669716,100.94647
"1944",82.10574,100.95981
"1945",81.55154,100.973145
"1946",81.024185,100.98648
"1947",80.5359,100.99982
"1948",80.09888,101.01315
"1949",79.727776,101.02649
"1950",79.43969,101.039825
"1951",79.24193,101.05316
"1952",79.15404,101.0665
"1953",79.17113,101.079834
"1954",79.28588,101.09317
"1955",79.4641,101.10651
"1956",79.676506,101.11984
"1957",79.87915,101.13318
"1958",80.04761,101.146515
"1959",80.15991,101.15985
"1960",80.22095,101.17319
"1961",80.22827,101.18652
"1962",80.19165,101.19986
"1963",80.12085,101.213196
"1964",80.02075,101.22653
"1965",79.90112,101.23987
"1966",79.764404,101.253204
"1967",79.62524,101.26654
"1968",79.48608,101.27988
"1969",79.34936,101.29321
"1970",79.21263,101.30655
"1971",79.080795,101.319885
"1972",78.95384,101.33322
"1973",78.83421,101.34656
"1974",78.729225,101.35989
"1975",78.63889,101.37323
"1976",78.56809,101.386566
"1977",78.51194,101.3999
"1978",78.47288,101.41324
"1979",78.44846,101.426575
"1980",78.45335,101.43991
"1981",78.54124,101.45325
"1982",78.80736,101.46658
"1983",79.32006,101.47992
"1984",80.10376,101.493256
"1985",81.0901,101.50659
"1986",82.142365,101.51993
"1987",83.07988,101.533264
"1988",83.76349,101.5466
"1989",84.122375,101.55994
"1990",84.17853,101.57327
"1991",83.99542,101.58661
"1992",83.65362,101.599945
"1993",83.21416,101.61328
"1994",82.72587,101.62662
"1995",82.213165,101.63995
"1996",81.70046,101.65329
"1997",81.19997,101.666626
"1998",80.73121,101.67996
"1999",80.30396,101.6933
"2000",79.93286,101.706635
"2001",79.63256,101.71997
"2002",79.41772,101.73331
"2003",79.30541,101.74664
"2004",79.30053,101.75998
"2005",79.40307,101.773315
"2006",79.588615,101.78665
"2007",79.82544,101.79999
"2008",80.0647,101.813324
"2009",80.272224,101.82666
"2010",80.413826,101.84
"2011",80.482185,101.85333
"2012",80.479744,101.86667
"2013",80.41627,101.880005
"2014",80.30152,101.89334
"2015",80.15503,101.90668
"2016",79.98657,101.92001
"2017",79.80347,101.93335
"2018",79.61547,101.946686
"2019",79.42748,101.96002
"2020",79.24925,101.97336
"2021",79.080795,101.986694
"2022",78.93431,102.00003
"2023",78.8098,102.01337
"2024",78.70725,102.0267
"2025",78.624245,102.04004
"2026",78.56077,102.053375
"2027",78.51194,102.06671
"2028",78.48264,102.08005
"2029",78.49973,102.09338
"2030",78.63157,102.10672
"2031",78.97337,102.120056
"2032",79.57885,102.13339
"2033",80.43336,102.14673
"2034",81.45144,102.160065
"2035",82.4744,102.1734
"2036",83.336235,102.18674
"2037",83.912415,102.20007
"2038",84.16876,102.21341
"2039",84.14191,102.226746
"2040",83.90265,102.24008
"2041",83.51934,102.25342
"2042",83.055466,102.266754
"2043",82.55497,102.28009
"2044",82.04959,102.29343
"2045",81.56374,102.30676
"2046",81.11452,102.3201
"2047",80.71656,102.333435
"2048",80.377205,102.34677
"2049",80.096436,102.36011
"2050",79.87915,102.37344
"2051",79.725334,102.38678
"2052",79.64477,102.400116
"2053",79.635,102.41345
"2054",79.69604,102.42679
"2055",79.80591,102.440125
"2056",79.940186,102.45346
"2057",80.07202,102.4668
"2058",80.16968,102.48013
"2059",80.22095,102.49347
"2060",80.216064,102.506805
"2061",80.15747,102.52014
"2062",80.05493,102.53348
"2063",79.920654,102.546814
"2064",79.75952,102.56015
"2065",79.588615,102.57349
"2066",79.412834,102.58682
"2067",79.237045,102.60016
"2068",79.06859,102.613495
"2069",78.91234,102.62683
"2070",78.77318,102.64017
"2071",78.658424,102.6535
"2072",78.56565,102.66684
"2073",78.49485,102.680176
"2074",78.44358,102.69351
"2075",78.40208,102.70685
"2076",78.37522,102.720184
"2077",78.37522,102.73352
"2078",78.46067,102.74686
"2079",78.72434,102.76019
"2080",79.24925,102.77353
"2081",80.04028,102.786865
"2082",81.04372,102.8002
"2083",82.11551,102.81354
"2084",83.08476,102.82687
"2085",83.80255,102.84021
"2086",84.2005,102.853546
"2087",84.29328,102.86688
"2088",84.14435,102.88022
"2089",83.826965,102.893555
"2090",83.40948,102.90689
"2091",82.9456,102.92023
"2092",82.46464,102.93356
"2093",82.00076,102.9469
"2094",81.58083,102.960236
"2095",81.2195,102.97357
"2096",80.92409,102.98691
"2097",80.69703,103.000244
"2098",80.52369,103.01358
"2099",80.39185,103.02692
"2100",80.291756,103.04025
"2101",80.22095,103.05359
"2102",80.17456,103.066925
"2103",80.15503,103.08026
"2104",80.15015,103.0936
"2105",80.15015,103.10693
"2106",80.14038,103.12027
"2107",80.113525,103.133606
"2108",80.062256,103.14694
"2109",79.98169,103.16028
"2110",79.871826,103.173615
"2111",79.742424,103.18695
"2112",79.59594,103.20029
"2113",79.44213,103.21362
"2114",79.290764,103.22696
"2115",79.14671,103.240295
"2116",79.009995,103.25363
"2117",78.8806,103.26697
"2118",78.76097,103.280304
"2119",78.65354,103.29364
"2120",78.55833,103.30698
"2121",78.48264,103.32031
"2122",78.41917,103.33365
"2123",78.363014,103.346985
"2124",78.311745,103.36032
"2125",78.28977,103.37366
"2126",78.35569,103.38699
"2127",78.59983,103.40033
"2128",79.09056,103.413666
"2129",79.84009,103.427
"2130",80.78493,103.44034
"2131",81.78592,103.453674
"2132",82.67948,103.46701
"2133",83.32891,103.48035
"2134",83.68047,103.49368
"2135",83.74151,103.50702
"2136",83.57549,103.520355
"2137",83.25811,103.53369
"2138",82.86015,103.54703
"2139",82.43778,103.56036
"2140",82.02762,103.5737
"2141",81.65896,103.587036
"2142",81.3489,103.60037
"2143",81.09987,103.61371
"2144",80.907,103.627045
"2145",80.75075,103.64038
"2146",80.621346,103.65372
"2147",80.499275,103.66705
"2148",80.37965,103.68039
"2149",80.26734,103.693726
"2150",80.17212,103.70706
"2151",80.093994,103.7204
"2152",80.03296,103.733734
"2153",79.98413,103.74707
"2154",79.94507,103.76041
"2155",79.903564,103.77374
"2156",79.84741,103.78708
"2157",79.77173,103.800415
"2158",79.674065,103.81375
"2159",79.551994,103.82709
"2160",79.412834,103.84042
"2161",79.26635,103.85376
"2162",79.11742,103.867096
"2163",78.97093,103.88043
"2164",78.82933,103.89377
"2165",78.69749,103.907104
"2166",78.5803,103.92044
"2167",78.47776,103.93378
"2168",78.397194,103.94711
"2169",78.33372,103.96045
"2170",78.28489,103.973785
"2171",78.238495,103.98712
"2172",78.20187,104.00046
"2173",78.16525,104.013794
"2174",78.15549,104.02713
"2175",78.24338,104.04047
"2176",78.504616,104.0538
"2177",79.00511,104.06714
"2178",79.75708,104.080475
"2179",80.69947,104.09381
"2180",81.69314,104.10715
"2181",82.581825,104.12048
"2182",83.228806,104.13382
"2183",83.57549,104.147156
"2184",83.63897,104.16049
"2185",83.48272,104.17383
"2186",83.18974,104.187164
"2187",82.82597,104.2005
"2188",82.45243,104.21384
"2189",82.09842,104.22717
"2190",81.78836,104.24051
"2191",81.53689,104.253845
"2192",81.341576,104.26718
"2193",81.19508,104.28052
"2194",81.07301,104.29385
"2195",80.955826,104.30719
"2196",80.81911,104.320526
"2197",80.66773,104.33386
"2198",80.50904,104.3472
"2199",80.360115,104.360535
"2200",80.233154,104.37387
"2201",80.13306,104.38721
"2202",80.062256,104.40054
"2203",79.99878,104.41388
"2204",79.937744,104.427216
"2205",79.871826,104.44055
"2206",79.7937,104.45389
"2207",79.70092,104.467224
"2208",79.588615,104.48056
"2209",79.45922,104.4939
"2210",79.31762,104.50723
"2211",79.168686,104.52057
"2212",79.012436,104.533905
"2213",78.86351,104.54724
"2214",78.71946,104.56058
"2215",78.58762,104.57391
"2216",78.467995,104.58725
"2217",78.365456,104.600586
"2218",78.27268,104.61392
"2219",78.20187,104.62726
"2220",78.14816,104.640594
"2221",78.1091,104.65393
"2222",78.08713,104.66727
"2223",78.0798,104.6806
"2224",78.07736,104.69394
"2225",78.07004,104.707275
"2226",78.06027,104.72061
"2227",78.048065,104.73395
"2228",78.07248,104.747284
"2229",78.204315,104.76062
"2230",78.536354,104.77396
"2231",79.11986,104.78729
"2232",79.94263,104.80063
"2233",80.921646,104.813965
"2234",81.91287,104.8273
"2235",82.757614,104.84064
"2236",83.33868,104.85397
"2237",83.62432,104.86731
"2238",83.63653,104.880646
"2239",83.45098,104.89398
"2240",83.13847,104.90732
"2241",82.408485,104.93399
"2242",82.08621,104.94733
"2243",81.82498,104.96066
"2244",81.636986,104.974
"2245",81.50515,104.987335
"2246",81.40749,105.00067
"2247",81.31228,105.01401
"2248",81.19264,105.02734
"2249",81.03639,105.04068
"2250",80.84596,105.054016
"2251",80.6482,105.06735
"2252",80.45777,105.08069
"2253",80.29664,105.094025
"2254",80.17456,105.10736
"2255",80.079346,105.1207
"2256",80.00366,105.13403
"2257",79.937744,105.14737
"2258",79.869385,105.160706
"2259",79.78882,105.17404
"2260",79.68871,105.18738
"2261",79.569084,105.200714
"2262",79.43969,105.21405
"2263",79.29809,105.22739
"2264",79.14671,105.24072
"2265",78.995346,105.25406
"2266",78.84642,105.267395
"2267",78.69993,105.28073
"2268",78.555885,105.29407
"2269",78.42649,105.3074
"2270",78.311745,105.32074
"2271",78.21408,105.334076
"2272",78.12863,105.34741
"2273",78.06271,105.36075
"2274",78.013885,105.374084
"2275",77.977264,105.38742
"2276",77.945526,105.40076
"2277",77.925995,105.41409
"2278",77.908905,105.42743
"2279",77.90158,105.440765
"2280",77.90158,105.4541
"2281",77.908905,105.46744
"2282",77.91867,105.480774
"2283",77.92355,105.49411
"2284",77.91867,105.50745
"2285",77.90402,105.52078
"2286",77.90158,105.53412
"2287",77.960175,105.547455
"2288",78.167694,105.56079
"2289",78.61204,105.57413
"2290",79.31518,105.58746
"2291",80.24048,105.6008
"2292",81.270775,105.614136
"2293",82.24979,105.62747
"2294",83.021286,105.64081
"2295",83.49737,105.654144
"2296",83.67559,105.66748
"2297",83.60235,105.68082
"2298",83.353325,105.69415
"2299",83.01152,105.70749
"2300",82.64286,105.720825
"2301",82.28886,105.73416
"2302",81.988556,105.7475
"2303",81.75662,105.76083
"2304",81.602806,105.77417
"2305",81.50271,105.787506
"2306",81.427025,105.80084
"2307",81.339134,105.81418
"2308",81.21217,105.827515
"2309",81.03883,105.84085
"2310",80.83864,105.85419
"2311",80.635994,105.86752
"2312",80.45045,105.88086
"2313",80.2942,105.894196
"2314",80.17212,105.90753
"2315",80.079346,105.92087
"2316",80.00366,105.934204
"2317",79.9353,105.94754
"2318",79.86206,105.96088
"2319",79.76929,105.97421
"2320",79.65453,105.98755
"2321",79.51537,106.000885
"2322",79.361565,106.01422
"2323",79.19798,106.02756
"2324",79.03685,106.04089
"2325",78.87572,106.05423
"2326",78.7219,106.067566
"2327",78.57786,106.0809
"2328",78.44358,106.09424
"2329",78.32151,106.107574
"2330",78.21408,106.12091
"2331",78.12375,106.13425
"2332",78.05051,106.14758
"2333",77.98947,106.16092
"2334",77.94064,106.174255
"2335",77.8967,106.18759
"2336",77.86252,106.20093
"2337",77.83322,106.214264
"2338",77.80881,106.2276
"2339",77.79172,106.24094
"2340",77.77951,106.25427
"2341",77.7673,106.26761
"2342",77.76242,106.280945
"2343",77.75754,106.29428
"2344",77.752655,106.30762
"2345",77.747765,106.32095
"2346",77.738,106.33429
"2347",77.72579,106.347626
"2348",77.72823,106.36096
"2349",77.79904,106.3743
"2350",78.02121,106.387634
"2351",78.47288,106.40097
"2352",79.183334,106.41431
"2353",80.10376,106.42764
"2354",81.12428,106.44098
"2355",82.07889,106.454315
"2356",82.82597,106.46765
"2357",83.282524,106.48099
"2358",83.441216,106.49432
"2359",83.353325,106.50766
"2360",83.09453,106.520996
"2361",82.7454,106.53433
"2362",82.371864,106.54767
"2363",82.020294,106.561005
"2364",81.722435,106.57434
"2365",81.49294,106.58768
"2366",81.33181,106.60101
"2367",81.21706,106.61435
"2368",81.12428,106.627686
"2369",81.024185,106.64102
"2370",80.89967,106.65436
"2371",80.73853,106.667694
"2372",80.56275,106.68103
"2373",80.38209,106.69437
"2374",80.218506,106.7077
"2375",80.08179,106.72104
"2376",79.974365,106.734375
"2377",79.888916,106.74771
"2378",79.815674,106.76105
"2379",79.74731,106.77438
"2380",79.66918,106.78772
"2381",79.57397,106.801056
"2382",79.45678,106.81439
"2383",79.31762,106.82773
"2384",79.1638,106.841064
"2385",79.00267,106.8544
"2386",78.84154,106.86774
"2387",78.68528,106.88107
"2388",78.536354,106.89441
"2389",78.397194,106.907745
"2390",78.27268,106.92108
"2391",78.15549,106.93442
"2392",78.05051,106.947754
"2393",77.960175,106.96109
"2394",77.88937,106.97443
"2395",77.83322,106.98776
"2396",77.79416,107.0011
"2397",77.7673,107.014435
"2398",77.7551,107.02777
"2399",77.747765,107.04111
"2400",77.74532,107.05444
"2401",77.74532,107.06778
"2402",77.752655,107.081116
"2403",77.76486,107.09445
"2404",77.77707,107.10779
"2405",77.78195,107.121124
"2406",77.77951,107.13446
"2407",77.77219,107.1478
"2408",77.752655,107.16113
"2409",77.738,107.17447
"2410",77.76242,107.187805
"2411",77.89426,107.20114
"2412",78.21164,107.21448
"2413",78.765854,107.22781
"2414",79.54955,107.24115
"2415",80.482185,107.254486
"2416",81.42214,107.26782
"2417",82.213165,107.28116
"2418",82.74052,107.294495
"2419",82.967575,107.30783
"2420",82.92851,107.32117
"2421",82.69413,107.3345
"2422",82.34501,107.34784
"2423",81.95438,107.361176
"2424",81.57595,107.37451
"2425",81.23659,107.38785
"2426",80.95094,107.401184
"2427",80.719,107.41452
"2428",80.533455,107.42786
"2429",80.37965,107.44119
"2430",80.24536,107.45453
"2431",80.12329,107.467865
"2432",80.008545,107.4812
"2433",79.91577,107.49454
"2434",79.852295,107.50787
"2435",79.82788,107.52121
"2436",79.83276,107.534546
"2437",79.85718,107.54788
"2438",79.871826,107.56122
"2439",79.86694,107.574554
"2440",79.83032,107.58789
"2441",79.75708,107.60123
"2442",79.65453,107.61456
"2443",79.52758,107.6279
"2444",79.38598,107.641235
"2445",79.22972,107.65457
"2446",79.07103,107.66791
"2447",78.9099,107.681244
"2448",78.751205,107.69458
"2449",78.607155,107.70792
"2450",78.47776,107.72125
"2451",78.3679,107.73459
"2452",78.28245,107.747925
"2453",78.22385,107.76126
"2454",78.184784,107.7746
"2455",78.16281,107.78793
"2456",78.15549,107.80127
"2457",78.150604,107.814606
"2458",78.14816,107.82794
"2459",78.14328,107.84128
"2460",78.12863,107.854614
"2461",78.10666,107.86795
"2462",78.08469,107.88129
"2463",78.07004,107.89462
"2464",78.116425,107.90796
"2465",78.294655,107.921295
"2466",78.675514,107.93463
"2467",79.281,107.94797
"2468",80.06958,107.9613
"2469",80.93385,107.97464
"2470",81.72976,107.987976
"2471",82.32792,108.00131
"2472",82.65507,108.01465
"2473",82.720985,108.027985
"2474",82.5745,108.04132
"2475",82.28886,108.05466
"2476",81.92996,108.06799
"2477",81.55154,108.08133
"2478",81.1902,108.094666
"2479",80.867935,108.108
"2480",80.59693,108.12134
"2481",80.37476,108.134674
"2482",80.19409,108.14801
"2483",80.0354,108.16135
"2484",79.90112,108.17468
"2485",79.78638,108.18802
"2486",79.708244,108.201355
"2487",79.67162,108.21469
"2488",79.68627,108.22803
"2489",79.73754,108.24136
"2490",79.80591,108.2547
"2491",79.87427,108.268036
"2492",79.91577,108.28137
"2493",79.920654,108.29471
"2494",79.88403,108.308044
"2495",79.81079,108.32138
"2496",79.70336,108.33472
"2497",79.57397,108.34805
"2498",79.42748,108.36139
"2499",79.273674,108.374725
"2500",79.11742,108.38806
"2501",78.96605,108.4014
"2502",78.82933,108.414734
"2503",78.71458,108.42807
"2504",78.626686,108.44141
"2505",78.55833,108.45474
"2506",78.5095,108.46808
"2507",78.47776,108.481415
"2508",78.46067,108.49475
"2509",78.45335,108.50809
"2510",78.44602,108.52142
"2511",78.4387,108.53476
"2512",78.42649,108.548096
"2513",78.416725,108.56143
"2514",78.4387,108.57477
"2515",78.56565,108.588104
"2516",78.870834,108.60144
"2517",79.398186,108.61478
"2518",80.13306,108.62811
"2519",80.99977,108.64145
"2520",81.85672,108.654785
"2521",82.55985,108.66812
"2522",83.01152,108.68146
"2523",83.18486,108.69479
"2524",83.1165,108.70813
"2525",82.87724,108.721466
"2526",82.547646,108.7348
"2527",82.18387,108.74814
"2528",81.832306,108.761475
"2529",81.51736,108.77481
"2530",81.248795,108.78815
"2531",81.02907,108.80148
"2532",80.848404,108.81482
"2533",80.68726,108.828156
"2534",80.533455,108.84149
"2535",80.38209,108.85483
"2536",80.23071,108.868164
"2537",80.08911,108.8815
"2538",79.974365,108.89484
"2539",79.89624,108.90817
"2540",79.85718,108.92151
"2541",79.84985,108.934845
"2542",79.86206,108.94818
"2543",79.87427,108.96152
"2544",79.869385,108.97485
"2545",79.835205,108.98819
"2546",79.764404,109.001526
"2547",79.65942,109.01486
"2548",79.52758,109.0282
"2549",79.378654,109.041534
"2550",79.219955,109.05487
"2551",79.06615,109.06821
"2552",78.91966,109.08154
"2553",78.78783,109.09488
"2554",78.67063,109.108215
"2555",78.56809,109.12155
"2556",78.4802,109.13489
"2557",78.41184,109.148224
"2558",78.35325,109.16156
"2559",78.3093,109.1749
"2560",78.28001,109.18823
"2561",78.25559,109.20157
"2562",78.23117,109.214905
"2563",78.21164,109.22824
"2564",78.18967,109.24158
"2565",78.184784,109.25491
"2566",78.24094,109.26825
"2567",78.4387,109.281586
"2568",78.84642,109.29492
"2569",79.483635,109.30826
"2570",80.29908,109.321594
"2571",81.17799,109.33493
"2572",81.971466,109.34827
"2573",82.55497,109.3616
"2574",82.86748,109.37494
"2575",82.92363,109.388275
"2576",82.78447,109.40161
"2577",82.52079,109.41495
"2578",82.19852,109.42828
"2579",81.86893,109.44162
"2580",81.56374,109.454956
"2581",81.307396,109.46829
"2582",81.10719,109.48163
"2583",80.96071,109.494965
"2584",80.84596,109.5083
"2585",80.74586,109.52164
"2586",80.63111,109.53497
"2587",80.48951,109.54831
"2588",80.31617,109.561646
"2589",80.130615,109.57498
"2590",79.95239,109.58832
"2591",79.80591,109.601654
"2592",79.69604,109.61499
"2593",79.62768,109.62833
"2594",79.59106,109.64166
"2595",79.56664,109.655
"2596",79.54467,109.668335
"2597",79.51293,109.68167
"2598",79.46166,109.69501
"2599",79.38354,109.70834
"2600",79.281,109.72168
"2601",79.15892,109.735016
"2602",79.027084,109.74835
"2603",78.89281,109.76169
"2604",78.765854,109.775024
"2605",78.64622,109.78836
"2606",78.536354,109.8017
"2607",78.43626,109.81503
"2608",78.345924,109.82837
"2609",78.27024,109.841705
"2610",78.21164,109.85504
"2611",78.16525,109.86838
"2612",78.135956,109.881714
"2613",78.118866,109.89505
"2614",78.1091,109.90839
"2615",78.10422,109.92172
"2616",78.101776,109.93506
"2617",78.101776,109.948395
"2618",78.10666,109.96173
"2619",78.10666,109.97507
"2620",78.101776,109.9884
"2621",78.09201,110.00174
"2622",78.07492,110.015076
"2623",78.05051,110.02841
"2624",78.01633,110.04175
"2625",77.99191,110.055084
"2626",77.99924,110.06842
"2627",78.09201,110.08176
"2628",78.35569,110.09509
"2629",78.84886,110.10843
"2630",79.56664,110.121765
"2631",80.4358,110.1351
"2632",81.324486,110.14844
"2633",82.08865,110.16177
"2634",82.61356,110.17511
"2635",82.85771,110.188446
"2636",82.86748,110.20178
"2637",82.70878,110.21512
"2638",82.44999,110.228455
"2639",82.15213,110.24179
"2640",81.85428,110.25513
"2641",81.583275,110.26846
"2642",81.35134,110.2818
"2643",81.17311,110.295135
"2644",81.04372,110.30847
"2645",80.9485,110.32181
"2646",80.867935,110.335144
"2647",80.77516,110.34848
"2648",80.65797,110.36182
"2649",80.51392,110.37515
"2650",80.35035,110.38849
"2651",80.19165,110.401825
"2652",80.04761,110.41516
"2653",79.937744,110.4285
"2654",79.85962,110.44183
"2655",79.81079,110.45517
"2656",79.781494,110.468506
"2657",79.75708,110.48184
"2658",79.72289,110.49518
"2659",79.67162,110.508514
"2660",79.605705,110.52185
"2661",79.5227,110.53519
"2662",79.42016,110.54852
"2663",79.30541,110.56186
"2664",79.18822,110.575195
"2665",79.06615,110.58853
"2666",78.94896,110.60187
"2667",78.84642,110.615204
"2668",78.75853,110.62854
"2669",78.6804,110.64188
"2670",78.61936,110.65521
"2671",78.57053,110.66855
"2672",78.53147,110.681885
"2673",78.49973,110.69522
"2674",78.47776,110.70856
"2675",78.46311,110.72189
"2676",78.44846,110.73523
"2677",78.43626,110.748566
"2678",78.42649,110.7619
"2679",78.416725,110.77524
"2680",78.41184,110.788574
"2681",78.40696,110.80191
"2682",78.399635,110.81525
"2683",78.39231,110.82858
"2684",78.380104,110.84192
"2685",78.365456,110.855255
"2686",78.348366,110.86859
"2687",78.33372,110.88193
"2688",78.32639,110.89526
"2689",78.31907,110.9086
"2690",78.31907,110.921936
"2691",78.32395,110.93527
"2692",78.32639,110.94861
"2693",78.328835,110.961945
"2694",78.331276,110.97528
"2695",78.37034,110.98862
"2696",78.5095,111.00195
"2697",78.836655,111.01529
"2698",79.3933,111.028625
"2699",80.16724,111.04196
"2700",81.06813,111.0553
"2701",81.95682,111.068634
"2702",82.69169,111.08197
"2703",83.177536,111.09531
"2704",83.389946,111.10864
"2705",83.36553,111.12198
"2706",83.17265,111.135315
"2707",82.88457,111.14865
"2708",82.55985,111.16199
"2709",82.24002,111.17532
"2710",81.95926,111.18866
"2711",81.722435,111.201996
"2712",81.53933,111.21533
"2713",81.40749,111.22867
"2714",81.31472,111.242004
"2715",81.23659,111.25534
"2716",81.15602,111.26868
"2717",81.06081,111.28201
"2718",80.9485,111.29535
"2719",80.82887,111.308685
"2720",80.719,111.32202
"2721",80.63355,111.33536
"2722",80.57496,111.348694
"2723",80.53834,111.36203
"2724",80.52369,111.37537
"2725",80.51148,111.3887
"2726",80.49195,111.40204
"2727",80.45289,111.415375
"2728",80.38941,111.42871
"2729",80.30396,111.44205
"2730",80.198975,111.45538
"2731",80.08423,111.46872
"2732",79.96216,111.482056
"2733",79.835205,111.49539
"2734",79.7058,111.50873
"2735",79.58129,111.522064
"2736",79.46899,111.5354
"2737",79.37621,111.54874
"2738",79.30297,111.56207
"2739",79.24925,111.57541
"2740",79.21507,111.588745
"2741",79.1931,111.60208
"2742",79.17845,111.61542
"2743",79.17113,111.62875
"2744",79.166245,111.64209
"2745",79.168686,111.655426
"2746",79.168686,111.66876
"2747",79.17845,111.6821
"2748",79.19066,111.695435
"2749",79.202866,111.70877
"2750",79.21263,111.72211
"2751",79.219955,111.73544
"2752",79.2224,111.74878
"2753",79.219955,111.762115
"2754",79.21263,111.77545
"2755",79.202866,111.78879
"2756",79.19066,111.802124
"2757",79.17601,111.81546
"2758",79.15648,111.8288
"2759",79.13695,111.84213
"2760",79.114975,111.85547
"2761",79.09056,111.868805
"2762",79.08812,111.88214
"2763",79.16136,111.89548
"2764",79.3933,111.90881
"2765",79.85474,111.92215
"2766",80.550545,111.935486
"2767",81.41726,111.94882
"2768",82.32792,111.96216
"2769",83.12627,111.975494
"2770",83.685356,111.98883
"2771",83.95636,112.00217
"2772",83.9588,112.0155
"2773",83.76105,112.02884
"2774",83.43145,112.042175
"2775",83.0457,112.05551
"2776",82.65507,112.06885
"2777",82.29862,112.082184
"2778",82.00076,112.09552
"2779",81.77615,112.10886
"2780",81.62478,112.12219
"2781",81.53689,112.13553
"2782",81.48562,112.148865
"2783",81.44167,112.1622
"2784",81.3782,112.17554
"2785",81.27566,112.18887
"2786",81.13893,112.20221
"2787",80.9778,112.215546
"2788",80.82155,112.22888
"2789",80.67506,112.24222
"2790",80.552986,112.255554
"2791",80.448006,112.26889
"2792",80.365,112.28223
"2793",80.291756,112.29556
"2794",80.22583,112.3089
"2795",80.16235,112.322235
"2796",80.09155,112.33557
"2797",80.008545,112.34891
"2798",79.906006,112.36224
"2799",79.78638,112.37558
"2800",79.656975,112.388916
"2801",79.517815,112.40225
"2802",79.38354,112.41559
"2803",79.25414,112.428925
"2804",79.14183,112.44226
"2805",79.044174,112.4556
"2806",78.96361,112.46893
"2807",78.89769,112.48227
"2808",78.84642,112.495605
"2809",78.79759,112.50894
"2810",78.75609,112.52228
"2811",78.71702,112.535614
"2812",78.6804,112.54895
"2813",78.64866,112.56229
"2814",78.6218,112.57562
"2815",78.60471,112.58896
"2816",78.590065,112.602295
"2817",78.57786,112.61563
"2818",78.56565,112.62897
"2819",78.555885,112.6423
"2820",78.54856,112.65564
"2821",78.54124,112.668976
"2822",78.536354,112.68231
"2823",78.53391,112.69565
"2824",78.52903,112.708984
"2825",78.519264,112.72232
"2826",78.5095,112.73566
"2827",78.5095,112.74899
"2828",78.553444,112.76233
"2829",78.712135,112.775665
"2830",79.07591,112.789
"2831",79.68383,112.80234
"2832",80.51392,112.815674
"2833",81.46853,112.82901
"2834",82.39628,112.84235
"2835",83.14336,112.85568
"2836",83.60967,112.86902
"2837",83.775696,112.882355
"2838",83.6878,112.89569
"2839",83.41192,112.90903
"2840",83.02861,112.92236
"2841",82.6038,112.9357
"2842",82.18875,112.949036
"2843",81.81766,112.96237
"2844",81.512474,112.97571
"2845",81.29519,112.989044
"2846",81.15358,113.00238
"2847",81.07301,113.01572
"2848",81.024185,113.02905
"2849",80.98268,113.04239
"2850",80.919205,113.055725
"2851",80.82887,113.06906
"2852",80.719,113.0824
"2853",80.59937,113.09573
"2854",80.482185,113.10907
"2855",80.377205,113.122406
"2856",80.28687,113.13574
"2857",80.21118,113.14908
"2858",80.14038,113.162415
"2859",80.06714,113.17575
"2860",79.98901,113.18909
"2861",79.90112,113.20242
"2862",79.79614,113.21576
"2863",79.68139,113.229095
"2864",79.554436,113.24243
"2865",79.42748,113.25577
"2866",79.29809,113.269104
"2867",79.17601,113.28244
"2868",79.063705,113.29578
"2869",78.958725,113.30911
"2870",78.86107,113.32245
"2871",78.77562,113.335785
"2872",78.70725,113.34912
"2873",78.65354,113.36246
"2874",78.61204,113.37579
"2875",78.58274,113.38913
"2876",78.55833,113.402466
"2877",78.538795,113.4158
"2878",78.52659,113.42914
"2879",78.519264,113.442474
"2880",78.51438,113.45581
"2881",78.51194,113.46915
"2882",78.50706,113.48248
"2883",78.502174,113.49582
"2884",78.49973,113.509155
"2885",78.49973,113.52249
"2886",78.504616,113.53583
"2887",78.504616,113.549164
"2888",78.49973,113.5625
"2889",78.487526,113.575836
"2890",78.47288,113.58917
"2891",78.46555,113.60251
"2892",78.502174,113.615845
"2893",78.658424,113.62918
"2894",79.01732,113.64252
"2895",79.61791,113.65585
"2896",80.42359,113.66919
"2897",81.3489,113.682526
"2898",82.24002,113.69586
"2899",82.948044,113.7092
"2900",83.38018,113.722534
"2901",83.526665,113.73587
"2902",83.42901,113.74921
"2903",83.15312,113.76254
"2904",82.76738,113.77588
"2905",82.32792,113.789215
"2906",81.88602,113.80255
"2907",81.47341,113.81589
"2908",81.11452,113.82922
"2909",80.82155,113.84256
"2910",80.59205,113.855896
"2911",80.41871,113.86923
"2912",80.2942,113.88257
"2913",80.2063,113.895905
"2914",80.15015,113.90924
"2915",80.128174,113.92258
"2916",80.1355,113.93591
"2917",80.16724,113.94925
"2918",80.21362,113.962585
"2919",80.257576,113.97592
"2920",80.28687,113.98926
"2921",80.289314,114.002594
"2922",80.257576,114.01593
"2923",80.19165,114.02927
"2924",80.093994,114.0426
"2925",79.9646,114.05594
"2926",79.82056,114.069275
"2927",79.66674,114.08261
"2928",79.51049,114.09595
"2929",79.361565,114.10928
"2930",79.2224,114.12262
"2931",79.09544,114.135956
"2932",78.98314,114.14929
"2933",78.887924,114.16263
"2934",78.81712,114.175964
"2935",78.76341,114.1893
"2936",78.72678,114.20264
"2937",78.69749,114.21597
"2938",78.677956,114.22931
"2939",78.658424,114.242645
"2940",78.63889,114.25598
"2941",78.624245,114.26932
"2942",78.61448,114.28265
"2943",78.60471,114.29599
"2944",78.60227,114.309326
"2945",78.607155,114.32266
"2946",78.61448,114.336
"2947",78.626686,114.349335
"2948",78.63645,114.36267
"2949",78.643776,114.37601
"2950",78.643776,114.38934
"2951",78.63401,114.40268
"2952",78.624245,114.416016
"2953",78.64866,114.42935
"2954",78.77562,114.44269
"2955",79.080795,114.456024
"2956",79.605705,114.46936
"2957",80.33326,114.4827
"2958",81.17799,114.49603
"2959",82.00076,114.50937
"2960",82.65995,114.522705
"2961",83.06523,114.53604
"2962",83.19707,114.54938
"2963",83.089645,114.56271
"2964",82.811325,114.57605
"2965",82.423134,114.589386
"2966",81.97879,114.60272
"2967",81.51736,114.61606
"2968",81.07301,114.629395
"2969",80.65797,114.64273
"2970",80.2942,114.65607
"2971",79.98901,114.6694
"2972",79.7522,114.68274
"2973",79.59106,114.696075
"2974",79.51293,114.70941
"2975",79.517815,114.72275
"2976",79.60082,114.736084
"2977",79.74731,114.74942
"2978",79.92554,114.76276
"2979",80.10376,114.77609
"2980",80.255135,114.78943
"2981",80.35279,114.802765
"2982",80.38209,114.8161
"2983",80.35035,114.82944
"2984",80.2649,114.84277
"2985",80.130615,114.85611
"2986",79.96948,114.869446
"2987",79.78882,114.88278
"2988",79.60082,114.89612
"2989",79.41772,114.909454
"2990",79.24437,114.92279
"2991",79.09056,114.93613
"2992",78.96117,114.94946
"2993",78.85863,114.9628
"2994",78.78294,114.976135
"2995",78.73167,114.98947
"2996",78.70237,115.00281
"2997",78.692604,115.01614
"2998",78.692604,115.02948
"2999",78.695045,115.042816
"3000",78.70481,115.05615
"3001",78.71946,115.06949
"3002",78.73167,115.082825
"3003",78.74876,115.09616
"3004",78.768295,115.1095
"3005",78.785385,115.12283
"3006",78.79027,115.13617
"3007",78.785385,115.149506
"3008",78.77806,115.16284
"3009",78.765854,115.17618
"3010",78.76097,115.189514
"3011",78.802475,115.20285
"3012",78.95628,115.21619
"3013",79.293205,115.22952
"3014",79.84009,115.24286
"3015",80.567635,115.256195
"3016",81.3782,115.26953
"3017",82.13992,115.28287
"3018",82.7161,115.2962
"3019",83.038376,115.30954
"3020",83.10185,115.322876
"3021",82.95293,115.33621
"3022",82.650185,115.34955
"3023",82.24979,115.362885
"3024",81.795685,115.37622
"3025",81.3196,115.38956
"3026",80.85573,115.40289
"3027",80.42603,115.41623
"3028",80.04028,115.429565
"3029",79.71557,115.4429
"3030",79.45922,115.45624
"3031",79.28832,115.469574
"3032",79.217514,115.48291
"3033",79.25414,115.49625
"3034",79.3933,115.50958
"3035",79.605705,115.52292
"3036",79.84985,115.536255
"3037",80.08423,115.54959
"3038",80.272224,115.56293
"3039",80.38697,115.57626
"3040",80.42359,115.5896
"3041",80.38941,115.602936
"3042",80.291756,115.61627
"3043",80.15259,115.62961
"3044",79.991455,115.642944
"3045",79.82056,115.65628
"3046",79.64233,115.66962
"3047",79.466545,115.68295
"3048",79.29565,115.69629
"3049",79.13695,115.709625
"3050",78.99779,115.72296
"3051",78.88548,115.7363
"3052",78.79759,115.74963
"3053",78.73167,115.76297
"3054",78.68772,115.776306
"3055",78.6511,115.78964
"3056",78.626686,115.80298
"3057",78.60471,115.816315
"3058",78.58518,115.82965
"3059",78.56809,115.84299
"3060",78.555885,115.85632
"3061",78.54124,115.86966
"3062",78.52659,115.882996
"3063",78.51194,115.89633
"3064",78.504616,115.90967
"3065",78.54124,115.923004
"3066",78.68528,115.93634
"3067",79.012436,115.94968
"3068",79.554436,115.96301
"3069",80.27711,115.97635
"3070",81.077896,115.989685
"3071",81.832306,116.00302
"3072",82.408485,116.01636
"3073",82.73075,116.02969
"3074",82.794235,116.04303
"3075",82.650185,116.056366
"3076",82.357216,116.0697
"3077",81.971466,116.08304
"3078",81.532005,116.096375
"3079",81.06813,116.10971
"3080",80.604256,116.12305
"3081",80.15259,116.13638
"3082",79.73754,116.14972
"3083",79.37377,116.163055
"3084",79.080795,116.17639
"3085",78.87816,116.18973
"3086",78.785385,116.203064
"3087",78.81468,116.2164
"3088",78.96117,116.22974
"3089",79.20531,116.24307
"3090",79.51293,116.25641
"3091",79.83032,116.269745
"3092",80.111084,116.28308
"3093",80.323494,116.29642
"3094",80.445564,116.30975
"3095",80.482185,116.32309
"3096",80.44068,116.336426
"3097",80.34058,116.34976
"3098",80.201416,116.3631
"3099",80.0354,116.376434
"3100",79.86206,116.38977
"3101",79.67895,116.40311
"3102",79.49828,116.41644
"3103",79.32983,116.42978
"3104",79.17845,116.443115
"3105",79.0515,116.45645
"3106",78.9514,116.46979
"3107",78.88304,116.48312
"3108",78.84154,116.49646
"3109",78.81712,116.509796
"3110",78.80492,116.52313
"3111",78.80492,116.53647
"3112",78.82689,116.549805
"3113",78.91234,116.56314
"3114",79.11253,116.57648
"3115",79.46899,116.58981
"3116",79.971924,116.60315
"3117",80.58228,116.616486
"3118",81.20241,116.62982
"3119",81.7322,116.64316
"3120",82.08621,116.656494
"3121",82.23514,116.66983
"3122",82.193634,116.68317
"3123",82.003204,116.6965
"3124",81.71023,116.70984
"3125",81.35378,116.723175
"3126",80.96803,116.73651
"3127",80.57496,116.74985
"3128",80.184326,116.76318
"3129",79.80835,116.77652
"3130",79.466545,116.789856
"3131",79.17357,116.80319
"3132",78.95384,116.81653
"3133",78.83421,116.829865
"3134",78.82689,116.8432
"3135",78.92943,116.85654
"3136",79.11742,116.86987
"3137",79.35912,116.88321
"3138",79.61303,116.896545
"3139",79.84009,116.90988
"3140",80.01343,116.92322
"3141",80.12085,116.936554
"3142",80.15991,116.94989
"3143",80.14526,116.96323
"3144",80.08667,116.97656
"3145",79.99634,116.9899
"3146",79.88159,117.003235
"3147",79.75708,117.01657
"3148",79.62035,117.02991
"3149",79.483635,117.04324
"3150",79.35424,117.05658
"3151",79.23949,117.069916
"3152",79.13939,117.08325
"3153",79.05638,117.09659
"3154",78.99046,117.109924
"3155",78.941635,117.12326
"3156",78.91234,117.1366
"3157",78.89769,117.14993
"3158",78.89281,117.16327
"3159",78.9099,117.176605
"3160",79.00023,117.18994
"3161",79.24437,117.20328
"3162",79.710686,117.21661
"3163",80.42359,117.22995
"3164",81.324486,117.243286
"3165",82.286415,117.25662
"3166",83.15068,117.26996
"3167",83.790344,117.283295
"3168",84.137024,117.29663
"3169",84.19806,117.30997
"3170",84.0296,117.3233
"3171",83.69756,117.33664
"3172",83.26055,117.349976
"3173",82.76494,117.36331
"3174",82.24979,117.37665
"3175",81.74441,117.389984
"3176",81.27322,117.40332
"3177",80.85329,117.41666
"3178",80.49439,117.42999
"3179",80.2063,117.44333
"3180",79.98901,117.456665
"3181",79.84741,117.47
"3182",79.78882,117.48334
"3183",79.815674,117.49667
"3184",79.91577,117.51001
"3185",80.059814,117.523346
"3186",80.21118,117.53668
"3187",80.34058,117.55002
"3188",80.42603,117.563354
"3189",80.45289,117.57669
"3190",80.42359,117.59003
"3191",80.34547,117.60336
"3192",80.22827,117.6167
"3193",80.079346,117.630035
"3194",79.91089,117.64337
"3195",79.7351,117.65671
"3196",79.55932,117.670044
"3197",79.3933,117.68338
"3198",79.237045,117.69672
"3199",79.09544,117.71005
"3200",78.97093,117.72339
"3201",78.870834,117.736725
"3202",78.79759,117.75006
"3203",78.746315,117.7634
"3204",78.71458,117.77673
"3205",78.695045,117.79007
"3206",78.68284,117.803406
"3207",78.70237,117.81674
"3208",78.81468,117.83008
"3209",79.10521,117.843414
"3210",79.63256,117.85675
"3211",80.39918,117.87009
"3212",81.33669,117.88342
"3213",82.31083,117.89676
"3214",83.16289,117.910095
"3215",83.775696,117.92343
"3216",84.09308,117.93677
"3217",84.13214,117.9501
"3218",83.94415,117.96344
"3219",83.59991,117.976776
"3220",83.16289,117.99011
"3221",82.684364,118.00345
"3222",82.210724,118.016785
"3223",81.76639,118.03012
"3224",81.3782,118.04346
"3225",81.05348,118.05679
"3226",80.797134,118.07013
"3227",80.59937,118.083466
"3228",80.448006,118.0968
"3229",80.33082,118.11014
"3230",80.24048,118.123474
"3231",80.17456,118.13681
"3232",80.1355,118.15015
"3233",80.11841,118.16348
"3234",80.113525,118.17682
"3235",80.113525,118.190155
"3236",80.10376,118.20349
"3237",80.076904,118.21683
"3238",80.025635,118.23016
"3239",79.94995,118.2435
"3240",79.84741,118.256836
"3241",79.72289,118.27017
"3242",79.58373,118.28351
"3243",79.429924,118.296844
"3244",79.276115,118.31018
"3245",79.1223,118.32352
"3246",78.97826,118.33685
"3247",78.84886,118.35019
"3248",78.74143,118.363525
"3249",78.6511,118.37686
"3250",78.57542,118.3902
"3251",78.5095,118.403534
"3252",78.45579,118.41687
"3253",78.416725,118.43021
"3254",78.4387,118.44354
"3255",78.58762,118.45688
"3256",78.941635,118.470215
"3257",79.53979,118.48355
"3258",80.35523,118.49689
"3259",81.29519,118.51022
"3260",82.213165,118.52356
"3261",82.967575,118.536896
"3262",83.455864,118.55023
"3263",83.65118,118.56357
"3264",83.59258,118.576904
"3265",83.34112,118.59024
"3266",82.967575,118.60358
"3267",82.53544,118.61691
"3268",82.09598,118.63025
"3269",81.6907,118.643585
"3270",81.33669,118.65692
"3271",81.0486,118.67026
"3272",80.81911,118.68359
"3273",80.64332,118.69693
"3274",80.50416,118.710266
"3275",80.37965,118.7236
"3276",80.2649,118.73694
"3277",80.15991,118.750275
"3278",80.06714,118.76361
"3279",79.98901,118.77695
"3280",79.92798,118.79028
"3281",79.87915,118.80362
"3282",79.84253,118.816956
"3283",79.801025,118.83029
"3284",79.74975,118.84363
"3285",79.68383,118.85697
"3286",79.603264,118.87031
"3287",79.50317,118.883644
"3288",79.38842,118.89698
"3289",79.26147,118.91032
"3290",79.12474,118.92365
"3291",78.98802,118.93699
"3292",78.853745,118.950325
"3293",78.72678,118.96366
"3294",78.6096,118.977
"3295",78.51194,118.99033
"3296",78.42893,119.00367
"3297",78.35813,119.017006
"3298",78.2971,119.03034
"3299",78.24338,119.04368
"3300",78.21164,119.057014
"3301",78.24338,119.07035
"3302",78.41917,119.08369
"3303",78.80736,119.09702
"3304",79.44457,119.11036
"3305",80.289314,119.123695
"3306",81.234146,119.13703
"3307",82.12039,119.15037
"3308",82.80644,119.163704
"3309",83.20439,119.17704
"3310",83.30694,119.19038
"3311",83.16533,119.20371
"3312",82.85527,119.21705
"3313",82.459755,119.230385
"3314",82.03494,119.24372
"3315",81.62966,119.25706
"3316",81.26833,119.27039
"3317",80.96803,119.28373
"3318",80.73121,119.297066
"3319",80.54322,119.3104
"3320",80.394295,119.32374
"3321",80.26246,119.337074
"3322",80.13794,119.35041
"3323",80.01343,119.36375
"3324",79.906006,119.37708
"3325",79.815674,119.39042
"3326",79.7522,119.403755
"3327",79.708244,119.41709
"3328",79.674065,119.43043
"3329",79.639885,119.44376
"3330",79.60082,119.4571
"3331",79.54955,119.470436
"3332",79.48608,119.48377
"3333",79.40063,119.49711
"3334",79.29809,119.510445
"3335",79.17845,119.52378
"3336",79.04173,119.53712
"3337",78.89525,119.55045
"3338",78.751205,119.56379
"3339",78.61448,119.577126
"3340",78.48997,119.59046
"3341",78.38499,119.6038
"3342",78.30198,119.617134
"3343",78.23117,119.63047
"3344",78.17746,119.64381
"3345",78.133514,119.65714
"3346",78.09689,119.67048
"3347",78.0676,119.683815
"3348",78.05539,119.69715
"3349",78.10666,119.71049
"3350",78.2971,119.72382
"3351",78.70237,119.73716
"3352",79.364006,119.750496
"3353",80.24292,119.76383
"3354",81.22682,119.77717
"3355",82.15701,119.790504
"3356",82.882126,119.80384
"3357",83.30938,119.81718
"3358",83.42901,119.83051
"3359",83.299614,119.84385
"3360",82.99199,119.857185
"3361",82.579384,119.87052
"3362",82.13016,119.88386
"3363",81.69802,119.897194
"3364",81.31228,119.91053
"3365",80.99489,119.92387
"3366",80.75319,119.9372
"3367",80.5774,119.95054
"3368",80.4358,119.963875
"3369",80.31617,119.97721
"3370",80.20386,119.99055
"3371",80.093994,120.00388
"3372",79.9939,120.01722
"3373",79.91333,120.030556
"3374",79.85474,120.04389
"3375",79.81323,120.05723
"3376",79.781494,120.070564
"3377",79.74975,120.0839
"3378",79.7058,120.09724
"3379",79.64721,120.11057
"3380",79.569084,120.12391
"3381",79.466545,120.137245
"3382",79.344475,120.15058
"3383",79.20531,120.16392
"3384",79.05638,120.17725
"3385",78.905014,120.19059
"3386",78.75365,120.203926
"3387",78.61204,120.21726
"3388",78.48264,120.2306
"3389",78.37034,120.243935
"3390",78.277565,120.25727
"3391",78.20676,120.27061
"3392",78.150604,120.28394
"3393",78.10666,120.29728
"3394",78.07736,120.310616
"3395",78.05051,120.32395
"3396",78.028534,120.33729
"3397",78.013885,120.350624
"3398",78.01877,120.36396
"3399",78.09445,120.3773
"3400",78.328835,120.39063
"3401",78.80003,120.40397
"3402",79.53002,120.417305
"3403",80.46754,120.43064
"3404",81.480736,120.44398
"3405",82.4036,120.45731
"3406",83.09209,120.47065
"3407",83.46075,120.483986
"3408",83.526665,120.49732
"3409",83.35088,120.51066
"3410",83.0164,120.523994
"3411",82.59647,120.53733
"3412",82.15701,120.55067
"3413",81.74197,120.564
"3414",81.38796,120.57734
"3415",81.10231,120.590675
"3416",80.885025,120.60401
"3417",80.719,120.61735
"3418",80.58228,120.630684
"3419",80.462654,120.64402
"3420",80.343025,120.65736
"3421",80.22339,120.67069
"3422",80.10864,120.68403
"3423",80.0061,120.697365
"3424",79.923096,120.7107
"3425",79.85474,120.72404
"3426",79.798584,120.73737
"3427",79.74975,120.75071
"3428",79.69604,120.764046
"3429",79.62768,120.77738
"3430",79.54467,120.79072
"3431",79.44213,120.804054
"3432",79.32983,120.81739
"3433",79.200424,120.83073
"3434",79.06615,120.84406
"3435",78.924545,120.8574
"3436",78.7805,120.870735
"3437",78.641335,120.88407
"3438",78.51194,120.89741
"3439",78.39475,120.91074
"3440",78.2971,120.92408
"3441",78.21164,120.937416
"3442",78.14572,120.95075
"3443",78.09689,120.96409
"3444",78.06027,120.977425
"3445",78.0383,120.99076
"3446",78.028534,121.0041
"3447",78.02609,121.01743
"3448",78.02121,121.03077
"3449",78.01877,121.044106
"3450",78.01877,121.05744
"3451",78.04074,121.07078
"3452",78.14084,121.084114
"3453",78.40696,121.09745
"3454",78.9099,121.11079
"3455",79.674065,121.12412
"3456",80.63355,121.13746
"3457",81.654076,121.150795
"3458",82.564735,121.16413
"3459",83.22148,121.17747
"3460",83.560844,121.1908
"3461",83.59258,121.20414
"3462",83.38506,121.217476
"3463",83.02373,121.23081
"3464",82.58671,121.24415
"3465",82.13748,121.257484
"3466",81.71999,121.27082
"3467",81.36355,121.28416
"3468",81.077896,121.29749
"3469",80.86305,121.31083
"3470",80.69215,121.324165
"3471",80.5481,121.3375
"3472",80.41627,121.35084
"3473",80.28199,121.364174
"3474",80.147705,121.37751
"3475",80.02075,121.39085
"3476",79.91577,121.40418
"3477",79.83032,121.41752
"3478",79.764404,121.430855
"3479",79.710686,121.44419
"3480",79.6643,121.45753
"3481",79.61059,121.47086
"3482",79.54955,121.4842
"3483",79.47143,121.497536
"3484",79.37377,121.51087
"3485",79.259026,121.52421
"3486",79.12718,121.537544
"3487",78.97826,121.55088
"3488",78.82445,121.56422
"3489",78.675514,121.57755
"3490",78.53391,121.59089
"3491",78.40696,121.604225
"3492",78.29221,121.61756
"3493",78.19455,121.6309
"3494",78.11154,121.64423
"3495",78.04318,121.65757
"3496",77.98947,121.670906
"3497",77.95529,121.68424
"3498",77.93576,121.69758
"3499",77.93088,121.710915
"3500",77.93576,121.72425
"3501",77.945526,121.73759
"3502",77.95041,121.75092
"3503",77.95285,121.76426
"3504",77.960175,121.777596
"3505",78.00168,121.79093
"3506",78.15549,121.80427
"3507",78.504616,121.817604
"3508",79.10033,121.83094
"3509",79.93042,121.84428
"3510",80.907,121.85761
"3511",81.883575,121.87095
"3512",82.68925,121.884285
"3513",83.21416,121.89762
"3514",83.4168,121.91096
"3515",83.336235,121.92429
"3516",83.0457,121.93763
"3517",82.63065,121.950966
"3518",82.16434,121.9643
"3519",81.69802,121.97764
"3520",81.270775,121.990974
"3521",80.907,122.00431
"3522",80.60914,122.01765
"3523",80.38209,122.03098
"3524",80.20386,122.04432
"3525",80.062256,122.057655
"3526",79.94751,122.07099
"3527",79.86206,122.08433
"3528",79.801025,122.097664
"3529",79.77173,122.111
"3530",79.77661,122.12434
"3531",79.80591,122.13767
"3532",79.84253,122.15101
"3533",79.86694,122.164345
"3534",79.8645,122.17768
"3535",79.82788,122.19102
"3536",79.74975,122.20435
"3537",79.63744,122.21769
"3538",79.50561,122.231026
"3539",79.3518,122.24436
"3540",79.18822,122.2577
"3541",79.01488,122.271034
"3542",78.84398,122.28437
"3543",78.6804,122.29771
"3544",78.54124,122.31104
"3545",78.42893,122.32438
"3546",78.345924,122.337715
"3547",78.28977,122.35105
"3548",78.25315,122.36439
"3549",78.22385,122.37772
"3550",78.204315,122.39106
"3551",78.184784,122.404396
"3552",78.16525,122.41773
"3553",78.15549,122.43107
"3554",78.19211,122.444405
"3555",78.345924,122.45774
"3556",78.692604,122.47108
"3557",79.27856,122.48441
"3558",80.076904,122.49775
"3559",80.987564,122.511086
"3560",81.8616,122.52442
"3561",82.547646,122.53776
"3562",82.948044,122.551094
"3563",83.04326,122.56443
"3564",82.89189,122.57777
"3565",82.56962,122.5911
"3566",82.15213,122.60444
"3567",81.7029,122.617775
"3568",81.25857,122.63111
"3569",80.850845,122.64445
"3570",80.49195,122.65778
"3571",80.18921,122.67112
"3572",79.940186,122.684456
"3573",79.73754,122.69779
"3574",79.57397,122.71113
"3575",79.45678,122.724464
"3576",79.38842,122.7378
"3577",79.378654,122.75114
"3578",79.432365,122.76447
"3579",79.53002,122.77781
"3580",79.64477,122.791145
"3581",79.74975,122.80448
"3582",79.818115,122.81782
"3583",79.83276,122.831154
"3584",79.78882,122.84449
"3585",79.70092,122.85783
"3586",79.56664,122.87116
"3587",79.40795,122.8845
"3588",79.237045,122.897835
"3589",79.061264,122.91117
"3590",78.88548,122.92451
"3591",78.72434,122.93784
"3592",78.58274,122.95118
"3593",78.46555,122.964516
"3594",78.37034,122.97785
"3595",78.29954,122.99119
"3596",78.24582,123.004524
"3597",78.2092,123.01786
"3598",78.1799,123.0312
"3599",78.15549,123.04453
"3600",78.14328,123.05787
"3601",78.17258,123.071205
"3602",78.31907,123.08454
"3603",78.66331,123.09788
"3604",79.259026,123.11121
"3605",80.08423,123.12455
"3606",81.03883,123.137886
"3607",81.97391,123.15122
"3608",82.73319,123.16456
"3609",83.20683,123.177895
"3610",83.36797,123.19123
"3611",83.26055,123.20457
"3612",82.95781,123.2179
"3613",82.53788,123.23124
"3614",82.074005,123.244576
"3615",81.61501,123.25791
"3616",81.19997,123.27125
"3617",80.83864,123.284584
"3618",80.54078,123.29792
"3619",80.2942,123.31126
"3620",80.08911,123.32459
"3621",79.91821,123.33793
"3622",79.76929,123.351265
"3623",79.65209,123.3646
"3624",79.571526,123.37794
"3625",79.53979,123.39127
"3626",79.54467,123.40461
"3627",79.58129,123.417946
"3628",79.639885,123.43128
"3629",79.693596,123.44462
"3630",79.727776,123.457954
"3631",79.73022,123.47129
"3632",79.691154,123.48463
"3633",79.61059,123.49796
"3634",79.4934,123.5113
"3635",79.34692,123.524635
"3636",79.183334,123.53797
"3637",79.01488,123.55131
"3638",78.84886,123.564644
"3639",78.692604,123.57798
"3640",78.553444,123.59132
"3641",78.4387,123.60465
"3642",78.35325,123.61799
"3643",78.2971,123.631325
"3644",78.25803,123.64466
"3645",78.23117,123.658
"3646",78.2092,123.67133
"3647",78.19211,123.68467
"3648",78.204315,123.698006
"3649",78.32639,123.71134
"3650",78.64866,123.72468
"3651",79.237045,123.738014
"3652",80.07202,123.75135
"3653",81.07301,123.76469
"3654",82.07889,123.77802
"3655",82.913864,123.79136
"3656",83.458305,123.804695
"3657",83.68047,123.81803
"3658",83.614555,123.83137
"3659",83.346,123.8447
"3660",82.95293,123.85804
"3661",82.51591,123.871376
"3662",82.07645,123.88471
"3663",81.68093,123.89805
"3664",81.34646,123.911385
"3665",81.08766,123.92472
"3666",80.88991,123.93806
"3667",80.73365,123.95139
"3668",80.59205,123.96473
"3669",80.45045,123.978065
"3670",80.29908,123.9914
"3671",80.14526,124.00474
"3672",80.0061,124.018074
"3673",79.89136,124.03141
"3674",79.81079,124.04475
"3675",79.75952,124.05808
"3676",79.73022,124.07142
"3677",79.708244,124.084755
"3678",79.68139,124.09809
"3679",79.63744,124.11143
"3680",79.569084,124.12476
"3681",79.47143,124.1381
"3682",79.3518,124.151436
"3683",79.21019,124.16477
"3684",79.05882,124.17811
"3685",78.89769,124.191444
"3686",78.73899,124.20478
"3687",78.58762,124.21812
"3688",78.45823,124.23145
"3689",78.35569,124.24479
"3690",78.28001,124.258125
"3691",78.22629,124.27146
"3692",78.18967,124.2848
"3693",78.170135,124.298134
"3694",78.15549,124.31147
"3695",78.14328,124.32481
"3696",78.12863,124.33814
"3697",78.12619,124.35148
"3698",78.17746,124.364815
"3699",78.365456,124.37815
"3700",78.77318,124.39149
"3701",79.447014,124.40482
"3702",80.35767,124.41816
"3703",81.38796,124.431496
"3704",82.3621,124.44483
"3705",83.123825,124.45817
"3706",83.57061,124.471504
"3707",83.69512,124.48484
"3708",83.560844,124.49818
"3709",83.25323,124.51151
"3710",82.862595,124.52485
"3711",82.44999,124.538185
"3712",82.05936,124.55152
"3713",81.71511,124.56486
"3714",81.43679,124.57819
"3715",81.22194,124.59153
"3716",81.05592,124.604866
"3717",80.92653,124.6182
"3718",80.799576,124.63154
"3719",80.65308,124.644875
"3720",80.479744,124.65821
"3721",80.2942,124.67155
"3722",80.111084,124.68488
"3723",79.95239,124.69822
"3724",79.83032,124.711555
"3725",79.74731,124.72489
"3726",79.693596,124.73823
"3727",79.65453,124.751564
"3728",79.61791,124.7649
"3729",79.57885,124.77824
"3730",79.520256,124.79157
"3731",79.43725,124.80491
"3732",79.32983,124.818245
"3733",79.20531,124.83158
"3734",79.05882,124.84492
"3735",78.90257,124.85825
"3736",78.74143,124.87159
"3737",78.58274,124.884926
"3738",78.42893,124.89826
"3739",78.294655,124.9116
"3740",78.184784,124.924934
"3741",78.101776,124.93827
"3742",78.05051,124.95161
"3743",78.01877,124.96494
"3744",78.00656,124.97828
"3745",77.99924,124.991615
"3746",77.99924,125.00495
"3747",78.00168,125.01829
"3748",78.00656,125.031624
"3749",78.011444,125.04496
"3750",78.011444,125.0583
"3751",78.009,125.07163
"3752",78.009,125.08497
"3753",78.06271,125.098305
"3754",78.25559,125.11164
"3755",78.68528,125.12498
"3756",79.38598,125.13831
"3757",80.325935,125.15165
"3758",81.38064,125.164986
"3759",82.374306,125.17832
"3760",83.14824,125.19166
"3761",83.60479,125.204994
"3762",83.73907,125.21833
"3763",83.60723,125.23167
"3764",83.302055,125.245
"3765",82.899216,125.25834
"3766",82.47196,125.271675
"3767",82.06668,125.28501
"3768",81.71511,125.29835
"3769",81.43435,125.31168
"3770",81.22438,125.32502
"3771",81.06813,125.338356
"3772",80.94606,125.35169
"3773",80.82887,125.36503
"3774",80.69215,125.378365
"3775",80.533455,125.3917
"3776",80.360115,125.40504
"3777",80.18921,125.41837
"3778",80.03784,125.43171
"3779",79.91821,125.445045
"3780",79.83032,125.45838
"3781",79.766846,125.47172
"3782",79.71801,125.485054
"3783",79.674065,125.49839
"3784",79.62524,125.51173
"3785",79.551994,125.52506
"3786",79.45678,125.5384
"3787",79.33471,125.551735
"3788",79.1931,125.56507
"3789",79.03685,125.57841
"3790",78.873276,125.59174
"3791",78.712135,125.60508
"3792",78.55833,125.618416
"3793",78.41917,125.63175
"3794",78.2971,125.64509
"3795",78.19699,125.658424
"3796",78.12131,125.67176
"3797",78.06271,125.6851
"3798",78.02121,125.69843
"3799",77.99191,125.71177
"3800",77.97482,125.725105
"3801",77.962616,125.73844
"3802",77.95773,125.75178
"3803",77.95773,125.765114
"3804",77.960175,125.77845
"3805",77.962616,125.79179
"3806",77.96506,125.80512
"3807",77.962616,125.81846
"3808",77.95529,125.831795
"3809",77.943085,125.84513
"3810",77.92844,125.85847
"3811",77.91379,125.8718
"3812",77.92355,125.88514
"3813",78.013885,125.898476
"3814",78.277565,125.91181
"3815",78.79759,125.92515
"3816",79.586174,125.938484
"3817",80.57984,125.95182
"3818",81.62966,125.96516
"3819",82.56962,125.97849
"3820",83.243454,125.99183
"3821",83.59014,126.005165
"3822",83.6292,126.0185
"3823",83.438774,126.03184
"3824",83.10185,126.04517
"3825",82.69901,126.05851
"3826",82.27421,126.071846
"3827",81.87381,126.08518
"3828",81.52224,126.09852
"3829",81.234146,126.111855
"3830",81.007095,126.12519
"3831",80.83864,126.13853
"3832",80.70435,126.15186
"3833",80.58228,126.1652
"3834",80.45777,126.178535
"3835",80.323494,126.19187
"3836",80.184326,126.20521
"3837",80.05493,126.218544
"3838",79.94995,126.23188
"3839",79.871826,126.24522
"3840",79.818115,126.25855
"3841",79.77661,126.27189
"3842",79.73998,126.285225
"3843",79.69604,126.29856
"3844",79.64233,126.3119
"3845",79.57397,126.32523
"3846",79.48608,126.33857
"3847",79.381096,126.351906
"3848",79.259026,126.36524
"3849",79.11742,126.37858
"3850",78.97093,126.391914
"3851",78.81712,126.40525
"3852",78.66819,126.41859
"3853",78.53147,126.43192
"3854",78.41428,126.44526
"3855",78.31907,126.458595
"3856",78.25315,126.47193
"3857",78.20676,126.48527
"3858",78.17502,126.498604
"3859",78.153046,126.51194
"3860",78.1384,126.525276
"3861",78.12619,126.53861
"3862",78.118866,126.55195
"3863",78.118866,126.565285
"3864",78.12375,126.57862
"3865",78.12863,126.59196
"3866",78.13107,126.60529
"3867",78.12863,126.61863
"3868",78.12375,126.631966
"3869",78.116425,126.6453
"3870",78.10422,126.65864
"3871",78.09445,126.671974
"3872",78.10422,126.68531
"3873",78.18234,126.69865
"3874",78.41428,126.71198
"3875",78.88304,126.72532
"3876",79.60815,126.738655
"3877",80.52857,126.75199
"3878",81.51736,126.76533
"3879",82.41093,126.77866
"3880",83.072556,126.792
"3881",83.424126,126.805336
"3882",83.48272,126.81867
"3883",83.31182,126.83201
"3884",82.98711,126.845345
"3885",82.58427,126.85868
"3886",82.161896,126.87202
"3887",81.75906,126.88535
"3888",81.40505,126.89869
"3889",81.11452,126.912025
"3890",80.88991,126.92536
"3891",80.72144,126.9387
"3892",80.59693,126.952034
"3893",80.49195,126.96537
"3894",80.38941,126.97871
"3895",80.28199,126.99204
"3896",80.16724,127.00538
"3897",80.05737,127.018715
"3898",79.96704,127.03205
"3899",79.89624,127.04539
"3900",79.84497,127.05872
"3901",79.80835,127.07206
"3902",79.781494,127.085396
"3903",79.74731,127.09873
"3904",79.69604,127.11207
"3905",79.622795,127.125404
"3906",79.53002,127.13874
"3907",79.415276,127.15208
"3908",79.281,127.16541
"3909",79.13451,127.17875
"3910",78.98314,127.192085
"3911",78.82933,127.20542
"3912",78.68284,127.21876
"3913",78.54856,127.23209
"3914",78.433815,127.24543
"3915",78.34104,127.258766
"3916",78.27268,127.2721
"3917",78.22385,127.28544
"3918",78.19699,127.298775
"3919",78.184784,127.31211
"3920",78.184784,127.32545
"3921",78.19455,127.33878
"3922",78.21408,127.35212
"3923",78.23117,127.365456
"3924",78.24338,127.37879
"3925",78.24826,127.39213
"3926",78.24826,127.405464
"3927",78.24338,127.4188
"3928",78.24338,127.43214
"3929",78.25071,127.44547
"3930",78.27268,127.45881
"3931",78.33616,127.472145
"3932",78.50706,127.48548
"3933",78.86351,127.49882
"3934",79.447014,127.51215
"3935",80.235596,127.52549
"3936",81.14137,127.538826
"3937",82.01785,127.55216
"3938",82.720985,127.5655
"3939",83.15556,127.578835
"3940",83.302055,127.59217
"3941",83.20439,127.60551
"3942",82.93584,127.61884
"3943",82.57206,127.63218
"3944",82.17166,127.645515
"3945",81.78104,127.65885
"3946",81.42947,127.67219
"3947",81.129166,127.685524
"3948",80.89235,127.69886
"3949",80.706795,127.7122
"3950",80.56275,127.72553
"3951",80.445564,127.73887
"3952",80.3357,127.752205
"3953",80.22339,127.76554
"3954",80.12329,127.77888
"3955",80.045166,127.79221
"3956",79.98657,127.80555
"3957",79.954834,127.818886
"3958",79.94507,127.83222
"3959",79.94507,127.84556
"3960",79.940186,127.858894
"3961",79.92554,127.87223
"3962",79.89624,127.88557
"3963",79.84985,127.8989
"3964",79.781494,127.91224
"3965",79.693596,127.925575
"3966",79.59106,127.93891
"3967",79.46899,127.95225
"3968",79.33227,127.96558
"3969",79.18822,127.97892
"3970",79.046616,127.992256
"3971",78.91478,128.0056
"3972",78.80492,128.01894
"3973",78.71702,128.03227
"3974",78.65598,128.04561
"3975",78.6096,128.05894
"3976",78.57786,128.07228
"3977",78.55833,128.08562
"3978",78.54612,128.09895
"3979",78.54368,128.11229
"3980",78.54368,128.12563
"3981",78.54612,128.13896
"3982",78.553444,128.1523
"3983",78.56077,128.16563
"3984",78.57053,128.17897
"3985",78.57542,128.1923
"3986",78.57786,128.20564
"3987",78.58274,128.21898
"3988",78.6096,128.23232
"3989",78.7219,128.24565
"3990",79.009995,128.25899
"3991",79.53246,128.27232
"3992",80.28199,128.28566
"3993",81.18288,128.299
"3994",82.09842,128.31233
"3995",82.879684,128.32567
"3996",83.40215,128.339
"3997",83.6292,128.35234
"3998",83.597466,128.36568
"3999",83.372856,128.37901
"4000",83.02617,128.39235
"4001",82.61845,128.40569
"4002",82.20584,128.41902
"4003",81.82254,128.43236
"4004",81.497826,128.4457
"4005",81.23903,128.45903
"4006",81.05348,128.47237
"4007",80.92409,128.4857
"4008",80.831314,128.49904
"4009",80.7483,128.51237
"4010",80.66041,128.52571
"4011",80.56031,128.53905
"4012",80.45045,128.55238
"4013",80.34058,128.56572
"4014",80.24536,128.57906
"4015",80.16968,128.59239
"4016",80.111084,128.60573
"4017",80.06958,128.61906
"4018",80.03296,128.6324
"4019",79.991455,128.64574
"4020",79.93286,128.65907
"4021",79.85718,128.67241
"4022",79.75952,128.68575
"4023",79.64721,128.69908
"4024",79.517815,128.71242
"4025",79.38598,128.72575
"4026",79.25414,128.73909
"4027",79.12474,128.75243
"4028",79.00267,128.76576
"4029",78.887924,128.7791
"4030",78.78294,128.79243
"4031",78.692604,128.80577
"4032",78.626686,128.8191
"4033",78.5803,128.83244
"4034",78.551,128.84578
"4035",78.53391,128.85912
"4036",78.52659,128.87245
"4037",78.521706,128.88579
"4038",78.519264,128.89912
"4039",78.51682,128.91246
"4040",78.51438,128.9258
"4041",78.51438,128.93913
"4042",78.521706,128.95247
"4043",78.53391,128.9658
"4044",78.551,128.97914
"4045",78.56077,128.99248
"4046",78.56565,129.00581
"4047",78.56565,129.01915
"4048",78.59739,129.03249
"4049",78.73899,129.04582
"4050",79.08324,129.05916
"4051",79.68383,129.0725
"4052",80.516365,129.08583
"4053",81.48562,129.09917
"4054",82.44022,129.1125
"4055",83.21904,129.12584
"4056",83.717094,129.13918
"4057",83.90997,129.15251
"4058",83.83917,129.16585
"4059",83.58282,129.17918
"4060",83.21416,129.19252
"4061",82.79912,129.20586
"4062",82.38163,129.2192
"4063",81.99832,129.23253
"4064",81.668724,129.24586
"4065",81.40505,129.2592
"4066",81.20729,129.27254
"4067",81.06569,129.28587
"4068",80.955826,129.29921
"4069",80.85817,129.31255
"4070",80.75807,129.32588
"4071",80.64576,129.33922
"4072",80.53101,129.35255
"4073",80.42359,129.36589
"4074",80.33082,129.37923
"4075",80.2478,129.39256
"4076",80.181885,129.4059
"4077",80.12573,129.41924
"4078",80.06958,129.43257
"4079",80.01099,129.4459
"4080",79.94507,129.45924
"4081",79.86694,129.47258
"4082",79.77661,129.48592
"4083",79.66918,129.49925
"4084",79.554436,129.51259
"4085",79.429924,129.52592
"4086",79.30297,129.53926
"4087",79.168686,129.5526
"4088",79.03441,129.56593
"4089",78.91478,129.57927
"4090",78.80492,129.5926
"4091",78.71702,129.60594
"4092",78.64866,129.61928
"4093",78.59983,129.63261
"4094",78.56321,129.64595
"4095",78.54124,129.65929
"4096",78.52415,129.67262
"4097",78.51194,129.68596
"4098",78.502174,129.6993
"4099",78.49729,129.71263
"4100",78.49729,129.72597
"4101",78.49973,129.7393
"4102",78.504616,129.75264
"4103",78.51438,129.76598
"4104",78.52415,129.77931
"4105",78.53147,129.79265
"4106",78.53147,129.80598
"4107",78.52903,129.81932
"4108",78.52903,129.83266
"4109",78.572975,129.846
"4110",78.74387,129.85933
"4111",79.12718,129.87267
"4112",79.766846,129.886
"4113",80.63355,129.89934
"4114",81.619896,129.91267
"4115",82.57206,129.92601
"4116",83.33379,129.93935
"4117",83.807434,129.95268
"4118",83.97589,129.96602
"4119",83.88312,129.97935
"4120",83.60235,129.99269
"4121",83.211716,130.00603
"4122",82.76982,130.01936
"4123",82.32792,130.0327
"4124",81.92264,130.04604
"4125",81.57107,130.05937
"4126",81.287865,130.07271
"4127",81.07057,130.08604
"4128",80.91676,130.09938
"4129",80.799576,130.11272
"4130",80.70435,130.12605
"4131",80.60914,130.13939
"4132",80.51392,130.15273
"4133",80.41627,130.16606
"4134",80.32838,130.1794
"4135",80.25025,130.19273
"4136",80.18921,130.20607
"4137",80.13794,130.2194
"4138",80.093994,130.23274
"4139",80.05005,130.24608
"4140",80.00122,130.25941
"4141",79.937744,130.27275
"4142",79.852295,130.28609
"4143",79.74975,130.29942
"4144",79.63012,130.31276
"4145",79.49828,130.3261
"4146",79.35912,130.33943
"4147",79.217514,130.35277
"4148",79.080795,130.3661
"4149",78.94896,130.37944
"4150",78.82689,130.39278
"4151",78.71946,130.40611
"4152",78.626686,130.41945
"4153",78.551,130.43279
"4154",78.49729,130.44612
"4155",78.46067,130.45946
"4156",78.44114,130.4728
"4157",78.42893,130.48613
"4158",78.43137,130.49947
"4159",78.43626,130.5128
"4160",78.44358,130.52614
"4161",78.450905,130.53947
"4162",78.45335,130.55281
"4163",78.45579,130.56615
"4164",78.45823,130.57948
"4165",78.45823,130.59282
"4166",78.45579,130.60616
"4167",78.45335,130.61949
"4168",78.44846,130.63283
"4169",78.45335,130.64616
"4170",78.521706,130.6595
"4171",78.73655,130.67284
"4172",79.17845,130.68617
"4173",79.871826,130.69951
"4174",80.77272,130.71284
"4175",81.75906,130.72618
"4176",82.67216,130.73952
"4177",83.36309,130.75285
"4178",83.76105,130.76619
"4179",83.86847,130.77953
"4180",83.734184,130.79286
"4181",83.424126,130.8062
"4182",83.01152,130.81953
"4183",82.55009,130.83287
"4184",82.08621,130.8462
"4185",81.651634,130.85954
"4186",81.270775,130.87288
"4187",80.953384,130.88622
"4188",80.70191,130.89955
"4189",80.50904,130.91289
"4190",80.35767,130.92622
"4191",80.235596,130.93956
"4192",80.14038,130.9529
"4193",80.06958,130.96623
"4194",80.02075,130.97957
"4195",79.99634,130.9929
"4196",79.99634,131.00624
"4197",80.008545,131.01958
"4198",80.02075,131.03291
"4199",80.02075,131.04625
"4200",80.00366,131.05959
"4201",79.957275,131.07292
"4202",79.88159,131.08626
"4203",79.781494,131.0996
"4204",79.656975,131.11293
"4205",79.51049,131.12627
"4206",79.3518,131.1396
"4207",79.18822,131.15294
"4208",79.01976,131.16628
"4209",78.85863,131.17961
"4210",78.70237,131.19295
"4211",78.56809,131.20628
"4212",78.45335,131.21962
"4213",78.363014,131.23296
"4214",78.29954,131.24629
"4215",78.260475,131.25963
"4216",78.23605,131.27296
"4217",78.22385,131.2863
"4218",78.22629,131.29964
"4219",78.23605,131.31297
"4220",78.25315,131.32631
"4221",78.28245,131.33965
"4222",78.32151,131.35298
"4223",78.365456,131.36632
"4224",78.41184,131.37965
"4225",78.45579,131.39299
"4226",78.49729,131.40633
"4227",78.53147,131.41966
"4228",78.56321,131.433
"4229",78.59495,131.44633
"4230",78.61936,131.45967
"4231",78.641335,131.473
"4232",78.69749,131.48634
"4233",78.856186,131.49968
"4234",79.20775,131.51302
"4235",79.798584,131.52635
"4236",80.61646,131.53969
"4237",81.56374,131.55302
"4238",82.49882,131.56636
"4239",83.265434,131.5797
"4240",83.758606,131.59303
"4241",83.9588,131.60637
"4242",83.90509,131.6197
"4243",83.6585,131.63304
"4244",83.284966,131.64638
"4245",82.84306,131.65971
"4246",82.371864,131.67305
"4247",81.90311,131.68639
"4248",81.45632,131.69972
"4249",81.05348,131.71306
"4250",80.69947,131.7264
"4251",80.4065,131.73973
"4252",80.17212,131.75307
"4253",79.991455,131.7664
"4254",79.8645,131.77974
"4255",79.79614,131.79308
"4256",79.783936,131.80641
"4257",79.82544,131.81975
"4258",79.906006,131.83308
"4259",80.00366,131.84642
"4260",80.09888,131.85976
"4261",80.16724,131.8731
"4262",80.19409,131.88643
"4263",80.17456,131.89977
"4264",80.11841,131.9131
"4265",80.025635,131.92644
"4266",79.90112,131.93977
"4267",79.75952,131.95311
"4268",79.60082,131.96645
"4269",79.432365,131.97978
"4270",79.26147,131.99312
"4271",79.09544,132.00645
"4272",78.93431,132.01979
"4273",78.79515,132.03313
"4274",78.677956,132.04646
"4275",78.58518,132.0598
"4276",78.51682,132.07314
"4277",78.47532,132.08647
"4278",78.45335,132.09981
"4279",78.44358,132.11314
"4280",78.450905,132.12648
"4281",78.470436,132.13982
"4282",78.49729,132.15315
"4283",78.52415,132.16649
"4284",78.54612,132.17982
"4285",78.56565,132.19316
"4286",78.572975,132.2065
"4287",78.57053,132.21983
"4288",78.58274,132.23317
"4289",78.675514,132.2465
"4290",78.92943,132.25984
"4291",79.41772,132.27318
"4292",80.15747,132.28651
"4293",81.08522,132.29985
"4294",82.07645,132.31319
"4295",82.97246,132.32652
"4296",83.64385,132.33986
"4297",84.02716,132.3532
"4298",84.12482,132.36653
"4299",83.99054,132.37987
"4300",83.682915,132.3932
"4301",83.267876,132.40654
"4302",82.79912,132.41988
"4303",82.31815,132.43321
"4304",81.85428,132.44655
"4305",81.427025,132.45988
"4306",81.0486,132.47322
"4307",80.72144,132.48656
"4308",80.448006,132.4999
"4309",80.22339,132.51323
"4310",80.045166,132.52657
"4311",79.91333,132.5399
"4312",79.82544,132.55324
"4313",79.783936,132.56657
"4314",79.781494,132.57991
"4315",79.81079,132.59325
"4316",79.85718,132.60658
"4317",79.91089,132.61992
"4318",79.94751,132.63326
"4319",79.96216,132.64659
"4320",79.94507,132.65993
"4321",79.89624,132.67326
"4322",79.81079,132.6866
"4323",79.69848,132.69994
"4324",79.56176,132.71327
"4325",79.40307,132.72661
"4326",79.237045,132.73994
"4327",79.07103,132.75328
"4328",78.9099,132.76662
"4329",78.765854,132.77995
"4330",78.63645,132.79329
"4331",78.52659,132.80663
"4332",78.43137,132.81996
"4333",78.363014,132.8333
"4334",78.31663,132.84663
"4335",78.29221,132.85997
"4336",78.28489,132.8733
"4337",78.28733,132.88664
"4338",78.294655,132.89998
"4339",78.30198,132.91331
"4340",78.30686,132.92665
"4341",78.314186,132.93999
"4342",78.331276,132.95332
"4343",78.397194,132.96666
"4344",78.590065,132.98
"4345",78.99779,132.99333
"4346",79.66186,133.00667
"4347",80.56031,133.02
"4348",81.5906,133.03334
"4349",82.598915,133.04668
"4350",83.42657,133.06001
"4351",83.96857,133.07335
"4352",84.20294,133.08669
"4353",84.16388,133.10002
"4354",83.91974,133.11336
"4355",83.53887,133.1267
"4356",83.08476,133.14003
"4357",82.60136,133.15337
"4358",82.125275,133.1667
"4359",81.68093,133.18004
"4360",81.28542,133.19337
"4361",80.9485,133.20671
"4362",80.66773,133.22005
"4363",80.4358,133.23338
"4364",80.24292,133.24672
"4365",80.08423,133.26006
"4366",79.95972,133.27339
"4367",79.869385,133.28673
"4368",79.81079,133.30006
"4369",79.78638,133.3134
"4370",79.783936,133.32674
"4371",79.79126,133.34007
"4372",79.80347,133.35341
"4373",79.80835,133.36674
"4374",79.79126,133.38008
"4375",79.7522,133.39342
"4376",79.68383,133.40675
"4377",79.586174,133.42009
"4378",79.45922,133.43343
"4379",79.31518,133.44676
"4380",79.16136,133.4601
"4381",79.00267,133.47343
"4382",78.84642,133.48677
"4383",78.70237,133.5001
"4384",78.57542,133.51344
"4385",78.46311,133.52678
"4386",78.3679,133.54012
"4387",78.28733,133.55345
"4388",78.22385,133.56679
"4389",78.1799,133.58012
"4390",78.14572,133.59346
"4391",78.12619,133.6068
"4392",78.11398,133.62013
"4393",78.11154,133.63347
"4394",78.13107,133.6468
"4395",78.22385,133.66014
"4396",78.47288,133.67348
"4397",78.95628,133.68681
"4398",79.691154,133.70015
"4399",80.62867,133.71349
"4400",81.65652,133.72682
"4401",82.616005,133.74016
"4402",83.35577,133.7535
"4403",83.80011,133.76683
"4404",83.949036,133.78017
"4405",83.8465,133.7935
"4406",83.5584,133.80684
"4407",83.15312,133.82018
"4408",82.69169,133.83351
"4409",82.210724,133.84685
"4410",81.74197,133.86018
"4411",81.30984,133.87352
"4412",80.93385,133.88686
"4413",80.61646,133.90019
"4414",80.35523,133.91353
"4415",80.14282,133.92686
"4416",79.96704,133.9402
"4417",79.818115,133.95354
"4418",79.70092,133.96687
"4419",79.61547,133.98021
"4420",79.569084,133.99355
"4421",79.554436,134.00688
"4422",79.5642,134.02022
"4423",79.58373,134.03355
"4424",79.59838,134.04689
"4425",79.603264,134.06023
"4426",79.586174,134.07356
"4427",79.53979,134.0869
"4428",79.466545,134.10023
"4429",79.36889,134.11357
"4430",79.24681,134.1269
"4431",79.10521,134.14024
"4432",78.958725,134.15358
"4433",78.8098,134.16692
"4434",78.66575,134.18025
"4435",78.53391,134.19359
"4436",78.416725,134.20692
"4437",78.32151,134.22026
"4438",78.24582,134.2336
"4439",78.18967,134.24693
"4440",78.150604,134.26027
"4441",78.11398,134.2736
"4442",78.082245,134.28694
"4443",78.05295,134.30028
"4444",78.05539,134.31361
"4445",78.16037,134.32695
"4446",78.45579,134.34029
"4447",79.012436,134.35362
"4448",79.83276,134.36696
"4449",80.83864,134.3803
"4450",81.8909,134.39363
"4451",82.82109,134.40697
"4452",83.492485,134.4203
"4453",83.8465,134.43364
"4454",83.90265,134.44698
"4455",83.71465,134.46031
"4456",83.36065,134.47365
"4457",82.913864,134.48698
"4458",82.43046,134.50032
"4459",81.94949,134.51366
"4460",81.50027,134.527
"4461",81.094986,134.54033
"4462",80.743416,134.55367
"4463",80.448006,134.567
"4464",80.20874,134.58034
"4465",80.01099,134.59367
"4466",79.85718,134.60701
"4467",79.73998,134.62035
"4468",79.65942,134.63368
"4469",79.61303,134.64702
"4470",79.603264,134.66035
"4471",79.62035,134.67369
"4472",79.64721,134.68703
"4473",79.6643,134.70036
"4474",79.66186,134.7137
"4475",79.635,134.72704
"4476",79.57885,134.74037
"4477",79.49584,134.75371
"4478",79.3933,134.76704
"4479",79.273674,134.78038
"4480",79.13695,134.79372
"4481",78.992905,134.80705
"4482",78.84886,134.82039
"4483",78.712135,134.83372
"4484",78.58274,134.84706
"4485",78.467995,134.8604
"4486",78.37278,134.87373
"4487",78.29221,134.88707
"4488",78.221405,134.9004
"4489",78.167694,134.91374
"4490",78.12619,134.92708
"4491",78.09689,134.94041
"4492",78.116425,134.95375
"4493",78.25803,134.96709
"4494",78.60227,134.98042
"4495",79.202866,134.99376
"4496",80.045166,135.0071
"4497",81.03883,135.02043
"4498",82.03494,135.03377
"4499",82.8748,135.0471
"4500",83.4461,135.06044
"4501",83.70977,135.07378
"4502",83.69268,135.08711
"4503",83.46319,135.10045
"4504",83.089645,135.11378
"4505",82.63554,135.12712
"4506",82.15457,135.14046
"4507",81.685814,135.1538
"4508",81.24635,135.16713
