"","ppg","time"
"1",81.84207,62.0895
"2",81.497826,62.102837
"3",81.23903,62.116165
"4",81.05592,62.1295
"5",80.92409,62.14283
"6",80.82155,62.156166
"7",80.72144,62.169495
"8",80.61646,62.18283
"9",80.5066,62.19616
"10",80.40162,62.209496
"11",80.31129,62.222824
"12",80.235596,62.23616
"13",80.17212,62.24949
"14",80.113525,62.262825
"15",80.05005,62.276154
"16",79.97925,62.28949
"17",79.8938,62.30282
"18",79.7937,62.316154
"19",79.67162,62.329483
"20",79.534904,62.34282
"21",79.38842,62.356148
"22",79.23949,62.369484
"23",79.093,62.382812
"24",78.95384,62.39615
"25",78.82201,62.409477
"26",78.69749,62.422813
"27",78.590065,62.436142
"28",78.49729,62.44948
"29",78.42161,62.462807
"30",78.363014,62.476143
"31",78.32151,62.48947
"32",78.29221,62.502808
"33",78.27268,62.516136
"34",78.26292,62.529472
"35",78.25315,62.5428
"36",78.24338,62.556137
"37",78.238495,62.569466
"38",78.23117,62.5828
"39",78.23361,62.59613
"40",78.24338,62.609467
"41",78.26292,62.622795
"42",78.28001,62.63613
"43",78.294655,62.64946
"44",78.30198,62.662796
"45",78.2971,62.676125
"46",78.28977,62.68946
"47",78.32151,62.70279
"48",78.485085,62.716125
"49",78.873276,62.729454
"50",79.554436,62.74279
"51",80.50416,62.75612
"52",81.62478,62.769455
"53",82.738075,62.782784
"54",83.66094,62.79612
"55",84.263985,62.80945
"56",84.51301,62.822784
"57",84.44465,62.836113
"58",84.14191,62.84945
"59",83.69512,62.862778
"60",83.17998,62.876114
"61",82.66239,62.889442
"62",82.18631,62.90278
"63",81.78348,62.916107
"64",81.47097,62.929443
"65",81.25613,62.942772
"66",81.1194,62.95611
"67",81.02907,62.969437
"68",80.95094,62.982773
"69",80.85329,62.9961
"70",80.726326,63.009438
"71",80.570076,63.022766
"72",80.411385,63.036102
"73",80.26002,63.04943
"74",80.130615,63.062767
"75",80.03052,63.076096
"76",79.95239,63.08943
"77",79.886475,63.10276
"78",79.82056,63.116096
"79",79.7522,63.129425
"80",79.66918,63.14276
"81",79.571526,63.15609
"82",79.46166,63.169426
"83",79.33471,63.182755
"84",79.19798,63.19609
"85",79.0515,63.20942
"86",78.90013,63.222755
"87",78.75365,63.236084
"88",78.61936,63.24942
"89",78.504616,63.26275
"90",78.40452,63.276085
"91",78.31907,63.289413
"92",78.24582,63.30275
"93",78.19211,63.31608
"94",78.153046,63.329414
"95",78.12619,63.342743
"96",78.116425,63.35608
"97",78.11154,63.369408
"98",78.11154,63.382744
"99",78.1091,63.396072
"100",78.1091,63.40941
"101",78.11398,63.422737
"102",78.12619,63.436073
"103",78.14572,63.4494
"104",78.167694,63.462738
"105",78.187225,63.476067
"106",78.204315,63.489403
"107",78.21164,63.50273
"108",78.2092,63.516068
"109",78.19699,63.529396
"110",78.21408,63.542732
"111",78.31663,63.55606
"112",78.61448,63.569397
"113",79.183334,63.582726
"114",80.04028,63.59606
"115",81.109634,63.60939
"116",82.2449,63.622726
"117",83.25811,63.636055
"118",83.983215,63.64939
"119",84.34699,63.66272
"120",84.37141,63.676056
"121",84.12482,63.689384
"122",83.700005,63.70272
"123",83.177536,63.71605
"124",82.63554,63.729385
"125",82.11795,63.742714
"126",81.6614,63.75605
"127",81.290306,63.76938
"128",81.0193,63.782715
"129",80.833755,63.796043
"130",80.709236,63.80938
"131",80.621346,63.82271
"132",80.53834,63.836044
"133",80.44312,63.849373
"134",80.34547,63.86271
"135",80.25269,63.876038
"136",80.177,63.889374
"137",80.12085,63.902702
"138",80.08179,63.91604
"139",80.05005,63.929367
"140",80.008545,63.942703
"141",79.95239,63.95603
"142",79.87671,63.969368
"143",79.77661,63.982697
"144",79.656975,63.996033
"145",79.5227,64.00936
"146",79.37621,64.0227
"147",79.22728,64.036026
"148",79.080795,64.04936
"149",78.93675,64.06269
"150",78.802475,64.07603
"151",78.677956,64.089355
"152",78.57053,64.10269
"153",78.485085,64.11602
"154",78.416725,64.12936
"155",78.3679,64.142685
"156",78.3386,64.15602
"157",78.31907,64.16935
"158",78.30686,64.182686
"159",78.29954,64.196014
"160",78.294655,64.20935
"161",78.294655,64.22268
"162",78.29954,64.236015
"163",78.30686,64.249344
"164",78.3093,64.26268
"165",78.3093,64.27601
"166",78.30198,64.289345
"167",78.29954,64.30267
"168",78.35325,64.31601
"169",78.54612,64.32934
"170",78.96117,64.342674
"171",79.63744,64.356
"172",80.53834,64.36934
"173",81.54177,64.38267
"174",82.48661,64.396
"175",83.21416,64.40933
"176",83.6292,64.42267
"177",83.72198,64.436
"178",83.54864,64.44933
"179",83.18974,64.46266
"180",82.72343,64.476
"181",82.213165,64.48933
"182",81.71267,64.50266
"183",81.25857,64.51599
"184",80.87282,64.52933
"185",80.56275,64.542656
"186",80.33082,64.55599
"187",80.15991,64.56932
"188",80.03296,64.58266
"189",79.94263,64.595985
"190",79.88403,64.60932
"191",79.86206,64.62265
"192",79.871826,64.63599
"193",79.90845,64.649315
"194",79.9646,64.66265
"195",80.02319,64.67598
"196",80.062256,64.689316
"197",80.07202,64.702644
"198",80.03784,64.71598
"199",79.96216,64.72931
"200",79.852295,64.742645
"201",79.71313,64.755974
"202",79.55688,64.76931
"203",79.395744,64.78264
"204",79.23216,64.795975
"205",79.06859,64.8093
"206",78.91234,64.82264
"207",78.77806,64.83597
"208",78.66819,64.849304
"209",78.57542,64.86263
"210",78.504616,64.87597
"211",78.45579,64.8893
"212",78.42649,64.90263
"213",78.40696,64.91596
"214",78.40208,64.9293
"215",78.40452,64.94263
"216",78.41428,64.95596
"217",78.42161,64.96929
"218",78.43137,64.98263
"219",78.44114,64.99596
"220",78.44602,65.00929
"221",78.44602,65.02262
"222",78.44358,65.03596
"223",78.46555,65.049286
"224",78.57786,65.06262
"225",78.8806,65.07595
"226",79.44213,65.08929
"227",80.27711,65.102615
"228",81.307396,65.11595
"229",82.37919,65.12928
"230",83.31426,65.14262
"231",83.97101,65.155945
"232",84.281075,65.16928
"233",84.27131,65.18261
"234",84.01495,65.195946
"235",83.59258,65.209274
"236",83.087204,65.22261
"237",82.564735,65.23594
"238",82.06668,65.249275
"239",81.62966,65.2626
"240",81.2781,65.27594
"241",81.01198,65.28927
"242",80.82643,65.302605
"243",80.70191,65.31593
"244",80.60914,65.32927
"245",80.52857,65.3426
"246",80.448006,65.355934
"247",80.365,65.36926
"248",80.28687,65.3826
"249",80.218506,65.39593
"250",80.164795,65.40926
"251",80.11841,65.42259
"252",80.07446,65.43593
"253",80.025635,65.44926
"254",79.96216,65.46259
"255",79.88159,65.47592
"256",79.781494,65.48926
"257",79.66674,65.50259
"258",79.53246,65.51592
"259",79.38598,65.52925
"260",79.237045,65.54259
"261",79.09056,65.555916
"262",78.9514,65.56925
"263",78.819565,65.58258
"264",78.70237,65.59592
"265",78.59983,65.609245
"266",78.51194,65.62258
"267",78.4387,65.63591
"268",78.382545,65.64925
"269",78.33616,65.662575
"270",78.30442,65.67591
"271",78.277565,65.68924
"272",78.25803,65.702576
"273",78.24826,65.715904
"274",78.24094,65.72924
"275",78.238495,65.74257
"276",78.23361,65.755905
"277",78.23117,65.76923
"278",78.22385,65.78257
"279",78.22385,65.7959
"280",78.22629,65.809235
"281",78.22629,65.82256
"282",78.221405,65.8359
"283",78.21408,65.84923
"284",78.19699,65.862564
"285",78.17746,65.87589
"286",78.19455,65.88923
"287",78.331276,65.90256
"288",78.69749,65.91589
"289",79.36645,65.92922
"290",80.343025,65.94256
"291",81.52224,65.95589
"292",82.735634,65.96922
"293",83.77814,65.98255
"294",84.49348,65.99589
"295",84.82796,66.00922
"296",84.81575,66.02255
"297",84.53986,66.03588
"298",84.09796,66.04922
"299",83.580376,66.062546
"300",83.053024,66.07588
"301",82.564735,66.08921
"302",82.14725,66.10255
"303",81.82498,66.115875
"304",81.59548,66.12921
"305",81.45632,66.14254
"306",81.37087,66.155876
"307",81.231705,66.18254
"308",81.12184,66.19587
"309",80.9778,66.209206
"310",80.8069,66.222534
"311",80.62867,66.23587
"312",80.45777,66.2492
"313",80.30396,66.262535
"314",80.17212,66.27586
"315",80.062256,66.2892
"316",79.9646,66.30253
"317",79.87427,66.315865
"318",79.77905,66.32919
"319",79.674065,66.34253
"320",79.554436,66.35586
"321",79.42504,66.369194
"322",79.28832,66.38252
"323",79.149155,66.39586
"324",79.009995,66.40919
"325",78.873276,66.42252
"326",78.73655,66.43585
"327",78.607155,66.44919
"328",78.485085,66.46252
"329",78.380104,66.47585
"330",78.29221,66.48918
"331",78.22873,66.50252
"332",78.18234,66.51585
"333",78.150604,66.52918
"334",78.12863,66.54251
"335",78.11154,66.55585
"336",78.099335,66.569176
"337",78.09445,66.58251
"338",78.09689,66.59584
"339",78.099335,66.60918
"340",78.10422,66.622505
"341",78.11398,66.63584
"342",78.12131,66.64917
"343",78.12619,66.662506
"344",78.135956,66.675835
"345",78.14816,66.68917
"346",78.15793,66.7025
"347",78.16525,66.715836
"348",78.167694,66.729164
"349",78.16525,66.7425
"350",78.17502,66.75583
"351",78.26292,66.769165
"352",78.52903,66.78249
"353",79.07103,66.79583
"354",79.923096,66.80916
"355",81.02174,66.822495
"356",82.22537,66.83582
"357",83.336235,66.84916
"358",84.18097,66.86249
"359",84.664375,66.875824
"360",84.78645,66.88915
"361",84.61799,66.90249
"362",84.244446,66.91582
"363",83.75128,66.92915
"364",83.21416,66.94248
"365",82.686806,66.95582
"366",82.20584,66.96915
"367",81.80057,66.98248
"368",81.48806,66.99581
"369",81.27566,67.00915
"370",81.14137,67.02248
"371",81.058365,67.03581
"372",80.990005,67.04914
"373",80.907,67.06248
"374",80.797134,67.075806
"375",80.66041,67.08914
"376",80.51392,67.10247
"377",80.37476,67.11581
"378",80.25269,67.129135
"379",80.147705,67.14247
"380",80.05493,67.1558
"381",79.9646,67.169136
"382",79.87427,67.182465
"383",79.77905,67.1958
"384",79.674065,67.20913
"385",79.55932,67.222466
"386",79.43725,67.235794
"387",79.30297,67.24913
"388",79.1638,67.26246
"389",79.02464,67.275795
"390",78.887924,67.28912
"391",78.75853,67.30246
"392",78.643776,67.31579
"393",78.536354,67.329124
"394",78.44114,67.34245
"395",78.35569,67.35579
"396",78.28489,67.36912
"397",78.22385,67.382454
"398",78.17746,67.39578
"399",78.14084,67.40912
"400",78.11398,67.42245
"401",78.09445,67.43578
"402",78.0798,67.44911
"403",78.07248,67.46245
"404",78.0676,67.47578
"405",78.065155,67.48911
"406",78.0676,67.50244
"407",78.07248,67.51578
"408",78.07736,67.529106
"409",78.0798,67.54244
"410",78.082245,67.55577
"411",78.08469,67.56911
"412",78.09201,67.582436
"413",78.09201,67.59577
"414",78.08713,67.6091
"415",78.0798,67.62244
"416",78.09201,67.635765
"417",78.187225,67.6491
"418",78.47776,67.66243
"419",79.05638,67.675766
"420",79.937744,67.689095
"421",81.05592,67.70243
"422",82.25468,67.71576
"423",83.34112,67.729095
"424",84.14435,67.742424
"425",84.578926,67.75576
"426",84.65949,67.76909
"427",84.456856,67.782425
"428",84.0589,67.79575
"429",83.54864,67.80909
"430",82.99443,67.82242
"431",82.44511,67.835754
"432",81.94217,67.84908
"433",81.5198,67.86242
"434",81.197525,67.87575
"435",80.970474,67.889084
"436",80.81911,67.90241
"437",80.71656,67.91575
"438",80.63111,67.92908
"439",80.54322,67.94241
"440",80.448006,67.95574
"441",80.35035,67.96908
"442",80.255135,67.98241
"443",80.17212,67.99574
"444",80.09888,68.00907
"445",80.0354,68.02241
"446",79.97681,68.035736
"447",79.91821,68.04907
"448",79.85474,68.0624
"449",79.77417,68.07574
"450",79.676506,68.089066
"451",79.55932,68.1024
"452",79.42748,68.11573
"453",79.28344,68.12907
"454",79.14183,68.142395
"455",79.00023,68.15573
"456",78.85863,68.16906
"457",78.72434,68.182396
"458",78.60227,68.195724
"459",78.49729,68.20906
"460",78.4094,68.22239
"461",78.3386,68.235725
"462",78.28001,68.249054
"463",78.23117,68.26239
"464",78.184784,68.27572
"465",78.150604,68.289055
"466",78.12863,68.30238
"467",78.116425,68.31572
"468",78.11398,68.32905
"469",78.12375,68.342384
"470",78.1384,68.35571
"471",78.15549,68.36905
"472",78.17502,68.38238
"473",78.184784,68.39571
"474",78.18967,68.40904
"475",78.19211,68.42238
"476",78.21896,68.43571
"477",78.345924,68.44904
"478",78.66575,68.46237
"479",79.2517,68.47571
"480",80.10376,68.48904
"481",81.13649,68.50237
"482",82.2034,68.5157
"483",83.123825,68.52904
"484",83.758606,68.542366
"485",84.051575,68.5557
"486",84.0296,68.56903
"487",83.76593,68.58237
"488",83.34112,68.595695
"489",82.828415,68.60903
"490",82.2913,68.62236
"491",81.76883,68.6357
"492",81.30251,68.649025
"493",80.90456,68.66236
"494",80.59449,68.67569
"495",80.360115,68.689026
"496",80.18921,68.702354
"497",80.06714,68.71569
"498",79.97681,68.72902
"499",79.920654,68.742355
"500",79.90112,68.755684
"501",79.920654,68.76902
"502",79.96704,68.78235
"503",80.028076,68.795685
"504",80.08179,68.80901
"505",80.10864,68.82235
"506",80.096436,68.83568
"507",80.04028,68.849014
"508",79.94263,68.86234
"509",79.815674,68.87568
"510",79.66918,68.88901
"511",79.51049,68.90234
"512",79.35424,68.91567
"513",79.200424,68.92901
"514",79.0515,68.94234
"515",78.905014,68.95567
"516",78.765854,68.969
"517",78.63889,68.98234
"518",78.53147,68.99567
"519",78.450905,69.009
"520",78.39475,69.02233
"521",78.35325,69.03567
"522",78.328835,69.048996
"523",78.31663,69.06233
"524",78.3093,69.07566
"525",78.3093,69.089
"526",78.314186,69.102325
"527",78.32639,69.11566
"528",78.33616,69.12899
"529",78.34348,69.14233
"530",78.34104,69.155655
"531",78.3386,69.16899
"532",78.35813,69.18232
"533",78.470436,69.195656
"534",78.77562,69.208984
"535",79.3518,69.22232
"536",80.20874,69.23565
"537",81.27566,69.248985
"538",82.40116,69.262314
"539",83.389946,69.27565
"540",84.09308,69.28898
"541",84.44221,69.302315
"542",84.46418,69.31564
"543",84.22247,69.32898
"544",83.809875,69.34231
"545",83.30694,69.355644
"546",82.76494,69.36897
"547",82.23514,69.38231
"548",81.75174,69.39564
"549",81.34646,69.40897
"550",81.02663,69.4223
"551",80.78493,69.43564
"552",80.61158,69.44897
"553",80.48463,69.4623
"554",80.38209,69.47563
"555",80.2942,69.48897
"556",80.22339,69.5023
"557",80.16968,69.51563
"558",80.13306,69.52896
"559",80.1062,69.5423
"560",80.08667,69.555626
"561",80.0647,69.56896
"562",80.03052,69.58229
"563",79.974365,69.59563
"564",79.89868,69.608955
"565",79.798584,69.62229
"566",79.67895,69.63562
"567",79.537346,69.64896
"568",79.38598,69.662285
"569",79.22728,69.67562
"570",79.06859,69.68895
"571",78.91234,69.702286
"572",78.765854,69.715614
"573",78.62913,69.72895
"574",78.50706,69.74228
"575",78.4094,69.755615
"576",78.328835,69.76894
"577",78.26292,69.78228
"578",78.21652,69.79561
"579",78.1799,69.808945
"580",78.15793,69.82227
"581",78.14084,69.83561
"582",78.135956,69.84894
"583",78.14084,69.862274
"584",78.150604,69.8756
"585",78.15793,69.88894
"586",78.167694,69.90227
"587",78.17258,69.9156
"588",78.17502,69.92893
"589",78.17258,69.94227
"590",78.20676,69.9556
"591",78.348366,69.96893
"592",78.70725,69.98226
"593",79.34936,69.9956
"594",80.28199,70.00893
"595",81.41726,70.02226
"596",82.59159,70.03559
"597",83.612114,70.04893
"598",84.32502,70.062256
"599",84.67902,70.07559
"600",84.69367,70.08892
"601",84.44465,70.10226
"602",84.01984,70.115585
"603",83.50713,70.12892
"604",82.96513,70.14225
"605",82.44755,70.15559
"606",81.988556,70.168915
"607",81.617455,70.18225
"608",81.33669,70.19558
"609",81.14137,70.208916
"610",81.01198,70.222244
"611",80.91188,70.23558
"612",80.81178,70.24891
"613",80.69703,70.262245
"614",80.567635,70.27557
"615",80.428474,70.28891
"616",80.30152,70.30224
"617",80.19165,70.315575
"618",80.10376,70.3289
"619",80.02075,70.34224
"620",79.94751,70.35557
"621",79.869385,70.368904
"622",79.783936,70.38223
"623",79.68627,70.39557
"624",79.57641,70.4089
"625",79.45434,70.42223
"626",79.32006,70.43556
"627",79.17357,70.4489
"628",79.029526,70.46223
"629",78.890366,70.47556
"630",78.75609,70.48889
"631",78.626686,70.50223
"632",78.50706,70.51556
"633",78.397194,70.52889
"634",78.29954,70.54222
"635",78.21408,70.55556
"636",78.14816,70.568886
"637",78.09445,70.58222
"638",78.05295,70.59555
"639",78.028534,70.60889
"640",78.01877,70.622215
"641",78.02121,70.63555
"642",78.028534,70.64888
"643",78.0383,70.66222
"644",78.04562,70.675545
"645",78.04318,70.68888
"646",78.030975,70.70221
"647",78.028534,70.715546
"648",78.07492,70.728874
"649",78.25803,70.74221
"650",78.68528,70.75554
"651",79.40795,70.768875
"652",80.396736,70.7822
"653",81.53445,70.79554
"654",82.63798,70.80887
"655",83.53155,70.822205
"656",84.088196,70.83553
"657",84.2884,70.84887
"658",84.18097,70.8622
"659",83.8587,70.875534
"660",83.39727,70.88886
"661",82.87724,70.9022
"662",82.34989,70.91553
"663",81.8616,70.92886
"664",81.43435,70.94219
"665",81.092545,70.95553
"666",80.83864,70.96886
"667",80.66285,70.98219
"668",80.54322,70.99552
"669",80.45045,71.00886
"670",80.36256,71.02219
"671",80.26978,71.03552
"672",80.17456,71.04885
"673",80.08423,71.06219
"674",80.00366,71.075516
"675",79.940186,71.08885
"676",79.886475,71.10218
"677",79.83765,71.11552
"678",79.781494,71.128845
"679",79.71313,71.14218
"680",79.63256,71.15551
"681",79.537346,71.168846
"682",79.42504,71.182175
"683",79.30053,71.19551
"684",79.17113,71.20884
"685",79.04173,71.222176
"686",78.9099,71.235504
"687",78.7805,71.24884
"688",78.658424,71.26217
"689",78.54368,71.275505
"690",78.4387,71.28883
"691",78.35081,71.30217
"692",78.28001,71.3155
"693",78.22629,71.328835
"694",78.18967,71.34216
"695",78.16525,71.3555
"696",78.153046,71.36883
"697",78.14572,71.382164
"698",78.14084,71.39549
"699",78.13107,71.40883
"700",78.118866,71.42216
"701",78.10666,71.43549
"702",78.116425,71.44882
"703",78.20676,71.46216
"704",78.467995,71.47549
"705",78.975815,71.48882
"706",79.742424,71.50215
"707",80.70435,71.51549
"708",81.72976,71.52882
"709",82.6453,71.54215
"710",83.299614,71.55548
"711",83.6292,71.56882
"712",83.64629,71.582146
"713",83.421684,71.59548
"714",83.03105,71.60881
"715",82.55253,71.62215
"716",82.04715,71.635475
"717",81.55154,71.64881
"718",81.10719,71.66214
"719",80.73365,71.675476
"720",80.43824,71.688805
"721",80.21362,71.70214
"722",80.05005,71.71547
"723",79.91821,71.728806
"724",79.81079,71.742134
"725",79.73022,71.75547
"726",79.68871,71.7688
"727",79.68871,71.782135
"728",79.725334,71.79546
"729",79.783936,71.8088
"730",79.84741,71.82213
"731",79.888916,71.835464
"732",79.89136,71.84879
"733",79.85962,71.86213
"734",79.79126,71.87546
"735",79.68627,71.888794
"736",79.55688,71.90212
"737",79.415276,71.91546
"738",79.259026,71.92879
"739",79.10033,71.94212
"740",78.93919,71.95545
"741",78.79027,71.96879
"742",78.65598,71.98212
"743",78.54856,71.99545
"744",78.46311,72.00878
"745",78.40696,72.02212
"746",78.37034,72.035446
"747",78.348366,72.04878
"748",78.3386,72.06211
"749",78.34348,72.07545
"750",78.35325,72.088776
"751",78.365456,72.10211
"752",78.37278,72.11544
"753",78.3679,72.12878
"754",78.348366,72.142105
"755",78.3386,72.15544
"756",78.37766,72.16877
"757",78.555885,72.182106
"758",78.96849,72.195435
"759",79.656975,72.20877
"760",80.58228,72.2221
"761",81.619896,72.235435
"762",82.60624,72.248764
"763",83.36309,72.2621
"764",83.79523,72.27543
"765",83.895325,72.288765
"766",83.719536,72.30209
"767",83.35088,72.31543
"768",82.8748,72.32876
"769",82.35966,72.342094
"770",81.85672,72.35542
"771",81.40017,72.36876
"772",81.01686,72.38209
"773",80.71412,72.395424
"774",80.482185,72.40875
"775",80.306404,72.42209
"776",80.17212,72.43542
"777",80.06714,72.44875
"778",79.98413,72.46208
"779",79.93042,72.47542
"780",79.906006,72.48875
"781",79.90845,72.50208
"782",79.93042,72.51541
"783",79.954834,72.52875
"784",79.96948,72.542076
"785",79.95972,72.55541
"786",79.91821,72.56874
"787",79.84009,72.58208
"788",79.727776,72.595406
"789",79.5935,72.60874
"790",79.449455,72.62207
"791",79.29565,72.63541
"792",79.14671,72.648735
"793",79.00267,72.66207
"794",78.86839,72.6754
"795",78.74876,72.688736
"796",78.643776,72.702065
"797",78.551,72.7154
"798",78.4802,72.72873
"799",78.41917,72.742065
"800",78.37522,72.755394
"801",78.348366,72.76873
"802",78.33372,72.78206
"803",78.328835,72.795395
"804",78.331276,72.80872
"805",78.3386,72.82206
"806",78.35325,72.83539
"807",78.3679,72.848724
"808",78.380104,72.86205
"809",78.382545,72.87539
"810",78.382545,72.88872
"811",78.38499,72.902054
"812",78.43626,72.91538
"813",78.63401,72.92872
"814",79.07591,72.94205
"815",79.801025,72.95538
"816",80.77516,72.96871
"817",81.881134,72.98205
"818",82.9456,72.99538
"819",83.790344,73.00871
"820",84.30305,73.02204
"821",84.46906,73.03538
"822",84.34211,73.048706
"823",83.99786,73.06204
"824",83.529106,73.07537
"825",83.00664,73.08871
"826",82.49149,73.102036
"827",82.02518,73.11537
"828",81.63943,73.1287
"829",81.34646,73.14204
"830",81.1487,73.155365
"831",81.024185,73.1687
"832",80.94118,73.18203
"833",80.86549,73.195366
"834",80.76784,73.208694
"835",80.64576,73.22203
"836",80.50416,73.23536
"837",80.36256,73.248695
"838",80.22827,73.262024
"839",80.111084,73.27536
"840",80.01587,73.28869
"841",79.93286,73.302025
"842",79.852295,73.31535
"843",79.76929,73.32869
"844",79.68139,73.34202
"845",79.57641,73.355354
"846",79.45434,73.36868
"847",79.31518,73.38202
"848",79.166245,73.39535
"849",79.012436,73.40868
"850",78.86595,73.42201
"851",78.72678,73.43535
"852",78.607155,73.44868
"853",78.49973,73.46201
"854",78.40452,73.47534
"855",78.32151,73.48868
"856",78.25803,73.50201
"857",78.204315,73.51534
"858",78.16525,73.52867
"859",78.14084,73.54201
"860",78.133514,73.555336
"861",78.133514,73.56867
"862",78.1384,73.582
"863",78.14572,73.59534
"864",78.153046,73.608665
"865",78.153046,73.622
"866",78.15549,73.63533
"867",78.15549,73.64867
"868",78.15793,73.661995
"869",78.15793,73.67533
"870",78.167694,73.68866
"871",78.238495,73.701996
"872",78.45579,73.715324
"873",78.91722,73.72866
"874",79.6643,73.74199
"875",80.65064,73.755325
"876",81.75174,73.768654
"877",82.78691,73.78199
"878",83.59014,73.79532
"879",84.051575,73.808655
"880",84.16632,73.82198
"881",83.99786,73.83532
"882",83.631645,73.84865
"883",83.160446,73.861984
"884",82.65507,73.87531
"885",82.176544,73.88865
"886",81.76639,73.90198
"887",81.43923,73.91531
"888",81.20973,73.92864
"889",81.06325,73.94198
"890",80.97536,73.95531
"891",80.907,73.96864
"892",80.82399,73.98197
"893",80.71168,73.99531
"894",80.56275,74.00864
"895",80.38941,74.02197
"896",80.216064,74.0353
"897",80.05493,74.04864
"898",79.91577,74.061966
"899",79.798584,74.0753
"900",79.7058,74.08863
"901",79.62524,74.10197
"902",79.55688,74.115295
"903",79.48852,74.12863
"904",79.41039,74.14196
"905",79.32494,74.1553
"906",79.22484,74.168625
"907",79.10765,74.18196
"908",78.97826,74.19529
"909",78.84886,74.208626
"910",78.7219,74.221954
"911",78.59739,74.23529
"912",78.485085,74.24862
"913",78.38743,74.261955
"914",78.29954,74.27528
"915",78.22873,74.28862
"916",78.17502,74.30195
"917",78.133514,74.315285
"918",78.10422,74.32861
"919",78.082245,74.34195
"920",78.07004,74.35528
"921",78.06271,74.368614
"922",78.065155,74.38194
"923",78.07248,74.39528
"924",78.08469,74.40861
"925",78.09689,74.42194
"926",78.11154,74.43527
"927",78.12863,74.44861
"928",78.14328,74.46194
"929",78.153046,74.47527
"930",78.15793,74.4886
"931",78.16037,74.50194
"932",78.19455,74.51527
"933",78.34104,74.5286
"934",78.69993,74.54193
"935",79.34692,74.55527
"936",80.26978,74.568596
"937",81.375755,74.58193
"938",82.493935,74.59526
"939",83.441216,74.6086
"940",84.071106,74.621925
"941",84.34699,74.63526
"942",84.30549,74.64859
"943",84.01984,74.66193
"944",83.58526,74.675255
"945",83.08232,74.68859
"946",82.57206,74.70192
"947",82.10086,74.715256
"948",81.7029,74.728584
"949",81.39773,74.74192
"950",81.18532,74.75525
"951",81.0486,74.768585
"952",80.95827,74.78191
"953",80.87526,74.79525
"954",80.7776,74.80858
"955",80.65064,74.821915
"956",80.499275,74.83524
"957",80.3357,74.84858
"958",80.184326,74.86191
"959",80.05005,74.875244
"960",79.937744,74.88857
"961",79.84985,74.90191
"962",79.77417,74.91524
"963",79.7058,74.92857
"964",79.63744,74.9419
"965",79.55688,74.95524
"966",79.466545,74.96857
"967",79.361565,74.9819
"968",79.23949,74.99523
"969",79.11009,75.00857
"970",78.97337,75.0219
"971",78.83421,75.03523
"972",78.69749,75.04856
"973",78.57053,75.0619
"974",78.45335,75.075226
"975",78.35081,75.08856
"976",78.25803,75.10189
"977",78.1799,75.11523
"978",78.11398,75.128555
"979",78.06271,75.14189
"980",78.02121,75.15522
"981",77.99924,75.16856
"982",77.98703,75.181885
"983",77.98947,75.19522
"984",78.00168,75.20855
"985",78.01877,75.221886
"986",78.04074,75.235214
"987",78.05539,75.24855
"988",78.06027,75.26188
"989",78.05783,75.275215
"990",78.05539,75.28854
"991",78.099335,75.30188
"992",78.277565,75.31521
"993",78.6804,75.328545
"994",79.35668,75.34187
"995",80.27955,75.35521
"996",81.34646,75.36854
"997",82.39384,75.381874
"998",83.243454,75.3952
"999",83.78546,75.40854
"1000",83.99298,75.42187
"1001",83.90997,75.4352
"1002",83.60479,75.44853
"1003",83.16533,75.46187
"1004",82.66483,75.4752
"1005",82.15213,75.48853
"1006",81.68093,75.50186
"1007",81.2781,75.5152
"1008",80.96559,75.52853
"1009",80.740974,75.54186
"1010",80.584724,75.55519
"1011",80.47486,75.56853
"1012",80.38453,75.581856
"1013",80.2942,75.59519
"1014",80.19653,75.60852
"1015",80.09888,75.62186
"1016",80.01099,75.635185
"1017",79.937744,75.64852
"1018",79.88159,75.66185
"1019",79.84009,75.675186
"1020",79.80591,75.688515
"1021",79.77661,75.70185
"1022",79.7351,75.71518
"1023",79.67162,75.728516
"1024",79.58129,75.741844
"1025",79.47143,75.75518
"1026",79.33959,75.76851
"1027",79.202866,75.781845
"1028",79.063705,75.79517
"1029",78.93187,75.80851
"1030",78.80736,75.82184
"1031",78.69016,75.835175
"1032",78.58762,75.8485
"1033",78.49729,75.86184
"1034",78.42405,75.87517
"1035",78.37034,75.888504
"1036",78.33372,75.90183
"1037",78.311745,75.91517
"1038",78.30442,75.9285
"1039",78.30686,75.94183
"1040",78.311745,75.95516
"1041",78.31907,75.9685
"1042",78.31663,75.98183
"1043",78.314186,75.99516
"1044",78.32151,76.00849
"1045",78.38499,76.02183
"1046",78.590065,76.03516
"1047",79.01488,76.04849
"1048",79.68871,76.06182
"1049",80.57252,76.07516
"1050",81.549095,76.088486
"1051",82.45731,76.10182
"1052",83.14824,76.11515
"1053",83.53155,76.12849
"1054",83.60967,76.141815
"1055",83.43145,76.15515
"1056",83.070114,76.16848
"1057",82.6038,76.181816
"1058",82.091095,76.195145
"1059",81.5906,76.20848
"1060",81.13649,76.22181
"1061",80.75563,76.235146
"1062",80.45045,76.248474
"1063",80.218506,76.26181
"1064",80.045166,76.27514
"1065",79.90845,76.288475
"1066",79.80835,76.3018
"1067",79.744865,76.31514
"1068",79.71801,76.32847
"1069",79.727776,76.341805
"1070",79.766846,76.35513
"1071",79.818115,76.36847
"1072",79.8645,76.3818
"1073",79.8938,76.395134
"1074",79.888916,76.40846
"1075",79.85474,76.4218
"1076",79.78638,76.43513
"1077",79.68627,76.44846
"1078",79.5642,76.46179
"1079",79.42748,76.47513
"1080",79.27856,76.48846
"1081",79.12474,76.50179
"1082",78.97826,76.51512
"1083",78.839096,76.52846
"1084",78.71458,76.54179
"1085",78.607155,76.55512
"1086",78.521706,76.56845
"1087",78.45335,76.58179
"1088",78.40208,76.595116
"1089",78.365456,76.60845
"1090",78.34348,76.62178
"1091",78.33372,76.63512
"1092",78.33616,76.648445
"1093",78.34104,76.66178
"1094",78.345924,76.67511
"1095",78.35081,76.688446
"1096",78.35325,76.701775
"1097",78.35325,76.71511
"1098",78.37766,76.72844
"1099",78.49729,76.741776
"1100",78.80736,76.755104
"1101",79.38354,76.76844
"1102",80.233154,76.78177
"1103",81.28298,76.795105
"1104",82.37919,76.80843
"1105",83.336235,76.82177
"1106",84.00763,76.8351
"1107",84.334785,76.848434
"1108",84.334785,76.86176
"1109",84.08087,76.8751
"1110",83.6585,76.88843
"1111",83.14824,76.901764
"1112",82.62089,76.91509
"1113",82.125275,76.92843
"1114",81.69314,76.94176
"1115",81.34402,76.95509
"1116",81.08034,76.96842
"1117",80.88747,76.98176
"1118",80.743416,76.99509
"1119",80.62623,77.00842
"1120",80.516365,77.02175
"1121",80.40162,77.03509
"1122",80.28199,77.048416
"1123",80.17212,77.06175
"1124",80.07446,77.07508
"1125",79.9939,77.08842
"1126",79.93286,77.101746
"1127",79.88403,77.11508
"1128",79.835205,77.12841
"1129",79.77905,77.14175
"1130",79.710686,77.155075
"1131",79.62524,77.16841
"1132",79.520256,77.18174
"1133",79.40795,77.195076
"1134",79.27856,77.208405
"1135",79.14427,77.22174
"1136",79.01488,77.23507
"1137",78.890366,77.248405
"1138",78.768295,77.261734
"1139",78.66331,77.27507
"1140",78.57053,77.2884
"1141",78.487526,77.301735
"1142",78.41917,77.31506
"1143",78.365456,77.3284
"1144",78.328835,77.34173
"1145",78.30198,77.355064
"1146",78.28489,77.36839
"1147",78.27512,77.38173
"1148",78.2678,77.39506
"1149",78.25559,77.408394
"1150",78.24582,77.42172
"1151",78.25559,77.43506
"1152",78.33616,77.44839
"1153",78.57786,77.46172
"1154",79.05882,77.47505
"1155",79.80591,77.48839
"1156",80.765396,77.50172
"1157",81.80789,77.51505
"1158",82.760056,77.52838
"1159",83.46319,77.54172
"1160",83.83673,77.555046
"1161",83.88556,77.56838
"1162",83.67315,77.58171
"1163",83.282524,77.59505
"1164",82.794235,77.608376
"1165",82.27665,77.62171
"1166",81.778595,77.63504
"1167",81.33181,77.64838
"1168",80.96315,77.661705
"1169",80.68238,77.67504
"1170",80.47486,77.68837
"1171",80.325935,77.701706
"1172",80.21118,77.715034
"1173",80.111084,77.72837
"1174",80.02075,77.7417
"1175",79.9353,77.755035
"1176",79.8645,77.768364
"1177",79.81079,77.7817
"1178",79.77417,77.79503
"1179",79.7522,77.808365
"1180",79.7351,77.82169
"1181",79.71557,77.83503
"1182",79.68139,77.84836
"1183",79.62768,77.861694
"1184",79.54955,77.87502
"1185",79.44457,77.88836
"1186",79.31762,77.90169
"1187",79.17601,77.91502
"1188",79.02464,77.92835
"1189",78.87572,77.94169
"1190",78.73411,77.95502
"1191",78.60471,77.96835
"1192",78.487526,77.98168
"1193",78.38499,77.99502
"1194",78.2971,78.00835
"1195",78.22873,78.02168
"1196",78.1799,78.03501
"1197",78.14328,78.04835
"1198",78.118866,78.061676
"1199",78.099335,78.07501
"1200",78.08957,78.08834
"1201",78.118866,78.10168
"1202",78.25803,78.115005
"1203",78.59251,78.12834
"1204",79.17357,78.14167
"1205",79.98413,78.15501
"1206",80.93141,78.168335
"1207",81.866486,78.18167
"1208",82.62577,78.195
"1209",83.09697,78.208336
"1210",83.26055,78.221664
"1211",83.15312,78.235
"1212",82.85283,78.24833
"1213",82.4329,78.261665
"1214",81.96414,78.274994
"1215",81.49294,78.28833
"1216",81.058365,78.30166
"1217",80.67994,78.314995
"1218",80.37476,78.32832
"1219",80.13306,78.34166
"1220",79.94507,78.35499
"1221",79.79614,78.368324
"1222",79.67162,78.38165
"1223",79.57885,78.39499
"1224",79.517815,78.408325
"1225",79.49584,78.42166
"1226",79.51537,78.435
"1227",79.5642,78.44833
"1228",79.62768,78.46167
"1229",79.68871,78.475006
"1230",79.727776,78.48834
"1231",79.7351,78.50168
"1232",79.70092,78.515015
"1233",79.62768,78.52835
"1234",79.517815,78.54169
"1235",79.38354,78.55502
"1236",79.22972,78.56836
"1237",79.06859,78.581696
"1238",78.905014,78.59503
"1239",78.75609,78.60837
"1240",78.6218,78.621704
"1241",78.5095,78.63504
"1242",78.42405,78.64838
"1243",78.365456,78.66171
"1244",78.328835,78.67505
"1245",78.30686,78.688385
"1246",78.28977,78.70172
"1247",78.27512,78.71506
"1248",78.2678,78.72839
"1249",78.2971,78.74173
"1250",78.433815,78.755066
"1251",78.765854,78.7684
"1252",79.34936,78.78174
"1253",80.16724,78.795074
"1254",81.13161,78.80841
"1255",82.091095,78.82175
"1256",82.87724,78.83508
"1257",83.37774,78.84842
"1258",83.5584,78.861755
"1259",83.46319,78.87509
"1260",83.17265,78.88843
"1261",82.760056,78.901764
"1262",82.29374,78.9151
"1263",81.82742,78.92844
"1264",81.3904,78.94177
"1265",81.00954,78.95511
"1266",80.69703,78.968445
"1267",80.44312,78.98178
"1268",80.23804,78.99512
"1269",80.06714,79.00845
"1270",79.920654,79.02179
"1271",79.79614,79.035126
"1272",79.69848,79.04846
"1273",79.635,79.0618
"1274",79.60815,79.075134
"1275",79.61547,79.08847
"1276",79.64965,79.10181
"1277",79.69848,79.11514
"1278",79.73754,79.12848
"1279",79.75708,79.141815
"1280",79.742424,79.15515
"1281",79.68871,79.16849
"1282",79.60082,79.18182
"1283",79.483635,79.19516
"1284",79.34692,79.208496
"1285",79.19798,79.22183
"1286",79.046616,79.23517
"1287",78.89769,79.248505
"1288",78.75853,79.26184
"1289",78.63401,79.27518
"1290",78.52903,79.28851
"1291",78.44846,79.30185
"1292",78.38743,79.315186
"1293",78.345924,79.32852
"1294",78.32395,79.34186
"1295",78.311745,79.355194
"1296",78.314186,79.36853
"1297",78.35569,79.38187
"1298",78.51194,79.3952
"1299",78.86839,79.40854
"1300",79.48119,79.421875
"1301",80.33082,79.43521
"1302",81.31472,79.44855
"1303",82.27665,79.46188
"1304",83.053024,79.47522
"1305",83.529106,79.488556
"1306",83.68047,79.50189
"1307",83.5584,79.51523
"1308",83.24834,79.528564
"1309",82.8333,79.5419
"1310",82.37919,79.55524
"1311",81.92996,79.56857
"1312",81.52224,79.58191
"1313",81.17067,79.595245
"1314",80.88258,79.60858
"1315",80.65064,79.62192
"1316",80.46021,79.635254
"1317",80.29664,79.64859
"1318",80.15015,79.66193
"1319",80.00366,79.67526
"1320",79.86206,79.6886
"1321",79.73754,79.701935
"1322",79.64721,79.71527
"1323",79.586174,79.72861
"1324",79.56176,79.74194
"1325",79.5642,79.75528
"1326",79.58373,79.768616
"1327",79.5935,79.78195
"1328",79.58129,79.79529
"1329",79.537346,79.808624
"1330",79.45678,79.82196
"1331",79.34692,79.8353
"1332",79.217514,79.84863
"1333",79.07347,79.86197
"1334",78.922104,79.875305
"1335",78.77074,79.88864
"1336",78.626686,79.90198
"1337",78.502174,79.91531
"1338",78.399635,79.92865
"1339",78.32151,79.941986
"1340",78.260475,79.95532
"1341",78.21408,79.96866
"1342",78.18234,79.981995
"1343",78.16281,79.99533
"1344",78.15549,80.00867
"1345",78.15549,80.022
"1346",78.153046,80.03534
"1347",78.153046,80.048676
"1348",78.15793,80.06201
"1349",78.21896,80.07535
"1350",78.42161,80.088684
"1351",78.856186,80.10202
"1352",79.55688,80.11536
"1353",80.47486,80.12869
"1354",81.495384,80.14203
"1355",82.442665,80.155365
"1356",83.158005,80.1687
"1357",83.55108,80.18204
"1358",83.631645,80.19537
"1359",83.458305,80.20871
"1360",83.1165,80.222046
"1361",82.68192,80.23538
"1362",82.21805,80.24872
"1363",81.76883,80.262054
"1364",81.36111,80.27539
"1365",81.01686,80.28873
"1366",80.740974,80.30206
"1367",80.52613,80.3154
"1368",80.35279,80.328735
"1369",80.201416,80.34207
"1370",80.05005,80.35541
"1371",79.89868,80.368744
"1372",79.76196,80.38208
"1373",79.64721,80.39542
"1374",79.56664,80.40875
"1375",79.52758,80.42209
"1376",79.5227,80.435425
"1377",79.53246,80.44876
"1378",79.54467,80.4621
"1379",79.54223,80.47543
"1380",79.51537,80.48877
"1381",79.45678,80.502106
"1382",79.36889,80.51544
"1383",79.2517,80.52878
"1384",79.11986,80.542114
"1385",78.97337,80.55545
"1386",78.819565,80.56879
"1387",78.66819,80.58212
"1388",78.52903,80.59546
"1389",78.40452,80.608795
"1390",78.30198,80.62213
"1391",78.22873,80.63547
"1392",78.1799,80.6488
"1393",78.14328,80.66214
"1394",78.12131,80.675476
"1395",78.11154,80.68881
"1396",78.11154,80.70215
"1397",78.118866,80.715485
"1398",78.13107,80.72882
"1399",78.150604,80.74216
"1400",78.17258,80.75549
"1401",78.187225,80.76883
"1402",78.19699,80.782166
"1403",78.20676,80.7955
"1404",78.21408,80.80884
"1405",78.21896,80.822174
"1406",78.22629,80.83551
"1407",78.23361,80.84885
"1408",78.24094,80.86218
"1409",78.24826,80.87552
"1410",78.25071,80.888855
"1411",78.2678,80.90219
"1412",78.35813,80.91553
"1413",78.62913,80.92886
"1414",79.168686,80.9422
"1415",80.00122,80.955536
"1416",81.05348,80.96887
"1417",82.18143,80.98221
"1418",83.1873,80.995544
"1419",83.912415,81.00888
"1420",84.2884,81.02222
"1421",84.33967,81.03555
"1422",84.139465,81.04889
"1423",83.773254,81.062225
"1424",83.3167,81.07556
"1425",82.82597,81.0889
"1426",82.337685,81.102234
"1427",81.88602,81.11557
"1428",81.495384,81.12891
"1429",81.17799,81.14224
"1430",80.92897,81.15558
"1431",80.73365,81.168915
"1432",80.570076,81.18225
"1433",80.42115,81.19559
"1434",80.28443,81.20892
"1435",80.16235,81.22226
"1436",80.062256,81.235596
"1437",79.99878,81.24893
"1438",79.96948,81.26227
"1439",79.971924,81.275604
"1440",79.98657,81.28894
"1441",80.00122,81.30228
"1442",79.99878,81.31561
"1443",79.9646,81.32895
"1444",79.89136,81.342285
"1445",79.781494,81.35562
"1446",79.64965,81.36896
"1447",79.50561,81.38229
"1448",79.3518,81.39563
"1449",79.19554,81.408966
"1450",79.04173,81.4223
"1451",78.89769,81.43564
"1452",78.765854,81.448975
"1453",78.65354,81.46231
"1454",78.56565,81.47565
"1455",78.504616,81.48898
"1456",78.470436,81.50232
"1457",78.45823,81.515656
"1458",78.46311,81.52899
"1459",78.47288,81.54233
"1460",78.48997,81.555664
"1461",78.504616,81.569
"1462",78.519264,81.58234
"1463",78.53147,81.59567
"1464",78.54612,81.60901
"1465",78.56077,81.622345
"1466",78.56809,81.63568
"1467",78.57053,81.64902
"1468",78.57542,81.66235
"1469",78.572975,81.67569
"1470",78.56809,81.689026
"1471",78.56565,81.70236
"1472",78.55833,81.7157
"1473",78.54612,81.729034
"1474",78.536354,81.74237
"1475",78.54856,81.75571
"1476",78.6511,81.76904
"1477",78.94896,81.78238
"1478",79.5227,81.795715
"1479",80.38453,81.80905
"1480",81.45388,81.82239
"1481",82.57206,81.835724
"1482",83.55352,81.84906
"1483",84.23956,81.8624
"1484",84.57404,81.87573
"1485",84.58137,81.88907
"1486",84.34455,81.902405
"1487",83.93683,81.91574
"1488",83.43633,81.92908
"1489",82.899216,81.94241
"1490",82.36698,81.95575
"1491",81.866486,81.969086
"1492",81.427025,81.98242
"1493",81.06569,81.99576
"1494",80.782486,82.009094
"1495",80.56275,82.02243
"1496",80.38941,82.03577
"1497",80.25269,82.0491
"1498",80.14526,82.06244
"1499",80.0647,82.075775
"1500",80.02075,82.08911
"1501",80.01343,82.10245
"1502",80.03296,82.11578
"1503",80.062256,82.12912
"1504",80.09155,82.142456
"1505",80.10376,82.15579
"1506",80.08911,82.16913
"1507",80.042725,82.182465
"1508",79.95972,82.1958
"1509",79.84253,82.20914
"1510",79.69848,82.22247
"1511",79.534904,82.23581
"1512",79.35912,82.249146
"1513",79.18089,82.26248
"1514",79.00511,82.27582
"1515",78.83177,82.289154
"1516",78.6804,82.30249
"1517",78.553444,82.31583
"1518",78.45335,82.32916
"1519",78.37766,82.3425
"1520",78.33616,82.355835
"1521",78.314186,82.36917
"1522",78.3093,82.38251
"1523",78.311745,82.39584
"1524",78.31663,82.40918
"1525",78.32151,82.422516
"1526",78.32151,82.43585
"1527",78.32395,82.44919
"1528",78.328835,82.462524
"1529",78.3386,82.47586
"1530",78.345924,82.4892
"1531",78.35569,82.50253
"1532",78.363014,82.51587
"1533",78.363014,82.529205
"1534",78.35813,82.54254
"1535",78.35081,82.55588
"1536",78.3386,82.569214
"1537",78.32395,82.58255
"1538",78.32151,82.59589
"1539",78.365456,82.60922
"1540",78.555885,82.62256
"1541",79.00023,82.635895
"1542",79.75952,82.64923
"1543",80.799576,82.66257
"1544",81.99344,82.6759
"1545",83.15312,82.68924
"1546",84.07599,82.702576
"1547",84.647285,82.71591
"1548",84.84749,82.72925
"1549",84.73762,82.742584
"1550",84.403145,82.75592
"1551",83.929504,82.76926
"1552",83.370415,82.78259
"1553",82.78203,82.79593
"1554",82.20096,82.809265
"1555",81.65896,82.8226
"1556",81.18288,82.83594
"1557",80.799576,82.84927
"1558",80.5066,82.86261
"1559",80.291756,82.875946
"1560",80.14282,82.88928
"1561",80.045166,82.90262
"1562",79.98657,82.915955
"1563",79.95972,82.92929
"1564",79.96704,82.94263
"1565",79.99878,82.95596
"1566",80.04761,82.9693
"1567",80.10132,82.982635
"1568",80.14038,82.99597
"1569",80.15747,83.00931
"1570",80.13306,83.022644
"1571",80.062256,83.03598
"1572",79.94751,83.04932
"1573",79.80591,83.06265
"1574",79.639885,83.07599
"1575",79.4641,83.089325
"1576",79.27856,83.10266
"1577",79.08568,83.116
"1578",78.89525,83.12933
"1579",78.71458,83.14267
"1580",78.555885,83.156006
"1581",78.42649,83.16934
"1582",78.328835,83.18268
"1583",78.260475,83.196014
"1584",78.21896,83.20935
"1585",78.19211,83.22269
"1586",78.1799,83.23602
"1587",78.1799,83.24936
"1588",78.18234,83.262695
"1589",78.187225,83.27603
"1590",78.19455,83.28937
"1591",78.20187,83.302704
"1592",78.21164,83.31604
"1593",78.221405,83.32938
"1594",78.22873,83.34271
"1595",78.24094,83.35605
"1596",78.25071,83.369385
"1597",78.25559,83.38272
"1598",78.25803,83.39606
"1599",78.26292,83.40939
"1600",78.260475,83.42273
"1601",78.25559,83.436066
"1602",78.25559,83.4494
"1603",78.3093,83.46274
"1604",78.50706,83.476074
"1605",78.96849,83.48941
"1606",79.75464,83.50275
"1607",80.82887,83.51608
"1608",82.06668,83.52942
"1609",83.27276,83.542755
"1610",84.244446,83.55609
"1611",84.859695,83.56943
"1612",85.09163,83.58276
"1613",85.00374,83.5961
"1614",84.67658,83.609436
"1615",84.19318,83.62277
"1616",83.62432,83.63611
"1617",83.021286,83.649445
"1618",82.42069,83.66278
"1619",81.85428,83.67612
"1620",81.3489,83.68945
"1621",80.919205,83.70279
"1622",80.5774,83.716125
"1623",80.31861,83.72946
"1624",80.1355,83.7428
"1625",80.01343,83.756134
"1626",79.94507,83.76947
"1627",79.923096,83.78281
"1628",79.94263,83.79614
"1629",79.99878,83.80948
"1630",80.076904,83.822815
"1631",80.15747,83.83615
"1632",80.218506,83.84949
"1633",80.24292,83.86282
"1634",80.22583,83.87616
"1635",80.16235,83.889496
"1636",80.05737,83.90283
"1637",79.91821,83.91617
"1638",79.75464,83.929504
"1639",79.57641,83.94284
"1640",79.38842,83.95618
"1641",79.1931,83.96951
"1642",78.99779,83.98285
"1643",78.81224,83.996185
"1644",78.63889,84.00952
"1645",78.49241,84.02286
"1646",78.37766,84.036194
"1647",78.28733,84.04953
"1648",78.22385,84.06287
"1649",78.184784,84.0762
"1650",78.15549,84.08954
"1651",78.14084,84.102875
"1652",78.135956,84.11621
"1653",78.1384,84.12955
"1654",78.1384,84.14288
"1655",78.14328,84.15622
"1656",78.14816,84.169556
"1657",78.15793,84.18289
"1658",78.16525,84.19623
"1659",78.17746,84.209564
"1660",78.187225,84.2229
"1661",78.19699,84.23624
"1662",78.20187,84.24957
"1663",78.20676,84.26291
"1664",78.21164,84.276245
"1665",78.21652,84.28958
"1666",78.21896,84.30292
"1667",78.21896,84.31625
"1668",78.24826,84.32959
"1669",78.38987,84.342926
"1670",78.768295,84.35626
"1671",79.466545,84.3696
"1672",80.49683,84.382935
"1673",81.74929,84.39627
"1674",83.035934,84.40961
"1675",84.14435,84.42294
"1676",84.90364,84.43628
"1677",85.26009,84.449615
"1678",85.262535,84.46295
"1679",85.0013,84.47629
"1680",84.559395,84.489624
"1681",84.01251,84.50296
"1682",83.40948,84.5163
"1683",82.79668,84.52963
"1684",82.193634,84.54297
"1685",81.63943,84.556305
"1686",81.15602,84.56964
"1687",80.75807,84.58298
"1688",80.445564,84.59631
"1689",80.216064,84.60965
"1690",80.05249,84.622986
"1691",79.94995,84.63632
"1692",79.903564,84.64966
"1693",79.903564,84.662994
"1694",79.94995,84.67633
"1695",80.028076,84.68967
"1696",80.12085,84.703
"1697",80.20386,84.71634
"1698",80.26002,84.729675
"1699",80.272224,84.74301
"1700",80.23804,84.75635
"1701",80.15503,84.769684
"1702",80.03296,84.78302
"1703",79.87671,84.79636
"1704",79.7058,84.80969
"1705",79.520256,84.82303
"1706",79.327385,84.836365
"1707",79.12718,84.8497
"1708",78.93675,84.86304
"1709",78.75853,84.87637
"1710",78.59983,84.88971
"1711",78.46311,84.903046
"1712",78.35569,84.91638
"1713",78.27268,84.92972
"1714",78.21408,84.943054
"1715",78.17502,84.95639
"1716",78.14816,84.96973
"1717",78.133514,84.98306
"1718",78.12863,84.9964
"1719",78.12863,85.009735
"1720",78.12863,85.02307
"1721",78.133514,85.03641
"1722",78.14084,85.04974
"1723",78.14816,85.06308
"1724",78.153046,85.076416
"1725",78.15549,85.08975
"1726",78.16281,85.10309
"1727",78.170135,85.116425
"1728",78.17502,85.12976
"1729",78.18234,85.1431
"1730",78.18967,85.15643
"1731",78.18967,85.16977
"1732",78.19211,85.183105
"1733",78.24094,85.19644
"1734",78.4387,85.20978
"1735",78.90257,85.223114
"1736",79.70336,85.23645
"1737",80.8069,85.24979
"1738",82.08865,85.26312
"1739",83.34356,85.27646
"1740",84.36652,85.289795
"1741",85.01839,85.30313
"1742",85.28207,85.31647
"1743",85.21614,85.3298
"1744",84.89876,85.34314
"1745",84.420235,85.356476
"1746",83.8465,85.36981
"1747",83.22148,85.38315
"1748",82.58671,85.396484
"1749",81.97879,85.40982
"1750",81.42214,85.42316
"1751",80.93385,85.43649
"1752",80.52613,85.44983
"1753",80.20386,85.463165
"1754",79.96704,85.4765
"1755",79.81079,85.48984
"1756",79.725334,85.503174
"1757",79.71313,85.51651
"1758",79.75708,85.52985
"1759",79.852295,85.54318
"1760",79.97925,85.55652
"1761",80.11597,85.569855
"1762",80.22827,85.58319
"1763",80.30152,85.59653
"1764",80.32105,85.60986
"1765",80.28443,85.6232
"1766",80.19409,85.636536
"1767",80.05737,85.64987
"1768",79.886475,85.66321
"1769",79.691154,85.676544
"1770",79.47387,85.68988
"1771",79.24681,85.70322
"1772",79.009995,85.71655
"1773",78.7805,85.72989
"1774",78.55833,85.743225
"1775",78.363014,85.75656
"1776",78.19455,85.7699
"1777",78.06027,85.78323
"1778",77.962616,85.79657
"1779",77.90402,85.809906
"1780",77.87717,85.82324
"1781",77.872284,85.83658
"1782",77.88449,85.849915
"1783",77.90646,85.86325
"1784",77.93088,85.87659
"1785",77.95041,85.88992
"1786",77.9675,85.90326
"1787",77.97482,85.916595
"1788",77.97238,85.92993
"1789",77.960175,85.94327
"1790",77.94064,85.956604
"1791",77.91623,85.96994
"1792",77.891815,85.98328
"1793",77.86496,85.99661
"1794",77.840546,86.00995
"1795",77.821014,86.023285
"1796",77.80881,86.03662
"1797",77.806366,86.04996
"1798",77.82834,86.06329
"1799",77.92844,86.07663
"1800",78.20187,86.089966
"1801",78.75609,86.1033
"1802",79.63256,86.11664
"1803",80.780045,86.129974
"1804",82.04715,86.14331
"1805",83.23857,86.15665
"1806",84.16144,86.16998
"1807",84.7132,86.18332
"1808",84.89876,86.196655
"1809",84.788895,86.20999
"1810",84.473946,86.22333
"1811",84.02716,86.236664
"1812",83.50469,86.25
"1813",82.93584,86.263336
"1814",82.34257,86.27667
"1815",81.75174,86.29001
"1816",81.180435,86.303345
"1817",80.655525,86.31668
"1818",80.18677,86.33002
"1819",79.798584,86.34335
"1820",79.49828,86.35669
"1821",79.30297,86.370026
"1822",79.22728,86.38336
"1823",79.273674,86.3967
"1824",79.42748,86.410034
"1825",79.66674,86.42337
"1826",79.95239,86.43671
"1827",80.23071,86.45004
"1828",80.46754,86.46338
"1829",80.63355,86.476715
"1830",80.71412,86.49005
"1831",80.71412,86.50339
"1832",80.64576,86.51672
"1833",80.52125,86.53006
"1834",80.35523,86.543396
"1835",80.15991,86.55673
"1836",79.94263,86.57007
"1837",79.710686,86.583405
"1838",79.48119,86.59674
"1839",79.259026,86.61008
"1840",79.05882,86.62341
"1841",78.8806,86.63675
"1842",78.73167,86.650085
"1843",78.6096,86.66342
"1844",78.51682,86.67676
"1845",78.44846,86.690094
"1846",78.40452,86.70343
"1847",78.380104,86.71677
"1848",78.3679,86.7301
"1849",78.37034,86.74344
"1850",78.380104,86.756775
"1851",78.397194,86.77011
"1852",78.41428,86.78345
"1853",78.43626,86.79678
"1854",78.45335,86.81012
"1855",78.46555,86.823456
"1856",78.47288,86.83679
"1857",78.4802,86.85013
"1858",78.519264,86.863464
"1859",78.677956,86.8768
"1860",79.063705,86.89014
"1861",79.744865,86.90347
"1862",80.70435,86.91681
"1863",81.83963,86.930145
"1864",82.98222,86.94348
"1865",83.93927,86.95682
"1866",84.58381,86.97015
"1867",84.87923,86.98349
"1868",84.86702,86.996826
"1869",84.61799,87.01016
"1870",84.207825,87.0235
"1871",83.702446,87.036835
"1872",83.13847,87.05017
"1873",82.55497,87.06351
"1874",81.971466,87.07684
"1875",81.40505,87.09018
"1876",80.87282,87.103516
"1877",80.39185,87.11685
"1878",79.96948,87.13019
"1879",79.61547,87.143524
"1880",79.34936,87.15686
"1881",79.185776,87.1702
"1882",79.132065,87.18353
"1883",79.185776,87.19687
"1884",79.33471,87.210205
"1885",79.54955,87.22354
"1886",79.78882,87.23688
"1887",80.008545,87.25021
"1888",80.184326,87.26355
"1889",80.2942,87.276886
"1890",80.32838,87.29022
"1891",80.2942,87.30356
"1892",80.201416,87.316895
"1893",80.0647,87.33023
"1894",79.89624,87.34357
"1895",79.70336,87.3569
"1896",79.49584,87.37024
"1897",79.27856,87.383575
"1898",79.063705,87.39691
"1899",78.853745,87.41025
"1900",78.66331,87.423584
"1901",78.49729,87.43692
"1902",78.365456,87.45026
"1903",78.26292,87.46359
"1904",78.18967,87.47693
"1905",78.14328,87.490265
"1906",78.118866,87.5036
"1907",78.10666,87.51694
"1908",78.10422,87.53027
"1909",78.10666,87.54361
"1910",78.1091,87.556946
"1911",78.10666,87.57028
"1912",78.10666,87.58362
"1913",78.133514,87.596954
"1914",78.260475,87.61029
"1915",78.59495,87.62363
"1916",79.22728,87.63696
"1917",80.16968,87.6503
"1918",81.34646,87.663635
"1919",82.59159,87.67697
"1920",83.70489,87.69031
"1921",84.52033,87.70364
"1922",84.97444,87.71698
"1923",85.084305,87.730316
"1924",84.92073,87.74365
"1925",84.56428,87.75699
"1926",84.088196,87.770325
"1927",83.543755,87.78366
"1928",82.967575,87.797
"1929",82.388954,87.81033
"1930",81.83475,87.82367
"1931",81.31716,87.837006
"1932",80.86061,87.85034
"1933",80.46754,87.86368
"1934",80.14282,87.877014
"1935",79.886475,87.89035
"1936",79.69848,87.90369
"1937",79.58129,87.91702
"1938",79.53246,87.93036
"1939",79.54955,87.943695
"1940",79.62035,87.95703
"1941",79.725334,87.97037
"1942",79.84741,87.9837
"1943",79.95239,87.99704
"1944",80.028076,88.010376
"1945",80.059814,88.02371
"1946",80.042725,88.03705
"1947",79.974365,88.050385
"1948",79.869385,88.06372
"1949",79.727776,88.07706
"1950",79.5642,88.09039
"1951",79.38354,88.10373
"1952",79.19554,88.117065
"1953",79.00511,88.1304
"1954",78.819565,88.14374
"1955",78.64622,88.157074
"1956",78.49241,88.17041
"1957",78.36057,88.18375
"1958",78.25559,88.19708
"1959",78.17502,88.21042
"1960",78.12375,88.223755
"1961",78.08957,88.23709
"1962",78.0676,88.25043
"1963",78.05783,88.26376
"1964",78.05051,88.2771
"1965",78.04318,88.290436
"1966",78.03586,88.30377
"1967",78.05295,88.31711
"1968",78.167694,88.330444
"1969",78.487526,88.34378
"1970",79.10277,88.35712
"1971",80.02319,88.37045
"1972",81.17555,88.38379
"1973",82.39872,88.397125
"1974",83.50225,88.41046
"1975",84.32746,88.4238
"1976",84.805984,88.43713
"1977",84.95003,88.45047
"1978",84.825516,88.463806
"1979",84.49836,88.47714
"1980",84.04425,88.49048
"1981",83.51446,88.503815
"1982",82.95537,88.51715
"1983",82.40116,88.53049
"1984",81.881134,88.54382
"1985",81.41482,88.55716
"1986",81.01198,88.570496
"1987",80.67506,88.58383
"1988",80.4065,88.59717
"1989",80.19165,88.610504
"1990",80.025635,88.62384
"1991",79.903564,88.63718
"1992",79.818115,88.65051
"1993",79.764404,88.66385
"1994",79.744865,88.677185
"1995",79.7522,88.69052
"1996",79.77661,88.70386
"1997",79.801025,88.71719
"1998",79.818115,88.73053
"1999",79.80835,88.743866
"2000",79.76929,88.7572
"2001",79.70336,88.77054
"2002",79.60815,88.783875
"2003",79.49096,88.79721
"2004",79.3518,88.81055
"2005",79.19554,88.82388
"2006",79.029526,88.83722
"2007",78.85863,88.850555
"2008",78.692604,88.86389
"2009",78.538795,88.87723
"2010",78.4094,88.890564
"2011",78.2971,88.9039
"2012",78.20187,88.91724
"2013",78.12375,88.93057
"2014",78.06027,88.94391
"2015",78.009,88.957245
"2016",77.96506,88.97058
"2017",77.9382,88.98392
"2018",77.92111,88.99725
"2019",77.93332,89.01059
"2020",78.02365,89.023926
"2021",78.29221,89.03726
"2022",78.82201,89.0506
"2023",79.64233,89.063934
"2024",80.70191,89.07727
"2025",81.85916,89.09061
"2026",82.92607,89.10394
"2027",83.74639,89.11728
"2028",84.23468,89.130615
"2029",84.39338,89.14395
"2030",84.28596,89.15729
"2031",83.9881,89.17062
"2032",83.57061,89.18396
"2033",83.089645,89.197296
"2034",82.58427,89.21063
"2035",82.091095,89.22397
"2036",81.636986,89.237305
"2037",81.24391,89.25064
"2038",80.919205,89.26398
"2039",80.66041,89.27731
"2040",80.46021,89.29065
"2041",80.29664,89.303986
"2042",80.15503,89.31732
"2043",80.03296,89.33066
"2044",79.92554,89.343994
"2045",79.83276,89.35733
"2046",79.764404,89.37067
"2047",79.72045,89.384
"2048",79.693596,89.39734
"2049",79.676506,89.410675
"2050",79.66186,89.42401
"2051",79.635,89.43735
"2052",79.59106,89.45068
"2053",79.52514,89.46402
"2054",79.43725,89.477356
"2055",79.33227,89.49069
"2056",79.21507,89.50403
"2057",79.08568,89.517365
"2058",78.94408,89.5307
"2059",78.80492,89.54404
"2060",78.66575,89.55737
"2061",78.536354,89.57071
"2062",78.42161,89.584045
"2063",78.32639,89.59738
"2064",78.24826,89.61072
"2065",78.1799,89.624054
"2066",78.12375,89.63739
"2067",78.07736,89.65073
"2068",78.03586,89.66406
"2069",77.99924,89.6774
"2070",77.97238,89.690735
"2071",77.97238,89.70407
"2072",78.065155,89.71741
"2073",78.34104,89.73074
"2074",78.88304,89.74408
"2075",79.70336,89.757416
"2076",80.74586,89.77075
"2077",81.87137,89.78409
"2078",82.90654,89.797424
"2079",83.69512,89.81076
"2080",84.15411,89.8241
"2081",84.2884,89.83743
"2082",84.15167,89.85077
"2083",83.824524,89.864105
"2084",83.38506,89.87744
"2085",82.899216,89.89078
"2086",82.41093,89.90411
"2087",81.94949,89.91745
"2088",81.53445,89.930786
"2089",81.18288,89.94412
"2090",80.89723,89.95746
"2091",80.672615,89.970795
"2092",80.49195,89.98413
"2093",80.34547,89.99747
"2094",80.21362,90.0108
"2095",80.093994,90.02414
"2096",79.98901,90.037476
"2097",79.903564,90.05081
"2098",79.84009,90.06415
"2099",79.801025,90.077484
"2100",79.77661,90.09082
"2101",79.75464,90.10416
"2102",79.73022,90.11749
"2103",79.69604,90.13083
"2104",79.64721,90.144165
"2105",79.57397,90.1575
"2106",79.47631,90.17084
"2107",79.35912,90.18417
"2108",79.22728,90.19751
"2109",79.08812,90.210846
"2110",78.95384,90.22418
"2111",78.82689,90.23752
"2112",78.709694,90.250854
"2113",78.59983,90.26419
"2114",78.502174,90.27753
"2115",78.416725,90.29086
"2116",78.34104,90.3042
"2117",78.28001,90.317535
"2118",78.23117,90.33087
"2119",78.18967,90.34421
"2120",78.153046,90.357544
"2121",78.12375,90.37088
"2122",78.099335,90.38422
"2123",78.09445,90.39755
"2124",78.167694,90.41089
"2125",78.41184,90.424225
"2126",78.90257,90.43756
"2127",79.67162,90.4509
"2128",80.66285,90.46423
"2129",81.74929,90.47757
"2130",82.75029,90.490906
"2131",83.51202,90.50424
"2132",83.949036,90.51758
"2133",84.06622,90.530914
"2134",83.9173,90.54425
"2135",83.58282,90.55759
"2136",83.14336,90.57092
"2137",82.66239,90.58426
"2138",82.19119,90.597595
"2139",81.761505,90.61093
"2140",81.39773,90.62427
"2141",81.10475,90.6376
"2142",80.8777,90.65094
"2143",80.69703,90.664276
"2144",80.5481,90.67761
"2145",80.40406,90.69095
"2146",80.25269,90.704285
"2147",80.09888,90.71762
"2148",79.94751,90.73096
"2149",79.815674,90.74429
"2150",79.710686,90.75763
"2151",79.635,90.770966
"2152",79.57885,90.7843
"2153",79.54223,90.79764
"2154",79.50317,90.810974
"2155",79.4519,90.82431
"2156",79.38598,90.83765
"2157",79.30053,90.85098
"2158",79.19554,90.86432
"2159",79.07347,90.877655
"2160",78.941635,90.89099
"2161",78.802475,90.90433
"2162",78.67063,90.91766
"2163",78.54612,90.931
"2164",78.43137,90.944336
"2165",78.328835,90.95767
"2166",78.238495,90.97101
"2167",78.15793,90.984344
"2168",78.09201,90.99768
"2169",78.03586,91.01102
"2170",77.994354,91.02435
"2171",77.960175,91.03769
"2172",77.93576,91.051025
"2173",77.91867,91.06436
"2174",77.90402,91.0777
"2175",77.89426,91.091034
"2176",77.90646,91.10437
"2177",77.99924,91.11771
"2178",78.26536,91.13104
"2179",78.78783,91.14438
"2180",79.586174,91.157715
"2181",80.604256,91.17105
"2182",81.69314,91.18439
"2183",82.67948,91.19772
"2184",83.407036,91.21106
"2185",83.80499,91.224396
"2186",83.888,91.23773
"2187",83.717094,91.25107
"2188",83.37774,91.264404
"2189",82.95293,91.27774
"2190",82.49882,91.29108
"2191",82.0618,91.30441
"2192",81.67605,91.31775
"2193",81.35134,91.331085
"2194",81.092545,91.34442
"2195",80.88747,91.35776
"2196",80.723885,91.37109
"2197",80.57252,91.38443
"2198",80.42359,91.397766
"2199",80.26978,91.4111
"2200",80.113525,91.42444
"2201",79.96704,91.437775
"2202",79.835205,91.45111
"2203",79.73022,91.46445
"2204",79.65209,91.47778
"2205",79.59106,91.49112
"2206",79.537346,91.504456
"2207",79.483635,91.51779
"2208",79.42016,91.53113
"2209",79.33715,91.544464
"2210",79.237045,91.5578
"2211",79.1223,91.57114
"2212",79.00023,91.58447
"2213",78.87572,91.59781
"2214",78.74876,91.611145
"2215",78.624245,91.62448
"2216",78.504616,91.63782
"2217",78.39231,91.65115
"2218",78.28977,91.66449
"2219",78.20187,91.677826
"2220",78.12619,91.69116
"2221",78.06271,91.7045
"2222",78.009,91.717834
"2223",77.96506,91.73117
"2224",77.9382,91.74451
"2225",77.91867,91.75784
"2226",77.90646,91.77118
"2227",77.89426,91.784515
"2228",77.88449,91.79785
"2229",77.8967,91.81119
"2230",77.99191,91.824524
"2231",78.25803,91.83786
"2232",78.765854,91.8512
"2233",79.53246,91.86453
"2234",80.49195,91.87787
"2235",81.51003,91.891205
"2236",82.41581,91.90454
"2237",83.06767,91.91788
"2238",83.404594,91.93121
"2239",83.43633,91.94455
"2240",83.22392,91.957886
"2241",82.85283,91.97122
"2242",82.406044,91.98456
"2243",81.9324,91.997894
"2244",81.47585,92.01123
"2245",81.06813,92.02457
"2246",80.723885,92.0379
"2247",80.445564,92.05124
"2248",80.22827,92.064575
"2249",80.05493,92.07791
"2250",79.91089,92.09125
"2251",79.78638,92.10458
"2252",79.67162,92.11792
"2253",79.57885,92.131256
"2254",79.520256,92.14459
"2255",79.49828,92.15793
"2256",79.50805,92.171265
"2257",79.53979,92.1846
"2258",79.571526,92.19794
"2259",79.586174,92.21127
"2260",79.569084,92.22461
"2261",79.51537,92.237946
"2262",79.42504,92.25128
"2263",79.30785,92.26462
"2264",79.17357,92.277954
"2265",79.02464,92.29129
"2266",78.870834,92.30463
"2267",78.7219,92.31796
"2268",78.58274,92.3313
"2269",78.45823,92.344635
"2270",78.35325,92.35797
"2271",78.26536,92.37131
"2272",78.19699,92.38464
"2273",78.1384,92.39798
"2274",78.08713,92.411316
"2275",78.0383,92.42465
"2276",78.00168,92.43799
"2277",77.97482,92.451324
"2278",77.996796,92.46466
"2279",78.133514,92.478
"2280",78.46311,92.49133
"2281",79.027084,92.50467
"2282",79.81079,92.518005
"2283",80.71656,92.53134
"2284",81.602806,92.54468
"2285",82.31083,92.558014
"2286",82.74052,92.57135
"2287",82.86992,92.58469
"2288",82.74784,92.59802
"2289",82.44999,92.61136
"2290",82.054474,92.624695
"2291",81.619896,92.63803
"2292",81.1902,92.65137
"2293",80.78981,92.6647
"2294",80.43336,92.67804
"2295",80.12573,92.691376
"2296",79.86206,92.70471
"2297",79.64233,92.71805
"2298",79.46166,92.731384
"2299",79.32006,92.74472
"2300",79.22484,92.75806
"2301",79.17845,92.77139
"2302",79.185776,92.78473
"2303",79.24437,92.798065
"2304",79.33471,92.8114
"2305",79.43969,92.82474
"2306",79.53246,92.83807
"2307",79.588615,92.85141
"2308",79.59594,92.864746
"2309",79.55688,92.87808
"2310",79.46899,92.89142
"2311",79.35424,92.904755
"2312",79.2224,92.91809
"2313",79.078354,92.93143
"2314",78.93187,92.94476
"2315",78.79027,92.9581
"2316",78.65354,92.971436
"2317",78.53147,92.98477
"2318",78.43137,92.99811
"2319",78.35081,93.011444
"2320",78.29221,93.02478
"2321",78.25071,93.03812
"2322",78.22385,93.05145
"2323",78.204315,93.06479
"2324",78.19455,93.078125
"2325",78.204315,93.09146
"2326",78.28733,93.1048
"2327",78.52903,93.11813
"2328",79.00023,93.13147
"2329",79.71801,93.144806
"2330",80.61402,93.15814
"2331",81.56374,93.17148
"2332",82.39872,93.184814
"2333",82.98955,93.19815
"2334",83.28008,93.21149
"2335",83.29229,93.22482
"2336",83.09453,93.23816
"2337",82.760056,93.251495
"2338",82.357216,93.26483
"2339",81.92996,93.27817
"2340",81.5198,93.291504
"2341",81.146255,93.30484
"2342",80.82643,93.31818
"2343",80.55787,93.33151
"2344",80.34058,93.34485
"2345",80.16235,93.358185
"2346",80.00366,93.37152
"2347",79.86206,93.38486
"2348",79.742424,93.39819
"2349",79.64965,93.41153
"2350",79.59838,93.424866
"2351",79.588615,93.4382
"2352",79.622795,93.45154
"2353",79.67895,93.464874
"2354",79.73266,93.47821
"2355",79.766846,93.49155
"2356",79.766846,93.50488
"2357",79.72045,93.51822
"2358",79.63256,93.531555
"2359",79.517815,93.54489
"2360",79.381096,93.55823
"2361",79.23216,93.57156
"2362",79.08324,93.5849
"2363",78.93675,93.598236
"2364",78.79515,93.61157
"2365",78.66819,93.62491
"2366",78.555885,93.638245
"2367",78.45823,93.65158
"2368",78.380104,93.66492
"2369",78.31663,93.67825
"2370",78.2678,93.69159
"2371",78.23117,93.704926
"2372",78.204315,93.71826
"2373",78.19455,93.7316
"2374",78.24094,93.744934
"2375",78.41184,93.75827
"2376",78.78294,93.77161
"2377",79.39086,93.78494
"2378",80.198975,93.79828
"2379",81.10475,93.811615
"2380",81.95682,93.82495
"2381",82.60868,93.83829
"2382",82.9749,93.85162
"2383",83.06279,93.86496
"2384",82.92363,93.878296
"2385",82.633095,93.89163
"2386",82.266884,93.90497
"2387",81.87869,93.918304
"2388",81.50271,93.93164
"2389",81.160904,93.94498
"2390",80.87282,93.95831
"2391",80.635994,93.97165
"2392",80.448006,93.984985
"2393",80.2942,93.99832
"2394",80.15015,94.01166
"2395",80.00366,94.024994
"2396",79.85718,94.03833
"2397",79.72289,94.05167
"2398",79.61303,94.065
"2399",79.54711,94.07834
"2400",79.52758,94.091675
"2401",79.537346,94.10501
"2402",79.55932,94.11835
"2403",79.57641,94.13168
"2404",79.571526,94.14502
"2405",79.53979,94.158356
"2406",79.48119,94.17169
"2407",79.398186,94.18503
"2408",79.29809,94.198364
"2409",79.185776,94.2117
"2410",79.061264,94.22504
"2411",78.93187,94.23837
"2412",78.80492,94.25171
"2413",78.68284,94.265045
"2414",78.56809,94.27838
"2415",78.470436,94.29172
"2416",78.399635,94.30505
"2417",78.34348,94.31839
"2418",78.29954,94.331726
"2419",78.27024,94.34506
"2420",78.24826,94.3584
"2421",78.23605,94.371735
"2422",78.22629,94.38507
"2423",78.221405,94.39841
"2424",78.21408,94.41174
"2425",78.21408,94.42508
"2426",78.25315,94.438416
"2427",78.4094,94.45175
"2428",78.77074,94.46509
"2429",79.38598,94.478424
"2430",80.21362,94.49176
"2431",81.143814,94.5051
"2432",82.020294,94.51843
"2433",82.69413,94.53177
"2434",83.070114,94.545105
"2435",83.15556,94.55844
"2436",83.00908,94.57178
"2437",82.71366,94.58511
"2438",82.340126,94.59845
"2439",81.94217,94.611786
"2440",81.5613,94.62512
"2441",81.22194,94.63846
"2442",80.9485,94.651794
"2443",80.73365,94.66513
"2444",80.570076,94.67847
"2445",80.44068,94.6918
"2446",80.323494,94.70514
"2447",80.201416,94.718475
"2448",80.07446,94.73181
"2449",79.94507,94.74515
"2450",79.82544,94.758484
"2451",79.727776,94.77182
"2452",79.65453,94.78516
"2453",79.60815,94.79849
"2454",79.58373,94.81183
"2455",79.57397,94.825165
"2456",79.56176,94.8385
"2457",79.534904,94.85184
"2458",79.48119,94.86517
"2459",79.398186,94.87851
"2460",79.290764,94.891846
"2461",79.166245,94.90518
"2462",79.03685,94.91852
"2463",78.907455,94.931854
"2464",78.785385,94.94519
"2465",78.67063,94.95853
"2466",78.56077,94.97186
"2467",78.46311,94.9852
"2468",78.38499,94.998535
"2469",78.31907,95.01187
"2470",78.27024,95.02521
"2471",78.23117,95.03854
"2472",78.20187,95.05188
"2473",78.17746,95.065216
"2474",78.16037,95.07855
"2475",78.15549,95.09189
"2476",78.153046,95.105225
"2477",78.150604,95.11856
"2478",78.14328,95.1319
"2479",78.133514,95.14523
"2480",78.12375,95.15857
"2481",78.12131,95.171906
"2482",78.12619,95.18524
"2483",78.1384,95.19858
"2484",78.14816,95.211914
"2485",78.153046,95.22525
"2486",78.14572,95.23859
"2487",78.135956,95.25192
"2488",78.12619,95.26526
"2489",78.14572,95.278595
"2490",78.2678,95.29193
"2491",78.58518,95.30527
"2492",79.166245,95.3186
"2493",80.0061,95.33194
"2494",81.01442,95.345276
"2495",82.037384,95.35861
"2496",82.9041,95.37195
"2497",83.48272,95.385284
"2498",83.74395,95.39862
"2499",83.72198,95.41196
"2500",83.492485,95.42529
"2501",83.13603,95.43863
"2502",82.71366,95.451965
"2503",82.28153,95.4653
"2504",81.87137,95.47864
"2505",81.514915,95.491974
"2506",81.22682,95.50531
"2507",81.01198,95.51865
"2508",80.86549,95.53198
"2509",80.765396,95.54532
"2510",80.69215,95.558655
"2511",80.62623,95.57199
"2512",80.56031,95.58533
"2513",80.48707,95.59866
"2514",80.42359,95.612
"2515",80.37476,95.625336
"2516",80.343025,95.63867
"2517",80.323494,95.65201
"2518",80.30396,95.665344
"2519",80.27955,95.67868
"2520",80.233154,95.69202
"2521",80.16235,95.70535
"2522",80.06958,95.71869
"2523",79.95972,95.732025
"2524",79.84253,95.74536
"2525",79.71801,95.7587
"2526",79.588615,95.77203
"2527",79.45922,95.78537
"2528",79.33471,95.798706
"2529",79.217514,95.81204
"2530",79.11009,95.82538
"2531",79.01488,95.838715
"2532",78.93675,95.85205
"2533",78.873276,95.86539
"2534",78.82201,95.87872
"2535",78.7805,95.89206
"2536",78.751205,95.905396
"2537",78.729225,95.91873
"2538",78.709694,95.93207
"2539",78.695045,95.945404
"2540",78.68528,95.95874
"2541",78.6804,95.97208
"2542",78.677956,95.98541
"2543",78.675514,95.99875
"2544",78.675514,96.012085
"2545",78.675514,96.02542
"2546",78.675514,96.03876
"2547",78.67063,96.05209
"2548",78.66819,96.06543
"2549",78.66575,96.078766
"2550",78.66819,96.0921
"2551",78.67063,96.10544
"2552",78.677956,96.118774
"2553",78.68528,96.13211
"2554",78.70237,96.14545
"2555",78.768295,96.15878
"2556",78.97337,96.17212
"2557",79.40063,96.185455
"2558",80.09155,96.19879
"2559",81.007095,96.21213
"2560",82.02762,96.225464
"2561",82.98711,96.2388
"2562",83.72442,96.25214
"2563",84.14679,96.26547
"2564",84.25178,96.27881
"2565",84.09796,96.292145
"2566",83.77081,96.30548
"2567",83.346,96.31882
"2568",82.88457,96.33215
"2569",82.43046,96.34549
"2570",82.01297,96.358826
"2571",81.64919,96.37216
"2572",81.35378,96.3855
"2573",81.13161,96.398834
"2574",80.972916,96.41217
"2575",80.86549,96.42551
"2576",80.78737,96.43884
"2577",80.723885,96.45218
"2578",80.65797,96.465515
"2579",80.59449,96.47885
"2580",80.53101,96.49219
"2581",80.4773,96.50552
"2582",80.428474,96.51886
"2583",80.38209,96.532196
"2584",80.33326,96.54553
"2585",80.28199,96.55887
"2586",80.21362,96.572205
"2587",80.128174,96.58554
"2588",80.028076,96.59888
"2589",79.90845,96.61221
"2590",79.77661,96.62555
"2591",79.63744,96.638885
"2592",79.49828,96.65222
"2593",79.361565,96.66556
"2594",79.234604,96.678894
"2595",79.11009,96.69223
"2596",78.99779,96.70557
"2597",78.89769,96.7189
"2598",78.81224,96.73224
"2599",78.73899,96.745575
"2600",78.677956,96.75891
"2601",78.63157,96.77225
"2602",78.59495,96.78558
"2603",78.56321,96.79892
"2604",78.536354,96.812256
"2605",78.51194,96.82559
"2606",78.48997,96.83893
"2607",78.470436,96.852264
"2608",78.45823,96.8656
"2609",78.450905,96.87894
"2610",78.45335,96.89227
"2611",78.46067,96.90561
"2612",78.470436,96.918945
"2613",78.4802,96.93228
"2614",78.48997,96.94562
"2615",78.49241,96.958954
"2616",78.50706,96.97229
"2617",78.59251,96.98563
"2618",78.839096,96.99896
"2619",79.32494,97.0123
"2620",80.07202,97.025635
"2621",81.01442,97.03897
"2622",82.020294,97.05231
"2623",82.916306,97.06564
"2624",83.560844,97.07898
"2625",83.888,97.092316
"2626",83.9173,97.10565
"2627",83.70977,97.11899
"2628",83.34844,97.132324
"2629",82.90166,97.14566
"2630",82.423134,97.159
"2631",81.951935,97.17233
"2632",81.51736,97.18567
"2633",81.13649,97.199005
"2634",80.82643,97.21234
"2635",80.584724,97.22568
"2636",80.411385,97.23901
"2637",80.28199,97.25235
"2638",80.18677,97.265686
"2639",80.113525,97.27902
"2640",80.0647,97.29236
"2641",80.03784,97.305695
"2642",80.03784,97.31903
"2643",80.05493,97.33237
"2644",80.079346,97.3457
"2645",80.09888,97.35904
"2646",80.096436,97.372375
"2647",80.06714,97.38571
"2648",80.008545,97.39905
"2649",79.920654,97.412384
"2650",79.80835,97.42572
"2651",79.676506,97.43906
"2652",79.53979,97.45239
"2653",79.395744,97.46573
"2654",79.259026,97.479065
"2655",79.12718,97.4924
"2656",79.00755,97.50574
"2657",78.90257,97.51907
"2658",78.8098,97.53241
"2659",78.729225,97.545746
"2660",78.66575,97.55908
"2661",78.61692,97.57242
"2662",78.58274,97.585754
"2663",78.55833,97.59909
"2664",78.54124,97.61243
"2665",78.53147,97.62576
"2666",78.521706,97.6391
"2667",78.5095,97.652435
"2668",78.49729,97.66577
"2669",78.487526,97.67911
"2670",78.4802,97.692444
"2671",78.47532,97.70578
"2672",78.47288,97.71912
"2673",78.47532,97.73245
"2674",78.47532,97.74579
"2675",78.467995,97.759125
"2676",78.46311,97.77246
"2677",78.487526,97.7858
"2678",78.61204,97.79913
"2679",78.922104,97.81247
"2680",79.48608,97.825806
"2681",80.291756,97.83914
"2682",81.24635,97.85248
"2683",82.20096,97.865814
"2684",82.98711,97.87915
"2685",83.49004,97.89249
"2686",83.67559,97.90582
"2687",83.58526,97.91916
"2688",83.29229,97.932495
"2689",82.8748,97.94583
"2690",82.388954,97.95917
"2691",81.87625,97.9725
"2692",81.36843,97.98584
"2693",80.88991,97.999176
"2694",80.46021,98.01251
"2695",80.08667,98.02585
"2696",79.783936,98.039185
"2697",79.554436,98.05252
"2698",79.40795,98.06586
"2699",79.344475,98.07919
"2700",79.361565,98.09253
"2701",79.45678,98.105865
"2702",79.61059,98.1192
"2703",79.7937,98.13254
"2704",79.971924,98.145874
"2705",80.11841,98.15921
"2706",80.21362,98.17255
"2707",80.24048,98.18588
"2708",80.2063,98.19922
"2709",80.12329,98.212555
"2710",80.00366,98.22589
"2711",79.84985,98.23923
"2712",79.676506,98.25256
"2713",79.4934,98.2659
"2714",79.310295,98.279236
"2715",79.132065,98.29257
"2716",78.96849,98.30591
"2717",78.82445,98.319244
"2718",78.70481,98.33258
"2719",78.6096,98.34592
"2720",78.538795,98.35925
"2721",78.485085,98.37259
"2722",78.45335,98.385925
"2723",78.433815,98.39926
"2724",78.42161,98.4126
"2725",78.41184,98.425934
"2726",78.40452,98.43927
"2727",78.40208,98.45261
"2728",78.399635,98.46594
"2729",78.40452,98.47928
"2730",78.41428,98.492615
"2731",78.43137,98.50595
"2732",78.45335,98.51929
"2733",78.47288,98.53262
"2734",78.48264,98.54596
"2735",78.48264,98.559296
"2736",78.49729,98.57263
"2737",78.57542,98.58597
"2738",78.80736,98.599304
"2739",79.27123,98.61264
"2740",79.98169,98.62598
"2741",80.86305,98.63931
"2742",81.78348,98.65265
"2743",82.579384,98.665985
"2744",83.11894,98.67932
"2745",83.346,98.69266
"2746",83.29473,98.70599
"2747",83.038376,98.71933
"2748",82.64774,98.732666
"2749",82.18143,98.746
"2750",81.68337,98.75934
"2751",81.180435,98.772675
"2752",80.68482,98.78601
"2753",80.21362,98.79935
"2754",79.77905,98.81268
"2755",79.3933,98.82602
"2756",79.06859,98.839355
"2757",78.82689,98.85269
"2758",78.692604,98.86603
"2759",78.68528,98.879364
"2760",78.81224,98.8927
"2761",79.05394,98.90604
"2762",79.37133,98.91937
"2763",79.70092,98.93271
"2764",79.98901,98.946045
"2765",80.20386,98.95938
"2766",80.31861,98.97272
"2767",80.343025,98.98605
"2768",80.291756,98.99939
"2769",80.18921,99.012726
"2770",80.042725,99.02606
"2771",79.87671,99.0394
"2772",79.69848,99.052734
"2773",79.5227,99.06607
"2774",79.3518,99.07941
"2775",79.19554,99.09274
"2776",79.0515,99.10608
"2777",78.91966,99.119415
"2778",78.802475,99.13275
"2779",78.69993,99.14609
"2780",78.61936,99.159424
"2781",78.553444,99.17276
"2782",78.504616,99.1861
"2783",78.46311,99.19943
"2784",78.42893,99.21277
"2785",78.39475,99.226105
"2786",78.363014,99.23944
"2787",78.3386,99.25278
"2788",78.32395,99.26611
"2789",78.32151,99.27945
"2790",78.33372,99.292786
"2791",78.35081,99.30612
"2792",78.37522,99.31946
"2793",78.41184,99.332794
"2794",78.4802,99.34613
"2795",78.6511,99.35947
"2796",78.99779,99.3728
"2797",79.57397,99.38614
"2798",80.35279,99.399475
"2799",81.24147,99.41281
"2800",82.09354,99.42615
"2801",82.76738,99.43948
"2802",83.16533,99.45282
"2803",83.27276,99.466156
"2804",83.1458,99.47949
"2805",82.85771,99.49283
"2806",82.46708,99.506165
"2807",82.020294,99.5195
"2808",81.54421,99.53284
"2809",81.06081,99.54617
"2810",80.57984,99.55951
"2811",80.10376,99.572845
"2812",79.656975,99.58618
"2813",79.24925,99.59952
"2814",78.90013,99.612854
"2815",78.63645,99.62619
"2816",78.485085,99.63953
"2817",78.467995,99.65286
"2818",78.58274,99.6662
"2819",78.819565,99.679535
"2820",79.13695,99.69287
"2821",79.47875,99.70621
"2822",79.79614,99.71954
"2823",80.04761,99.73288
"2824",80.2063,99.746216
"2825",80.27711,99.75955
"2826",80.272224,99.77289
"2827",80.21362,99.786224
"2828",80.12085,99.79956
"2829",80.008545,99.8129
"2830",79.886475,99.82623
"2831",79.75464,99.83957
"2832",79.61547,99.852905
"2833",79.47631,99.86624
"2834",79.33959,99.87958
"2835",79.21507,99.892914
"2836",79.10521,99.90625
"2837",79.00755,99.919586
"2838",78.924545,99.93292
"2839",78.856186,99.94626
"2840",78.80003,99.959595
"2841",78.75609,99.97293
"2842",78.7219,99.98627
"2843",78.695045,99.9996
"2844",78.677956,100.01294
"2845",78.66819,100.026276
"2846",78.677956,100.03961
"2847",78.746315,100.05295
"2848",78.94896,100.066284
"2849",79.3518,100.07962
"2850",79.971924,100.09296
"2851",80.75807,100.10629
"2852",81.600365,100.11963
"2853",82.354774,100.132965
"2854",82.88945,100.1463
"2855",83.15312,100.15964
"2856",83.158005,100.17297
"2857",82.97002,100.18631
"2858",82.650185,100.199646
"2859",82.24979,100.21298
"2860",81.80301,100.22632
"2861",81.33425,100.239655
"2862",80.85573,100.25299
"2863",80.37476,100.26633
"2864",79.906006,100.27966
"2865",79.466545,100.293
"2866",79.080795,100.306335
"2867",78.77562,100.31967
"2868",78.58274,100.33301
"2869",78.521706,100.346344
"2870",78.60471,100.35968
"2871",78.819565,100.37302
"2872",79.12962,100.38635
"2873",79.48119,100.39969
"2874",79.82544,100.413025
"2875",80.11841,100.42636
"2876",80.323494,100.4397
"2877",80.43824,100.45303
"2878",80.47242,100.46637
"2879",80.44068,100.479706
"2880",80.365,100.49304
"2881",80.255135,100.50638
"2882",80.12573,100.519714
"2883",79.97925,100.53305
"2884",79.82544,100.54639
"2885",79.66918,100.55972
"2886",79.51293,100.57306
"2887",79.36645,100.586395
"2888",79.237045,100.59973
"2889",79.12718,100.61307
"2890",79.03441,100.6264
"2891",78.96605,100.63974
"2892",78.91722,100.653076
"2893",78.887924,100.66641
"2894",78.870834,100.67975
"2895",78.86595,100.693085
"2896",78.86839,100.70642
"2897",78.86839,100.71976
"2898",78.873276,100.73309
"2899",78.90013,100.74643
"2900",79.027084,100.759766
"2901",79.35912,100.7731
"2902",79.96948,100.78644
"2903",80.85817,100.799774
"2904",81.94217,100.81311
"2905",83.055466,100.82645
"2906",84.01251,100.83978
"2907",84.66682,100.85312
"2908",84.964676,100.866455
"2909",84.95003,100.87979
"2910",84.69611,100.89313
"2911",84.28596,100.90646
"2912",83.78302,100.9198
"2913",83.23613,100.933136
"2914",82.669716,100.94647
"2915",82.10574,100.95981
"2916",81.55154,100.973145
"2917",81.024185,100.98648
"2918",80.5359,100.99982
"2919",80.09888,101.01315
"2920",79.727776,101.02649
"2921",79.43969,101.039825
"2922",79.24193,101.05316
"2923",79.15404,101.0665
"2924",79.17113,101.079834
"2925",79.28588,101.09317
"2926",79.4641,101.10651
"2927",79.676506,101.11984
"2928",79.87915,101.13318
"2929",80.04761,101.146515
"2930",80.15991,101.15985
"2931",80.22095,101.17319
"2932",80.22827,101.18652
"2933",80.19165,101.19986
"2934",80.12085,101.213196
"2935",80.02075,101.22653
"2936",79.90112,101.23987
"2937",79.764404,101.253204
"2938",79.62524,101.26654
"2939",79.48608,101.27988
"2940",79.34936,101.29321
"2941",79.21263,101.30655
"2942",79.080795,101.319885
"2943",78.95384,101.33322
"2944",78.83421,101.34656
"2945",78.729225,101.35989
"2946",78.63889,101.37323
"2947",78.56809,101.386566
"2948",78.51194,101.3999
"2949",78.47288,101.41324
"2950",78.44846,101.426575
"2951",78.45335,101.43991
"2952",78.54124,101.45325
"2953",78.80736,101.46658
"2954",79.32006,101.47992
"2955",80.10376,101.493256
"2956",81.0901,101.50659
"2957",82.142365,101.51993
"2958",83.07988,101.533264
"2959",83.76349,101.5466
"2960",84.122375,101.55994
"2961",84.17853,101.57327
"2962",83.99542,101.58661
"2963",83.65362,101.599945
"2964",83.21416,101.61328
"2965",82.72587,101.62662
"2966",82.213165,101.63995
"2967",81.70046,101.65329
"2968",81.19997,101.666626
"2969",80.73121,101.67996
"2970",80.30396,101.6933
"2971",79.93286,101.706635
"2972",79.63256,101.71997
"2973",79.41772,101.73331
"2974",79.30541,101.74664
"2975",79.30053,101.75998
"2976",79.40307,101.773315
"2977",79.588615,101.78665
"2978",79.82544,101.79999
"2979",80.0647,101.813324
"2980",80.272224,101.82666
"2981",80.413826,101.84
"2982",80.482185,101.85333
"2983",80.479744,101.86667
"2984",80.41627,101.880005
"2985",80.30152,101.89334
"2986",80.15503,101.90668
"2987",79.98657,101.92001
"2988",79.80347,101.93335
"2989",79.61547,101.946686
"2990",79.42748,101.96002
"2991",79.24925,101.97336
"2992",79.080795,101.986694
"2993",78.93431,102.00003
"2994",78.8098,102.01337
"2995",78.70725,102.0267
"2996",78.624245,102.04004
"2997",78.56077,102.053375
"2998",78.51194,102.06671
"2999",78.48264,102.08005
"3000",78.49973,102.09338
"3001",78.63157,102.10672
"3002",78.97337,102.120056
"3003",79.57885,102.13339
"3004",80.43336,102.14673
"3005",81.45144,102.160065
"3006",82.4744,102.1734
"3007",83.336235,102.18674
"3008",83.912415,102.20007
"3009",84.16876,102.21341
"3010",84.14191,102.226746
"3011",83.90265,102.24008
"3012",83.51934,102.25342
"3013",83.055466,102.266754
"3014",82.55497,102.28009
"3015",82.04959,102.29343
"3016",81.56374,102.30676
"3017",81.11452,102.3201
"3018",80.71656,102.333435
"3019",80.377205,102.34677
"3020",80.096436,102.36011
"3021",79.87915,102.37344
"3022",79.725334,102.38678
"3023",79.64477,102.400116
"3024",79.635,102.41345
"3025",79.69604,102.42679
"3026",79.80591,102.440125
"3027",79.940186,102.45346
"3028",80.07202,102.4668
"3029",80.16968,102.48013
"3030",80.22095,102.49347
"3031",80.216064,102.506805
"3032",80.15747,102.52014
"3033",80.05493,102.53348
"3034",79.920654,102.546814
"3035",79.75952,102.56015
"3036",79.588615,102.57349
"3037",79.412834,102.58682
"3038",79.237045,102.60016
"3039",79.06859,102.613495
"3040",78.91234,102.62683
"3041",78.77318,102.64017
"3042",78.658424,102.6535
"3043",78.56565,102.66684
"3044",78.49485,102.680176
"3045",78.44358,102.69351
"3046",78.40208,102.70685
"3047",78.37522,102.720184
"3048",78.37522,102.73352
"3049",78.46067,102.74686
"3050",78.72434,102.76019
"3051",79.24925,102.77353
"3052",80.04028,102.786865
"3053",81.04372,102.8002
"3054",82.11551,102.81354
"3055",83.08476,102.82687
"3056",83.80255,102.84021
"3057",84.2005,102.853546
"3058",84.29328,102.86688
"3059",84.14435,102.88022
"3060",83.826965,102.893555
"3061",83.40948,102.90689
"3062",82.9456,102.92023
"3063",82.46464,102.93356
"3064",82.00076,102.9469
"3065",81.58083,102.960236
"3066",81.2195,102.97357
"3067",80.92409,102.98691
"3068",80.69703,103.000244
"3069",80.52369,103.01358
"3070",80.39185,103.02692
"3071",80.291756,103.04025
"3072",80.22095,103.05359
"3073",80.17456,103.066925
"3074",80.15503,103.08026
"3075",80.15015,103.0936
"3076",80.15015,103.10693
"3077",80.14038,103.12027
"3078",80.113525,103.133606
"3079",80.062256,103.14694
"3080",79.98169,103.16028
"3081",79.871826,103.173615
"3082",79.742424,103.18695
"3083",79.59594,103.20029
"3084",79.44213,103.21362
"3085",79.290764,103.22696
"3086",79.14671,103.240295
"3087",79.009995,103.25363
"3088",78.8806,103.26697
"3089",78.76097,103.280304
"3090",78.65354,103.29364
"3091",78.55833,103.30698
"3092",78.48264,103.32031
"3093",78.41917,103.33365
"3094",78.363014,103.346985
"3095",78.311745,103.36032
"3096",78.28977,103.37366
"3097",78.35569,103.38699
"3098",78.59983,103.40033
"3099",79.09056,103.413666
"3100",79.84009,103.427
"3101",80.78493,103.44034
"3102",81.78592,103.453674
"3103",82.67948,103.46701
"3104",83.32891,103.48035
"3105",83.68047,103.49368
"3106",83.74151,103.50702
"3107",83.57549,103.520355
"3108",83.25811,103.53369
"3109",82.86015,103.54703
"3110",82.43778,103.56036
"3111",82.02762,103.5737
"3112",81.65896,103.587036
"3113",81.3489,103.60037
"3114",81.09987,103.61371
"3115",80.907,103.627045
"3116",80.75075,103.64038
"3117",80.621346,103.65372
"3118",80.499275,103.66705
"3119",80.37965,103.68039
"3120",80.26734,103.693726
"3121",80.17212,103.70706
"3122",80.093994,103.7204
"3123",80.03296,103.733734
"3124",79.98413,103.74707
"3125",79.94507,103.76041
"3126",79.903564,103.77374
"3127",79.84741,103.78708
"3128",79.77173,103.800415
"3129",79.674065,103.81375
"3130",79.551994,103.82709
"3131",79.412834,103.84042
"3132",79.26635,103.85376
"3133",79.11742,103.867096
"3134",78.97093,103.88043
"3135",78.82933,103.89377
"3136",78.69749,103.907104
"3137",78.5803,103.92044
"3138",78.47776,103.93378
"3139",78.397194,103.94711
"3140",78.33372,103.96045
"3141",78.28489,103.973785
"3142",78.238495,103.98712
"3143",78.20187,104.00046
"3144",78.16525,104.013794
"3145",78.15549,104.02713
"3146",78.24338,104.04047
"3147",78.504616,104.0538
"3148",79.00511,104.06714
"3149",79.75708,104.080475
"3150",80.69947,104.09381
"3151",81.69314,104.10715
"3152",82.581825,104.12048
"3153",83.228806,104.13382
"3154",83.57549,104.147156
"3155",83.63897,104.16049
"3156",83.48272,104.17383
"3157",83.18974,104.187164
"3158",82.82597,104.2005
"3159",82.45243,104.21384
"3160",82.09842,104.22717
"3161",81.78836,104.24051
"3162",81.53689,104.253845
"3163",81.341576,104.26718
"3164",81.19508,104.28052
"3165",81.07301,104.29385
"3166",80.955826,104.30719
"3167",80.81911,104.320526
"3168",80.66773,104.33386
"3169",80.50904,104.3472
"3170",80.360115,104.360535
"3171",80.233154,104.37387
"3172",80.13306,104.38721
"3173",80.062256,104.40054
"3174",79.99878,104.41388
"3175",79.937744,104.427216
"3176",79.871826,104.44055
"3177",79.7937,104.45389
"3178",79.70092,104.467224
"3179",79.588615,104.48056
"3180",79.45922,104.4939
"3181",79.31762,104.50723
"3182",79.168686,104.52057
"3183",79.012436,104.533905
"3184",78.86351,104.54724
"3185",78.71946,104.56058
"3186",78.58762,104.57391
"3187",78.467995,104.58725
"3188",78.365456,104.600586
"3189",78.27268,104.61392
"3190",78.20187,104.62726
"3191",78.14816,104.640594
"3192",78.1091,104.65393
"3193",78.08713,104.66727
"3194",78.0798,104.6806
"3195",78.07736,104.69394
"3196",78.07004,104.707275
"3197",78.06027,104.72061
"3198",78.048065,104.73395
"3199",78.07248,104.747284
"3200",78.204315,104.76062
"3201",78.536354,104.77396
"3202",79.11986,104.78729
"3203",79.94263,104.80063
"3204",80.921646,104.813965
"3205",81.91287,104.8273
"3206",82.757614,104.84064
"3207",83.33868,104.85397
"3208",83.62432,104.86731
"3209",83.63653,104.880646
"3210",83.45098,104.89398
"3211",83.13847,104.90732
"3212",82.408485,104.93399
"3213",82.08621,104.94733
"3214",81.82498,104.96066
"3215",81.636986,104.974
"3216",81.50515,104.987335
"3217",81.40749,105.00067
"3218",81.31228,105.01401
"3219",81.19264,105.02734
"3220",81.03639,105.04068
"3221",80.84596,105.054016
"3222",80.6482,105.06735
"3223",80.45777,105.08069
"3224",80.29664,105.094025
"3225",80.17456,105.10736
"3226",80.079346,105.1207
"3227",80.00366,105.13403
"3228",79.937744,105.14737
"3229",79.869385,105.160706
"3230",79.78882,105.17404
"3231",79.68871,105.18738
"3232",79.569084,105.200714
"3233",79.43969,105.21405
"3234",79.29809,105.22739
"3235",79.14671,105.24072
"3236",78.995346,105.25406
"3237",78.84642,105.267395
"3238",78.69993,105.28073
"3239",78.555885,105.29407
"3240",78.42649,105.3074
"3241",78.311745,105.32074
"3242",78.21408,105.334076
"3243",78.12863,105.34741
"3244",78.06271,105.36075
"3245",78.013885,105.374084
"3246",77.977264,105.38742
"3247",77.945526,105.40076
"3248",77.925995,105.41409
"3249",77.908905,105.42743
"3250",77.90158,105.440765
"3251",77.90158,105.4541
"3252",77.908905,105.46744
"3253",77.91867,105.480774
"3254",77.92355,105.49411
"3255",77.91867,105.50745
"3256",77.90402,105.52078
"3257",77.90158,105.53412
"3258",77.960175,105.547455
"3259",78.167694,105.56079
"3260",78.61204,105.57413
"3261",79.31518,105.58746
"3262",80.24048,105.6008
"3263",81.270775,105.614136
"3264",82.24979,105.62747
"3265",83.021286,105.64081
"3266",83.49737,105.654144
"3267",83.67559,105.66748
"3268",83.60235,105.68082
"3269",83.353325,105.69415
"3270",83.01152,105.70749
"3271",82.64286,105.720825
"3272",82.28886,105.73416
"3273",81.988556,105.7475
"3274",81.75662,105.76083
"3275",81.602806,105.77417
"3276",81.50271,105.787506
"3277",81.427025,105.80084
"3278",81.339134,105.81418
"3279",81.21217,105.827515
"3280",81.03883,105.84085
"3281",80.83864,105.85419
"3282",80.635994,105.86752
"3283",80.45045,105.88086
"3284",80.2942,105.894196
"3285",80.17212,105.90753
"3286",80.079346,105.92087
"3287",80.00366,105.934204
"3288",79.9353,105.94754
"3289",79.86206,105.96088
"3290",79.76929,105.97421
"3291",79.65453,105.98755
"3292",79.51537,106.000885
"3293",79.361565,106.01422
"3294",79.19798,106.02756
"3295",79.03685,106.04089
"3296",78.87572,106.05423
"3297",78.7219,106.067566
"3298",78.57786,106.0809
"3299",78.44358,106.09424
"3300",78.32151,106.107574
"3301",78.21408,106.12091
"3302",78.12375,106.13425
"3303",78.05051,106.14758
"3304",77.98947,106.16092
"3305",77.94064,106.174255
"3306",77.8967,106.18759
"3307",77.86252,106.20093
"3308",77.83322,106.214264
"3309",77.80881,106.2276
"3310",77.79172,106.24094
"3311",77.77951,106.25427
"3312",77.7673,106.26761
"3313",77.76242,106.280945
"3314",77.75754,106.29428
"3315",77.752655,106.30762
"3316",77.747765,106.32095
"3317",77.738,106.33429
"3318",77.72579,106.347626
"3319",77.72823,106.36096
"3320",77.79904,106.3743
"3321",78.02121,106.387634
"3322",78.47288,106.40097
"3323",79.183334,106.41431
"3324",80.10376,106.42764
"3325",81.12428,106.44098
"3326",82.07889,106.454315
"3327",82.82597,106.46765
"3328",83.282524,106.48099
"3329",83.441216,106.49432
"3330",83.353325,106.50766
"3331",83.09453,106.520996
"3332",82.7454,106.53433
"3333",82.371864,106.54767
"3334",82.020294,106.561005
"3335",81.722435,106.57434
"3336",81.49294,106.58768
"3337",81.33181,106.60101
"3338",81.21706,106.61435
"3339",81.12428,106.627686
"3340",81.024185,106.64102
"3341",80.89967,106.65436
"3342",80.73853,106.667694
"3343",80.56275,106.68103
"3344",80.38209,106.69437
"3345",80.218506,106.7077
"3346",80.08179,106.72104
"3347",79.974365,106.734375
"3348",79.888916,106.74771
"3349",79.815674,106.76105
"3350",79.74731,106.77438
"3351",79.66918,106.78772
"3352",79.57397,106.801056
"3353",79.45678,106.81439
"3354",79.31762,106.82773
"3355",79.1638,106.841064
"3356",79.00267,106.8544
"3357",78.84154,106.86774
"3358",78.68528,106.88107
"3359",78.536354,106.89441
"3360",78.397194,106.907745
"3361",78.27268,106.92108
"3362",78.15549,106.93442
"3363",78.05051,106.947754
"3364",77.960175,106.96109
"3365",77.88937,106.97443
"3366",77.83322,106.98776
"3367",77.79416,107.0011
"3368",77.7673,107.014435
"3369",77.7551,107.02777
"3370",77.747765,107.04111
"3371",77.74532,107.05444
"3372",77.74532,107.06778
"3373",77.752655,107.081116
"3374",77.76486,107.09445
"3375",77.77707,107.10779
"3376",77.78195,107.121124
"3377",77.77951,107.13446
"3378",77.77219,107.1478
"3379",77.752655,107.16113
"3380",77.738,107.17447
"3381",77.76242,107.187805
"3382",77.89426,107.20114
"3383",78.21164,107.21448
"3384",78.765854,107.22781
"3385",79.54955,107.24115
"3386",80.482185,107.254486
"3387",81.42214,107.26782
"3388",82.213165,107.28116
"3389",82.74052,107.294495
"3390",82.967575,107.30783
"3391",82.92851,107.32117
"3392",82.69413,107.3345
"3393",82.34501,107.34784
"3394",81.95438,107.361176
"3395",81.57595,107.37451
"3396",81.23659,107.38785
"3397",80.95094,107.401184
"3398",80.719,107.41452
"3399",80.533455,107.42786
"3400",80.37965,107.44119
"3401",80.24536,107.45453
"3402",80.12329,107.467865
"3403",80.008545,107.4812
"3404",79.91577,107.49454
"3405",79.852295,107.50787
"3406",79.82788,107.52121
"3407",79.83276,107.534546
"3408",79.85718,107.54788
"3409",79.871826,107.56122
"3410",79.86694,107.574554
"3411",79.83032,107.58789
"3412",79.75708,107.60123
"3413",79.65453,107.61456
"3414",79.52758,107.6279
"3415",79.38598,107.641235
"3416",79.22972,107.65457
"3417",79.07103,107.66791
"3418",78.9099,107.681244
"3419",78.751205,107.69458
"3420",78.607155,107.70792
"3421",78.47776,107.72125
"3422",78.3679,107.73459
"3423",78.28245,107.747925
"3424",78.22385,107.76126
"3425",78.184784,107.7746
"3426",78.16281,107.78793
"3427",78.15549,107.80127
"3428",78.150604,107.814606
"3429",78.14816,107.82794
"3430",78.14328,107.84128
"3431",78.12863,107.854614
"3432",78.10666,107.86795
"3433",78.08469,107.88129
"3434",78.07004,107.89462
"3435",78.116425,107.90796
"3436",78.294655,107.921295
"3437",78.675514,107.93463
"3438",79.281,107.94797
"3439",80.06958,107.9613
"3440",80.93385,107.97464
"3441",81.72976,107.987976
"3442",82.32792,108.00131
"3443",82.65507,108.01465
"3444",82.720985,108.027985
"3445",82.5745,108.04132
"3446",82.28886,108.05466
"3447",81.92996,108.06799
"3448",81.55154,108.08133
"3449",81.1902,108.094666
"3450",80.867935,108.108
"3451",80.59693,108.12134
"3452",80.37476,108.134674
"3453",80.19409,108.14801
"3454",80.0354,108.16135
"3455",79.90112,108.17468
"3456",79.78638,108.18802
"3457",79.708244,108.201355
"3458",79.67162,108.21469
"3459",79.68627,108.22803
"3460",79.73754,108.24136
"3461",79.80591,108.2547
"3462",79.87427,108.268036
"3463",79.91577,108.28137
"3464",79.920654,108.29471
"3465",79.88403,108.308044
"3466",79.81079,108.32138
"3467",79.70336,108.33472
"3468",79.57397,108.34805
"3469",79.42748,108.36139
"3470",79.273674,108.374725
"3471",79.11742,108.38806
"3472",78.96605,108.4014
"3473",78.82933,108.414734
"3474",78.71458,108.42807
"3475",78.626686,108.44141
"3476",78.55833,108.45474
"3477",78.5095,108.46808
"3478",78.47776,108.481415
"3479",78.46067,108.49475
"3480",78.45335,108.50809
"3481",78.44602,108.52142
"3482",78.4387,108.53476
"3483",78.42649,108.548096
"3484",78.416725,108.56143
"3485",78.4387,108.57477
"3486",78.56565,108.588104
"3487",78.870834,108.60144
"3488",79.398186,108.61478
"3489",80.13306,108.62811
"3490",80.99977,108.64145
"3491",81.85672,108.654785
"3492",82.55985,108.66812
"3493",83.01152,108.68146
"3494",83.18486,108.69479
"3495",83.1165,108.70813
"3496",82.87724,108.721466
"3497",82.547646,108.7348
"3498",82.18387,108.74814
"3499",81.832306,108.761475
"3500",81.51736,108.77481
"3501",81.248795,108.78815
"3502",81.02907,108.80148
"3503",80.848404,108.81482
"3504",80.68726,108.828156
"3505",80.533455,108.84149
"3506",80.38209,108.85483
"3507",80.23071,108.868164
"3508",80.08911,108.8815
"3509",79.974365,108.89484
"3510",79.89624,108.90817
"3511",79.85718,108.92151
"3512",79.84985,108.934845
"3513",79.86206,108.94818
"3514",79.87427,108.96152
"3515",79.869385,108.97485
"3516",79.835205,108.98819
"3517",79.764404,109.001526
"3518",79.65942,109.01486
"3519",79.52758,109.0282
"3520",79.378654,109.041534
"3521",79.219955,109.05487
"3522",79.06615,109.06821
"3523",78.91966,109.08154
"3524",78.78783,109.09488
"3525",78.67063,109.108215
"3526",78.56809,109.12155
"3527",78.4802,109.13489
"3528",78.41184,109.148224
"3529",78.35325,109.16156
"3530",78.3093,109.1749
"3531",78.28001,109.18823
"3532",78.25559,109.20157
"3533",78.23117,109.214905
"3534",78.21164,109.22824
"3535",78.18967,109.24158
"3536",78.184784,109.25491
"3537",78.24094,109.26825
"3538",78.4387,109.281586
"3539",78.84642,109.29492
"3540",79.483635,109.30826
"3541",80.29908,109.321594
"3542",81.17799,109.33493
"3543",81.971466,109.34827
"3544",82.55497,109.3616
"3545",82.86748,109.37494
"3546",82.92363,109.388275
"3547",82.78447,109.40161
"3548",82.52079,109.41495
"3549",82.19852,109.42828
"3550",81.86893,109.44162
"3551",81.56374,109.454956
"3552",81.307396,109.46829
"3553",81.10719,109.48163
"3554",80.96071,109.494965
"3555",80.84596,109.5083
"3556",80.74586,109.52164
"3557",80.63111,109.53497
"3558",80.48951,109.54831
"3559",80.31617,109.561646
"3560",80.130615,109.57498
"3561",79.95239,109.58832
"3562",79.80591,109.601654
"3563",79.69604,109.61499
"3564",79.62768,109.62833
"3565",79.59106,109.64166
"3566",79.56664,109.655
"3567",79.54467,109.668335
"3568",79.51293,109.68167
"3569",79.46166,109.69501
"3570",79.38354,109.70834
"3571",79.281,109.72168
"3572",79.15892,109.735016
"3573",79.027084,109.74835
"3574",78.89281,109.76169
"3575",78.765854,109.775024
"3576",78.64622,109.78836
"3577",78.536354,109.8017
"3578",78.43626,109.81503
"3579",78.345924,109.82837
"3580",78.27024,109.841705
"3581",78.21164,109.85504
"3582",78.16525,109.86838
"3583",78.135956,109.881714
"3584",78.118866,109.89505
"3585",78.1091,109.90839
"3586",78.10422,109.92172
"3587",78.101776,109.93506
"3588",78.101776,109.948395
"3589",78.10666,109.96173
"3590",78.10666,109.97507
"3591",78.101776,109.9884
"3592",78.09201,110.00174
"3593",78.07492,110.015076
"3594",78.05051,110.02841
"3595",78.01633,110.04175
"3596",77.99191,110.055084
"3597",77.99924,110.06842
"3598",78.09201,110.08176
"3599",78.35569,110.09509
"3600",78.84886,110.10843
"3601",79.56664,110.121765
"3602",80.4358,110.1351
"3603",81.324486,110.14844
"3604",82.08865,110.16177
"3605",82.61356,110.17511
"3606",82.85771,110.188446
"3607",82.86748,110.20178
"3608",82.70878,110.21512
"3609",82.44999,110.228455
"3610",82.15213,110.24179
"3611",81.85428,110.25513
"3612",81.583275,110.26846
"3613",81.35134,110.2818
"3614",81.17311,110.295135
"3615",81.04372,110.30847
"3616",80.9485,110.32181
"3617",80.867935,110.335144
"3618",80.77516,110.34848
"3619",80.65797,110.36182
"3620",80.51392,110.37515
"3621",80.35035,110.38849
"3622",80.19165,110.401825
"3623",80.04761,110.41516
"3624",79.937744,110.4285
"3625",79.85962,110.44183
"3626",79.81079,110.45517
"3627",79.781494,110.468506
"3628",79.75708,110.48184
"3629",79.72289,110.49518
"3630",79.67162,110.508514
"3631",79.605705,110.52185
"3632",79.5227,110.53519
"3633",79.42016,110.54852
"3634",79.30541,110.56186
"3635",79.18822,110.575195
"3636",79.06615,110.58853
"3637",78.94896,110.60187
"3638",78.84642,110.615204
"3639",78.75853,110.62854
"3640",78.6804,110.64188
"3641",78.61936,110.65521
"3642",78.57053,110.66855
"3643",78.53147,110.681885
"3644",78.49973,110.69522
"3645",78.47776,110.70856
"3646",78.46311,110.72189
"3647",78.44846,110.73523
"3648",78.43626,110.748566
"3649",78.42649,110.7619
"3650",78.416725,110.77524
"3651",78.41184,110.788574
"3652",78.40696,110.80191
"3653",78.399635,110.81525
"3654",78.39231,110.82858
"3655",78.380104,110.84192
"3656",78.365456,110.855255
"3657",78.348366,110.86859
"3658",78.33372,110.88193
"3659",78.32639,110.89526
"3660",78.31907,110.9086
"3661",78.31907,110.921936
"3662",78.32395,110.93527
"3663",78.32639,110.94861
"3664",78.328835,110.961945
"3665",78.331276,110.97528
"3666",78.37034,110.98862
"3667",78.5095,111.00195
"3668",78.836655,111.01529
"3669",79.3933,111.028625
"3670",80.16724,111.04196
"3671",81.06813,111.0553
"3672",81.95682,111.068634
"3673",82.69169,111.08197
"3674",83.177536,111.09531
"3675",83.389946,111.10864
"3676",83.36553,111.12198
"3677",83.17265,111.135315
"3678",82.88457,111.14865
"3679",82.55985,111.16199
"3680",82.24002,111.17532
"3681",81.95926,111.18866
"3682",81.722435,111.201996
"3683",81.53933,111.21533
"3684",81.40749,111.22867
"3685",81.31472,111.242004
"3686",81.23659,111.25534
"3687",81.15602,111.26868
"3688",81.06081,111.28201
"3689",80.9485,111.29535
"3690",80.82887,111.308685
"3691",80.719,111.32202
"3692",80.63355,111.33536
"3693",80.57496,111.348694
"3694",80.53834,111.36203
"3695",80.52369,111.37537
"3696",80.51148,111.3887
"3697",80.49195,111.40204
"3698",80.45289,111.415375
"3699",80.38941,111.42871
"3700",80.30396,111.44205
"3701",80.198975,111.45538
"3702",80.08423,111.46872
"3703",79.96216,111.482056
"3704",79.835205,111.49539
"3705",79.7058,111.50873
"3706",79.58129,111.522064
"3707",79.46899,111.5354
"3708",79.37621,111.54874
"3709",79.30297,111.56207
"3710",79.24925,111.57541
"3711",79.21507,111.588745
"3712",79.1931,111.60208
"3713",79.17845,111.61542
"3714",79.17113,111.62875
"3715",79.166245,111.64209
"3716",79.168686,111.655426
"3717",79.168686,111.66876
"3718",79.17845,111.6821
"3719",79.19066,111.695435
"3720",79.202866,111.70877
"3721",79.21263,111.72211
"3722",79.219955,111.73544
"3723",79.2224,111.74878
"3724",79.219955,111.762115
"3725",79.21263,111.77545
"3726",79.202866,111.78879
"3727",79.19066,111.802124
"3728",79.17601,111.81546
"3729",79.15648,111.8288
"3730",79.13695,111.84213
"3731",79.114975,111.85547
"3732",79.09056,111.868805
"3733",79.08812,111.88214
"3734",79.16136,111.89548
"3735",79.3933,111.90881
"3736",79.85474,111.92215
"3737",80.550545,111.935486
"3738",81.41726,111.94882
"3739",82.32792,111.96216
"3740",83.12627,111.975494
"3741",83.685356,111.98883
"3742",83.95636,112.00217
"3743",83.9588,112.0155
"3744",83.76105,112.02884
"3745",83.43145,112.042175
"3746",83.0457,112.05551
"3747",82.65507,112.06885
"3748",82.29862,112.082184
"3749",82.00076,112.09552
"3750",81.77615,112.10886
"3751",81.62478,112.12219
"3752",81.53689,112.13553
"3753",81.48562,112.148865
"3754",81.44167,112.1622
"3755",81.3782,112.17554
"3756",81.27566,112.18887
"3757",81.13893,112.20221
"3758",80.9778,112.215546
"3759",80.82155,112.22888
"3760",80.67506,112.24222
"3761",80.552986,112.255554
"3762",80.448006,112.26889
"3763",80.365,112.28223
"3764",80.291756,112.29556
"3765",80.22583,112.3089
"3766",80.16235,112.322235
"3767",80.09155,112.33557
"3768",80.008545,112.34891
"3769",79.906006,112.36224
"3770",79.78638,112.37558
"3771",79.656975,112.388916
"3772",79.517815,112.40225
"3773",79.38354,112.41559
"3774",79.25414,112.428925
"3775",79.14183,112.44226
"3776",79.044174,112.4556
"3777",78.96361,112.46893
"3778",78.89769,112.48227
"3779",78.84642,112.495605
"3780",78.79759,112.50894
"3781",78.75609,112.52228
"3782",78.71702,112.535614
"3783",78.6804,112.54895
"3784",78.64866,112.56229
"3785",78.6218,112.57562
"3786",78.60471,112.58896
"3787",78.590065,112.602295
"3788",78.57786,112.61563
"3789",78.56565,112.62897
"3790",78.555885,112.6423
"3791",78.54856,112.65564
"3792",78.54124,112.668976
"3793",78.536354,112.68231
"3794",78.53391,112.69565
"3795",78.52903,112.708984
"3796",78.519264,112.72232
"3797",78.5095,112.73566
"3798",78.5095,112.74899
"3799",78.553444,112.76233
"3800",78.712135,112.775665
"3801",79.07591,112.789
"3802",79.68383,112.80234
"3803",80.51392,112.815674
"3804",81.46853,112.82901
"3805",82.39628,112.84235
"3806",83.14336,112.85568
"3807",83.60967,112.86902
"3808",83.775696,112.882355
"3809",83.6878,112.89569
"3810",83.41192,112.90903
"3811",83.02861,112.92236
"3812",82.6038,112.9357
"3813",82.18875,112.949036
"3814",81.81766,112.96237
"3815",81.512474,112.97571
"3816",81.29519,112.989044
"3817",81.15358,113.00238
"3818",81.07301,113.01572
"3819",81.024185,113.02905
"3820",80.98268,113.04239
"3821",80.919205,113.055725
"3822",80.82887,113.06906
"3823",80.719,113.0824
"3824",80.59937,113.09573
"3825",80.482185,113.10907
"3826",80.377205,113.122406
"3827",80.28687,113.13574
"3828",80.21118,113.14908
"3829",80.14038,113.162415
"3830",80.06714,113.17575
"3831",79.98901,113.18909
"3832",79.90112,113.20242
"3833",79.79614,113.21576
"3834",79.68139,113.229095
"3835",79.554436,113.24243
"3836",79.42748,113.25577
"3837",79.29809,113.269104
"3838",79.17601,113.28244
"3839",79.063705,113.29578
"3840",78.958725,113.30911
"3841",78.86107,113.32245
"3842",78.77562,113.335785
"3843",78.70725,113.34912
"3844",78.65354,113.36246
"3845",78.61204,113.37579
"3846",78.58274,113.38913
"3847",78.55833,113.402466
"3848",78.538795,113.4158
"3849",78.52659,113.42914
"3850",78.519264,113.442474
"3851",78.51438,113.45581
"3852",78.51194,113.46915
"3853",78.50706,113.48248
"3854",78.502174,113.49582
"3855",78.49973,113.509155
"3856",78.49973,113.52249
"3857",78.504616,113.53583
"3858",78.504616,113.549164
"3859",78.49973,113.5625
"3860",78.487526,113.575836
"3861",78.47288,113.58917
"3862",78.46555,113.60251
"3863",78.502174,113.615845
"3864",78.658424,113.62918
"3865",79.01732,113.64252
"3866",79.61791,113.65585
"3867",80.42359,113.66919
"3868",81.3489,113.682526
"3869",82.24002,113.69586
"3870",82.948044,113.7092
"3871",83.38018,113.722534
"3872",83.526665,113.73587
"3873",83.42901,113.74921
"3874",83.15312,113.76254
"3875",82.76738,113.77588
"3876",82.32792,113.789215
"3877",81.88602,113.80255
"3878",81.47341,113.81589
"3879",81.11452,113.82922
"3880",80.82155,113.84256
"3881",80.59205,113.855896
"3882",80.41871,113.86923
"3883",80.2942,113.88257
"3884",80.2063,113.895905
"3885",80.15015,113.90924
"3886",80.128174,113.92258
"3887",80.1355,113.93591
"3888",80.16724,113.94925
"3889",80.21362,113.962585
"3890",80.257576,113.97592
"3891",80.28687,113.98926
"3892",80.289314,114.002594
"3893",80.257576,114.01593
"3894",80.19165,114.02927
"3895",80.093994,114.0426
"3896",79.9646,114.05594
"3897",79.82056,114.069275
"3898",79.66674,114.08261
"3899",79.51049,114.09595
"3900",79.361565,114.10928
"3901",79.2224,114.12262
"3902",79.09544,114.135956
"3903",78.98314,114.14929
"3904",78.887924,114.16263
"3905",78.81712,114.175964
"3906",78.76341,114.1893
"3907",78.72678,114.20264
"3908",78.69749,114.21597
"3909",78.677956,114.22931
"3910",78.658424,114.242645
"3911",78.63889,114.25598
"3912",78.624245,114.26932
"3913",78.61448,114.28265
"3914",78.60471,114.29599
"3915",78.60227,114.309326
"3916",78.607155,114.32266
"3917",78.61448,114.336
"3918",78.626686,114.349335
"3919",78.63645,114.36267
"3920",78.643776,114.37601
"3921",78.643776,114.38934
"3922",78.63401,114.40268
"3923",78.624245,114.416016
"3924",78.64866,114.42935
"3925",78.77562,114.44269
"3926",79.080795,114.456024
"3927",79.605705,114.46936
"3928",80.33326,114.4827
"3929",81.17799,114.49603
"3930",82.00076,114.50937
"3931",82.65995,114.522705
"3932",83.06523,114.53604
"3933",83.19707,114.54938
"3934",83.089645,114.56271
"3935",82.811325,114.57605
"3936",82.423134,114.589386
"3937",81.97879,114.60272
"3938",81.51736,114.61606
"3939",81.07301,114.629395
"3940",80.65797,114.64273
"3941",80.2942,114.65607
"3942",79.98901,114.6694
"3943",79.7522,114.68274
"3944",79.59106,114.696075
"3945",79.51293,114.70941
"3946",79.517815,114.72275
"3947",79.60082,114.736084
"3948",79.74731,114.74942
"3949",79.92554,114.76276
"3950",80.10376,114.77609
"3951",80.255135,114.78943
"3952",80.35279,114.802765
"3953",80.38209,114.8161
"3954",80.35035,114.82944
"3955",80.2649,114.84277
"3956",80.130615,114.85611
"3957",79.96948,114.869446
"3958",79.78882,114.88278
"3959",79.60082,114.89612
"3960",79.41772,114.909454
"3961",79.24437,114.92279
"3962",79.09056,114.93613
"3963",78.96117,114.94946
"3964",78.85863,114.9628
"3965",78.78294,114.976135
"3966",78.73167,114.98947
"3967",78.70237,115.00281
"3968",78.692604,115.01614
"3969",78.692604,115.02948
"3970",78.695045,115.042816
"3971",78.70481,115.05615
"3972",78.71946,115.06949
"3973",78.73167,115.082825
"3974",78.74876,115.09616
"3975",78.768295,115.1095
"3976",78.785385,115.12283
"3977",78.79027,115.13617
"3978",78.785385,115.149506
"3979",78.77806,115.16284
"3980",78.765854,115.17618
"3981",78.76097,115.189514
"3982",78.802475,115.20285
"3983",78.95628,115.21619
"3984",79.293205,115.22952
"3985",79.84009,115.24286
"3986",80.567635,115.256195
"3987",81.3782,115.26953
"3988",82.13992,115.28287
"3989",82.7161,115.2962
"3990",83.038376,115.30954
"3991",83.10185,115.322876
"3992",82.95293,115.33621
"3993",82.650185,115.34955
"3994",82.24979,115.362885
"3995",81.795685,115.37622
"3996",81.3196,115.38956
"3997",80.85573,115.40289
"3998",80.42603,115.41623
"3999",80.04028,115.429565
"4000",79.71557,115.4429
"4001",79.45922,115.45624
"4002",79.28832,115.469574
"4003",79.217514,115.48291
"4004",79.25414,115.49625
"4005",79.3933,115.50958
"4006",79.605705,115.52292
"4007",79.84985,115.536255
"4008",80.08423,115.54959
"4009",80.272224,115.56293
"4010",80.38697,115.57626
"4011",80.42359,115.5896
"4012",80.38941,115.602936
"4013",80.291756,115.61627
"4014",80.15259,115.62961
"4015",79.991455,115.642944
"4016",79.82056,115.65628
"4017",79.64233,115.66962
"4018",79.466545,115.68295
"4019",79.29565,115.69629
"4020",79.13695,115.709625
"4021",78.99779,115.72296
"4022",78.88548,115.7363
"4023",78.79759,115.74963
"4024",78.73167,115.76297
"4025",78.68772,115.776306
"4026",78.6511,115.78964
"4027",78.626686,115.80298
"4028",78.60471,115.816315
"4029",78.58518,115.82965
"4030",78.56809,115.84299
"4031",78.555885,115.85632
"4032",78.54124,115.86966
"4033",78.52659,115.882996
"4034",78.51194,115.89633
"4035",78.504616,115.90967
"4036",78.54124,115.923004
"4037",78.68528,115.93634
"4038",79.012436,115.94968
"4039",79.554436,115.96301
"4040",80.27711,115.97635
"4041",81.077896,115.989685
"4042",81.832306,116.00302
"4043",82.408485,116.01636
"4044",82.73075,116.02969
"4045",82.794235,116.04303
"4046",82.650185,116.056366
"4047",82.357216,116.0697
"4048",81.971466,116.08304
"4049",81.532005,116.096375
"4050",81.06813,116.10971
"4051",80.604256,116.12305
"4052",80.15259,116.13638
"4053",79.73754,116.14972
"4054",79.37377,116.163055
"4055",79.080795,116.17639
"4056",78.87816,116.18973
"4057",78.785385,116.203064
"4058",78.81468,116.2164
"4059",78.96117,116.22974
"4060",79.20531,116.24307
"4061",79.51293,116.25641
"4062",79.83032,116.269745
"4063",80.111084,116.28308
"4064",80.323494,116.29642
"4065",80.445564,116.30975
"4066",80.482185,116.32309
"4067",80.44068,116.336426
"4068",80.34058,116.34976
"4069",80.201416,116.3631
"4070",80.0354,116.376434
"4071",79.86206,116.38977
"4072",79.67895,116.40311
"4073",79.49828,116.41644
"4074",79.32983,116.42978
"4075",79.17845,116.443115
"4076",79.0515,116.45645
"4077",78.9514,116.46979
"4078",78.88304,116.48312
"4079",78.84154,116.49646
"4080",78.81712,116.509796
"4081",78.80492,116.52313
"4082",78.80492,116.53647
"4083",78.82689,116.549805
"4084",78.91234,116.56314
"4085",79.11253,116.57648
"4086",79.46899,116.58981
"4087",79.971924,116.60315
"4088",80.58228,116.616486
"4089",81.20241,116.62982
"4090",81.7322,116.64316
"4091",82.08621,116.656494
"4092",82.23514,116.66983
"4093",82.193634,116.68317
"4094",82.003204,116.6965
"4095",81.71023,116.70984
"4096",81.35378,116.723175
"4097",80.96803,116.73651
"4098",80.57496,116.74985
"4099",80.184326,116.76318
"4100",79.80835,116.77652
"4101",79.466545,116.789856
"4102",79.17357,116.80319
"4103",78.95384,116.81653
"4104",78.83421,116.829865
"4105",78.82689,116.8432
"4106",78.92943,116.85654
"4107",79.11742,116.86987
"4108",79.35912,116.88321
"4109",79.61303,116.896545
"4110",79.84009,116.90988
"4111",80.01343,116.92322
"4112",80.12085,116.936554
"4113",80.15991,116.94989
"4114",80.14526,116.96323
"4115",80.08667,116.97656
"4116",79.99634,116.9899
"4117",79.88159,117.003235
"4118",79.75708,117.01657
"4119",79.62035,117.02991
"4120",79.483635,117.04324
"4121",79.35424,117.05658
"4122",79.23949,117.069916
"4123",79.13939,117.08325
"4124",79.05638,117.09659
"4125",78.99046,117.109924
"4126",78.941635,117.12326
"4127",78.91234,117.1366
"4128",78.89769,117.14993
"4129",78.89281,117.16327
"4130",78.9099,117.176605
"4131",79.00023,117.18994
"4132",79.24437,117.20328
"4133",79.710686,117.21661
"4134",80.42359,117.22995
"4135",81.324486,117.243286
"4136",82.286415,117.25662
"4137",83.15068,117.26996
"4138",83.790344,117.283295
"4139",84.137024,117.29663
"4140",84.19806,117.30997
"4141",84.0296,117.3233
"4142",83.69756,117.33664
"4143",83.26055,117.349976
"4144",82.76494,117.36331
"4145",82.24979,117.37665
"4146",81.74441,117.389984
"4147",81.27322,117.40332
"4148",80.85329,117.41666
"4149",80.49439,117.42999
"4150",80.2063,117.44333
"4151",79.98901,117.456665
"4152",79.84741,117.47
"4153",79.78882,117.48334
"4154",79.815674,117.49667
"4155",79.91577,117.51001
"4156",80.059814,117.523346
"4157",80.21118,117.53668
"4158",80.34058,117.55002
"4159",80.42603,117.563354
"4160",80.45289,117.57669
"4161",80.42359,117.59003
"4162",80.34547,117.60336
"4163",80.22827,117.6167
"4164",80.079346,117.630035
"4165",79.91089,117.64337
"4166",79.7351,117.65671
"4167",79.55932,117.670044
"4168",79.3933,117.68338
"4169",79.237045,117.69672
"4170",79.09544,117.71005
"4171",78.97093,117.72339
"4172",78.870834,117.736725
"4173",78.79759,117.75006
"4174",78.746315,117.7634
"4175",78.71458,117.77673
"4176",78.695045,117.79007
"4177",78.68284,117.803406
"4178",78.70237,117.81674
"4179",78.81468,117.83008
"4180",79.10521,117.843414
"4181",79.63256,117.85675
"4182",80.39918,117.87009
"4183",81.33669,117.88342
"4184",82.31083,117.89676
"4185",83.16289,117.910095
"4186",83.775696,117.92343
"4187",84.09308,117.93677
"4188",84.13214,117.9501
"4189",83.94415,117.96344
"4190",83.59991,117.976776
"4191",83.16289,117.99011
"4192",82.684364,118.00345
"4193",82.210724,118.016785
"4194",81.76639,118.03012
"4195",81.3782,118.04346
"4196",81.05348,118.05679
"4197",80.797134,118.07013
"4198",80.59937,118.083466
"4199",80.448006,118.0968
"4200",80.33082,118.11014
"4201",80.24048,118.123474
"4202",80.17456,118.13681
"4203",80.1355,118.15015
"4204",80.11841,118.16348
"4205",80.113525,118.17682
"4206",80.113525,118.190155
"4207",80.10376,118.20349
"4208",80.076904,118.21683
"4209",80.025635,118.23016
"4210",79.94995,118.2435
"4211",79.84741,118.256836
"4212",79.72289,118.27017
"4213",79.58373,118.28351
"4214",79.429924,118.296844
"4215",79.276115,118.31018
"4216",79.1223,118.32352
"4217",78.97826,118.33685
"4218",78.84886,118.35019
"4219",78.74143,118.363525
"4220",78.6511,118.37686
"4221",78.57542,118.3902
"4222",78.5095,118.403534
"4223",78.45579,118.41687
"4224",78.416725,118.43021
"4225",78.4387,118.44354
"4226",78.58762,118.45688
"4227",78.941635,118.470215
"4228",79.53979,118.48355
"4229",80.35523,118.49689
"4230",81.29519,118.51022
"4231",82.213165,118.52356
"4232",82.967575,118.536896
"4233",83.455864,118.55023
"4234",83.65118,118.56357
"4235",83.59258,118.576904
"4236",83.34112,118.59024
"4237",82.967575,118.60358
"4238",82.53544,118.61691
"4239",82.09598,118.63025
"4240",81.6907,118.643585
"4241",81.33669,118.65692
"4242",81.0486,118.67026
"4243",80.81911,118.68359
"4244",80.64332,118.69693
"4245",80.50416,118.710266
"4246",80.37965,118.7236
"4247",80.2649,118.73694
"4248",80.15991,118.750275
"4249",80.06714,118.76361
"4250",79.98901,118.77695
"4251",79.92798,118.79028
"4252",79.87915,118.80362
"4253",79.84253,118.816956
"4254",79.801025,118.83029
"4255",79.74975,118.84363
"4256",79.68383,118.85697
"4257",79.603264,118.87031
"4258",79.50317,118.883644
"4259",79.38842,118.89698
"4260",79.26147,118.91032
"4261",79.12474,118.92365
"4262",78.98802,118.93699
"4263",78.853745,118.950325
"4264",78.72678,118.96366
"4265",78.6096,118.977
"4266",78.51194,118.99033
"4267",78.42893,119.00367
"4268",78.35813,119.017006
"4269",78.2971,119.03034
"4270",78.24338,119.04368
"4271",78.21164,119.057014
"4272",78.24338,119.07035
"4273",78.41917,119.08369
"4274",78.80736,119.09702
"4275",79.44457,119.11036
"4276",80.289314,119.123695
"4277",81.234146,119.13703
"4278",82.12039,119.15037
"4279",82.80644,119.163704
"4280",83.20439,119.17704
"4281",83.30694,119.19038
"4282",83.16533,119.20371
"4283",82.85527,119.21705
"4284",82.459755,119.230385
"4285",82.03494,119.24372
"4286",81.62966,119.25706
"4287",81.26833,119.27039
"4288",80.96803,119.28373
"4289",80.73121,119.297066
"4290",80.54322,119.3104
"4291",80.394295,119.32374
"4292",80.26246,119.337074
"4293",80.13794,119.35041
"4294",80.01343,119.36375
"4295",79.906006,119.37708
"4296",79.815674,119.39042
"4297",79.7522,119.403755
"4298",79.708244,119.41709
"4299",79.674065,119.43043
"4300",79.639885,119.44376
"4301",79.60082,119.4571
"4302",79.54955,119.470436
"4303",79.48608,119.48377
"4304",79.40063,119.49711
"4305",79.29809,119.510445
"4306",79.17845,119.52378
"4307",79.04173,119.53712
"4308",78.89525,119.55045
"4309",78.751205,119.56379
"4310",78.61448,119.577126
"4311",78.48997,119.59046
"4312",78.38499,119.6038
"4313",78.30198,119.617134
"4314",78.23117,119.63047
"4315",78.17746,119.64381
"4316",78.133514,119.65714
"4317",78.09689,119.67048
"4318",78.0676,119.683815
"4319",78.05539,119.69715
"4320",78.10666,119.71049
"4321",78.2971,119.72382
"4322",78.70237,119.73716
"4323",79.364006,119.750496
"4324",80.24292,119.76383
"4325",81.22682,119.77717
"4326",82.15701,119.790504
"4327",82.882126,119.80384
"4328",83.30938,119.81718
"4329",83.42901,119.83051
"4330",83.299614,119.84385
"4331",82.99199,119.857185
"4332",82.579384,119.87052
"4333",82.13016,119.88386
"4334",81.69802,119.897194
"4335",81.31228,119.91053
"4336",80.99489,119.92387
"4337",80.75319,119.9372
"4338",80.5774,119.95054
"4339",80.4358,119.963875
"4340",80.31617,119.97721
"4341",80.20386,119.99055
"4342",80.093994,120.00388
"4343",79.9939,120.01722
"4344",79.91333,120.030556
"4345",79.85474,120.04389
"4346",79.81323,120.05723
"4347",79.781494,120.070564
"4348",79.74975,120.0839
"4349",79.7058,120.09724
"4350",79.64721,120.11057
"4351",79.569084,120.12391
"4352",79.466545,120.137245
"4353",79.344475,120.15058
"4354",79.20531,120.16392
"4355",79.05638,120.17725
"4356",78.905014,120.19059
"4357",78.75365,120.203926
"4358",78.61204,120.21726
"4359",78.48264,120.2306
"4360",78.37034,120.243935
"4361",78.277565,120.25727
"4362",78.20676,120.27061
"4363",78.150604,120.28394
"4364",78.10666,120.29728
"4365",78.07736,120.310616
"4366",78.05051,120.32395
"4367",78.028534,120.33729
"4368",78.013885,120.350624
"4369",78.01877,120.36396
"4370",78.09445,120.3773
"4371",78.328835,120.39063
"4372",78.80003,120.40397
"4373",79.53002,120.417305
"4374",80.46754,120.43064
"4375",81.480736,120.44398
"4376",82.4036,120.45731
"4377",83.09209,120.47065
"4378",83.46075,120.483986
"4379",83.526665,120.49732
"4380",83.35088,120.51066
"4381",83.0164,120.523994
"4382",82.59647,120.53733
"4383",82.15701,120.55067
"4384",81.74197,120.564
"4385",81.38796,120.57734
"4386",81.10231,120.590675
"4387",80.885025,120.60401
"4388",80.719,120.61735
"4389",80.58228,120.630684
"4390",80.462654,120.64402
"4391",80.343025,120.65736
"4392",80.22339,120.67069
"4393",80.10864,120.68403
"4394",80.0061,120.697365
"4395",79.923096,120.7107
"4396",79.85474,120.72404
"4397",79.798584,120.73737
"4398",79.74975,120.75071
"4399",79.69604,120.764046
"4400",79.62768,120.77738
"4401",79.54467,120.79072
"4402",79.44213,120.804054
"4403",79.32983,120.81739
"4404",79.200424,120.83073
"4405",79.06615,120.84406
"4406",78.924545,120.8574
"4407",78.7805,120.870735
"4408",78.641335,120.88407
"4409",78.51194,120.89741
"4410",78.39475,120.91074
"4411",78.2971,120.92408
"4412",78.21164,120.937416
"4413",78.14572,120.95075
"4414",78.09689,120.96409
"4415",78.06027,120.977425
"4416",78.0383,120.99076
"4417",78.028534,121.0041
"4418",78.02609,121.01743
"4419",78.02121,121.03077
"4420",78.01877,121.044106
"4421",78.01877,121.05744
"4422",78.04074,121.07078
"4423",78.14084,121.084114
"4424",78.40696,121.09745
"4425",78.9099,121.11079
"4426",79.674065,121.12412
"4427",80.63355,121.13746
"4428",81.654076,121.150795
"4429",82.564735,121.16413
"4430",83.22148,121.17747
"4431",83.560844,121.1908
"4432",83.59258,121.20414
"4433",83.38506,121.217476
"4434",83.02373,121.23081
"4435",82.58671,121.24415
"4436",82.13748,121.257484
"4437",81.71999,121.27082
"4438",81.36355,121.28416
"4439",81.077896,121.29749
"4440",80.86305,121.31083
"4441",80.69215,121.324165
"4442",80.5481,121.3375
"4443",80.41627,121.35084
"4444",80.28199,121.364174
"4445",80.147705,121.37751
"4446",80.02075,121.39085
"4447",79.91577,121.40418
"4448",79.83032,121.41752
"4449",79.764404,121.430855
"4450",79.710686,121.44419
"4451",79.6643,121.45753
"4452",79.61059,121.47086
"4453",79.54955,121.4842
"4454",79.47143,121.497536
"4455",79.37377,121.51087
"4456",79.259026,121.52421
"4457",79.12718,121.537544
"4458",78.97826,121.55088
"4459",78.82445,121.56422
"4460",78.675514,121.57755
"4461",78.53391,121.59089
"4462",78.40696,121.604225
"4463",78.29221,121.61756
"4464",78.19455,121.6309
"4465",78.11154,121.64423
"4466",78.04318,121.65757
"4467",77.98947,121.670906
"4468",77.95529,121.68424
"4469",77.93576,121.69758
"4470",77.93088,121.710915
"4471",77.93576,121.72425
"4472",77.945526,121.73759
"4473",77.95041,121.75092
"4474",77.95285,121.76426
"4475",77.960175,121.777596
"4476",78.00168,121.79093
"4477",78.15549,121.80427
"4478",78.504616,121.817604
"4479",79.10033,121.83094
"4480",79.93042,121.84428
"4481",80.907,121.85761
"4482",81.883575,121.87095
"4483",82.68925,121.884285
"4484",83.21416,121.89762
"4485",83.4168,121.91096
"4486",83.336235,121.92429
"4487",83.0457,121.93763
"4488",82.63065,121.950966
"4489",82.16434,121.9643
"4490",81.69802,121.97764
"4491",81.270775,121.990974
"4492",80.907,122.00431
"4493",80.60914,122.01765
"4494",80.38209,122.03098
"4495",80.20386,122.04432
"4496",80.062256,122.057655
"4497",79.94751,122.07099
"4498",79.86206,122.08433
"4499",79.801025,122.097664
"4500",79.77173,122.111
"4501",79.77661,122.12434
"4502",79.80591,122.13767
"4503",79.84253,122.15101
"4504",79.86694,122.164345
"4505",79.8645,122.17768
"4506",79.82788,122.19102
"4507",79.74975,122.20435
"4508",79.63744,122.21769
"4509",79.50561,122.231026
"4510",79.3518,122.24436
"4511",79.18822,122.2577
"4512",79.01488,122.271034
"4513",78.84398,122.28437
"4514",78.6804,122.29771
"4515",78.54124,122.31104
"4516",78.42893,122.32438
"4517",78.345924,122.337715
"4518",78.28977,122.35105
"4519",78.25315,122.36439
"4520",78.22385,122.37772
"4521",78.204315,122.39106
"4522",78.184784,122.404396
"4523",78.16525,122.41773
"4524",78.15549,122.43107
"4525",78.19211,122.444405
"4526",78.345924,122.45774
"4527",78.692604,122.47108
"4528",79.27856,122.48441
"4529",80.076904,122.49775
"4530",80.987564,122.511086
"4531",81.8616,122.52442
"4532",82.547646,122.53776
"4533",82.948044,122.551094
"4534",83.04326,122.56443
"4535",82.89189,122.57777
"4536",82.56962,122.5911
