"","ppg","time"
"1",79.43725,813.20776
"2",79.3518,813.22107
"3",79.27856,813.2344
"4",79.23216,813.2477
"5",79.22728,813.261
"6",79.30541,813.2743
"7",79.49584,813.2876
"8",79.81079,813.3009
"9",80.22339,813.3142
"10",80.68238,813.3275
"11",81.11452,813.3408
"12",81.45144,813.3541
"13",81.64919,813.36743
"14",81.70046,813.38074
"15",81.62478,813.39404
"16",81.45876,813.40735
"17",81.24391,813.42065
"18",81.0193,813.43396
"19",80.81178,813.44727
"20",80.63111,813.4606
"21",80.47242,813.4739
"22",80.32838,813.4872
"23",80.19409,813.5005
"24",80.06958,813.5138
"25",79.96704,813.5271
"26",79.8938,813.5404
"27",79.84985,813.5537
"28",79.83765,813.567
"29",79.84497,813.5803
"30",79.85962,813.5936
"31",79.871826,813.60693
"32",79.86206,813.62024
"33",79.83032,813.63354
"34",79.77417,813.64685
"35",79.70336,813.66016
"36",79.61791,813.67346
"37",79.53002,813.68677
"38",79.44213,813.7001
"39",79.35912,813.7134
"40",79.276115,813.7267
"41",79.19798,813.74
"42",79.12474,813.7533
"43",79.07347,813.7666
"44",79.063705,813.7799
"45",79.132065,813.7932
"46",79.31518,813.8065
"47",79.622795,813.8198
"48",80.03052,813.8331
"49",80.48707,813.84644
"50",80.92409,813.85974
"51",81.270775,813.87305
"52",81.48318,813.88635
"53",81.55398,813.89966
"54",81.50027,813.91296
"55",81.36355,813.9263
"56",81.17799,813.9396
"57",80.987564,813.9529
"58",80.814224,813.9662
"59",80.66041,813.9795
"60",80.52369,813.9928
"61",80.39185,814.0061
"62",80.26246,814.0194
"63",80.130615,814.0327
"64",80.00366,814.046
"65",79.89624,814.0593
"66",79.815674,814.07263
"67",79.766846,814.08594
"68",79.742424,814.09924
"69",79.7351,814.11255
"70",79.73022,814.12585
"71",79.71801,814.13916
"72",79.68627,814.15247
"73",79.635,814.1658
"74",79.5642,814.1791
"75",79.48119,814.1924
"76",79.395744,814.2057
"77",79.31518,814.219
"78",79.237045,814.2323
"79",79.15892,814.2456
"80",79.078354,814.2589
"81",78.995346,814.2722
"82",78.91234,814.2855
"83",78.836655,814.2988
"84",78.77806,814.31213
"85",78.746315,814.32544
"86",78.77562,814.33875
"87",78.89525,814.35205
"88",79.12962,814.36536
"89",79.47631,814.37866
"90",79.90112,814.39197
"91",80.3357,814.4053
"92",80.71168,814.4186
"93",80.96559,814.4319
"94",81.075455,814.4452
"95",81.05348,814.4585
"96",80.93385,814.4718
"97",80.762955,814.4851
"98",80.57496,814.4984
"99",80.38941,814.5117
"100",80.218506,814.525
"101",80.059814,814.5383
"102",79.906006,814.55164
"103",79.75464,814.56494
"104",79.60815,814.57825
"105",79.47631,814.59155
"106",79.364006,814.60486
"107",79.276115,814.61816
"108",79.21507,814.6315
"109",79.185776,814.6448
"110",79.17601,814.6581
"111",79.17357,814.6714
"112",79.17113,814.6847
"113",79.15404,814.698
"114",79.114975,814.7113
"115",79.05394,814.7246
"116",78.98314,814.7379
"117",78.905014,814.7512
"118",78.82933,814.7645
"119",78.76341,814.77783
"120",78.709694,814.79114
"121",78.67063,814.80444
"122",78.643776,814.81775
"123",78.624245,814.83105
"124",78.6096,814.84436
"125",78.59739,814.85767
"126",78.59251,814.871
"127",78.590065,814.8843
"128",78.58762,814.8976
"129",78.58518,814.9109
"130",78.58518,814.9242
"131",78.59495,814.9375
"132",78.643776,814.9508
"133",78.77074,814.9641
"134",79.009995,814.9774
"135",79.364006,814.9907
"136",79.79614,815.004
"137",80.25025,815.01733
"138",80.6482,815.03064
"139",80.936295,815.04395
"140",81.075455,815.05725
"141",81.077896,815.07056
"142",80.972916,815.08386
"143",80.81178,815.09717
"144",80.62623,815.1105
"145",80.45045,815.1238
"146",80.29664,815.1371
"147",80.16968,815.1504
"148",80.05737,815.1637
"149",79.94995,815.177
"150",79.852295,815.1903
"151",79.764404,815.2036
"152",79.691154,815.2169
"153",79.64233,815.2302
"154",79.61791,815.2435
"155",79.61547,815.25684
"156",79.62524,815.27014
"157",79.64233,815.28345
"158",79.65209,815.29675
"159",79.65453,815.31006
"160",79.63744,815.32336
"161",79.61059,815.3367
"162",79.56664,815.35
"163",79.50805,815.3633
"164",79.447014,815.3766
"165",79.38354,815.3899
"166",79.32006,815.4032
"167",79.26391,815.4165
"168",79.219955,815.4298
"169",79.183334,815.4431
"170",79.15404,815.4564
"171",79.13451,815.4697
"172",79.11986,815.48303
"173",79.11009,815.49634
"174",79.10521,815.50964
"175",79.10033,815.52295
"176",79.10033,815.53625
"177",79.09544,815.54956
"178",79.093,815.56287
"179",79.08568,815.5762
"180",79.080795,815.5895
"181",79.08812,815.6028
"182",79.13451,815.6161
"183",79.25414,815.6294
"184",79.47875,815.6427
"185",79.81323,815.656
"186",80.216064,815.6693
"187",80.62623,815.6826
"188",80.970474,815.6959
"189",81.1902,815.7092
"190",81.25857,815.72253
"191",81.19264,815.73584
"192",81.02663,815.74915
"193",80.8069,815.76245
"194",80.57252,815.77576
"195",80.35523,815.78906
"196",80.164795,815.80237
"197",80.008545,815.8157
"198",79.88403,815.829
"199",79.783936,815.8423
"200",79.7058,815.8556
"201",79.64965,815.8689
"202",79.61791,815.8822
"203",79.61547,815.8955
"204",79.63744,815.9088
"205",79.67162,815.9221
"206",79.7058,815.9354
"207",79.73266,815.9487
"208",79.742424,815.96204
"209",79.7351,815.97534
"210",79.710686,815.98865
"211",79.67162,816.00195
"212",79.62035,816.01526
"213",79.5642,816.02856
"214",79.50561,816.0419
"215",79.45434,816.0552
"216",79.40551,816.0685
"217",79.361565,816.0818
"218",79.327385,816.0951
"219",79.29809,816.1084
"220",79.276115,816.1217
"221",79.26147,816.135
"222",79.256584,816.1483
"223",79.2517,816.1616
"224",79.25414,816.1749
"225",79.256584,816.18823
"226",79.26391,816.20154
"227",79.26879,816.21484
"228",79.273674,816.22815
"229",79.273674,816.24146
"230",79.27123,816.25476
"231",79.26879,816.26807
"232",79.281,816.2814
"233",79.33471,816.2947
"234",79.4641,816.308
"235",79.68871,816.3213
"236",80.01099,816.3346
"237",80.396736,816.3479
"238",80.782486,816.3612
"239",81.09987,816.3745
"240",81.29519,816.3878
"241",81.3489,816.4011
"242",81.27322,816.4144
"243",81.09987,816.42773
"244",80.867935,816.44104
"245",80.618904,816.45435
"246",80.377205,816.46765
"247",80.16235,816.48096
"248",79.98413,816.49426
"249",79.84497,816.50757
"250",79.744865,816.5209
"251",79.68139,816.5342
"252",79.65942,816.5475
"253",79.676506,816.5608
"254",79.72289,816.5741
"255",79.78638,816.5874
"256",79.85962,816.6007
"257",79.920654,816.614
"258",79.957275,816.6273
"259",79.96216,816.6406
"260",79.940186,816.65393
"261",79.8938,816.66724
"262",79.835205,816.68054
"263",79.77417,816.69385
"264",79.71313,816.70715
"265",79.65942,816.72046
"266",79.61303,816.73376
"267",79.57397,816.7471
"268",79.53979,816.7604
"269",79.51293,816.7737
"270",79.49828,816.787
"271",79.483635,816.8003
"272",79.47143,816.8136
"273",79.46166,816.8269
"274",79.45434,816.8402
"275",79.44457,816.8535
"276",79.432365,816.8668
"277",79.42504,816.8801
"278",79.41772,816.89343
"279",79.41039,816.90674
"280",79.40551,816.92004
"281",79.40307,816.93335
"282",79.40307,816.94666
"283",79.42748,816.95996
"284",79.51049,816.97327
"285",79.68383,816.9866
"286",79.957275,816.9999
"287",80.308846,817.0132
"288",80.68726,817.0265
"289",81.024185,817.0398
"290",81.26101,817.0531
"291",81.36355,817.0664
"292",81.33425,817.0797
"293",81.1902,817.093
"294",80.972916,817.1063
"295",80.719,817.1196
"296",80.45777,817.13293
"297",80.21362,817.14624
"298",80.00122,817.15955
"299",79.82544,817.17285
"300",79.68627,817.18616
"301",79.5935,817.19946
"302",79.54711,817.21277
"303",79.54955,817.2261
"304",79.60082,817.2394
"305",79.68627,817.2527
"306",79.781494,817.266
"307",79.871826,817.2793
"308",79.940186,817.2926
"309",79.974365,817.3059
"310",79.97925,817.3192
"311",79.954834,817.3325
"312",79.906006,817.3458
"313",79.84741,817.35913
"314",79.77905,817.37244
"315",79.710686,817.38574
"316",79.65453,817.39905
"317",79.61059,817.41235
"318",79.57885,817.42566
"319",79.55688,817.43896
"320",79.54223,817.4523
"321",79.52514,817.4656
"322",79.51537,817.4789
"323",79.50317,817.4922
"324",79.49096,817.5055
"325",79.48119,817.5188
"326",79.47143,817.5321
"327",79.46166,817.5454
"328",79.45678,817.5587
"329",79.47387,817.572
"330",79.551994,817.5853
"331",79.72045,817.59863
"332",79.9939,817.61194
"333",80.34791,817.62524
"334",80.73609,817.63855
"335",81.08278,817.65186
"336",81.324486,817.66516
"337",81.43435,817.67847
"338",81.41482,817.6918
"339",81.290306,817.7051
"340",81.094986,817.7184
"341",80.867935,817.7317
"342",80.62623,817.745
"343",80.39185,817.7583
"344",80.177,817.7716
"345",79.9939,817.7849
"346",79.852295,817.7982
"347",79.764404,817.8115
"348",79.73022,817.8248
"349",79.7522,817.83813
"350",79.82056,817.85144
"351",79.92554,817.86475
"352",80.045166,817.87805
"353",80.15991,817.89136
"354",80.25269,817.90466
"355",80.31373,817.91797
"356",80.33326,817.9313
"357",80.31861,817.9446
"358",80.274666,817.9579
"359",80.21362,817.9712
"360",80.14526,817.9845
"361",80.08179,817.9978
"362",80.025635,818.0111
"363",79.97681,818.0244
"364",79.93286,818.0377
"365",79.89624,818.051
"366",79.86206,818.06433
"367",79.83276,818.07764
"368",79.80591,818.09094
"369",79.78638,818.10425
"370",79.781494,818.11755
"371",79.815674,818.13086
"372",79.92798,818.14417
"373",80.14282,818.1575
"374",80.45533,818.1708
"375",80.82887,818.1841
"376",81.20485,818.1974
"377",81.51736,818.2107
"378",81.71511,818.224
"379",81.77371,818.2373
"380",81.71267,818.2506
"381",81.55398,818.2639
"382",81.33669,818.2772
"383",81.08766,818.2905
"384",80.83864,818.30383
"385",80.59937,818.31714
"386",80.38941,818.33044
"387",80.20874,818.34375
"388",80.06958,818.35706
"389",79.97681,818.37036
"390",79.940186,818.38367
"391",79.954834,818.397
"392",80.01587,818.4103
"393",80.1062,818.4236
"394",80.20386,818.4369
"395",80.291756,818.4502
"396",80.35523,818.4635
"397",80.38453,818.4768
"398",80.37965,818.4901
"399",80.34547,818.5034
"400",80.291756,818.5167
"401",80.22339,818.53
"402",80.15259,818.54333
"403",80.08179,818.55664
"404",80.01343,818.56995
"405",79.95239,818.58325
"406",79.89868,818.59656
"407",79.852295,818.60986
"408",79.815674,818.62317
"409",79.7937,818.6365
"410",79.81323,818.6498
"411",79.90845,818.6631
"412",80.1062,818.6764
"413",80.4065,818.6897
"414",80.782486,818.703
"415",81.17311,818.7163
"416",81.51003,818.7296
"417",81.739525,818.7429
"418",81.829865,818.7562
"419",81.79813,818.76953
"420",81.66628,818.78284
"421",81.463646,818.79614
"422",81.22194,818.80945
"423",80.972916,818.82275
"424",80.73609,818.83606
"425",80.52125,818.84937
"426",80.343025,818.8627
"427",80.198975,818.876
"428",80.096436,818.8893
"429",80.0354,818.9026
"430",80.02075,818.9159
"431",80.045166,818.9292
"432",80.09888,818.9425
"433",80.16724,818.9558
"434",80.23071,818.9691
"435",80.27711,818.9824
"436",80.29664,818.9957
"437",80.28687,819.00903
"438",80.25025,819.02234
"439",80.19165,819.03564
"440",80.11597,819.04895
"441",80.04028,819.06226
"442",79.9646,819.07556
"443",79.89868,819.08887
"444",79.83765,819.1022
"445",79.783936,819.1155
"446",79.73266,819.1288
"447",79.691154,819.1421
"448",79.68627,819.1554
"449",79.75708,819.1687
"450",79.9353,819.182
"451",80.22827,819.1953
"452",80.6067,819.2086
"453",81.0193,819.2219
"454",81.392845,819.2352
"455",81.6614,819.24854
"456",81.795685,819.26184
"457",81.795685,819.27515
"458",81.685814,819.28845
"459",81.50271,819.30176
"460",81.2781,819.31506
"461",81.0486,819.32837
"462",80.833755,819.3417
"463",80.64332,819.355
"464",80.482185,819.3683
"465",80.35035,819.3816
"466",80.24292,819.3949
"467",80.16235,819.4082
"468",80.111084,819.4215
"469",80.09155,819.4348
"470",80.10376,819.4481
"471",80.14038,819.4614
"472",80.18921,819.47473
"473",80.23804,819.48804
"474",80.26978,819.50134
"475",80.272224,819.51465
"476",80.25025,819.52795
"477",80.201416,819.54126
"478",80.130615,819.55457
"479",80.045166,819.5679
"480",79.957275,819.5812
"481",79.871826,819.5945
"482",79.798584,819.6078
"483",79.7351,819.6211
"484",79.68871,819.6344
"485",79.66918,819.6477
"486",79.70092,819.661
"487",79.815674,819.6743
"488",80.028076,819.6876
"489",80.34547,819.7009
"490",80.723885,819.71423
"491",81.10719,819.72754
"492",81.42947,819.74084
"493",81.64431,819.75415
"494",81.72732,819.76746
"495",81.688255,819.78076
"496",81.55642,819.79407
"497",81.36843,819.8074
"498",81.15602,819.8207
"499",80.94118,819.834
"500",80.74586,819.8473
"501",80.567635,819.8606
"502",80.411385,819.8739
"503",80.27955,819.8872
"504",80.16968,819.9005
"505",80.08667,819.9138
"506",80.03052,819.9271
"507",80.00122,819.9404
"508",80.00122,819.95374
"509",80.02075,819.96704
"510",80.05005,819.98035
"511",80.07446,819.99365
"512",80.08667,820.00696
"513",80.07202,820.02026
"514",80.03052,820.03357
"515",79.96704,820.0469
"516",79.886475,820.0602
"517",79.798584,820.0735
"518",79.708244,820.0868
"519",79.62524,820.1001
"520",79.54711,820.1134
"521",79.47875,820.1267
"522",79.41772,820.14
"523",79.381096,820.1533
"524",79.3933,820.1666
"525",79.49584,820.17993
"526",79.7058,820.19324
"527",80.01831,820.20654
"528",80.39185,820.21985
"529",80.762955,820.23315
"530",81.06325,820.24646
"531",81.248795,820.25977
"532",81.307396,820.2731
"533",81.253685,820.2864
"534",81.12184,820.2997
"535",80.94606,820.313
"536",80.75319,820.3263
"537",80.567635,820.3396
"538",80.39918,820.3529
"539",80.24292,820.3662
"540",80.09888,820.3795
"541",79.96704,820.3928
"542",79.852295,820.4061
"543",79.76196,820.41943
"544",79.70336,820.43274
"545",79.67895,820.44604
"546",79.68139,820.45935
"547",79.70092,820.47266
"548",79.72289,820.48596
"549",79.73266,820.49927
"550",79.727776,820.5126
"551",79.69848,820.5259
"552",79.64965,820.5392
"553",79.58373,820.5525
"554",79.51537,820.5658
"555",79.43969,820.5791
"556",79.364006,820.5924
"557",79.293205,820.6057
"558",79.23216,820.619
"559",79.17845,820.6323
"560",79.132065,820.6456
"561",79.08812,820.65894
"562",79.04906,820.67224
"563",79.029526,820.68555
"564",79.0515,820.69885
"565",79.15892,820.71216
"566",79.37621,820.72546
"567",79.69604,820.7388
"568",80.08423,820.7521
"569",80.47486,820.7654
"570",80.799576,820.7787
"571",81.00221,820.792
"572",81.07301,820.8053
"573",81.02174,820.8186
"574",80.88991,820.8319
"575",80.706795,820.8452
"576",80.51148,820.8585
"577",80.32838,820.8718
"578",80.15991,820.88513
"579",80.008545,820.89844
"580",79.871826,820.91174
"581",79.75708,820.92505
"582",79.65942,820.93835
"583",79.58129,820.95166
"584",79.52514,820.96497
"585",79.49828,820.9783
"586",79.4934,820.9916
"587",79.50561,821.0049
"588",79.52758,821.0182
"589",79.54467,821.0315
"590",79.54711,821.0448
"591",79.52758,821.0581
"592",79.48608,821.0714
"593",79.42748,821.0847
"594",79.364006,821.098
"595",79.29565,821.1113
"596",79.22972,821.12463
"597",79.168686,821.13794
"598",79.11253,821.15125
"599",79.06859,821.16455
"600",79.03197,821.17786
"601",79.00511,821.19116
"602",78.98802,821.20447
"603",78.97337,821.2178
"604",78.96117,821.2311
"605",78.94652,821.2444
"606",78.92943,821.2577
"607",78.91234,821.271
"608",78.91966,821.2843
"609",78.97826,821.2976
"610",79.12718,821.3109
"611",79.38354,821.3242
"612",79.73754,821.3375
"613",80.14038,821.3508
"614",80.51881,821.36414
"615",80.80934,821.37744
"616",80.972916,821.39075
"617",80.99733,821.40405
"618",80.91432,821.41736
"619",80.75807,821.43066
"620",80.567635,821.444
"621",80.377205,821.4573
"622",80.201416,821.4706
"623",80.05005,821.4839
"624",79.91821,821.4972
"625",79.80591,821.5105
"626",79.7058,821.5238
"627",79.62035,821.5371
"628",79.554436,821.5504
"629",79.51293,821.5637
"630",79.49584,821.577
"631",79.50317,821.59033
"632",79.534904,821.60364
"633",79.571526,821.61694
"634",79.60082,821.63025
"635",79.61547,821.64355
"636",79.60815,821.65686
"637",79.57397,821.67017
"638",79.5227,821.6835
"639",79.45922,821.6968
"640",79.39086,821.7101
"641",79.31762,821.7234
"642",79.24925,821.7367
"643",79.1931,821.75
"644",79.14427,821.7633
"645",79.10521,821.7766
"646",79.080795,821.7899
"647",79.05882,821.8032
"648",79.04173,821.8165
"649",79.029526,821.82983
"650",79.01488,821.84314
"651",79.00511,821.85645
"652",78.995346,821.86975
"653",78.98314,821.88306
"654",78.97093,821.89636
"655",78.96605,821.90967
"656",78.992905,821.923
"657",79.080795,821.9363
"658",79.26635,821.9496
"659",79.55932,821.9629
"660",79.93042,821.9762
"661",80.33082,821.9895
"662",80.689705,822.0028
"663",80.94362,822.0161
"664",81.06569,822.0294
"665",81.06081,822.0427
"666",80.96071,822.056
"667",80.80446,822.06934
"668",80.62623,822.08264
"669",80.45777,822.09595
"670",80.308846,822.10925
"671",80.181885,822.12256
"672",80.07446,822.13586
"673",79.98169,822.1492
"674",79.8938,822.1625
"675",79.818115,822.1758
"676",79.7522,822.1891
"677",79.7058,822.2024
"678",79.68383,822.2157
"679",79.68871,822.229
"680",79.71313,822.2423
"681",79.7522,822.2556
"682",79.78638,822.2689
"683",79.80347,822.2822
"684",79.79126,822.29553
"685",79.75708,822.30884
"686",79.70092,822.32214
"687",79.635,822.33545
"688",79.56664,822.34875
"689",79.50805,822.36206
"690",79.45434,822.37537
"691",79.40795,822.3887
"692",79.36889,822.402
"693",79.33471,822.4153
"694",79.30541,822.4286
"695",79.28588,822.4419
"696",79.273674,822.4552
"697",79.26879,822.4685
"698",79.26391,822.4818
"699",79.26147,822.4951
"700",79.259026,822.5084
"701",79.2517,822.5217
"702",79.24437,822.53503
"703",79.234604,822.54834
"704",79.22484,822.56165
"705",79.24437,822.57495
"706",79.32494,822.58826
"707",79.49828,822.60156
"708",79.77173,822.61487
"709",80.130615,822.6282
"710",80.52613,822.6415
"711",80.89479,822.6548
"712",81.17067,822.6681
"713",81.322044,822.6814
"714",81.34646,822.6947
"715",81.26589,822.708
"716",81.11696,822.7213
"717",80.93385,822.7346
"718",80.75319,822.7479
"719",80.59937,822.7612
"720",80.47486,822.77454
"721",80.37476,822.78784
"722",80.28687,822.80115
"723",80.20874,822.81445
"724",80.130615,822.82776
"725",80.05493,822.84106
"726",79.9939,822.8544
"727",79.95239,822.8677
"728",79.9353,822.881
"729",79.94263,822.8943
"730",79.96704,822.9076
"731",79.99634,822.9209
"732",80.01831,822.9342
"733",80.02319,822.9475
"734",80.00366,822.9608
"735",79.957275,822.9741
"736",79.89136,822.9874
"737",79.823,823.00073
"738",79.75464,823.01404
"739",79.691154,823.02734
"740",79.635,823.04065
"741",79.588615,823.05396
"742",79.54711,823.06726
"743",79.51049,823.08057
"744",79.47631,823.0939
"745",79.45434,823.1072
"746",79.43969,823.1205
"747",79.42748,823.1338
"748",79.41772,823.1471
"749",79.412834,823.1604
"750",79.40551,823.1737
"751",79.395744,823.187
"752",79.38598,823.2003
"753",79.37377,823.2136
"754",79.37621,823.2269
"755",79.40551,823.24023
"756",79.50317,823.25354
"757",79.693596,823.26685
"758",79.98657,823.28015
"759",80.35035,823.29346
"760",80.74586,823.30676
"761",81.10231,823.32007
"762",81.36599,823.3334
"763",81.50759,823.3467
"764",81.532005,823.36
"765",81.46853,823.3733
"766",81.339134,823.3866
"767",81.17799,823.3999
"768",81.01442,823.4132
"769",80.87038,823.4265
"770",80.74586,823.4398
"771",80.635994,823.4531
"772",80.5359,823.46643
"773",80.44068,823.47974
"774",80.34547,823.49304
"775",80.255135,823.50635
"776",80.177,823.51965
"777",80.12085,823.53296
"778",80.08667,823.54626
"779",80.07202,823.5596
"780",80.07202,823.5729
"781",80.076904,823.5862
"782",80.079346,823.5995
"783",80.06958,823.6128
"784",80.042725,823.6261
"785",80.00366,823.6394
"786",79.94995,823.6527
"787",79.886475,823.666
"788",79.82056,823.6793
"789",79.7522,823.6926
"790",79.68627,823.70593
"791",79.62768,823.71924
"792",79.57397,823.73254
"793",79.52514,823.74585
"794",79.483635,823.75916
"795",79.4519,823.77246
"796",79.42748,823.78577
"797",79.415276,823.7991
"798",79.41039,823.8124
"799",79.40551,823.8257
"800",79.398186,823.839
"801",79.38842,823.8523
"802",79.37133,823.8656
"803",79.35668,823.8789
"804",79.33715,823.8922
"805",79.32006,823.9055
"806",79.310295,823.9188
"807",79.32006,823.9321
"808",79.378654,823.94543
"809",79.53002,823.95874
"810",79.79126,823.97205
"811",80.15259,823.98535
"812",80.570076,823.99866
"813",80.98512,824.01196
"814",81.322044,824.02527
"815",81.53689,824.0386
"816",81.619896,824.0519
"817",81.58816,824.0652
"818",81.478294,824.0785
"819",81.324486,824.0918
"820",81.15846,824.1051
"821",81.004654,824.1184
"822",80.867935,824.1317
"823",80.7483,824.145
"824",80.64088,824.1583
"825",80.54078,824.17163
"826",80.43824,824.18494
"827",80.34058,824.19824
"828",80.2478,824.21155
"829",80.16968,824.22485
"830",80.111084,824.23816
"831",80.076904,824.25146
"832",80.0647,824.2648
"833",80.06958,824.2781
"834",80.076904,824.2914
"835",80.079346,824.3047
"836",80.0647,824.318
"837",80.03052,824.3313
"838",79.97681,824.3446
"839",79.90845,824.3579
"840",79.835205,824.3712
"841",79.76196,824.3845
"842",79.691154,824.3978
"843",79.62524,824.41113
"844",79.5642,824.42444
"845",79.50561,824.43774
"846",79.45678,824.45105
"847",79.415276,824.46436
"848",79.38354,824.47766
"849",79.361565,824.49097
"850",79.344475,824.5043
"851",79.32983,824.5176
"852",79.31518,824.5309
"853",79.30297,824.5442
"854",79.28832,824.5575
"855",79.27123,824.5708
"856",79.25414,824.5841
"857",79.23949,824.5974
"858",79.22728,824.6107
"859",79.237045,824.624
"860",79.293205,824.6373
"861",79.43481,824.65063
"862",79.676506,824.66394
"863",80.01099,824.67725
"864",80.4065,824.69055
"865",80.80446,824.70386
"866",81.143814,824.71716
"867",81.375755,824.73047
"868",81.48806,824.7438
"869",81.48318,824.7571
"870",81.38796,824.7704
"871",81.23659,824.7837
"872",81.06081,824.797
"873",80.88747,824.8103
"874",80.72877,824.8236
"875",80.59693,824.8369
"876",80.479744,824.8502
"877",80.37232,824.8635
"878",80.26734,824.87683
"879",80.16968,824.89014
"880",80.08423,824.90344
"881",80.01831,824.91675
"882",79.974365,824.93005
"883",79.95239,824.94336
"884",79.94751,824.95667
"885",79.95239,824.97
"886",79.957275,824.9833
"887",79.95239,824.9966
"888",79.940186,825.0099
"889",79.91333,825.0232
"890",79.871826,825.0365
"891",79.818115,825.0498
"892",79.75952,825.0631
"893",79.693596,825.0764
"894",79.62035,825.0897
"895",79.54711,825.103
"896",79.47875,825.11633
"897",79.4226,825.12964
"898",79.378654,825.14294
"899",79.34936,825.15625
"900",79.32494,825.16956
"901",79.30053,825.18286
"902",79.28344,825.19617
"903",79.27123,825.2095
"904",79.26391,825.2228
"905",79.256584,825.2361
"906",79.2517,825.2494
"907",79.24193,825.2627
"908",79.22728,825.276
"909",79.21019,825.2893
"910",79.202866,825.3026
"911",79.22972,825.3159
"912",79.32983,825.3292
"913",79.534904,825.3425
"914",79.84253,825.35583
"915",80.22827,825.36914
"916",80.635994,825.38245
"917",80.99489,825.39575
"918",81.248795,825.40906
"919",81.38064,825.42236
"920",81.3904,825.43567
"921",81.30251,825.449
"922",81.15602,825.4623
"923",80.9778,825.4756
"924",80.797134,825.4889
"925",80.63355,825.5022
"926",80.49439,825.5155
"927",80.37476,825.5288
"928",80.2649,825.5421
"929",80.16235,825.5554
"930",80.062256,825.5687
"931",79.97681,825.58203
"932",79.903564,825.59534
"933",79.85474,825.60864
"934",79.82788,825.62195
"935",79.823,825.63525
"936",79.83276,825.64856
"937",79.84985,825.66187
"938",79.85718,825.6752
"939",79.84985,825.6885
"940",79.83032,825.7018
"941",79.79614,825.7151
"942",79.74975,825.7284
"943",79.693596,825.7417
"944",79.63256,825.755
"945",79.569084,825.7683
"946",79.500725,825.7816
"947",79.44213,825.7949
"948",79.38842,825.8082
"949",79.344475,825.82153
"950",79.30541,825.83484
"951",79.273674,825.84814
"952",79.24437,825.86145
"953",79.2224,825.87476
"954",79.20531,825.88806
"955",79.19066,825.90137
"956",79.17601,825.9147
"957",79.166245,825.928
"958",79.151596,825.9413
"959",79.12962,825.9546
"960",79.10765,825.9679
"961",79.10765,825.9812
"962",79.1638,825.9945
"963",79.30785,826.0078
"964",79.55688,826.0211
"965",79.8938,826.0344
"966",80.272224,826.0477
"967",80.63355,826.06104
"968",80.91432,826.07434
"969",81.077896,826.08765
"970",81.11696,826.10095
"971",81.05348,826.11426
"972",80.91676,826.12756
"973",80.74586,826.14087
"974",80.567635,826.1542
"975",80.411385,826.1675
"976",80.28199,826.1808
"977",80.17944,826.1941
"978",80.09155,826.2074
"979",80.008545,826.2207
"980",79.93042,826.234
"981",79.85474,826.2473
"982",79.78882,826.2606
"983",79.742424,826.2739
"984",79.71801,826.28723
"985",79.71557,826.30054
"986",79.727776,826.31384
"987",79.7522,826.32715
"988",79.77417,826.34045
"989",79.78638,826.35376
"990",79.783936,826.36707
"991",79.75952,826.3804
"992",79.72045,826.3937
"993",79.66674,826.407
"994",79.603264,826.4203
"995",79.54223,826.4336
"996",79.48852,826.4469
"997",79.44213,826.4602
"998",79.40551,826.4735
"999",79.37377,826.4868
"1000",79.34936,826.5001
"1001",79.32494,826.5134
"1002",79.29809,826.52673
"1003",79.273674,826.54004
"1004",79.256584,826.55334
"1005",79.237045,826.56665
"1006",79.22484,826.57996
"1007",79.21507,826.59326
"1008",79.20531,826.60657
"1009",79.1931,826.6199
"1010",79.18089,826.6332
"1011",79.17601,826.6465
"1012",79.19798,826.6598
"1013",79.28588,826.6731
"1014",79.4641,826.6864
"1015",79.73998,826.6997
"1016",80.096436,826.713
"1017",80.48463,826.7263
"1018",80.84108,826.7396
"1019",81.10719,826.7529
"1020",81.26101,826.76624
"1021",81.30007,826.77954
"1022",81.24147,826.79285
"1023",81.11452,826.80615
"1024",80.9485,826.81946
"1025",80.77272,826.83276
"1026",80.6067,826.84607
"1027",80.462654,826.8594
"1028",80.343025,826.8727
"1029",80.24292,826.886
"1030",80.15015,826.8993
"1031",80.059814,826.9126
"1032",79.97925,826.9259
"1033",79.91089,826.9392
"1034",79.86206,826.9525
"1035",79.835205,826.9658
"1036",79.83276,826.9791
"1037",79.84741,826.99243
"1038",79.869385,827.00574
"1039",79.8938,827.01904
"1040",79.90845,827.03235
"1041",79.90845,827.04565
"1042",79.89136,827.05896
"1043",79.85718,827.07227
"1044",79.81323,827.0856
"1045",79.764404,827.0989
"1046",79.708244,827.1122
"1047",79.64965,827.1255
"1048",79.588615,827.1388
"1049",79.534904,827.1521
"1050",79.48608,827.1654
"1051",79.447014,827.1787
"1052",79.415276,827.192
"1053",79.39086,827.2053
"1054",79.36889,827.2186
"1055",79.344475,827.23193
"1056",79.3225,827.24524
"1057",79.30541,827.25854
"1058",79.293205,827.27185
"1059",79.28344,827.28516
"1060",79.27856,827.29846
"1061",79.28832,827.31177
"1062",79.344475,827.3251
"1063",79.47875,827.3384
"1064",79.710686,827.3517
"1065",80.03784,827.365
"1066",80.41871,827.3783
"1067",80.799576,827.3916
"1068",81.11696,827.4049
"1069",81.322044,827.4182
"1070",81.40261,827.4315
"1071",81.373314,827.4448
"1072",81.26345,827.4581
"1073",81.10719,827.47144
"1074",80.936295,827.48474
"1075",80.77272,827.49805
"1076",80.62623,827.51135
"1077",80.49683,827.52466
"1078",80.37965,827.53796
"1079",80.26734,827.5513
"1080",80.15747,827.5646
"1081",80.05737,827.5779
"1082",79.971924,827.5912
"1083",79.903564,827.6045
"1084",79.85474,827.6178
"1085",79.83032,827.6311
"1086",79.82544,827.6444
"1087",79.835205,827.6577
"1088",79.84985,827.671
"1089",79.86206,827.6843
"1090",79.86694,827.69763
"1091",79.85962,827.71094
"1092",79.83765,827.72424
"1093",79.798584,827.73755
"1094",79.74731,827.75085
"1095",79.693596,827.76416
"1096",79.635,827.77747
"1097",79.57885,827.7908
"1098",79.52758,827.8041
"1099",79.48852,827.8174
"1100",79.4519,827.8307
"1101",79.41772,827.844
"1102",79.38842,827.8573
"1103",79.364006,827.8706
"1104",79.3518,827.8839
"1105",79.33715,827.8972
"1106",79.327385,827.9105
"1107",79.32494,827.9238
"1108",79.34203,827.93713
"1109",79.40795,827.95044
"1110",79.5642,827.96375
"1111",79.815674,827.97705
"1112",80.15747,827.99036
"1113",80.533455,828.00366
"1114",80.88991,828.01697
"1115",81.163345,828.0303
"1116",81.324486,828.0436
"1117",81.36843,828.0569
"1118",81.31716,828.0702
"1119",81.19508,828.0835
"1120",81.02663,828.0968
"1121",80.84108,828.1101
"1122",80.655525,828.1234
"1123",80.48463,828.1367
"1124",80.33082,828.15
"1125",80.19409,828.1633
"1126",80.07202,828.17664
"1127",79.971924,828.18994
"1128",79.88403,828.20325
"1129",79.818115,828.21655
"1130",79.781494,828.22986
"1131",79.764404,828.24316
"1132",79.766846,828.2565
"1133",79.78882,828.2698
"1134",79.815674,828.2831
"1135",79.84497,828.2964
"1136",79.8645,828.3097
"1137",79.86694,828.323
"1138",79.85474,828.3363
"1139",79.83032,828.3496
"1140",79.79614,828.3629
"1141",79.75952,828.3762
"1142",79.72289,828.3895
"1143",79.68871,828.40283
"1144",79.66186,828.41614
"1145",79.639885,828.42944
"1146",79.61791,828.44275
"1147",79.59838,828.45605
"1148",79.57885,828.46936
"1149",79.5642,828.48267
"1150",79.54955,828.496
"1151",79.537346,828.5093
"1152",79.52758,828.5226
"1153",79.53002,828.5359
"1154",79.569084,828.5492
"1155",79.674065,828.5625
"1156",79.87671,828.5758
"1157",80.16724,828.5891
"1158",80.52125,828.6024
"1159",80.88014,828.6157
"1160",81.19264,828.629
"1161",81.40505,828.64233
"1162",81.50027,828.65564
"1163",81.48562,828.66895
"1164",81.38308,828.68225
"1165",81.2195,828.69556
"1166",81.02907,828.70886
"1167",80.833755,828.72217
"1168",80.64576,828.7355
"1169",80.4773,828.7488
"1170",80.325935,828.7621
"1171",80.19409,828.7754
"1172",80.079346,828.7887
"1173",79.991455,828.802
"1174",79.93286,828.8153
"1175",79.906006,828.8286
"1176",79.90845,828.8419
"1177",79.93042,828.8552
"1178",79.9646,828.8685
"1179",79.99634,828.88184
"1180",80.02319,828.89514
"1181",80.0354,828.90845
"1182",80.028076,828.92175
"1183",80.008545,828.93506
"1184",79.97681,828.94836
"1185",79.937744,828.9617
"1186",79.90112,828.975
"1187",79.869385,828.9883
"1188",79.835205,829.0016
"1189",79.798584,829.0149
"1190",79.764404,829.0282
"1191",79.727776,829.0415
"1192",79.68871,829.0548
"1193",79.65453,829.0681
"1194",79.62768,829.0814
"1195",79.59838,829.0947
"1196",79.571526,829.10803
"1197",79.55688,829.12134
"1198",79.571526,829.13464
"1199",79.64721,829.14795
"1200",79.81079,829.16125
"1201",80.0647,829.17456
"1202",80.38453,829.18787
"1203",80.73121,829.2012
"1204",81.041275,829.2145
"1205",81.26101,829.2278
"1206",81.356224,829.2411
"1207",81.34402,829.2544
"1208",81.23903,829.2677
"1209",81.07057,829.281
"1210",80.87038,829.2943
"1211",80.66529,829.3076
"1212",80.47242,829.3209
"1213",80.2942,829.3342
"1214",80.13306,829.34753
"1215",79.99634,829.36084
"1216",79.888916,829.37415
"1217",79.81079,829.38745
"1218",79.75952,829.40076
"1219",79.744865,829.41406
"1220",79.75952,829.42737
"1221",79.798584,829.4407
"1222",79.84497,829.454
"1223",79.888916,829.4673
"1224",79.920654,829.4806
"1225",79.937744,829.4939
"1226",79.93286,829.5072
"1227",79.91333,829.5205
"1228",79.886475,829.5338
"1229",79.84985,829.5471
"1230",79.80347,829.5604
"1231",79.75952,829.5737
"1232",79.71801,829.58704
"1233",79.67895,829.60034
"1234",79.64477,829.61365
"1235",79.61059,829.62695
"1236",79.58129,829.64026
"1237",79.54955,829.65356
"1238",79.51537,829.6669
"1239",79.48852,829.6802
"1240",79.483635,829.6935
"1241",79.53002,829.7068
"1242",79.65209,829.7201
"1243",79.85718,829.7334
"1244",80.13306,829.7467
"1245",80.4358,829.76
"1246",80.719,829.7733
"1247",80.93141,829.7866
"1248",81.041275,829.7999
"1249",81.0486,829.81323
"1250",80.972916,829.82654
"1251",80.831314,829.83984
"1252",80.655525,829.85315
"1253",80.462654,829.86646
"1254",80.274666,829.87976
"1255",80.09888,829.89307
"1256",79.94263,829.9064
"1257",79.80835,829.9197
"1258",79.7058,829.933
"1259",79.63744,829.9463
"1260",79.605705,829.9596
"1261",79.61059,829.9729
"1262",79.64477,829.9862
"1263",79.70092,829.9995
"1264",79.76196,830.0128
"1265",79.82056,830.0261
"1266",79.871826,830.0394
"1267",79.91089,830.05273
"1268",79.93286,830.06604
"1269",79.9353,830.07935
"1270",79.923096,830.09265
"1271",79.89624,830.10596
"1272",79.86206,830.11926
"1273",79.82544,830.13257
"1274",79.79126,830.1459
"1275",79.76196,830.1592
"1276",79.73754,830.1725
"1277",79.71313,830.1858
"1278",79.68871,830.1991
"1279",79.6643,830.2124
"1280",79.64965,830.2257
"1281",79.66186,830.239
"1282",79.73266,830.2523
"1283",79.87671,830.2656
"1284",80.1062,830.27893
"1285",80.38941,830.29224
"1286",80.689705,830.30554
"1287",80.953384,830.31885
"1288",81.13405,830.33215
"1289",81.21217,830.34546
"1290",81.18532,830.35876
"1291",81.075455,830.3721
"1292",80.90944,830.3854
"1293",80.71656,830.3987
"1294",80.5066,830.412
"1295",80.29664,830.4253
"1296",80.10132,830.4386
"1297",79.93042,830.4519
"1298",79.78638,830.4652
"1299",79.68383,830.4785
"1300",79.62035,830.4918
"1301",79.59594,830.5051
"1302",79.603264,830.51843
"1303",79.639885,830.53174
"1304",79.691154,830.54504
"1305",79.7522,830.55835
"1306",79.80835,830.57166
"1307",79.85718,830.58496
"1308",79.886475,830.59827
"1309",79.89624,830.6116
"1310",79.8938,830.6249
"1311",79.87671,830.6382
"1312",79.84497,830.6515
"1313",79.80591,830.6648
"1314",79.76196,830.6781
"1315",79.710686,830.6914
"1316",79.66186,830.7047
"1317",79.61791,830.718
"1318",79.58129,830.7313
"1319",79.554436,830.7446
"1320",79.56176,830.75793
"1321",79.62524,830.77124
"1322",79.75952,830.78455
"1323",79.971924,830.79785
"1324",80.24292,830.81116
"1325",80.52857,830.82446
"1326",80.7776,830.83777
"1327",80.95094,830.8511
"1328",81.02907,830.8644
"1329",81.01442,830.8777
"1330",80.919205,830.891
"1331",80.765396,830.9043
"1332",80.5774,830.9176
"1333",80.37965,830.9309
"1334",80.181885,830.9442
"1335",79.99634,830.9575
"1336",79.83032,830.9708
"1337",79.68871,830.98413
"1338",79.57397,830.99744
"1339",79.49096,831.01074
"1340",79.4519,831.02405
"1341",79.45678,831.03735
"1342",79.49584,831.05066
"1343",79.554436,831.06396
"1344",79.62768,831.0773
"1345",79.69604,831.0906
"1346",79.742424,831.1039
"1347",79.766846,831.1172
"1348",79.77661,831.1305
"1349",79.76929,831.1438
"1350",79.74731,831.1571
"1351",79.71801,831.1704
"1352",79.68383,831.1837
"1353",79.64965,831.197
"1354",79.60815,831.2103
"1355",79.5642,831.22363
"1356",79.520256,831.23694
"1357",79.48119,831.25024
"1358",79.46166,831.26355
"1359",79.49584,831.27686
"1360",79.61059,831.29016
"1361",79.81079,831.30347
"1362",80.076904,831.3168
"1363",80.37476,831.3301
"1364",80.6482,831.3434
"1365",80.850845,831.3567
"1366",80.953384,831.37
"1367",80.953384,831.3833
"1368",80.867935,831.3966
"1369",80.723885,831.4099
"1370",80.54078,831.4232
"1371",80.343025,831.4365
"1372",80.147705,831.4498
"1373",79.95972,831.46313
"1374",79.78882,831.47644
"1375",79.63744,831.48975
"1376",79.517815,831.50305
"1377",79.43725,831.51636
"1378",79.398186,831.52966
"1379",79.398186,831.54297
"1380",79.432365,831.5563
"1381",79.49096,831.5696
"1382",79.56176,831.5829
"1383",79.62768,831.5962
"1384",79.68627,831.6095
"1385",79.727776,831.6228
"1386",79.74731,831.6361
"1387",79.74975,831.6494
"1388",79.7351,831.6627
"1389",79.710686,831.676
"1390",79.67895,831.68933
"1391",79.63744,831.70264
"1392",79.59106,831.71594
"1393",79.54223,831.72925
"1394",79.49584,831.74255
"1395",79.466545,831.75586
"1396",79.47631,831.76917
"1397",79.551994,831.7825
"1398",79.7058,831.7958
"1399",79.9353,831.8091
"1400",80.20874,831.8224
"1401",80.48463,831.8357
"1402",80.71412,831.849
"1403",80.85573,831.8623
"1404",80.89479,831.8756
"1405",80.84352,831.8889
"1406",80.71656,831.9022
"1407",80.54078,831.9155
"1408",80.3357,831.92883
"1409",80.12085,831.94214
"1410",79.91333,831.95544
"1411",79.72045,831.96875
"1412",79.551994,831.98206
"1413",79.412834,831.99536
"1414",79.31518,832.00867
"1415",79.259026,832.022
"1416",79.24437,832.0353
"1417",79.26879,832.0486
"1418",79.32006,832.0619
"1419",79.38842,832.0752
"1420",79.45678,832.0885
"1421",79.51293,832.1018
"1422",79.54955,832.1151
"1423",79.569084,832.1284
"1424",79.569084,832.1417
"1425",79.554436,832.155
"1426",79.520256,832.16833
"1427",79.47875,832.18164
"1428",79.432365,832.19495
"1429",79.38354,832.20825
"1430",79.33959,832.22156
"1431",79.30541,832.23486
"1432",79.28832,832.24817
"1433",79.30785,832.2615
"1434",79.38842,832.2748
"1435",79.54711,832.2881
"1436",79.78882,832.3014
"1437",80.08423,832.3147
"1438",80.38209,832.328
"1439",80.635994,832.3413
"1440",80.80446,832.3546
"1441",80.87038,832.3679
"1442",80.833755,832.3812
"1443",80.723885,832.39453
"1444",80.56031,832.40784
"1445",80.36988,832.42114
"1446",80.16968,832.43445
"1447",79.971924,832.44775
"1448",79.79126,832.46106
"1449",79.63012,832.47437
"1450",79.50561,832.4877
"1451",79.42016,832.501
"1452",79.378654,832.5143
"1453",79.38354,832.5276
"1454",79.42748,832.5409
"1455",79.49584,832.5542
"1456",79.57885,832.5675
"1457",79.6643,832.5808
"1458",79.7351,832.5941
"1459",79.781494,832.6074
"1460",79.79614,832.6207
"1461",79.78638,832.63403
"1462",79.75952,832.64734
"1463",79.71557,832.66064
"1464",79.65942,832.67395
"1465",79.605705,832.68726
"1466",79.54955,832.70056
"1467",79.4934,832.71387
"1468",79.447014,832.7272
"1469",79.429924,832.7405
"1470",79.45922,832.7538
"1471",79.5642,832.7671
"1472",79.75952,832.7804
"1473",80.028076,832.7937
"1474",80.33814,832.807
"1475",80.635994,832.8203
"1476",80.87526,832.8336
"1477",81.0193,832.8469
"1478",81.06325,832.8602
"1479",81.01442,832.87354
"1480",80.89479,832.88684
"1481",80.726326,832.90015
"1482",80.53101,832.91345
"1483",80.325935,832.92676
"1484",80.128174,832.94006
"1485",79.94995,832.95337
"1486",79.80347,832.9667
"1487",79.693596,832.98
"1488",79.62768,832.9933
"1489",79.60815,833.0066
"1490",79.63012,833.0199
"1491",79.693596,833.0332
"1492",79.77417,833.0465
"1493",79.86206,833.0598
"1494",79.94263,833.0731
"1495",80.00366,833.0864
"1496",80.0354,833.09973
"1497",80.03784,833.11304
"1498",80.02319,833.12634
"1499",79.98901,833.13965
"1500",79.94507,833.15295
"1501",79.89624,833.16626
"1502",79.85474,833.17957
"1503",79.81079,833.1929
"1504",79.766846,833.2062
"1505",79.73266,833.2195
"1506",79.725334,833.2328
"1507",79.77661,833.2461
"1508",79.91333,833.2594
"1509",80.147705,833.2727
"1510",80.45777,833.286
"1511",80.799576,833.2993
"1512",81.11696,833.3126
"1513",81.356224,833.3259
"1514",81.48562,833.33923
"1515",81.50759,833.35254
"1516",81.43923,833.36584
"1517",81.30007,833.37915
"1518",81.112076,833.39246
"1519",80.907,833.40576
"1520",80.70191,833.41907
"1521",80.51148,833.4324
"1522",80.34791,833.4457
"1523",80.21362,833.459
"1524",80.113525,833.4723
"1525",80.05249,833.4856
"1526",80.028076,833.4989
"1527",80.042725,833.5122
"1528",80.08911,833.5255
"1529",80.15747,833.5388
"1530",80.22827,833.5521
"1531",80.289314,833.5654
"1532",80.32838,833.57874
"1533",80.343025,833.59204
"1534",80.33082,833.60535
"1535",80.29664,833.61865
"1536",80.24292,833.63196
"1537",80.181885,833.64526
"1538",80.113525,833.65857
"1539",80.045166,833.6719
"1540",79.97925,833.6852
"1541",79.923096,833.6985
"1542",79.88403,833.7118
"1543",79.89136,833.7251
"1544",79.98657,833.7384
"1545",80.177,833.7517
"1546",80.46021,833.765
"1547",80.80934,833.7783
"1548",81.163345,833.7916
"1549",81.463646,833.80493
"1550",81.671165,833.81824
"1551",81.76639,833.83154
"1552",81.75906,833.84485
"1553",81.6614,833.85815
"1554",81.50759,833.87146
"1555",81.31716,833.88477
"1556",81.11696,833.8981
"1557",80.91676,833.9114
"1558",80.72877,833.9247
"1559",80.55543,833.938
"1560",80.411385,833.9513
"1561",80.29908,833.9646
"1562",80.22339,833.9779
"1563",80.19165,833.9912
"1564",80.19409,834.0045
"1565",80.22095,834.0178
"1566",80.26246,834.0311
"1567",80.306404,834.04443
"1568",80.33814,834.05774
"1569",80.35035,834.07104
"1570",80.33326,834.08435
"1571",80.29664,834.09766
"1572",80.23804,834.11096
"1573",80.16968,834.12427
"1574",80.096436,834.1376
"1575",80.025635,834.1509
"1576",79.95239,834.1642
"1577",79.88403,834.1775
"1578",79.82544,834.1908
"1579",79.81323,834.2041
"1580",79.86694,834.2174
"1581",80.02075,834.2307
"1582",80.27711,834.244
"1583",80.60914,834.2573
"1584",80.972916,834.2706
"1585",81.31228,834.28394
"1586",81.57107,834.29724
"1587",81.72732,834.31055
"1588",81.77615,834.32385
"1589",81.72976,834.33716
"1590",81.60769,834.35046
"1591",81.43679,834.3638
"1592",81.24391,834.3771
"1593",81.04616,834.3904
"1594",80.85573,834.4037
"1595",80.68238,834.417
"1596",80.52857,834.4303
"1597",80.394295,834.4436
"1598",80.28687,834.4569
"1599",80.21118,834.4702
"1600",80.17212,834.4835
"1601",80.16235,834.4968
"1602",80.17456,834.51013
"1603",80.198975,834.52344
"1604",80.22095,834.53674
"1605",80.22583,834.55005
"1606",80.21118,834.56335
"1607",80.177,834.57666
"1608",80.12573,834.58997
"1609",80.05737,834.6033
"1610",79.98169,834.6166
"1611",79.8938,834.6299
"1612",79.80347,834.6432
"1613",79.71801,834.6565
"1614",79.63744,834.6698
"1615",79.5935,834.6831
"1616",79.61547,834.6964
"1617",79.73266,834.7097
"1618",79.954834,834.723
"1619",80.272224,834.7363
"1620",80.64332,834.74963
"1621",81.007095,834.76294
"1622",81.30984,834.77625
"1623",81.51736,834.78955
"1624",81.617455,834.80286
"1625",81.619896,834.81616
"1626",81.54177,834.82947
"1627",81.409935,834.8428
"1628",81.248795,834.8561
"1629",81.075455,834.8694
"1630",80.89967,834.8827
"1631",80.726326,834.896
"1632",80.55787,834.9093
"1633",80.40406,834.9226
"1634",80.272224,834.9359
"1635",80.16968,834.9492
"1636",80.09888,834.9625
"1637",80.06714,834.9758
"1638",80.0647,834.98914
"1639",80.076904,835.00244
"1640",80.096436,835.01575
"1641",80.111084,835.02905
"1642",80.10864,835.04236
"1643",80.08423,835.05566
"1644",80.042725,835.069
"1645",79.98169,835.0823
"1646",79.903564,835.0956
"1647",79.815674,835.1089
"1648",79.72045,835.1222
"1649",79.61791,835.1355
"1650",79.520256,835.1488
"1651",79.43969,835.1621
"1652",79.40307,835.1754
"1653",79.449455,835.1887
"1654",79.60082,835.202
"1655",79.8645,835.21533
"1656",80.218506,835.22864
"1657",80.61646,835.24194
"1658",80.99733,835.25525
"1659",81.304955,835.26855
"1660",81.50515,835.28186
"1661",81.5906,835.29517
"1662",81.57595,835.3085
"1663",81.48562,835.3218
"1664",81.34402,835.3351
"1665",81.17799,835.3484
"1666",80.99977,835.3617
"1667",80.816666,835.375
"1668",80.63111,835.3883
"1669",80.45289,835.4016
"1670",80.289314,835.4149
"1671",80.15503,835.4282
"1672",80.05249,835.4415
"1673",79.98901,835.45483
"1674",79.95972,835.46814
"1675",79.954834,835.48145
"1676",79.95239,835.49475
"1677",79.94995,835.50806
"1678",79.93042,835.52136
"1679",79.89136,835.53467
"1680",79.83765,835.548
"1681",79.766846,835.5613
"1682",79.68383,835.5746
"1683",79.5935,835.5879
"1684",79.49828,835.6012
"1685",79.40551,835.6145
"1686",79.31274,835.6278
"1687",79.2224,835.6411
"1688",79.14427,835.6544
"1689",79.10033,835.6677
"1690",79.12474,835.681
"1691",79.256584,835.69434
"1692",79.50561,835.70764
"1693",79.85962,835.72095
"1694",80.27711,835.73425
"1695",80.69459,835.74756
"1696",81.041275,835.76086
"1697",81.2781,835.7742
"1698",81.39529,835.7875
"1699",81.40261,835.8008
"1700",81.324486,835.8141
"1701",81.19264,835.8274
"1702",81.03151,835.8407
"1703",80.85573,835.854
"1704",80.672615,835.8673
"1705",80.48463,835.8806
"1706",80.30152,835.8939
"1707",80.13306,835.9072
"1708",79.98657,835.92053
"1709",79.869385,835.93384
"1710",79.783936,835.94714
"1711",79.7351,835.96045
"1712",79.71313,835.97375
"1713",79.71313,835.98706
"1714",79.71801,836.00037
"1715",79.71313,836.0137
"1716",79.693596,836.027
"1717",79.65209,836.0403
"1718",79.586174,836.0536
"1719",79.51049,836.0669
"1720",79.4226,836.0802
"1721",79.327385,836.0935
"1722",79.22972,836.1068
"1723",79.132065,836.1201
"1724",79.03685,836.1334
"1725",78.9514,836.1467
"1726",78.88304,836.16003
"1727",78.839096,836.17334
"1728",78.8513,836.18665
"1729",78.95384,836.19995
"1730",79.16136,836.21326
"1731",79.48119,836.22656
"1732",79.87915,836.23987
"1733",80.306404,836.2532
"1734",80.69703,836.2665
"1735",81.00221,836.2798
"1736",81.19264,836.2931
"1737",81.270775,836.3064
"1738",81.25124,836.3197
"1739",81.15358,836.333
"1740",81.004654,836.3463
"1741",80.82643,836.3596
"1742",80.62867,836.3729
"1743",80.428474,836.3862
"1744",80.233154,836.39954
"1745",80.045166,836.41284
"1746",79.87427,836.42615
"1747",79.7351,836.43945
"1748",79.63012,836.45276
"1749",79.56176,836.46606
"1750",79.52758,836.4794
"1751",79.51537,836.4927
"1752",79.51537,836.506
"1753",79.50805,836.5193
"1754",79.48608,836.5326
"1755",79.44457,836.5459
"1756",79.381096,836.5592
"1757",79.30053,836.5725
"1758",79.21019,836.5858
"1759",79.11742,836.5991
"1760",79.029526,836.6124
"1761",78.9514,836.62573
"1762",78.873276,836.63904
"1763",78.80003,836.65234
"1764",78.7219,836.66565
"1765",78.643776,836.67896
"1766",78.57053,836.69226
"1767",78.51194,836.70557
"1768",78.49485,836.7189
"1769",78.55833,836.7322
"1770",78.72678,836.7455
"1771",79.00755,836.7588
"1772",79.38354,836.7721
"1773",79.80591,836.7854
"1774",80.21118,836.7987
"1775",80.5481,836.812
"1776",80.7776,836.8253
"1777",80.88991,836.8386
"1778",80.89479,836.8519
"1779",80.816666,836.86523
"1780",80.6775,836.87854
"1781",80.50416,836.89185
"1782",80.31861,836.90515
"1783",80.128174,836.91846
"1784",79.937744,836.93176
"1785",79.75708,836.94507
"1786",79.59594,836.9584
"1787",79.46166,836.9717
"1788",79.36645,836.985
"1789",79.30541,836.9983
"1790",79.27856,837.0116
"1791",79.27123,837.0249
"1792",79.273674,837.0382
"1793",79.26879,837.0515
"1794",79.25414,837.0648
"1795",79.219955,837.0781
"1796",79.166245,837.09143
"1797",79.097885,837.10474
"1798",79.01976,837.11804
"1799",78.93919,837.13135
"1800",78.86107,837.14465
"1801",78.79271,837.15796
"1802",78.729225,837.17126
"1803",78.675514,837.1846
"1804",78.6218,837.1979
"1805",78.57053,837.2112
"1806",78.51682,837.2245
"1807",78.46555,837.2378
"1808",78.416725,837.2511
"1809",78.37278,837.2644
"1810",78.35813,837.2777
"1811",78.40452,837.291
"1812",78.551,837.3043
"1813",78.80736,837.3176
"1814",79.166245,837.33093
"1815",79.58373,837.34424
"1816",79.99634,837.35754
"1817",80.343025,837.37085
"1818",80.57984,837.38416
"1819",80.69703,837.39746
"1820",80.706795,837.41077
"1821",80.63355,837.4241
"1822",80.50172,837.4374
"1823",80.34547,837.4507
"1824",80.181885,837.464
"1825",80.01831,837.4773
"1826",79.86206,837.4906
"1827",79.710686,837.5039
"1828",79.571526,837.5172
"1829",79.449455,837.5305
"1830",79.35912,837.5438
"1831",79.30297,837.5571
"1832",79.28344,837.57043
"1833",79.28832,837.58374
"1834",79.310295,837.59705
"1835",79.33471,837.61035
"1836",79.34936,837.62366
"1837",79.34203,837.63696
"1838",79.31762,837.65027
"1839",79.26879,837.6636
"1840",79.21019,837.6769
"1841",79.13939,837.6902
"1842",79.06859,837.7035
"1843",79.00267,837.7168
"1844",78.941635,837.7301
"1845",78.890366,837.7434
"1846",78.84886,837.7567
"1847",78.81224,837.77
"1848",78.77806,837.7833
"1849",78.74876,837.79663
"1850",78.7219,837.80994
"1851",78.695045,837.82324
"1852",78.67307,837.83655
"1853",78.6511,837.84985
"1854",78.63645,837.86316
"1855",78.65354,837.87646
"1856",78.73411,837.8898
"1857",78.924545,837.9031
"1858",79.24437,837.9164
"1859",79.66918,837.9297
"1860",80.14282,837.943
"1861",80.58228,837.9563
"1862",80.91676,837.9696
"1863",81.10719,837.9829
"1864",81.1487,837.9962
"1865",81.08034,838.0095
"1866",80.94362,838.0228
"1867",80.77028,838.03613
"1868",80.584724,838.04944
"1869",80.39918,838.06274
"1870",80.22095,838.07605
"1871",80.05493,838.08936
"1872",79.90112,838.10266
"1873",79.766846,838.11597
"1874",79.656975,838.1293
"1875",79.57397,838.1426
"1876",79.51537,838.1559
"1877",79.483635,838.1692
"1878",79.47631,838.1825
"1879",79.483635,838.1958
"1880",79.50317,838.2091
"1881",79.520256,838.2224
"1882",79.52758,838.2357
"1883",79.51537,838.249
"1884",79.48119,838.2623
"1885",79.42504,838.27563
"1886",79.361565,838.28894
"1887",79.29809,838.30225
"1888",79.23949,838.31555
"1889",79.18822,838.32886
"1890",79.13939,838.34216
"1891",79.09544,838.35547
"1892",79.05638,838.3688
"1893",79.01976,838.3821
"1894",78.99046,838.3954
"1895",78.97337,838.4087
"1896",78.96361,838.422
"1897",78.958725,838.4353
"1898",78.9514,838.4486
"1899",78.94408,838.4619
"1900",78.94408,838.4752
"1901",78.96117,838.4885
"1902",79.029526,838.50183
"1903",79.18089,838.51514
"1904",79.43481,838.52844
"1905",79.781494,838.54175
"1906",80.18677,838.55505
"1907",80.59205,838.56836
"1908",80.93385,838.58167
"1909",81.16579,838.595
"1910",81.27566,838.6083
"1911",81.27566,838.6216
"1912",81.19264,838.6349
"1913",81.058365,838.6482
"1914",80.902115,838.6615
"1915",80.7483,838.6748
"1916",80.59937,838.6881
"1917",80.465096,838.7014
"1918",80.34058,838.7147
"1919",80.22339,838.728
"1920",80.11597,838.74133
"1921",80.028076,838.75464
"1922",79.96216,838.76794
"1923",79.91821,838.78125
"1924",79.89624,838.79456
"1925",79.8938,838.80786
"1926",79.906006,838.82117
"1927",79.91821,838.8345
"1928",79.92554,838.8478
"1929",79.923096,838.8611
"1930",79.903564,838.8744
"1931",79.8645,838.8877
"1932",79.81079,838.901
"1933",79.74975,838.9143
"1934",79.68383,838.9276
"1935",79.62035,838.9409
"1936",79.551994,838.9542
"1937",79.49584,838.9675
"1938",79.44213,838.98083
"1939",79.395744,838.99414
"1940",79.35424,839.00745
"1941",79.327385,839.02075
"1942",79.30053,839.03406
"1943",79.27856,839.04736
"1944",79.256584,839.06067
"1945",79.23949,839.074
"1946",79.2224,839.0873
"1947",79.202866,839.1006
"1948",79.18822,839.1139
"1949",79.19798,839.1272
"1950",79.26391,839.1405
"1951",79.412834,839.1538
"1952",79.66674,839.1671
"1953",80.01831,839.1804
"1954",80.42603,839.1937
"1955",80.831314,839.20703
"1956",81.17555,839.22034
"1957",81.41726,839.23364
"1958",81.54177,839.24695
"1959",81.55642,839.26025
"1960",81.49294,839.27356
"1961",81.373314,839.28687
"1962",81.231705,839.3002
"1963",81.08522,839.3135
"1964",80.9485,839.3268
"1965",80.82399,839.3401
"1966",80.70191,839.3534
"1967",80.584724,839.3667
"1968",80.47486,839.38
"1969",80.36988,839.3933
"1970",80.274666,839.4066
"1971",80.2063,839.4199
"1972",80.16235,839.4332
"1973",80.14282,839.44653
"1974",80.14282,839.45984
"1975",80.15259,839.47314
"1976",80.15747,839.48645
"1977",80.15015,839.49976
"1978",80.12573,839.51306
"1979",80.08423,839.52637
"1980",80.025635,839.5397
"1981",79.954834,839.553
"1982",79.88403,839.5663
"1983",79.81079,839.5796
"1984",79.742424,839.5929
"1985",79.676506,839.6062
"1986",79.61547,839.6195
"1987",79.55932,839.6328
"1988",79.51049,839.6461
"1989",79.466545,839.6594
"1990",79.429924,839.6727
"1991",79.40063,839.68604
"1992",79.381096,839.69934
"1993",79.36645,839.71265
"1994",79.35668,839.72595
"1995",79.34692,839.73926
"1996",79.33715,839.75256
"1997",79.32494,839.76587
"1998",79.31762,839.7792
"1999",79.33715,839.7925
"2000",79.429924,839.8058
"2001",79.61791,839.8191
"2002",79.91577,839.8324
"2003",80.29908,839.8457
"2004",80.72144,839.859
"2005",81.11696,839.8723
"2006",81.43435,839.8856
"2007",81.634544,839.8989
"2008",81.71755,839.91223
"2009",81.69558,839.92554
"2010",81.600365,839.93884
"2011",81.45632,839.95215
"2012",81.30007,839.96545
"2013",81.143814,839.97876
"2014",81.004654,839.99207
"2015",80.8777,840.0054
"2016",80.75807,840.0187
"2017",80.64088,840.032
"2018",80.53101,840.0453
"2019",80.42359,840.0586
"2020",80.33082,840.0719
"2021",80.257576,840.0852
"2022",80.2063,840.0985
"2023",80.181885,840.1118
"2024",80.17212,840.1251
"2025",80.17212,840.1384
"2026",80.16968,840.15173
"2027",80.15503,840.16504
"2028",80.12085,840.17834
"2029",80.06714,840.19165
"2030",79.99878,840.20496
"2031",79.920654,840.21826
"2032",79.835205,840.23157
"2033",79.7522,840.2449
"2034",79.66918,840.2582
"2035",79.59594,840.2715
"2036",79.53002,840.2848
"2037",79.47387,840.2981
"2038",79.42504,840.3114
"2039",79.38354,840.3247
"2040",79.34936,840.338
"2041",79.31762,840.3513
"2042",79.293205,840.3646
"2043",79.273674,840.3779
"2044",79.259026,840.39124
"2045",79.24193,840.40454
"2046",79.22972,840.41785
"2047",79.21507,840.43115
"2048",79.202866,840.44446
"2049",79.19798,840.45776
"2050",79.219955,840.47107
"2051",79.29809,840.4844
"2052",79.46899,840.4977
"2053",79.744865,840.511
"2054",80.111084,840.5243
"2055",80.52857,840.5376
"2056",80.94362,840.5509
"2057",81.29519,840.5642
"2058",81.54177,840.5775
"2059",81.67605,840.5908
"2060",81.70046,840.6041
"2061",81.634544,840.61743
"2062",81.512474,840.63074
"2063",81.36111,840.64404
"2064",81.20485,840.65735
"2065",81.05592,840.67065
"2066",80.921646,840.68396
"2067",80.797134,840.69727
"2068",80.68238,840.7106
"2069",80.57252,840.7239
"2070",80.47486,840.7372
"2071",80.396736,840.7505
"2072",80.33326,840.7638
"2073",80.2942,840.7771
"2074",80.274666,840.7904
"2075",80.272224,840.8037
"2076",80.272224,840.817
"2077",80.26978,840.8303
"2078",80.255135,840.8436
"2079",80.22583,840.85693
"2080",80.177,840.87024
"2081",80.113525,840.88354
"2082",80.042725,840.89685
"2083",79.96216,840.91016
"2084",79.88159,840.92346
"2085",79.80835,840.93677
"2086",79.742424,840.9501
"2087",79.68627,840.9634
"2088",79.635,840.9767
"2089",79.586174,840.99
"2090",79.54223,841.0033
"2091",79.49584,841.0166
"2092",79.4519,841.0299
"2093",79.415276,841.0432
"2094",79.38598,841.0565
"2095",79.35668,841.0698
"2096",79.33471,841.0831
"2097",79.31518,841.09644
"2098",79.30053,841.10974
"2099",79.28832,841.12305
"2100",79.27856,841.13635
"2101",79.26879,841.14966
"2102",79.256584,841.16296
"2103",79.24193,841.1763
"2104",79.23216,841.1896
"2105",79.23949,841.2029
"2106",79.29809,841.2162
"2107",79.449455,841.2295
"2108",79.708244,841.2428
"2109",80.06958,841.2561
"2110",80.49683,841.2694
"2111",80.93385,841.2827
"2112",81.31472,841.296
"2113",81.5906,841.3093
"2114",81.74197,841.32263
"2115",81.77615,841.33594
"2116",81.71999,841.34924
"2117",81.59548,841.36255
"2118",81.43679,841.37585
"2119",81.27322,841.38916
"2120",81.11452,841.40247
"2121",80.96559,841.4158
"2122",80.831314,841.4291
"2123",80.69947,841.4424
"2124",80.57252,841.4557
"2125",80.45289,841.469
"2126",80.343025,841.4823
"2127",80.255135,841.4956
"2128",80.19409,841.5089
"2129",80.15747,841.5222
"2130",80.14282,841.5355
"2131",80.13794,841.5488
"2132",80.128174,841.56213
"2133",80.10132,841.57544
"2134",80.05005,841.58875
"2135",79.98169,841.60205
"2136",79.89136,841.61536
"2137",79.783936,841.62866
"2138",79.67162,841.64197
"2139",79.554436,841.6553
"2140",79.43969,841.6686
"2141",79.327385,841.6819
"2142",79.22728,841.6952
"2143",79.13695,841.7085
"2144",79.061264,841.7218
"2145",78.99779,841.7351
"2146",78.94652,841.7484
"2147",78.89769,841.7617
"2148",78.853745,841.775
"2149",78.81224,841.7883
"2150",78.77318,841.80164
"2151",78.74143,841.81494
"2152",78.71946,841.82825
"2153",78.70725,841.84155
"2154",78.70725,841.85486
"2155",78.71458,841.86816
"2156",78.72678,841.8815
"2157",78.73655,841.8948
"2158",78.746315,841.9081
"2159",78.75609,841.9214
"2160",78.765854,841.9347
"2161",78.79515,841.948
"2162",78.8806,841.9613
"2163",79.061264,841.9746
"2164",79.34936,841.9879
"2165",79.73998,842.0012
"2166",80.198975,842.0145
"2167",80.66285,842.02783
"2168",81.06569,842.04114
"2169",81.36599,842.05444
"2170",81.53933,842.06775
"2171",81.59548,842.08105
"2172",81.55154,842.09436
"2173",81.43923,842.10767
"2174",81.28542,842.121
"2175",81.112076,842.1343
"2176",80.94118,842.1476
"2177",80.780045,842.1609
"2178",80.62867,842.1742
"2179",80.49195,842.1875
"2180",80.36744,842.2008
"2181",80.26002,842.2141
"2182",80.16968,842.2274
"2183",80.10132,842.2407
"2184",80.05493,842.254
"2185",80.042725,842.26733
"2186",80.04761,842.28064
"2187",80.06714,842.29395
"2188",80.08911,842.30725
"2189",80.096436,842.32056
"2190",80.08423,842.33386
"2191",80.05249,842.34717
"2192",79.99878,842.3605
"2193",79.93042,842.3738
"2194",79.85474,842.3871
"2195",79.77905,842.4004
"2196",79.70336,842.4137
"2197",79.62524,842.427
"2198",79.54711,842.4403
"2199",79.466545,842.4536
"2200",79.38598,842.4669
"2201",79.30541,842.4802
"2202",79.23216,842.4935
"2203",79.17357,842.50684
"2204",79.12718,842.52014
"2205",79.093,842.53345
"2206",79.06859,842.54675
"2207",79.0515,842.56006
"2208",79.03441,842.57336
"2209",79.01488,842.5867
"2210",79.00023,842.6
"2211",78.98558,842.6133
"2212",78.96849,842.6266
"2213",78.95384,842.6399
"2214",78.9514,842.6532
"2215",78.99046,842.6665
"2216",79.10521,842.6798
"2217",79.32494,842.6931
"2218",79.65942,842.7064
"2219",80.08179,842.7197
"2220",80.54322,842.73303
"2221",80.9778,842.74634
"2222",81.33425,842.75964
"2223",81.57351,842.77295
"2224",81.6907,842.78625
"2225",81.69802,842.79956
"2226",81.61257,842.81287
"2227",81.463646,842.8262
"2228",81.28054,842.8395
"2229",81.08278,842.8528
"2230",80.89235,842.8661
"2231",80.71656,842.8794
"2232",80.550545,842.8927
"2233",80.39918,842.906
"2234",80.26002,842.9193
"2235",80.13794,842.9326
"2236",80.045166,842.9459
"2237",79.98169,842.9592
"2238",79.94995,842.97253
"2239",79.94507,842.98584
"2240",79.957275,842.99915
"2241",79.97681,843.01245
"2242",80.00122,843.02576
"2243",80.01831,843.03906
"2244",80.02319,843.05237
"2245",80.01587,843.0657
"2246",79.9939,843.079
"2247",79.957275,843.0923
"2248",79.91089,843.1056
"2249",79.86206,843.1189
"2250",79.81079,843.1322
"2251",79.76196,843.1455
"2252",79.71313,843.1588
"2253",79.6643,843.1721
"2254",79.61791,843.1854
"2255",79.571526,843.1987
"2256",79.52758,843.21204
"2257",79.48852,843.22534
"2258",79.45434,843.23865
"2259",79.42748,843.25195
"2260",79.40551,843.26526
"2261",79.38598,843.27856
"2262",79.364006,843.2919
"2263",79.35668,843.3052
"2264",79.38354,843.3185
"2265",79.483635,843.3318
"2266",79.68627,843.3451
"2267",80.00366,843.3584
"2268",80.41871,843.3717
"2269",80.8777,843.385
"2270",81.31716,843.3983
"2271",81.67605,843.4116
"2272",81.9202,843.4249
"2273",82.04471,843.43823
"2274",82.054474,843.45154
"2275",81.96658,843.46484
"2276",81.81033,843.47815
"2277",81.38552,843.50476
"2278",81.163345,843.51807
"2279",80.95094,843.5314
"2280",80.75563,843.5447
"2281",80.57496,843.558
"2282",80.413826,843.5713
"2283",80.272224,843.5846
"2284",80.15991,843.5979
"2285",80.076904,843.6112
"2286",80.03052,843.6245
"2287",80.01099,843.6378
"2288",80.01099,843.6511
"2289",80.01587,843.6644
"2290",80.02075,843.67773
"2291",80.01587,843.69104
"2292",79.99634,843.70435
"2293",79.9646,843.71765
"2294",79.92554,843.73096
"2295",79.87427,843.74426
"2296",79.81323,843.75757
"2297",79.7522,843.7709
"2298",79.68627,843.7842
"2299",79.61791,843.7975
"2300",79.551994,843.8108
"2301",79.48852,843.8241
"2302",79.42748,843.8374
"2303",79.37377,843.8507
"2304",79.327385,843.864
"2305",79.28344,843.8773
"2306",79.23949,843.8906
"2307",79.200424,843.90393
"2308",79.1638,843.91724
"2309",79.14427,843.93054
"2310",79.166245,843.94385
"2311",79.26879,843.95715
"2312",79.46899,843.97046
"2313",79.77417,843.98376
"2314",80.15991,843.9971
"2315",80.5774,844.0104
"2316",80.96315,844.0237
"2317",81.270775,844.037
"2318",81.46853,844.0503
"2319",81.549095,844.0636
"2320",81.52712,844.0769
"2321",81.4197,844.0902
"2322",81.25613,844.1035
"2323",81.06081,844.1168
"2324",80.85329,844.1301
"2325",80.64088,844.14343
"2326",80.4358,844.15674
"2327",80.25025,844.17004
"2328",80.08423,844.18335
"2329",79.94751,844.19666
"2330",79.84741,844.20996
"2331",79.79126,844.22327
"2332",79.77173,844.2366
"2333",79.781494,844.2499
"2334",79.80835,844.2632
"2335",79.84009,844.2765
"2336",79.869385,844.2898
"2337",79.89136,844.3031
"2338",79.8938,844.3164
"2339",79.88159,844.3297
"2340",79.84741,844.343
"2341",79.801025,844.3563
"2342",79.742424,844.3696
"2343",79.676506,844.38293
"2344",79.61059,844.39624
"2345",79.54955,844.40955
"2346",79.48852,844.42285
"2347",79.42748,844.43616
"2348",79.37377,844.44946
"2349",79.32006,844.46277
"2350",79.26635,844.4761
"2351",79.217514,844.4894
"2352",79.168686,844.5027
"2353",79.12718,844.516
"2354",79.114975,844.5293
"2355",79.15404,844.5426
"2356",79.276115,844.5559
"2357",79.4934,844.5692
"2358",79.801025,844.5825
"2359",80.16968,844.5958
"2360",80.54078,844.60913
"2361",80.86549,844.62244
"2362",81.10231,844.63574
"2363",81.22682,844.64905
"2364",81.24147,844.66235
"2365",81.16823,844.67566
"2366",81.024185,844.68896
"2367",80.8362,844.7023
"2368",80.62623,844.7156
"2369",80.4065,844.7289
"2370",80.19165,844.7422
"2371",79.9939,844.7555
"2372",79.82056,844.7688
"2373",79.676506,844.7821
"2374",79.57397,844.7954
"2375",79.51537,844.8087
"2376",79.49096,844.822
"2377",79.49584,844.8353
"2378",79.53002,844.84863
"2379",79.57397,844.86194
"2380",79.61547,844.87524
"2381",79.65209,844.88855
"2382",79.676506,844.90186
"2383",79.68139,844.91516
"2384",79.67162,844.92847
"2385",79.64965,844.9418
"2386",79.61547,844.9551
"2387",79.571526,844.9684
"2388",79.53002,844.9817
"2389",79.48852,844.995
"2390",79.447014,845.0083
"2391",79.40551,845.0216
"2392",79.361565,845.0349
"2393",79.31518,845.0482
"2394",79.27123,845.0615
"2395",79.22728,845.0748
"2396",79.202866,845.08813
"2397",79.219955,845.10144
"2398",79.30785,845.11475
"2399",79.483635,845.12805
"2400",79.75708,845.14136
"2401",80.10132,845.15466
"2402",80.47486,845.16797
"2403",80.81911,845.1813
"2404",81.08522,845.1946
"2405",81.25124,845.2079
"2406",81.31228,845.2212
"2407",81.28298,845.2345
"2408",81.17555,845.2478
"2409",81.01686,845.2611
"2410",80.82643,845.2744
"2411",80.61646,845.2877
"2412",80.40406,845.301
"2413",80.19165,845.31433
"2414",79.99878,845.32764
"2415",79.835205,845.34094
"2416",79.710686,845.35425
"2417",79.63012,845.36755
"2418",79.5935,845.38086
"2419",79.603264,845.39417
"2420",79.639885,845.4075
"2421",79.68627,845.4208
"2422",79.73754,845.4341
"2423",79.783936,845.4474
"2424",79.815674,845.4607
"2425",79.835205,845.474
"2426",79.83765,845.4873
"2427",79.82544,845.5006
"2428",79.798584,845.5139
"2429",79.76196,845.5272
"2430",79.71557,845.5405
"2431",79.66674,845.55383
"2432",79.61303,845.56714
"2433",79.56176,845.58044
"2434",79.50561,845.59375
"2435",79.4519,845.60706
"2436",79.40307,845.62036
"2437",79.37621,845.63367
"2438",79.3933,845.647
"2439",79.48119,845.6603
"2440",79.66186,845.6736
"2441",79.93042,845.6869
"2442",80.26246,845.7002
"2443",80.61402,845.7135
"2444",80.936295,845.7268
"2445",81.18532,845.7401
"2446",81.33669,845.7534
"2447",81.38308,845.7667
"2448",81.339134,845.78
"2449",81.214615,845.79333
"2450",81.03395,845.80664
"2451",80.82399,845.81995
"2452",80.59693,845.83325
"2453",80.37476,845.84656
"2454",80.16724,845.85986
"2455",79.98657,845.87317
"2456",79.84009,845.8865
"2457",79.7351,845.8998
"2458",79.67162,845.9131
"2459",79.64965,845.9264
"2460",79.656975,845.9397
"2461",79.68627,845.953
"2462",79.72045,845.9663
"2463",79.75464,845.9796
"2464",79.781494,845.9929
"2465",79.801025,846.0062
"2466",79.80347,846.01953
"2467",79.79614,846.03284
"2468",79.77417,846.04614
"2469",79.73754,846.05945
"2470",79.68871,846.07275
"2471",79.62768,846.08606
"2472",79.56664,846.09937
"2473",79.50805,846.1127
"2474",79.449455,846.126
"2475",79.395744,846.1393
"2476",79.3518,846.1526
"2477",79.33227,846.1659
"2478",79.36645,846.1792
"2479",79.47875,846.1925
"2480",79.68871,846.2058
"2481",79.991455,846.2191
"2482",80.34791,846.2324
"2483",80.70435,846.2457
"2484",81.01198,846.25903
"2485",81.22926,846.27234
"2486",81.339134,846.28564
"2487",81.34646,846.29895
"2488",81.26589,846.31226
"2489",81.12184,846.32556
"2490",80.92897,846.33887
"2491",80.706795,846.3522
"2492",80.47486,846.3655
"2493",80.24536,846.3788
"2494",80.03052,846.3921
"2495",79.84253,846.4054
"2496",79.693596,846.4187
"2497",79.588615,846.432
"2498",79.53002,846.4453
"2499",79.517815,846.4586
"2500",79.54223,846.4719
"2501",79.58129,846.4852
"2502",79.63012,846.49854
"2503",79.676506,846.51184
"2504",79.708244,846.52515
"2505",79.72289,846.53845
"2506",79.725334,846.55176
"2507",79.710686,846.56506
"2508",79.68139,846.57837
"2509",79.639885,846.5917
"2510",79.588615,846.605
"2511",79.53002,846.6183
"2512",79.466545,846.6316
"2513",79.40063,846.6449
"2514",79.33715,846.6582
"2515",79.290764,846.6715
"2516",79.28588,846.6848
"2517",79.35424,846.6981
"2518",79.517815,846.7114
"2519",79.77417,846.72473
"2520",80.10376,846.73804
"2521",80.465096,846.75134
"2522",80.80202,846.76465
"2523",81.06813,846.77795
"2524",81.23903,846.79126
"2525",81.31228,846.80457
"2526",81.28542,846.8179
"2527",81.18288,846.8312
"2528",81.02663,846.8445
"2529",80.831314,846.8578
"2530",80.61158,846.8711
"2531",80.38697,846.8844
"2532",80.16724,846.8977
"2533",79.96704,846.911
"2534",79.80347,846.9243
"2535",79.67895,846.9376
"2536",79.60815,846.9509
"2537",79.58129,846.96423
"2538",79.59594,846.97754
"2539",79.635,846.99084
"2540",79.68871,847.00415
"2541",79.73998,847.01746
"2542",79.781494,847.03076
"2543",79.80835,847.04407
"2544",79.815674,847.0574
"2545",79.80591,847.0707
"2546",79.77417,847.084
"2547",79.73022,847.0973
"2548",79.674065,847.1106
"2549",79.61303,847.1239
"2550",79.54711,847.1372
"2551",79.48119,847.1505
"2552",79.42504,847.1638
"2553",79.3933,847.1771
"2554",79.41772,847.1904
"2555",79.52758,847.20374
"2556",79.73266,847.21704
"2557",80.025635,847.23035
"2558",80.37476,847.24365
"2559",80.72877,847.25696
"2560",81.03639,847.27026
"2561",81.25613,847.28357
"2562",81.38064,847.2969
"2563",81.40749,847.3102
"2564",81.34402,847.3235
"2565",81.20729,847.3368
"2566",81.024185,847.3501
"2567",80.80934,847.3634
"2568",80.57984,847.3767
"2569",80.360115,847.39
"2570",80.15503,847.4033
"2571",79.97681,847.4166
"2572",79.83276,847.42993
"2573",79.727776,847.44324
"2574",79.66186,847.45654
"2575",79.639885,847.46985
"2576",79.64721,847.48315
"2577",79.67895,847.49646
"2578",79.71557,847.50977
"2579",79.74975,847.5231
"2580",79.76929,847.5364
"2581",79.77173,847.5497
"2582",79.75464,847.563
"2583",79.71801,847.5763
"2584",79.6643,847.5896
"2585",79.603264,847.6029
"2586",79.53246,847.6162
"2587",79.45678,847.6295
"2588",79.38354,847.6428
"2589",79.327385,847.6561
"2590",79.30541,847.66943
"2591",79.3518,847.68274
"2592",79.483635,847.69604
"2593",79.71313,847.70935
"2594",80.02319,847.72266
"2595",80.37476,847.73596
"2596",80.72144,847.74927
"2597",81.01198,847.7626
"2598",81.2195,847.7759
"2599",81.32693,847.7892
"2600",81.33425,847.8025
"2601",81.26101,847.8158
"2602",81.126724,847.8291
"2603",80.9485,847.8424
"2604",80.7483,847.8557
"2605",80.54078,847.869
"2606",80.33814,847.8823
"2607",80.15259,847.8956
"2608",79.9939,847.90894
"2609",79.87427,847.92224
"2610",79.801025,847.93555
"2611",79.77173,847.94885
"2612",79.77905,847.96216
"2613",79.80591,847.97546
"2614",79.83765,847.9888
"2615",79.85962,848.0021
"2616",79.86206,848.0154
"2617",79.84741,848.0287
"2618",79.81323,848.042
"2619",79.76196,848.0553
"2620",79.68871,848.0686
"2621",79.60082,848.0819
"2622",79.50561,848.0952
"2623",79.40795,848.1085
"2624",79.31762,848.1218
"2625",79.24681,848.13513
"2626",79.2224,848.14844
"2627",79.26879,848.16174
"2628",79.40795,848.17505
"2629",79.64477,848.18835
"2630",79.957275,848.20166
"2631",80.31373,848.21497
"2632",80.65797,848.2283
"2633",80.94362,848.2416
"2634",81.13649,848.2549
"2635",81.231705,848.2682
"2636",81.22682,848.2815
"2637",81.13649,848.2948
"2638",80.98512,848.3081
"2639",80.78737,848.3214
"2640",80.56275,848.3347
"2641",80.33082,848.348
"2642",80.111084,848.3613
"2643",79.91333,848.37463
"2644",79.75464,848.38794
"2645",79.64721,848.40125
"2646",79.588615,848.41455
"2647",79.57397,848.42786
"2648",79.59106,848.44116
"2649",79.62524,848.45447
"2650",79.6643,848.4678
"2651",79.68627,848.4811
"2652",79.68627,848.4944
"2653",79.65942,848.5077
"2654",79.605705,848.521
"2655",79.53246,848.5343
"2656",79.44213,848.5476
"2657",79.34203,848.5609
"2658",79.24193,848.5742
"2659",79.14427,848.5875
"2660",79.05882,848.6008
"2661",79.00267,848.61414
"2662",79.00511,848.62744
"2663",79.093,848.64075
"2664",79.290764,848.65405
"2665",79.588615,848.66736
"2666",79.95239,848.68066
"2667",80.33326,848.694
"2668",80.6775,848.7073
"2669",80.94118,848.7206
"2670",81.09987,848.7339
"2671",81.15114,848.7472
"2672",81.10475,848.7605
"2673",80.98268,848.7738
"2674",80.80202,848.7871
"2675",80.587166,848.8004
"2676",80.36256,848.8137
"2677",80.14038,848.827
"2678",79.937744,848.84033
"2679",79.77173,848.85364
"2680",79.65453,848.86694
"2681",79.586174,848.88025
"2682",79.57397,848.89355
"2683",79.60082,848.90686
"2684",79.65209,848.92017
"2685",79.710686,848.9335
"2686",79.75708,848.9468
"2687",79.781494,848.9601
"2688",79.77661,848.9734
"2689",79.742424,848.9867
"2690",79.68139,849
"2691",79.603264,849.0133
"2692",79.51293,849.0266
"2693",79.41772,849.0399
"2694",79.3225,849.0532
"2695",79.237045,849.0665
"2696",79.17845,849.07983
"2697",79.18089,849.09314
"2698",79.28344,849.10645
"2699",79.49584,849.11975
"2700",79.82056,849.13306
"2701",80.22583,849.14636
"2702",80.66041,849.15967
"2703",81.058365,849.173
"2704",81.373314,849.1863
"2705",81.57351,849.1996
"2706",81.65652,849.2129
"2707",81.634544,849.2262
"2708",81.52712,849.2395
"2709",81.36111,849.2528
"2710",81.160904,849.2661
"2711",80.94606,849.2794
"2712",80.72877,849.2927
"2713",80.52369,849.306
"2714",80.34791,849.31934
"2715",80.21362,849.33264
"2716",80.128174,849.34595
"2717",80.08667,849.35925
"2718",80.08667,849.37256
"2719",80.10864,849.38586
"2720",80.14038,849.3992
"2721",80.17212,849.4125
"2722",80.18677,849.4258
"2723",80.17456,849.4391
"2724",80.13306,849.4524
"2725",80.062256,849.4657
"2726",79.96948,849.479
"2727",79.86206,849.4923
"2728",79.744865,849.5056
"2729",79.63256,849.5189
"2730",79.520256,849.5322
"2731",79.42748,849.54553
"2732",79.38598,849.55884
"2733",79.43481,849.57214
"2734",79.60082,849.58545
"2735",79.888916,849.59875
"2736",80.27711,849.61206
"2737",80.71656,849.62537
"2738",81.13649,849.6387
"2739",81.480736,849.652
"2740",81.71999,849.6653
"2741",81.84207,849.6786
"2742",81.85672,849.6919
"2743",81.78104,849.7052
"2744",81.63943,849.7185
"2745",81.45388,849.7318
"2746",81.24391,849.7451
"2747",81.024185,849.7584
"2748",80.80202,849.7717
"2749",80.59937,849.78503
"2750",80.42115,849.79834
"2751",80.28199,849.81165
"2752",80.18677,849.82495
"2753",80.13794,849.83826
"2754",80.12085,849.85156
"2755",80.128174,849.86487
"2756",80.13794,849.8782
"2757",80.13794,849.8915
"2758",80.12085,849.9048
"2759",80.07202,849.9181
"2760",80.00122,849.9314
"2761",79.91333,849.9447
"2762",79.815674,849.958
"2763",79.70336,849.9713
"2764",79.586174,849.9846
"2765",79.46899,849.9979
"2766",79.35912,850.0112
"2767",79.28832,850.02454
"2768",79.290764,850.03784
"2769",79.40307,850.05115
"2770",79.639885,850.06445
"2771",79.99634,850.07776
"2772",80.42603,850.09106
"2773",80.87038,850.1044
"2774",81.26345,850.1177
"2775",81.56374,850.131
"2776",81.74441,850.1443
"2777",81.80545,850.1576
"2778",81.76883,850.1709
"2779",81.65896,850.1842
"2780",81.50271,850.1975
"2781",81.31716,850.2108
"2782",81.12184,850.2241
"2783",80.92409,850.2374
"2784",80.73365,850.25073
"2785",80.5481,850.26404
"2786",80.38697,850.27734
"2787",80.257576,850.29065
"2788",80.16724,850.30396
"2789",80.113525,850.31726
"2790",80.08911,850.33057
"2791",80.079346,850.3439
"2792",80.06714,850.3572
"2793",80.03784,850.3705
"2794",79.98901,850.3838
"2795",79.91333,850.3971
"2796",79.82056,850.4104
"2797",79.71313,850.4237
"2798",79.59838,850.437
"2799",79.47875,850.4503
"2800",79.364006,850.4636
"2801",79.2517,850.4769
"2802",79.15648,850.49023
"2803",79.10033,850.50354
"2804",79.1223,850.51685
"2805",79.24925,850.53015
"2806",79.500725,850.54346
"2807",79.86206,850.55676
"2808",80.29664,850.57007
"2809",80.73853,850.5834
"2810",81.129166,850.5967
"2811",81.42214,850.61
"2812",81.602806,850.6233
"2813",81.671165,850.6366
"2814",81.65652,850.6499
"2815",81.57839,850.6632
"2816",81.45388,850.6765
"2817",81.30007,850.6898
"2818",81.126724,850.7031
"2819",80.938736,850.71643
"2820",80.740974,850.72974
"2821",80.550545,850.74304
"2822",80.37965,850.75635
"2823",80.235596,850.76965
"2824",80.12329,850.78296
"2825",80.04761,850.79626
"2826",80.00366,850.8096
"2827",79.97925,850.8229
"2828",79.9646,850.8362
"2829",79.94263,850.8495
"2830",79.906006,850.8628
"2831",79.84497,850.8761
"2832",79.764404,850.8894
"2833",79.66918,850.9027
"2834",79.56176,850.916
"2835",79.4519,850.9293
"2836",79.33715,850.9426
"2837",79.2224,850.95593
"2838",79.114975,850.96924
"2839",79.01976,850.98254
"2840",78.94408,850.99585
"2841",78.92699,851.00916
"2842",78.995346,851.02246
"2843",79.18089,851.03577
"2844",79.49096,851.0491
"2845",79.903564,851.0624
"2846",80.36988,851.0757
"2847",80.82643,851.089
"2848",81.20973,851.1023
"2849",81.48562,851.1156
"2850",81.64187,851.1289
"2851",81.6907,851.1422
"2852",81.65652,851.1555
"2853",81.566185,851.1688
"2854",81.44167,851.1821
"2855",81.29519,851.19543
"2856",81.13649,851.20874
"2857",80.955826,851.22205
"2858",80.76051,851.23535
"2859",80.56031,851.24866
"2860",80.365,851.26196
"2861",80.184326,851.27527
"2862",80.04028,851.2886
"2863",79.93286,851.3019
"2864",79.86206,851.3152
"2865",79.82056,851.3285
"2866",79.798584,851.3418
"2867",79.77661,851.3551
"2868",79.73998,851.3684
"2869",79.67895,851.3817
"2870",79.59106,851.395
"2871",79.47631,851.4083
"2872",79.34936,851.42163
"2873",79.219955,851.43494
"2874",79.09544,851.44824
"2875",78.98558,851.46155
"2876",78.88548,851.47485
"2877",78.79759,851.48816
"2878",78.71702,851.50146
"2879",78.641335,851.5148
"2880",78.57053,851.5281
"2881",78.51194,851.5414
"2882",78.47532,851.5547
"2883",78.49241,851.568
"2884",78.59739,851.5813
"2885",78.81712,851.5946
"2886",79.15892,851.6079
"2887",79.59838,851.6212
"2888",80.08667,851.6345
"2889",80.550545,851.6478
"2890",80.936295,851.66113
"2891",81.21217,851.67444
"2892",81.37087,851.68774
"2893",81.42458,851.70105
"2894",81.40505,851.71436
"2895",81.33181,851.72766
"2896",81.22682,851.74097
"2897",81.10231,851.7543
"2898",80.96315,851.7676
"2899",80.80934,851.7809
"2900",80.64332,851.7942
"2901",80.462654,851.8075
"2902",80.28199,851.8208
"2903",80.11597,851.8341
"2904",79.97681,851.8474
"2905",79.87915,851.8607
"2906",79.818115,851.874
"2907",79.783936,851.8873
"2908",79.76196,851.90063
"2909",79.73266,851.91394
"2910",79.68627,851.92725
"2911",79.61547,851.94055
"2912",79.52514,851.95386
"2913",79.4226,851.96716
"2914",79.310295,851.98047
"2915",79.19798,851.9938
"2916",79.08568,852.0071
"2917",78.97826,852.0204
"2918",78.87572,852.0337
"2919",78.7805,852.047
"2920",78.695045,852.0603
"2921",78.6218,852.0736
"2922",78.55833,852.0869
"2923",78.502174,852.1002
"2924",78.44846,852.1135
"2925",78.397194,852.12683
"2926",78.348366,852.14014
"2927",78.3093,852.15344
"2928",78.30198,852.16675
"2929",78.36057,852.18005
"2930",78.51682,852.19336
"2931",78.78294,852.20667
"2932",79.14671,852.22
"2933",79.57641,852.2333
"2934",80.008545,852.2466
"2935",80.38209,852.2599
"2936",80.655525,852.2732
"2937",80.816666,852.2865
"2938",80.8777,852.2998
"2939",80.85573,852.3131
"2940",80.77516,852.3264
"2941",80.65797,852.3397
"2942",80.52125,852.353
"2943",80.37965,852.36633
"2944",80.23071,852.37964
"2945",80.079346,852.39294
"2946",79.92798,852.40625
"2947",79.781494,852.41956
"2948",79.64721,852.43286
"2949",79.53979,852.44617
"2950",79.466545,852.4595
"2951",79.432365,852.4728
"2952",79.4226,852.4861
"2953",79.42748,852.4994
"2954",79.429924,852.5127
"2955",79.412834,852.526
"2956",79.37133,852.5393
"2957",79.310295,852.5526
"2958",79.23216,852.5659
"2959",79.14671,852.5792
"2960",79.05638,852.5925
"2961",78.96605,852.60583
"2962",78.87816,852.61914
"2963",78.79759,852.63245
"2964",78.72434,852.64575
"2965",78.66331,852.65906
"2966",78.61204,852.67236
"2967",78.56565,852.68567
"2968",78.53391,852.699
"2969",78.50706,852.7123
"2970",78.487526,852.7256
"2971",78.470436,852.7389
"2972",78.45823,852.7522
"2973",78.43626,852.7655
"2974",78.416725,852.7788
"2975",78.40208,852.7921
"2976",78.38743,852.8054
"2977",78.39231,852.8187
"2978",78.44358,852.83203
"2979",78.57786,852.84534
"2980",78.81224,852.85864
"2981",79.15404,852.87195
"2982",79.56664,852.88525
"2983",80.0061,852.89856
"2984",80.40162,852.91187
"2985",80.706795,852.9252
"2986",80.89967,852.9385
"2987",80.98512,852.9518
"2988",80.98512,852.9651
"2989",80.921646,852.9784
"2990",80.831314,852.9917
"2991",80.73365,853.005
"2992",80.63355,853.0183
"2993",80.533455,853.0316
"2994",80.428474,853.0449
"2995",80.31373,853.0582
"2996",80.18921,853.07153
"2997",80.0647,853.08484
"2998",79.95972,853.09814
"2999",79.88403,853.11145
"3000",79.84009,853.12476
"3001",79.83032,853.13806
"3002",79.84253,853.15137
"3003",79.85474,853.1647
"3004",79.85962,853.178
"3005",79.84009,853.1913
"3006",79.79614,853.2046
"3007",79.727776,853.2179
"3008",79.639885,853.2312
"3009",79.54711,853.2445
"3010",79.45434,853.2578
"3011",79.361565,853.2711
"3012",79.276115,853.2844
"3013",79.202866,853.2977
"3014",79.13451,853.31104
"3015",79.07347,853.32434
"3016",79.01488,853.33765
"3017",78.96605,853.35095
"3018",78.91966,853.36426
"3019",78.88304,853.37756
"3020",78.8513,853.39087
"3021",78.83177,853.4042
"3022",78.81712,853.4175
"3023",78.80736,853.4308
"3024",78.79759,853.4441
"3025",78.79515,853.4574
"3026",78.79271,853.4707
"3027",78.79759,853.484
"3028",78.79515,853.4973
"3029",78.79271,853.5106
"3030",78.78783,853.5239
"3031",78.7805,853.53723
"3032",78.79027,853.55054
"3033",78.853745,853.56384
"3034",79.00511,853.57715
"3035",79.26635,853.59045
"3036",79.62768,853.60376
"3037",80.05493,853.61707
"3038",80.48463,853.6304
"3039",80.85573,853.6437
"3040",81.12184,853.657
"3041",81.26833,853.6703
"3042",81.31228,853.6836
"3043",81.2781,853.6969
"3044",81.197525,853.7102
"3045",81.09743,853.7235
"3046",80.99733,853.7368
"3047",80.902115,853.7501
"3048",80.80934,853.7634
"3049",80.709236,853.77673
"3050",80.604256,853.79004
"3051",80.48951,853.80334
"3052",80.37232,853.81665
"3053",80.2649,853.82996
"3054",80.17944,853.84326
"3055",80.12329,853.85657
"3056",80.09155,853.8699
"3057",80.08179,853.8832
"3058",80.08179,853.8965
"3059",80.08179,853.9098
"3060",80.06958,853.9231
"3061",80.03784,853.9364
"3062",79.98413,853.9497
"3063",79.91333,853.963
"3064",79.82788,853.9763
"3065",79.7351,853.9896
"3066",79.64477,854.0029
"3067",79.5642,854.01624
"3068",79.49096,854.02954
"3069",79.42748,854.04285
"3070",79.36889,854.05615
"3071",79.31762,854.06946
"3072",79.27123,854.08276
"3073",79.22484,854.09607
"3074",79.183334,854.1094
"3075",79.14671,854.1227
"3076",79.114975,854.136
"3077",79.08812,854.1493
"3078",79.06615,854.1626
"3079",79.044174,854.1759
"3080",79.02464,854.1892
"3081",79.00267,854.2025
"3082",78.98558,854.2158
"3083",78.97337,854.2291
"3084",78.96605,854.24243
"3085",78.958725,854.25574
"3086",78.95628,854.26904
"3087",78.94896,854.28235
"3088",78.941635,854.29565
"3089",78.92943,854.30896
"3090",78.91722,854.32227
"3091",78.91234,854.3356
"3092",78.93919,854.3489
"3093",79.03441,854.3622
"3094",79.23216,854.3755
"3095",79.54223,854.3888
"3096",79.94507,854.4021
"3097",80.39185,854.4154
"3098",80.814224,854.4287
"3099",81.15846,854.442
"3100",81.38308,854.4553
"3101",81.48806,854.4686
"3102",81.4905,854.48193
"3103",81.4197,854.49524
"3104",81.30984,854.50854
"3105",81.18776,854.52185
"3106",81.07301,854.53516
"3107",80.970474,854.54846
"3108",80.885025,854.56177
"3109",80.799576,854.5751
"3110",80.709236,854.5884
"3111",80.6067,854.6017
"3112",80.49683,854.615
"3113",80.38941,854.6283
"3114",80.291756,854.6416
"3115",80.218506,854.6549
"3116",80.17212,854.6682
"3117",80.15259,854.6815
"3118",80.15015,854.6948
"3119",80.15259,854.7081
"3120",80.14526,854.72144
"3121",80.12085,854.73474
"3122",80.07446,854.74805
"3123",80.00366,854.76135
"3124",79.91577,854.77466
"3125",79.82056,854.78796
"3126",79.727776,854.8013
"3127",79.64477,854.8146
"3128",79.56664,854.8279
"3129",79.500725,854.8412
"3130",79.44213,854.8545
"3131",79.395744,854.8678
"3132",79.35668,854.8811
"3133",79.32006,854.8944
"3134",79.28832,854.9077
"3135",79.256584,854.921
"3136",79.22484,854.9343
"3137",79.19066,854.94763
"3138",79.168686,854.96094
"3139",79.14671,854.97424
"3140",79.132065,854.98755
"3141",79.11742,855.00085
"3142",79.10521,855.01416
"3143",79.08568,855.02747
"3144",79.06859,855.0408
"3145",79.0515,855.0541
"3146",79.03929,855.0674
"3147",79.03197,855.0807
"3148",79.03441,855.094
"3149",79.03685,855.1073
"3150",79.03929,855.1206
"3151",79.044174,855.1339
"3152",79.044174,855.1472
"3153",79.04173,855.1605
"3154",79.03685,855.1738
"3155",79.04173,855.18713
"3156",79.07103,855.20044
"3157",79.16136,855.21375
"3158",79.34203,855.22705
"3159",79.63744,855.24036
"3160",80.0354,855.25366
"3161",80.482185,855.26697
"3162",80.919205,855.2803
"3163",81.28054,855.2936
"3164",81.52224,855.3069
"3165",81.634544,855.3202
"3166",81.63943,855.3335
"3167",81.57107,855.3468
"3168",81.461205,855.3601
"3169",81.339134,855.3734
"3170",81.214615,855.3867
"3171",81.10719,855.4
"3172",81.01198,855.4133
"3173",80.92653,855.42664
"3174",80.84108,855.43994
"3175",80.75075,855.45325
"3176",80.65797,855.46655
"3177",80.55543,855.47986
"3178",80.45533,855.49316
"3179",80.36988,855.5065
"3180",80.308846,855.5198
"3181",80.272224,855.5331
"3182",80.25269,855.5464
"3183",80.24048,855.5597
"3184",80.22583,855.573
"3185",80.198975,855.5863
"3186",80.15259,855.5996
"3187",80.09155,855.6129
"3188",80.01587,855.6262
"3189",79.93286,855.6395
"3190",79.84497,855.65283
"3191",79.75464,855.66614
"3192",79.67162,855.67944
"3193",79.603264,855.69275
"3194",79.54223,855.70605
"3195",79.48852,855.71936
"3196",79.44457,855.73267
"3197",79.40551,855.746
"3198",79.36645,855.7593
"3199",79.33471,855.7726
"3200",79.31274,855.7859
"3201",79.29565,855.7992
"3202",79.27856,855.8125
"3203",79.26147,855.8258
"3204",79.24681,855.8391
"3205",79.23216,855.8524
"3206",79.217514,855.8657
"3207",79.202866,855.879
"3208",79.19066,855.89233
"3209",79.17601,855.90564
"3210",79.1638,855.91895
"3211",79.15404,855.93225
"3212",79.14671,855.94556
"3213",79.13695,855.95886
"3214",79.12718,855.97217
"3215",79.1223,855.9855
"3216",79.11253,855.9988
"3217",79.10521,856.0121
"3218",79.10277,856.0254
"3219",79.10521,856.0387
"3220",79.11253,856.052
"3221",79.11986,856.0653
"3222",79.132065,856.0786
"3223",79.168686,856.0919
"3224",79.26635,856.1052
"3225",79.45678,856.1185
"3226",79.75952,856.13184
"3227",80.15991,856.14514
"3228",80.621346,856.15845
"3229",81.07301,856.17175
"3230",81.449,856.18506
"3231",81.705345,856.19836
"3232",81.83475,856.2117
"3233",81.85184,856.225
"3234",81.778595,856.2383
"3235",81.654076,856.2516
"3236",81.512474,856.2649
"3237",81.3782,856.2782
"3238",81.25857,856.2915
"3239",81.15846,856.3048
"3240",81.07301,856.3181
"3241",80.99245,856.3314
"3242",80.91188,856.3447
"3243",80.82399,856.35803
"3244",80.73853,856.37134
"3245",80.66041,856.38464
"3246",80.59449,856.39795
"3247",80.54322,856.41125
"3248",80.51148,856.42456
"3249",80.49683,856.43787
"3250",80.49195,856.4512
"3251",80.482185,856.4645
"3252",80.46021,856.4778
"3253",80.41627,856.4911
"3254",80.34791,856.5044
"3255",80.26734,856.5177
"3256",80.17944,856.531
"3257",80.08667,856.5443
"3258",79.99634,856.5576
"3259",79.91089,856.5709
"3260",79.83032,856.5842
"3261",79.75952,856.59753
"3262",79.70092,856.61084
"3263",79.64965,856.62415
"3264",79.605705,856.63745
"3265",79.56664,856.65076
"3266",79.53246,856.66406
"3267",79.50561,856.67737
"3268",79.483635,856.6907
"3269",79.46166,856.704
"3270",79.44213,856.7173
"3271",79.42016,856.7306
"3272",79.40063,856.7439
"3273",79.381096,856.7572
"3274",79.36889,856.7705
"3275",79.35912,856.7838
"3276",79.3518,856.7971
"3277",79.33715,856.8104
"3278",79.3225,856.8237
"3279",79.310295,856.83704
"3280",79.30053,856.85034
"3281",79.293205,856.86365
"3282",79.28832,856.87695
"3283",79.27856,856.89026
"3284",79.26635,856.90356
"3285",79.256584,856.9169
"3286",79.25414,856.9302
"3287",79.281,856.9435
"3288",79.37133,856.9568
"3289",79.56176,856.9701
"3290",79.869385,856.9834
"3291",80.26734,856.9967
"3292",80.723885,857.01
"3293",81.17311,857.0233
"3294",81.549095,857.0366
"3295",81.80545,857.0499
"3296",81.93729,857.06323
"3297",81.95926,857.07654
"3298",81.89334,857.08984
"3299",81.77127,857.10315
"3300",81.62234,857.11646
"3301",81.47341,857.12976
"3302",81.33425,857.14307
"3303",81.20973,857.1564
"3304",81.094986,857.1697
"3305",80.98512,857.183
"3306",80.87526,857.1963
"3307",80.77272,857.2096
"3308",80.68238,857.2229
"3309",80.6067,857.2362
"3310",80.5481,857.2495
"3311",80.50904,857.2628
"3312",80.48463,857.2761
"3313",80.465096,857.2894
"3314",80.45045,857.30273
"3315",80.43336,857.31604
"3316",80.40406,857.32935
"3317",80.35767,857.34265
"3318",80.291756,857.35596
"3319",80.20386,857.36926
"3320",80.10864,857.38257
"3321",80.01831,857.3959
"3322",79.9353,857.4092
"3323",79.86206,857.4225
"3324",79.79614,857.4358
"3325",79.73266,857.4491
"3326",79.66674,857.4624
"3327",79.60815,857.4757
"3328",79.55932,857.489
"3329",79.51537,857.5023
"3330",79.483635,857.5156
"3331",79.45922,857.52893
"3332",79.43725,857.54224
"3333",79.412834,857.55554
"3334",79.395744,857.56885
"3335",79.378654,857.58215
"3336",79.36889,857.59546
"3337",79.35912,857.60876
"3338",79.35424,857.6221
"3339",79.34692,857.6354
"3340",79.33959,857.6487
"3341",79.33471,857.662
"3342",79.327385,857.6753
"3343",79.3225,857.6886
"3344",79.31274,857.7019
"3345",79.30053,857.7152
"3346",79.28832,857.7285
"3347",79.28832,857.7418
"3348",79.32494,857.7551
"3349",79.43725,857.76843
"3350",79.656975,857.78174
"3351",79.9939,857.79504
"3352",80.42115,857.80835
"3353",80.88747,857.82166
"3354",81.32937,857.83496
"3355",81.685814,857.84827
"3356",81.9202,857.8616
"3357",82.0325,857.8749
"3358",82.0325,857.8882
"3359",81.951935,857.9015
"3360",81.8201,857.9148
"3361",81.65896,857.9281
"3362",81.495384,857.9414
"3363",81.341576,857.9547
"3364",81.20241,857.968
"3365",81.07301,857.9813
"3366",80.953384,857.9946
"3367",80.84352,858.00793
"3368",80.743416,858.02124
"3369",80.66285,858.03455
"3370",80.60914,858.04785
"3371",80.57984,858.06116
"3372",80.57252,858.07446
"3373",80.57984,858.08777
"3374",80.58961,858.1011
"3375",80.58961,858.1144
"3376",80.57252,858.1277
"3377",80.533455,858.141
"3378",80.47242,858.1543
"3379",80.38453,858.1676
"3380",80.274666,858.1809
"3381",80.15747,858.1942
"3382",80.042725,858.2075
"3383",79.9353,858.2208
"3384",79.83765,858.23413
"3385",79.75952,858.24744
"3386",79.693596,858.26074
"3387",79.62524,858.27405
"3388",79.56664,858.28735
"3389",79.51293,858.30066
"3390",79.4641,858.31396
"3391",79.4226,858.3273
"3392",79.39086,858.3406
"3393",79.364006,858.3539
"3394",79.33959,858.3672
"3395",79.31518,858.3805
"3396",79.290764,858.3938
"3397",79.26879,858.4071
"3398",79.2517,858.4204
"3399",79.234604,858.4337
"3400",79.219955,858.447
"3401",79.20531,858.4603
"3402",79.1931,858.47363
"3403",79.183334,858.48694
"3404",79.168686,858.50024
"3405",79.15648,858.51355
"3406",79.14183,858.52686
"3407",79.12718,858.54016
"3408",79.12962,858.55347
"3409",79.18089,858.5668
"3410",79.31762,858.5801
"3411",79.56664,858.5934
"3412",79.92798,858.6067
"3413",80.36988,858.62
"3414",80.84108,858.6333
"3415",81.2781,858.6466
"3416",81.62722,858.6599
"3417",81.85672,858.6732
"3418",81.9617,858.6865
"3419",81.951935,858.6998
"3420",81.85184,858.71313
"3421",81.69558,858.72644
"3422",81.51003,858.73975
"3423",81.31472,858.75305
"3424",81.129166,858.76636
"3425",80.95827,858.77966
"3426",80.799576,858.79297
"3427",80.65308,858.8063
"3428",80.52369,858.8196
"3429",80.411385,858.8329
"3430",80.325935,858.8462
"3431",80.2649,858.8595
"3432",80.22827,858.8728
"3433",80.20874,858.8861
"3434",80.201416,858.8994
"3435",80.18921,858.9127
"3436",80.16968,858.926
"3437",80.13306,858.93933
"3438",80.07446,858.95264
"3439",79.99634,858.96594
"3440",79.90112,858.97925
"3441",79.7937,858.99255
"3442",79.67895,859.00586
"3443",79.56664,859.01917
"3444",79.46166,859.0325
"3445",79.36645,859.0458
"3446",79.27856,859.0591
"3447",79.200424,859.0724
"3448",79.132065,859.0857
"3449",79.06859,859.099
"3450",79.012436,859.1123
"3451",78.96361,859.1256
"3452",78.922104,859.1389
"3453",78.887924,859.1522
"3454",78.856186,859.1655
"3455",78.82933,859.17883
"3456",78.80736,859.19214
"3457",78.79027,859.20544
"3458",78.77806,859.21875
"3459",78.765854,859.23206
"3460",78.75609,859.24536
"3461",78.746315,859.25867
"3462",78.73411,859.272
"3463",78.71946,859.2853
"3464",78.712135,859.2986
"3465",78.70481,859.3119
"3466",78.69993,859.3252
"3467",78.695045,859.3385
"3468",78.695045,859.3518
"3469",78.70725,859.3651
"3470",78.76097,859.3784
"3471",78.90013,859.3917
"3472",79.15648,859.405
"3473",79.54223,859.41833
"3474",80.03784,859.43164
"3475",80.59205,859.44495
"3476",81.14137,859.45825
"3477",81.61257,859.47156
"3478",81.96658,859.48486
"3479",82.18631,859.49817
"3480",82.27177,859.5115
"3481",82.24246,859.5248
"3482",82.125275,859.5381
"3483",81.95926,859.5514
"3484",81.77127,859.5647
"3485",81.583275,859.578
"3486",81.40261,859.5913
"3487",81.234146,859.6046
"3488",81.07057,859.6179
"3489",80.91676,859.6312
"3490",80.77272,859.64453
"3491",80.65064,859.65784
"3492",80.552986,859.67114
"3493",80.48463,859.68445
"3494",80.44068,859.69775
"3495",80.413826,859.71106
"3496",80.394295,859.72437
"3497",80.37232,859.7377
"3498",80.33814,859.751
"3499",80.28443,859.7643
"3500",80.218506,859.7776
"3501",80.13306,859.7909
"3502",80.0354,859.8042
"3503",79.93042,859.8175
"3504",79.823,859.8308
"3505",79.710686,859.8441
"3506",79.603264,859.8574
"3507",79.49584,859.8707
"3508",79.395744,859.88403
"3509",79.30053,859.89734
"3510",79.21507,859.91064
"3511",79.13695,859.92395
"3512",79.07103,859.93726
"3513",79.01488,859.95056
"3514",78.96849,859.96387
"3515",78.93431,859.9772
"3516",78.905014,859.9905
"3517",78.8806,860.0038
"3518",78.85863,860.0171
"3519",78.836655,860.0304
"3520",78.82201,860.0437
"3521",78.80736,860.057
"3522",78.79515,860.0703
"3523",78.79027,860.0836
"3524",78.78783,860.0969
"3525",78.785385,860.1102
"3526",78.7805,860.12354
"3527",78.77562,860.13684
"3528",78.77562,860.15015
"3529",78.79515,860.16345
"3530",78.88548,860.17676
"3531",79.080795,860.19006
"3532",79.415276,860.20337
"3533",79.88159,860.2167
"3534",80.448006,860.23
"3535",81.04372,860.2433
"3536",81.600365,860.2566
"3537",82.04959,860.2699
"3538",82.35966,860.2832
"3539",82.52323,860.2965
"3540",82.55253,860.3098
"3541",82.476845,860.3231
"3542",82.32792,860.3364
"3543",82.13992,860.34973
"3544",81.93973,860.36304
"3545",81.73708,860.37634
"3546",81.54665,860.38965
"3547",81.36599,860.40295
"3548",81.20241,860.41626
"3549",81.05104,860.42957
"3550",80.919205,860.4429
"3551",80.8069,860.4562
"3552",80.723885,860.4695
"3553",80.66285,860.4828
"3554",80.62867,860.4961
"3555",80.61158,860.5094
"3556",80.59693,860.5227
"3557",80.57496,860.536
"3558",80.54322,860.5493
"3559",80.48707,860.5626
"3560",80.40406,860.5759
"3561",80.29908,860.58923
"3562",80.17944,860.60254
"3563",80.05493,860.61584
"3564",79.93042,860.62915
"3565",79.81323,860.64246
"3566",79.70336,860.65576
"3567",79.60082,860.66907
"3568",79.500725,860.6824
"3569",79.40551,860.6957
"3570",79.32494,860.709
"3571",79.25414,860.7223
"3572",79.18822,860.7356
"3573",79.132065,860.7489
"3574",79.080795,860.7622
"3575",79.03197,860.7755
"3576",78.995346,860.7888
"3577",78.96849,860.8021
"3578",78.9514,860.8154
"3579",78.941635,860.82874
"3580",78.93675,860.84204
"3581",78.92699,860.85535
"3582",78.91478,860.86865
"3583",78.905014,860.88196
"3584",78.924545,860.89526
"3585",79.012436,860.90857
"3586",79.20775,860.9219
"3587",79.53002,860.9352
"3588",79.974365,860.9485
"3589",80.499275,860.9618
"3590",81.04616,860.9751
"3591",81.54177,860.9884
"3592",81.93973,861.0017
"3593",82.20096,861.015
"3594",82.32304,861.0283
"3595",82.31815,861.0416
"3596",82.213165,861.05493
"3597",82.039825,861.06824
"3598",81.82498,861.08154
"3599",81.59304,861.09485
"3600",81.36355,861.10815
"3601",81.14137,861.12146
"3602",80.936295,861.13477
"3603",80.75075,861.1481
"3604",80.587166,861.1614
"3605",80.45289,861.1747
"3606",80.35035,861.188
"3607",80.27955,861.2013
"3608",80.24292,861.2146
"3609",80.22583,861.2279
"3610",80.216064,861.2412
"3611",80.201416,861.2545
"3612",80.17212,861.2678
"3613",80.11597,861.2811
"3614",80.04028,861.29443
"3615",79.94263,861.30774
"3616",79.83032,861.32104
"3617",79.708244,861.33435
"3618",79.586174,861.34766
"3619",79.466545,861.36096
"3620",79.35668,861.37427
"3621",79.25414,861.3876
"3622",79.1638,861.4009
"3623",79.08324,861.4142
"3624",79.00755,861.4275
"3625",78.93919,861.4408
"3626",78.8806,861.4541
"3627",78.82933,861.4674
"3628",78.785385,861.4807
"3629",78.746315,861.494
"3630",78.712135,861.5073
"3631",78.68284,861.5206
"3632",78.660866,861.53394
"3633",78.643776,861.54724
"3634",78.63645,861.56055
"3635",78.63889,861.57385
"3636",78.63889,861.58716
"3637",78.641335,861.60046
"3638",78.658424,861.6138
"3639",78.7219,861.6271
"3640",78.87572,861.6404
"3641",79.14427,861.6537
"3642",79.53246,861.667
"3643",80.008545,861.6803
"3644",80.51392,861.6936
"3645",80.97536,861.7069
"3646",81.33669,861.7202
"3647",81.55886,861.7335
"3648",81.63943,861.7468
"3649",81.600365,861.76013
"3650",81.46853,861.77344
"3651",81.2781,861.78674
"3652",81.06325,861.80005
"3653",80.84108,861.81335
"3654",80.621346,861.82666
"3655",80.413826,861.83997
"3656",80.22339,861.8533
"3657",80.062256,861.8666
"3658",79.93042,861.8799
"3659",79.83765,861.8932
"3660",79.781494,861.9065
"3661",79.76196,861.9198
"3662",79.766846,861.9331
"3663",79.78882,861.9464
"3664",79.818115,861.9597
"3665",79.84497,861.973
"3666",79.852295,861.9863
"3667",79.83276,861.99963
"3668",79.78882,862.01294
"3669",79.71801,862.02625
"3670",79.635,862.03955
"3671",79.54711,862.05286
"3672",79.45922,862.06616
"3673",79.381096,862.07947
"3674",79.310295,862.0928
"3675",79.24437,862.1061
"3676",79.183334,862.1194
"3677",79.1223,862.1327
"3678",79.061264,862.146
"3679",79.00023,862.1593
"3680",78.94408,862.1726
"3681",78.89281,862.1859
"3682",78.84886,862.1992
"3683",78.81712,862.2125
"3684",78.79515,862.2258
"3685",78.78294,862.23914
"3686",78.78294,862.25244
"3687",78.785385,862.26575
"3688",78.79027,862.27905
"3689",78.79515,862.29236
"3690",78.8098,862.30566
"3691",78.84398,862.319
"3692",78.93431,862.3323
"3693",79.114975,862.3456
"3694",79.40795,862.3589
"3695",79.798584,862.3722
"3696",80.26246,862.3855
"3697",80.73853,862.3988
"3698",81.160904,862.4121
"3699",81.478294,862.4254
"3700",81.66628,862.4387
"3701",81.72488,862.452
"3702",81.668724,862.46533
"3703",81.529564,862.47864
"3704",81.339134,862.49194
"3705",81.126724,862.50525
"3706",80.90944,862.51855
"3707",80.70191,862.53186
"3708",80.5066,862.54517
"3709",80.33082,862.5585
"3710",80.18677,862.5718
"3711",80.076904,862.5851
"3712",80.008545,862.5984
"3713",79.97925,862.6117
"3714",79.97925,862.625
"3715",79.99878,862.6383
"3716",80.03052,862.6516
"3717",80.062256,862.6649
"3718",80.08423,862.6782
"3719",80.09155,862.6915
"3720",80.079346,862.70483
"3721",80.042725,862.71814
"3722",79.98657,862.73145
"3723",79.91577,862.74475
"3724",79.84009,862.75806
"3725",79.76196,862.77136
"3726",79.68871,862.78467
"3727",79.622795,862.798
"3728",79.5642,862.8113
"3729",79.50805,862.8246
"3730",79.45922,862.8379
"3731",79.415276,862.8512
"3732",79.37377,862.8645
"3733",79.33715,862.8778
"3734",79.30785,862.8911
"3735",79.27856,862.9044
"3736",79.24925,862.9177
"3737",79.219955,862.931
"3738",79.19554,862.94434
"3739",79.18089,862.95764
"3740",79.200424,862.97095
"3741",79.29565,862.98425
"3742",79.48852,862.99756
"3743",79.781494,863.01086
"3744",80.15991,863.0242
"3745",80.57252,863.0375
"3746",80.95827,863.0508
"3747",81.25857,863.0641
"3748",81.446556,863.0774
"3749",81.514915,863.0907
"3750",81.47341,863.104
"3751",81.34646,863.1173
"3752",81.16579,863.1306
"3753",80.953384,863.1439
"3754",80.73121,863.1572
"3755",80.51392,863.17053
"3756",80.31617,863.18384
"3757",80.14526,863.19714
"3758",80.00122,863.21045
"3759",79.8938,863.22375
"3760",79.83276,863.23706
"3761",79.80835,863.25037
"3762",79.818115,863.2637
"3763",79.86206,863.277
"3764",79.920654,863.2903
"3765",79.98169,863.3036
"3766",80.03052,863.3169
"3767",80.05005,863.3302
"3768",80.04028,863.3435
"3769",80.0061,863.3568
"3770",79.95239,863.3701
"3771",79.888916,863.3834
"3772",79.823,863.3967
"3773",79.75708,863.41003
"3774",79.691154,863.42334
"3775",79.62768,863.43665
"3776",79.56664,863.44995
"3777",79.51537,863.46326
"3778",79.4641,863.47656
"3779",79.4226,863.48987
"3780",79.38354,863.5032
"3781",79.3518,863.5165
"3782",79.31762,863.5298
"3783",79.28832,863.5431
"3784",79.256584,863.5564
"3785",79.23216,863.5697
"3786",79.22484,863.583
"3787",79.27856,863.5963
"3788",79.42016,863.6096
"3789",79.67162,863.6229
"3790",80.01587,863.6362
"3791",80.42359,863.64954
"3792",80.82887,863.66284
"3793",81.17555,863.67615
"3794",81.41238,863.68945
"3795",81.52468,863.70276
"3796",81.50759,863.71606
"3797",81.38552,863.7294
"3798",81.19264,863.7427
"3799",80.96315,863.756
"3800",80.72144,863.7693
"3801",80.48463,863.7826
"3802",80.26734,863.7959
"3803",80.07202,863.8092
"3804",79.89868,863.8225
"3805",79.75952,863.8358
"3806",79.66186,863.8491
"3807",79.61059,863.8624
"3808",79.5935,863.87573
"3809",79.61303,863.88904
"3810",79.64965,863.90234
"3811",79.691154,863.91565
"3812",79.73266,863.92896
"3813",79.764404,863.94226
"3814",79.77661,863.95557
"3815",79.76196,863.9689
"3816",79.73022,863.9822
"3817",79.68383,863.9955
"3818",79.62524,864.0088
"3819",79.56176,864.0221
"3820",79.4934,864.0354
"3821",79.42504,864.0487
"3822",79.35668,864.062
"3823",79.28832,864.0753
"3824",79.22484,864.0886
"3825",79.17113,864.1019
"3826",79.1223,864.11523
"3827",79.07103,864.12854
"3828",79.01976,864.14185
"3829",78.97093,864.15515
"3830",78.93187,864.16846
"3831",78.93675,864.18176
"3832",79.01976,864.19507
"3833",79.217514,864.2084
"3834",79.52758,864.2217
"3835",79.923096,864.235
"3836",80.35279,864.2483
"3837",80.7483,864.2616
"3838",81.05592,864.2749
"3839",81.234146,864.2882
"3840",81.28542,864.3015
"3841",81.22682,864.3148
"3842",81.077896,864.3281
"3843",80.87038,864.34143
"3844",80.635994,864.35474
"3845",80.396736,864.36804
"3846",80.16235,864.38135
"3847",79.94751,864.39465
"3848",79.75708,864.40796
"3849",79.60082,864.42126
"3850",79.483635,864.4346
"3851",79.415276,864.4479
"3852",79.398186,864.4612
"3853",79.42504,864.4745
"3854",79.47875,864.4878
"3855",79.54711,864.5011
"3856",79.60815,864.5144
"3857",79.65453,864.5277
"3858",79.68139,864.541
"3859",79.68139,864.5543
"3860",79.65942,864.5676
"3861",79.61303,864.58093
"3862",79.551994,864.59424
"3863",79.47875,864.60754
"3864",79.40551,864.62085
"3865",79.33227,864.63416
"3866",79.26879,864.64746
"3867",79.21263,864.66077
"3868",79.166245,864.6741
"3869",79.1223,864.6874
"3870",79.07591,864.7007
"3871",79.03197,864.714
"3872",78.992905,864.7273
"3873",78.98314,864.7406
"3874",79.03929,864.7539
"3875",79.19798,864.7672
"3876",79.47143,864.7805
"3877",79.852295,864.7938
"3878",80.291756,864.8071
"3879",80.72144,864.82043
"3880",81.08278,864.83374
"3881",81.32937,864.84705
"3882",81.444115,864.86035
"3883",81.43679,864.87366
"3884",81.33425,864.88696
"3885",81.15846,864.90027
"3886",80.936295,864.9136
"3887",80.69703,864.9269
"3888",80.45777,864.9402
"3889",80.235596,864.9535
"3890",80.042725,864.9668
"3891",79.888916,864.9801
"3892",79.77173,864.9934
"3893",79.70336,865.0067
"3894",79.68383,865.02
"3895",79.708244,865.0333
"3896",79.76929,865.04663
"3897",79.84497,865.05994
"3898",79.91821,865.07324
"3899",79.974365,865.08655
"3900",80.0061,865.09985
"3901",80.008545,865.11316
"3902",79.98413,865.12646
"3903",79.940186,865.1398
"3904",79.88159,865.1531
"3905",79.81323,865.1664
"3906",79.742424,865.1797
"3907",79.67162,865.193
"3908",79.61059,865.2063
"3909",79.55688,865.2196
"3910",79.50561,865.2329
"3911",79.45922,865.2462
"3912",79.432365,865.2595
"3913",79.43725,865.2728
"3914",79.51049,865.28613
"3915",79.68627,865.29944
"3916",79.971924,865.31274
"3917",80.35279,865.32605
"3918",80.79225,865.33936
"3919",81.22438,865.35266
"3920",81.59548,865.36597
"3921",81.85428,865.3793
"3922",81.991,865.3926
"3923",82.005646,865.4059
"3924",81.92264,865.4192
"3925",81.76883,865.4325
"3926",81.566185,865.4458
"3927",81.33669,865.4591
"3928",81.09743,865.4724
"3929",80.86305,865.4857
"3930",80.65308,865.499
"3931",80.4773,865.5123
"3932",80.34791,865.52563
"3933",80.274666,865.53894
"3934",80.25025,865.55225
"3935",80.26734,865.56555
"3936",80.31617,865.57886
"3937",80.37232,865.59216
"3938",80.42603,865.60547
"3939",80.465096,865.6188
"3940",80.479744,865.6321
"3941",80.46754,865.6454
"3942",80.43336,865.6587
"3943",80.377205,865.672
"3944",80.30396,865.6853
"3945",80.218506,865.6986
"3946",80.12573,865.7119
"3947",80.0354,865.7252
"3948",79.94507,865.7385
"3949",79.85962,865.75183
"3950",79.783936,865.76514
"3951",79.7351,865.77844
"3952",79.74975,865.79175
"3953",79.86694,865.80505
"3954",80.111084,865.81836
"3955",80.47486,865.83167
"3956",80.93141,865.845
"3957",81.41238,865.8583
"3958",81.85184,865.8716
"3959",82.196075,865.8849
"3960",82.41337,865.8982
"3961",82.493935,865.9115
"3962",82.459755,865.9248
"3963",82.3328,865.9381
"3964",82.13992,865.9514
"3965",81.91043,865.9647
"3966",81.668724,865.978
"3967",81.42214,865.99133
"3968",81.18776,866.00464
"3969",80.9778,866.01794
"3970",80.799576,866.03125
"3971",80.66285,866.04456
"3972",80.57252,866.05786
"3973",80.52369,866.07117
"3974",80.51392,866.0845
"3975",80.533455,866.0978
"3976",80.56519,866.1111
"3977",80.59205,866.1244
"3978",80.601814,866.1377
"3979",80.587166,866.151
"3980",80.54078,866.1643
"3981",80.465096,866.1776
"3982",80.37232,866.1909
"3983",80.26246,866.2042
"3984",80.147705,866.2175
"3985",80.028076,866.23083
"3986",79.91333,866.24414
"3987",79.798584,866.25745
"3988",79.69604,866.27075
"3989",79.63012,866.28406
"3990",79.635,866.29736
"3991",79.74975,866.31067
"3992",79.99878,866.324
"3993",80.377205,866.3373
"3994",80.848404,866.3506
"3995",81.35134,866.3639
"3996",81.812775,866.3772
"3997",82.17166,866.3905
"3998",82.39872,866.4038
"3999",82.493935,866.4171
"4000",82.4744,866.4304
"4001",82.36698,866.4437
"4002",82.19852,866.45703
"4003",81.99832,866.47034
"4004",81.778595,866.48364
"4005",81.54421,866.49695
"4006",81.304955,866.51025
"4007",81.07057,866.52356
"4008",80.85573,866.53687
"4009",80.66773,866.5502
"4010",80.51881,866.5635
"4011",80.41871,866.5768
"4012",80.35523,866.5901
"4013",80.323494,866.6034
"4014",80.306404,866.6167
"4015",80.29908,866.63
"4016",80.28443,866.6433
"4017",80.25269,866.6566
"4018",80.20386,866.6699
"4019",80.130615,866.6832
"4020",80.03784,866.69653
"4021",79.920654,866.70984
"4022",79.7937,866.72314
"4023",79.65942,866.73645
"4024",79.5227,866.74976
"4025",79.38842,866.76306
"4026",79.27123,866.77637
"4027",79.19798,866.7897
"4028",79.217514,866.803
"4029",79.364006,866.8163
"4030",79.66186,866.8296
"4031",80.09888,866.8429
"4032",80.62867,866.8562
"4033",81.180435,866.8695
"4034",81.67849,866.8828
"4035",82.06424,866.8961
"4036",82.31327,866.9094
"4037",82.423134,866.9227
"4038",82.41093,866.93604
"4039",82.30595,866.94934
"4040",82.144806,866.96265
"4041",81.94949,866.97595
"4042",81.73708,866.98926
"4043",81.514915,867.00256
"4044",81.28542,867.01587
"4045",81.0486,867.0292
"4046",80.816666,867.0425
"4047",80.59937,867.0558
"4048",80.413826,867.0691
"4049",80.26002,867.0824
"4050",80.147705,867.0957
"4051",80.0647,867.109
"4052",80.00122,867.1223
"4053",79.94751,867.1356
"4054",79.89136,867.1489
"4055",79.82056,867.16223
"4056",79.73754,867.17554
"4057",79.635,867.18884
"4058",79.520256,867.20215
"4059",79.3933,867.21545
"4060",79.259026,867.22876
"4061",79.114975,867.24207
"4062",78.96605,867.2554
"4063",78.819565,867.2687
"4064",78.68772,867.282
"4065",78.59983,867.2953
"4066",78.59495,867.3086
"4067",78.71702,867.3219
"4068",78.98802,867.3352
"4069",79.3933,867.3485
"4070",79.89136,867.3618
"4071",80.411385,867.3751
"4072",80.885025,867.3884
"4073",81.24635,867.40173
"4074",81.47341,867.41504
"4075",81.5613,867.42834
"4076",81.52712,867.44165
"4077",81.40017,867.45496
"4078",81.21706,867.46826
"4079",80.99977,867.48157
"4080",80.765396,867.4949
"4081",80.52369,867.5082
"4082",80.27955,867.5215
"4083",80.042725,867.5348
"4084",79.823,867.5481
"4085",79.63256,867.5614
"4086",79.483635,867.5747
"4087",79.37621,867.588
"4088",79.30541,867.6013
"4089",79.26147,867.6146
"4090",79.23216,867.6279
"4091",79.20531,867.64124
"4092",79.17357,867.65454
"4093",79.12718,867.66785
"4094",79.05882,867.68115
"4095",78.97093,867.69446
"4096",78.86839,867.70776
"4097",78.75365,867.72107
"4098",78.62913,867.7344
"4099",78.504616,867.7477
"4100",78.380104,867.761
"4101",78.25803,867.7743
"4102",78.14084,867.7876
"4103",78.0383,867.8009
"4104",77.979706,867.8142
"4105",78.00412,867.8275
"4106",78.150604,867.8408
"4107",78.44114,867.8541
"4108",78.86839,867.86743
"4109",79.38842,867.88074
"4110",79.93286,867.89404
"4111",80.42603,867.90735
"4112",80.814224,867.92065
"4113",81.06081,867.93396
"4114",81.17067,867.94727
"4115",81.15358,867.9606
"4116",81.04372,867.9739
"4117",80.87038,867.9872
"4118",80.66041,868.0005
"4119",80.428474,868.0138
"4120",80.18921,868.0271
"4121",79.95239,868.0404
"4122",79.73266,868.0537
"4123",79.537346,868.067
"4124",79.381096,868.0803
"4125",79.27123,868.0936
"4126",79.200424,868.10693
"4127",79.17113,868.12024
"4128",79.1638,868.13354
"4129",79.17113,868.14685
"4130",79.168686,868.16016
"4131",79.14427,868.17346
"4132",79.09056,868.18677
"4133",79.012436,868.2001
"4134",78.91234,868.2134
"4135",78.80492,868.2267
"4136",78.69749,868.24
"4137",78.59495,868.2533
"4138",78.502174,868.2666
"4139",78.41428,868.2799
"4140",78.33372,868.2932
"4141",78.25803,868.3065
"4142",78.19211,868.3198
"4143",78.13107,868.3331
"4144",78.07492,868.34644
"4145",78.02609,868.35974
"4146",77.98947,868.37305
"4147",77.98947,868.38635
"4148",78.0676,868.39966
"4149",78.26292,868.41296
"4150",78.60471,868.4263
"4151",79.078354,868.4396
"4152",79.63744,868.4529
"4153",80.21362,868.4662
"4154",80.726326,868.4795
"4155",81.1194,868.4928
"4156",81.36355,868.5061
"4157",81.45632,868.5194
"4158",81.42947,868.5327
"4159",81.307396,868.546
"4160",81.129166,868.5593
"4161",80.92653,868.57263
"4162",80.71412,868.58594
"4163",80.50416,868.59924
"4164",80.29908,868.61255
"4165",80.10132,868.62585
"4166",79.91821,868.63916
"4167",79.764404,868.65247
"4168",79.64233,868.6658
"4169",79.55932,868.6791
"4170",79.51293,868.6924
"4171",79.48852,868.7057
"4172",79.47387,868.719
"4173",79.45678,868.7323
"4174",79.42504,868.7456
"4175",79.37133,868.7589
"4176",79.30053,868.7722
"4177",79.20531,868.7855
"4178",79.10033,868.7988
"4179",78.9807,868.81213
"4180",78.86107,868.82544
"4181",78.74387,868.83875
"4182",78.63645,868.85205
"4183",78.54124,868.86536
"4184",78.46555,868.87866
"4185",78.399635,868.89197
"4186",78.34348,868.9053
"4187",78.294655,868.9186
"4188",78.25315,868.9319
"4189",78.21652,868.9452
"4190",78.18967,868.9585
"4191",78.170135,868.9718
"4192",78.15793,868.9851
"4193",78.14572,868.9984
"4194",78.133514,869.0117
"4195",78.118866,869.025
"4196",78.10666,869.0383
"4197",78.118866,869.05164
"4198",78.19943,869.06494
"4199",78.39475,869.07825
"4200",78.729225,869.09155
"4201",79.18822,869.10486
"4202",79.73266,869.11816
"4203",80.28199,869.1315
"4204",80.75807,869.1448
"4205",81.11452,869.1581
"4206",81.324486,869.1714
"4207",81.40017,869.1847
"4208",81.37087,869.198
"4209",81.26833,869.2113
"4210",81.126724,869.2246
"4211",80.972916,869.2379
"4212",80.82399,869.2512
"4213",80.6775,869.2645
"4214",80.53101,869.27783
"4215",80.377205,869.29114
"4216",80.22095,869.30444
"4217",80.07202,869.31775
"4218",79.94263,869.33105
"4219",79.84497,869.34436
"4220",79.77905,869.35767
"4221",79.73998,869.371
"4222",79.71801,869.3843
"4223",79.7058,869.3976
"4224",79.691154,869.4109
"4225",79.65942,869.4242
"4226",79.61303,869.4375
"4227",79.53979,869.4508
"4228",79.447014,869.4641
"4229",79.33959,869.4774
"4230",79.22484,869.4907
"4231",79.11009,869.504
"4232",79.00511,869.51733
"4233",78.907455,869.53064
"4234",78.82689,869.54395
"4235",78.75853,869.55725
"4236",78.69993,869.57056
"4237",78.6511,869.58386
"4238",78.60471,869.59717
"4239",78.56321,869.6105
"4240",78.52903,869.6238
"4241",78.504616,869.6371
"4242",78.487526,869.6504
"4243",78.48264,869.6637
"4244",78.47776,869.677
"4245",78.47776,869.6903
"4246",78.485085,869.7036
"4247",78.48997,869.7169
"4248",78.49241,869.7302
"4249",78.49241,869.7435
"4250",78.48997,869.75684
"4251",78.5095,869.77014
"4252",78.58762,869.78345
"4253",78.77074,869.79675
"4254",79.078354,869.81006
"4255",79.500725,869.82336
"4256",79.99634,869.8367
"4257",80.48707,869.85
"4258",80.90456,869.8633
"4259",81.19508,869.8766
"4260",81.35134,869.8899
"4261",81.3782,869.9032
"4262",81.31716,869.9165
"4263",81.19508,869.9298
"4264",81.05348,869.9431
"4265",80.90944,869.9564
"4266",80.782486,869.9697
"4267",80.66773,869.98303
"4268",80.55543,869.99634
"4269",80.43824,870.00964
"4270",80.31617,870.02295
"4271",80.19409,870.03625
"4272",80.08423,870.04956
"4273",79.99634,870.06287
"4274",79.93286,870.0762
"4275",79.89136,870.0895
"4276",79.871826,870.1028
"4277",79.85474,870.1161
"4278",79.835205,870.1294
"4279",79.80591,870.1427
"4280",79.76196,870.156
"4281",79.69848,870.1693
"4282",79.622795,870.1826
"4283",79.537346,870.1959
"4284",79.44213,870.2092
"4285",79.34692,870.22253
"4286",79.259026,870.23584
"4287",79.18089,870.24915
"4288",79.10765,870.26245
"4289",79.044174,870.27576
"4290",78.99046,870.28906
"4291",78.941635,870.30237
"4292",78.90013,870.3157
"4293",78.86839,870.329
"4294",78.84642,870.3423
"4295",78.82689,870.3556
"4296",78.8098,870.3689
"4297",78.79759,870.3822
"4298",78.79027,870.3955
"4299",78.78783,870.4088
"4300",78.79027,870.4221
"4301",78.80003,870.4354
"4302",78.80736,870.4487
"4303",78.81224,870.46204
"4304",78.81468,870.47534
"4305",78.81468,870.48865
"4306",78.81224,870.50195
"4307",78.8098,870.51526
"4308",78.82201,870.52856
"4309",78.873276,870.5419
"4310",79.00511,870.5552
"4311",79.237045,870.5685
"4312",79.58129,870.5818
"4313",80.008545,870.5951
"4314",80.462654,870.6084
"4315",80.88258,870.6217
"4316",81.19997,870.635
"4317",81.38796,870.6483
"4318",81.449,870.6616
"4319",81.409935,870.6749
"4320",81.29519,870.68823
"4321",81.13893,870.70154
"4322",80.97536,870.71484
"4323",80.82887,870.72815
"4324",80.70191,870.74146
"4325",80.59449,870.75476
"4326",80.50416,870.76807
"4327",80.41871,870.7814
"4328",80.33814,870.7947
"4329",80.26246,870.808
"4330",80.19653,870.8213
"4331",80.15259,870.8346
"4332",80.128174,870.8479
"4333",80.12085,870.8612
"4334",80.12573,870.8745
"4335",80.13306,870.8878
"4336",80.13306,870.9011
"4337",80.12329,870.9144
"4338",80.09155,870.92773
"4339",80.04028,870.94104
"4340",79.971924,870.95435
"4341",79.89868,870.96765
"4342",79.815674,870.98096
"4343",79.73266,870.99426
"4344",79.65942,871.00757
"4345",79.59106,871.0209
"4346",79.52758,871.0342
"4347",79.47387,871.0475
"4348",79.42748,871.0608
"4349",79.38598,871.0741
"4350",79.3518,871.0874
"4351",79.32983,871.1007
"4352",79.31518,871.114
"4353",79.30541,871.1273
"4354",79.29565,871.1406
"4355",79.28588,871.15393
"4356",79.273674,871.16724
"4357",79.256584,871.18054
"4358",79.24681,871.19385
"4359",79.24193,871.20715
"4360",79.24437,871.22046
"4361",79.24681,871.23376
"4362",79.24925,871.2471
"4363",79.25414,871.2604
"4364",79.256584,871.2737
"4365",79.2517,871.287
"4366",79.24437,871.3003
"4367",79.22972,871.3136
"4368",79.217514,871.3269
"4369",79.219955,871.3402
"4370",79.26635,871.3535
"4371",79.395744,871.3668
"4372",79.62768,871.3801
"4373",79.96704,871.39343
"4374",80.36988,871.40674
"4375",80.78737,871.42004
"4376",81.146255,871.43335
"4377",81.39529,871.44666
"4378",81.512474,871.45996
"4379",81.51003,871.47327
"4380",81.41482,871.4866
"4381",81.26345,871.4999
"4382",81.08766,871.5132
"4383",80.90944,871.5265
"4384",80.7483,871.5398
"4385",80.604256,871.5531
"4386",80.482185,871.5664
"4387",80.37476,871.5797
"4388",80.28199,871.593
"4389",80.21118,871.6063
"4390",80.15259,871.6196
"4391",80.111084,871.63293
"4392",80.09155,871.64624
"4393",80.08911,871.65955
"4394",80.10376,871.67285
"4395",80.128174,871.68616
"4396",80.15015,871.69946
"4397",80.164795,871.71277
"4398",80.16235,871.7261
"4399",80.13794,871.7394
"4400",80.09155,871.7527
"4401",80.03052,871.766
"4402",79.96216,871.7793
"4403",79.89136,871.7926
"4404",79.82544,871.8059
"4405",79.76196,871.8192
"4406",79.7058,871.8325
"4407",79.656975,871.8458
"4408",79.61303,871.85913
"4409",79.57641,871.87244
"4410",79.54223,871.88574
"4411",79.517815,871.89905
"4412",79.49828,871.91235
"4413",79.483635,871.92566
"4414",79.466545,871.93896
"4415",79.45922,871.9523
"4416",79.45434,871.9656
"4417",79.4519,871.9789
"4418",79.447014,871.9922
"4419",79.44457,872.0055
"4420",79.44213,872.0188
"4421",79.44213,872.0321
"4422",79.44457,872.0454
"4423",79.447014,872.0587
"4424",79.449455,872.072
"4425",79.4519,872.0853
"4426",79.449455,872.09863
"4427",79.44457,872.11194
"4428",79.43725,872.12524
"4429",79.429924,872.13855
"4430",79.4226,872.15186
"4431",79.4226,872.16516
"4432",79.45434,872.17847
"4433",79.55688,872.1918
"4434",79.75708,872.2051
"4435",80.05493,872.2184
"4436",80.42359,872.2317
"4437",80.814224,872.245
"4438",81.15602,872.2583
"4439",81.392845,872.2716
"4440",81.50515,872.2849
"4441",81.497826,872.2982
"4442",81.3904,872.3115
"4443",81.22438,872.3248
"4444",81.024185,872.33813
"4445",80.82399,872.35144
"4446",80.638435,872.36475
"4447",80.48463,872.37805
"4448",80.360115,872.39136
"4449",80.257576,872.40466
"4450",80.16968,872.41797
"4451",80.096436,872.4313
"4452",80.03784,872.4446
"4453",80.00122,872.4579
"4454",79.991455,872.4712
"4455",80.00366,872.4845
"4456",80.0354,872.4978
"4457",80.076904,872.5111
"4458",80.113525,872.5244
"4459",80.13794,872.5377
"4460",80.15259,872.551
"4461",80.14526,872.56433
"4462",80.11597,872.57764
"4463",80.0647,872.59094
"4464",80.00366,872.60425
"4465",79.937744,872.61755
"4466",79.87427,872.63086
"4467",79.82056,872.64417
"4468",79.77173,872.6575
"4469",79.73266,872.6708
"4470",79.70336,872.6841
"4471",79.68383,872.6974
"4472",79.66674,872.7107
"4473",79.656975,872.724
"4474",79.65209,872.7373
"4475",79.64477,872.7506
"4476",79.63744,872.7639
"4477",79.63012,872.7772
"4478",79.63256,872.7905
"4479",79.639885,872.80383
"4480",79.64965,872.81714
"4481",79.66918,872.83044
"4482",79.68871,872.84375
"4483",79.7058,872.85706
"4484",79.71801,872.87036
"4485",79.73022,872.88367
"4486",79.73998,872.897
"4487",79.75464,872.9103
"4488",79.76929,872.9236
"4489",79.783936,872.9369
"4490",79.7937,872.9502
"4491",79.798584,872.9635
"4492",79.798584,872.9768
"4493",79.823,872.9901
"4494",79.90845,873.0034
"4495",80.08423,873.0167
"4496",80.35767,873.03
"4497",80.70435,873.04333
"4498",81.075455,873.05664
"4499",81.40261,873.06995
"4500",81.6321,873.08325
"4501",81.73708,873.09656
"4502",81.72976,873.10986
"4503",81.62966,873.12317
"4504",81.463646,873.1365
"4505",81.26345,873.1498
"4506",81.058365,873.1631
"4507",80.86061,873.1764
"4508",80.68726,873.1897
"4509",80.54322,873.203
"4510",80.42359,873.2163
"4511",80.32838,873.2296
"4512",80.257576,873.2429
"4513",80.20874,873.2562
"4514",80.184326,873.26953
"4515",80.18677,873.28284
"4516",80.2063,873.29614
"4517",80.24536,873.30945
"4518",80.28443,873.32275
"4519",80.323494,873.33606
"4520",80.34791,873.34937
"4521",80.34791,873.3627
"4522",80.325935,873.376
"4523",80.28199,873.3893
"4524",80.218506,873.4026
"4525",80.147705,873.4159
"4526",80.07202,873.4292
"4527",79.99634,873.4425
"4528",79.92798,873.4558
"4529",79.869385,873.4691
"4530",79.818115,873.4824
"4531",79.77417,873.4957
"4532",79.73998,873.50903
"4533",79.71313,873.52234
"4534",79.68627,873.53564
"4535",79.6643,873.54895
"4536",79.64233,873.56226
"4537",79.62035,873.57556
"4538",79.59594,873.58887
"4539",79.569084,873.6022
"4540",79.54711,873.6155
"4541",79.53246,873.6288
"4542",79.53002,873.6421
"4543",79.53246,873.6554
"4544",79.537346,873.6687
"4545",79.54223,873.682
"4546",79.54223,873.6953
"4547",79.53979,873.7086
"4548",79.54467,873.7219
"4549",79.586174,873.7352
"4550",79.68871,873.74854
"4551",79.88159,873.76184
"4552",80.15747,873.77515
"4553",80.499275,873.78845
"4554",80.85329,873.80176
"4555",81.163345,873.81506
"4556",81.38064,873.82837
"4557",81.48806,873.8417
"4558",81.48318,873.855
"4559",81.38552,873.8683
"4560",81.22438,873.8816
"4561",81.02907,873.8949
"4562",80.82643,873.9082
"4563",80.63111,873.9215
"4564",80.46021,873.9348
"4565",80.31129,873.9481
"4566",80.18677,873.9614
"4567",80.08667,873.97473
"4568",80.0061,873.98804
"4569",79.94995,874.00134
"4570",79.91821,874.01465
"4571",79.91577,874.02795
"4572",79.94263,874.04126
