"","ppg","time"
"1",80.740974,55.422882
"2",80.48463,55.43622
"3",80.11597,55.449554
"4",79.65209,55.46286
"5",79.11253,55.476196
"6",78.538795,55.489532
"7",77.95529,55.50287
"8",77.39864,55.516205
"9",76.88106,55.52954
"10",76.419624,55.542877
"11",76.019226,55.556213
"12",75.67742,55.56955
"13",75.386894,55.582855
"14",75.14519,55.59619
"15",74.94499,55.609528
"16",74.78142,55.622864
"17",74.649574,55.6362
"18",74.547035,55.649536
"19",74.47135,55.662872
"20",74.41764,55.676178
"21",74.38102,55.689514
"22",74.36393,55.70285
"23",74.356606,55.716187
"24",74.35905,55.729523
"25",74.37614,55.74286
"26",74.39811,55.756195
"27",74.42008,55.76953
"28",74.44694,55.782867
"29",74.47135,55.796173
"30",74.48844,55.80951
"31",74.493324,55.822845
"32",74.486,55.83618
"33",74.4567,55.849518
"34",74.4152,55.862854
"35",74.40299,55.87619
"36",74.52506,55.889496
"37",74.94255,55.902832
"38",75.81903,55.91617
"39",77.24483,55.929504
"40",79.19554,55.94284
"41",81.512474,55.956177
"42",83.93439,55.969513
"43",86.153656,55.98285
"44",87.921265,55.996185
"45",89.07362,56.00949
"46",89.566795,56.022827
"47",89.444725,56.036163
"48",88.8246,56.0495
"49",87.86267,56.062836
"50",86.710304,56.07617
"51",85.49447,56.089508
"52",84.30305,56.102814
"53",83.19707,56.11615
"54",82.22537,56.129486
"55",81.43191,56.142822
"56",80.85329,56.15616
"57",80.5066,56.169495
"58",80.39185,56.18283
"59",80.47486,56.196167
"60",80.689705,56.209503
"61",80.955826,56.22281
"62",81.19508,56.236145
"63",81.33181,56.24948
"64",81.31472,56.262817
"65",81.126724,56.276154
"66",80.782486,56.28949
"67",80.31617,56.302826
"68",79.77173,56.31613
"69",79.19554,56.329468
"70",78.626686,56.342804
"71",78.08957,56.35614
"72",77.593956,56.369476
"73",77.14961,56.382812
"74",76.76631,56.39615
"75",76.44648,56.409485
"76",76.18524,56.42282
"77",75.98016,56.436127
"78",75.82391,56.449463
"79",75.701836,56.4628
"80",75.6115,56.476135
"81",75.545586,56.48947
"82",75.50652,56.502808
"83",75.49676,56.516144
"84",75.508965,56.52945
"85",75.5407,56.542786
"86",75.58709,56.55612
"87",75.64324,56.569458
"88",75.70428,56.582794
"89",75.76288,56.59613
"90",75.809265,56.609467
"91",75.83612,56.622803
"92",75.8288,56.63614
"93",75.7995,56.649445
"94",75.77997,56.66278
"95",75.87274,56.676117
"96",76.226746,56.689453
"97",77.00069,56.70279
"98",78.28245,56.716125
"99",80.06714,56.72946
"100",82.22537,56.742767
"101",84.51789,56.756104
"102",86.661476,56.76944
"103",88.411995,56.782776
"104",89.61318,56.796112
"105",90.18692,56.80945
"106",90.15274,56.822784
"107",89.6083,56.83612
"108",88.69276,56.849457
"109",87.55016,56.862762
"110",86.30747,56.8761
"111",85.06966,56.889435
"112",83.90265,56.90277
"113",82.86015,56.916107
"114",81.991,56.929443
"115",81.339134,56.94278
"116",80.93141,56.956085
"117",80.76784,56.96942
"118",80.81911,56.982758
"119",81.02663,56.996094
"120",81.31472,57.00943
"121",81.59548,57.022766
"122",81.795685,57.036102
"123",81.8616,57.04944
"124",81.76395,57.062775
"125",81.50515,57.07608
"126",81.10719,57.089417
"127",80.61646,57.102753
"128",80.06958,57.11609
"129",79.50317,57.129425
"130",78.9514,57.14276
"131",78.42893,57.156097
"132",77.95773,57.169403
"133",77.54513,57.18274
"134",77.19356,57.196075
"135",76.89815,57.20941
"136",76.65888,57.222748
"137",76.47578,57.236084
"138",76.3415,57.24942
"139",76.25117,57.262756
"140",76.19501,57.276093
"141",76.15839,57.2894
"142",76.12665,57.302734
"143",76.09003,57.31607
"144",76.04852,57.329407
"145",76.02899,57.342743
"146",76.121765,57.35608
"147",76.46113,57.369415
"148",77.20332,57.38272
"149",78.46555,57.396057
"150",80.255135,57.409393
"151",82.459755,57.42273
"152",84.84749,57.436066
"153",87.132675,57.4494
"154",89.04433,57.462738
"155",90.40421,57.476074
"156",91.11467,57.48941
"157",91.19035,57.502716
"158",90.71671,57.516052
"159",89.83536,57.52939
"160",88.707405,57.542725
"161",87.47936,57.55606
"162",86.261086,57.569397
"163",85.10628,57.582733
"164",84.054016,57.59604
"165",83.11894,57.609375
"166",82.320595,57.62271
"167",81.68093,57.636047
"168",81.21217,57.649384
"169",80.92653,57.66272
"170",80.799576,57.676056
"171",80.78981,57.689392
"172",80.84596,57.70273
"173",80.902115,57.716034
"174",80.89967,57.72937
"175",80.78737,57.742706
"176",80.54566,57.756042
"177",80.17456,57.76938
"178",79.69848,57.782715
"179",79.149155,57.79605
"180",78.56565,57.809357
"181",77.977264,57.822693
"182",77.41329,57.83603
"183",76.89082,57.849365
"184",76.42939,57.8627
"185",76.036316,57.876038
"186",75.70916,57.889374
"187",75.44793,57.90271
"188",75.24284,57.916046
"189",75.07439,57.92935
"190",74.93767,57.942688
"191",74.82048,57.956024
"192",74.720375,57.96936
"193",74.63737,57.982697
"194",74.615395,57.996033
"195",74.74967,58.00937
"196",75.20134,58.022675
"197",76.12665,58.03601
"198",77.63058,58.049347
"199",79.69848,58.062683
"200",82.18387,58.07602
"201",84.81331,58.089355
"202",87.27917,58.10269
"203",89.30068,58.116028
"204",90.704506,58.129364
"205",91.41497,58.14267
"206",91.46868,58.156006
"207",90.97551,58.169342
"208",90.09415,58.18268
"209",88.990616,58.196014
"210",87.81384,58.20935
"211",86.66636,58.222687
"212",85.59701,58.235992
"213",84.61799,58.24933
"214",83.719536,58.262665
"215",82.90166,58.276
"216",82.1741,58.289337
"217",81.55154,58.302673
"218",81.06081,58.31601
"219",80.706795,58.329346
"220",80.46754,58.34268
"221",80.31861,58.355988
"222",80.218506,58.369324
"223",80.113525,58.38266
"224",79.954834,58.395996
"225",79.71801,58.409332
"226",79.381096,58.42267
"227",78.94408,58.436005
"228",78.43137,58.44931
"229",77.86984,58.462646
"230",77.28634,58.475983
"231",76.70527,58.48932
"232",76.15106,58.502655
"233",75.64568,58.51599
"234",75.19646,58.529327
"235",74.80583,58.542664
"236",74.48112,58.556
"237",74.21988,58.569305
"238",74.0148,58.58264
"239",73.865875,58.595978
"240",73.77066,58.609314
"241",73.71206,58.62265
"242",73.6852,58.635986
"243",73.67788,58.649323
"244",73.6852,58.66263
"245",73.69741,58.675964
"246",73.704735,58.6893
"247",73.70962,58.702637
"248",73.73159,58.715973
"249",73.8439,58.72931
"250",74.19302,58.742645
"251",74.97917,58.75598
"252",76.35615,58.769318
"253",78.37522,58.782623
"254",80.94606,58.79596
"255",83.83185,58.809296
"256",86.70542,58.82263
"257",89.232315,58.835968
"258",91.16594,58.849304
"259",92.369576,58.86264
"260",92.83345,58.875946
"261",92.63813,58.889282
"262",91.93988,58.90262
"263",90.92912,58.915955
"264",89.776764,58.92929
"265",88.61219,58.942627
"266",87.50866,58.955963
"267",86.48325,58.9693
"268",85.521324,58.982635
"269",84.610664,58.99594
"270",83.756165,59.009277
"271",82.97002,59.022614
"272",82.28153,59.03595
"273",81.71755,59.049286
"274",81.29275,59.062622
"275",80.990005,59.07596
"276",80.7776,59.089264
"277",80.6067,59.1026
"278",80.428474,59.115936
"279",80.19165,59.129272
"280",79.869385,59.14261
"281",79.449455,59.155945
"282",78.93431,59.16928
"283",78.345924,59.182617
"284",77.71847,59.195953
"285",77.08125,59.20926
"286",76.456245,59.222595
"287",75.87518,59.23593
"288",75.352715,59.249268
"289",74.896164,59.262604
"290",74.50797,59.27594
"291",74.18814,59.289276
"292",73.93179,59.30258
"293",73.72671,59.315918
"294",73.5729,59.329254
"295",73.45571,59.34259
"296",73.375145,59.355927
"297",73.31899,59.369263
"298",73.287254,59.3826
"299",73.27749,59.395935
"300",73.289696,59.40927
"301",73.321434,59.422577
"302",73.36538,59.435913
"303",73.42397,59.44925
"304",73.53872,59.47592
"305",73.58022,59.489258
"306",73.60708,59.502594
"307",73.61196,59.5159
"308",73.61196,59.529236
"309",73.65835,59.542572
"310",73.87808,59.55591
"311",74.47135,59.569244
"312",75.62371,59.58258
"313",77.454796,59.595917
"314",79.93286,59.609253
"315",82.86748,59.62259
"316",85.93881,59.635895
"317",88.78554,59.64923
"318",91.09514,59.662567
"319",92.67231,59.675903
"320",93.44381,59.68924
"321",93.4609,59.702576
"322",92.85542,59.71591
"323",90.53849,59.742554
"324",89.18593,59.75589
"325",87.87244,59.769226
"326",86.64927,59.782562
"327",85.53597,59.7959
"328",84.5301,59.809235
"329",83.64385,59.82257
"330",82.88945,59.835907
"331",82.28397,59.849213
"332",81.84207,59.86255
"333",81.55398,59.875885
"334",81.39529,59.88922
"335",81.307396,59.902557
"336",81.24147,59.915894
"337",81.14137,59.92923
"338",80.96315,59.942535
"339",80.67017,59.95587
"340",80.26734,59.969208
"341",79.75708,59.982544
"342",79.168686,59.99588
"343",78.53391,60.009216
"344",77.88693,60.022552
"345",77.24971,60.03589
"346",76.646675,60.049225
"347",76.09247,60.06253
"348",75.5993,60.075867
"349",75.1696,60.089203
"350",74.80339,60.10254
"351",74.50065,60.115875
"352",74.25651,60.12921
"353",74.06607,60.142548
"354",73.92203,60.155853
"355",73.81949,60.16919
"356",73.74868,60.182526
"357",73.704735,60.19586
"358",73.687645,60.209198
"359",73.69253,60.222534
"360",73.71938,60.23587
"361",73.7731,60.249207
"362",73.83414,60.262543
"363",73.89273,60.27585
"364",73.94156,60.289185
"365",73.96109,60.30252
"366",73.96109,60.315857
"367",73.99771,60.329193
"368",74.1857,60.34253
"369",74.6984,60.355865
"370",75.72869,60.36917
"371",77.383995,60.382507
"372",79.64233,60.395844
"373",82.32548,60.40918
"374",85.13313,60.422516
"375",87.72106,60.435852
"376",89.78653,60.44919
"377",91.14885,60.462524
"378",91.74456,60.47586
"379",91.62249,60.489166
"380",90.90227,60.502502
"381",89.767,60.51584
"382",88.394905,60.529175
"383",86.939804,60.54251
"384",85.51156,60.555847
"385",84.18585,60.569183
"386",82.99931,60.58249
"387",81.986115,60.595825
"388",81.16823,60.60916
"389",80.57252,60.622498
"390",80.2063,60.635834
"391",80.04761,60.64917
"392",80.05737,60.662506
"393",80.164795,60.675842
"394",80.30152,60.68918
"395",80.39185,60.702484
"396",80.38453,60.71582
"397",80.24536,60.729156
"398",79.96216,60.742493
"399",79.54955,60.75583
"400",79.03929,60.769165
"401",78.46311,60.7825
"402",77.85275,60.795807
"403",77.25216,60.809143
"404",76.67841,60.82248
"405",76.15106,60.835815
"406",75.68719,60.84915
"407",75.27947,60.862488
"408",74.9279,60.875824
"409",74.63004,60.88916
"410",74.38346,60.902496
"411",74.175934,60.915802
"412",74.00748,60.92914
"413",73.88052,60.942474
"414",73.79019,60.95581
"415",73.73159,60.969147
"416",73.70718,60.982483
"417",73.71694,60.99582
"418",73.75357,61.009125
"419",73.814606,61.02246
"420",73.89517,61.035797
"421",73.98062,61.049133
"422",74.06119,61.06247
"423",74.12222,61.075806
"424",74.16373,61.08914
"425",74.20523,61.102478
"426",74.339516,61.115814
"427",74.72282,61.12912
"428",75.53094,61.142456
"429",76.90303,61.155792
"430",78.85863,61.16913
"431",81.287865,61.182465
"432",83.93683,61.1958
"433",86.49302,61.209137
"434",88.653694,61.222443
"435",90.20401,61.23578
"436",91.04387,61.249115
"437",91.17326,61.26245
"438",90.67033,61.275787
"439",89.67666,61.289124
"440",88.3534,61.30246
"441",86.854355,61.315796
"442",85.30892,61.329132
"443",83.81964,61.342438
"444",82.4622,61.355774
"445",81.29763,61.36911
"446",80.37476,61.382446
"447",79.7351,61.395782
"448",79.3933,61.40912
"449",79.32983,61.422455
"450",79.50317,61.43576
"451",79.83032,61.449097
"452",80.22095,61.462433
"453",80.58228,61.47577
"454",80.831314,61.489105
"455",80.921646,61.50244
"456",80.82887,61.515778
"457",80.56275,61.529114
"458",80.15503,61.54245
"459",79.64477,61.555756
"460",79.080795,61.56909
"461",78.49729,61.582428
"462",77.93088,61.595764
"463",77.3962,61.6091
"464",76.910355,61.622437
"465",76.48066,61.635773
"466",76.10712,61.64908
"467",75.789734,61.662415
"468",75.53338,61.67575
"469",75.338066,61.689087
"470",75.19646,61.702423
"471",75.10368,61.71576
"472",75.052414,61.729095
"473",75.03288,61.74243
"474",75.04021,61.755768
"475",75.06218,61.769073
"476",75.089035,61.78241
"477",75.10368,61.795746
"478",75.0988,61.809082
"479",75.08659,61.82242
"480",75.12077,61.835754
"481",75.338066,61.84909
"482",75.90692,61.862396
"483",76.97139,61.875732
"484",78.58762,61.88907
"485",80.689705,61.902405
"486",83.07744,61.91574
"487",85.46761,61.929077
"488",87.56481,61.942413
"489",89.15419,61.95575
"490",90.10635,61.969086
"491",90.392006,61.98239
"492",90.06241,61.995728
"493",89.22499,62.009064
"494",88.009155,62.0224
"495",86.56138,62.035736
"496",85.00618,62.049072
"497",83.45098,62.06241
"498",81.98367,62.075714
"499",80.68482,62.08905
"500",79.62768,62.102386
"501",78.870834,62.115723
"502",78.450905,62.12906
"503",78.36057,62.142395
"504",78.56077,62.15573
"505",78.975815,62.169067
"506",79.500725,62.182404
"507",80.02319,62.19571
"508",80.45777,62.209045
"509",80.73609,62.22238
"510",80.82887,62.235718
"511",80.726326,62.249054
"512",80.462654,62.26239
"513",80.07202,62.275726
"514",79.59838,62.289032
"515",79.078354,62.30237
"516",78.551,62.315704
"517",78.04074,62.32904
"518",77.57198,62.342377
"519",77.154495,62.355713
"520",76.79561,62.36905
"521",76.49775,62.382385
"522",76.25117,62.39572
"523",76.04364,62.409027
"524",75.86542,62.422363
"525",75.70428,62.4357
"526",75.58465,62.449036
"527",75.57244,62.46237
"528",75.79462,62.475708
"529",76.4123,62.489044
"530",77.5671,62.50235
"531",79.29809,62.515686
"532",81.514915,62.529022
"533",84.00275,62.54236
"534",86.46616,62.555695
"535",88.60731,62.56903
"536",90.19913,62.582367
"537",91.121994,62.595703
"538",91.35638,62.60904
"539",90.95598,62.622345
"540",90.03555,62.63568
"541",88.75136,62.649017
"542",87.24498,62.662354
"543",85.645836,62.67569
"544",84.0589,62.689026
"545",82.56962,62.702362
"546",81.253685,62.715668
"547",80.181885,62.729004
"548",79.40551,62.74234
"549",78.9514,62.755676
"550",78.82201,62.769012
"551",78.96605,62.78235
"552",79.30053,62.795685
"553",79.73266,62.80902
"554",80.15991,62.822357
"555",80.49683,62.835663
"556",80.6775,62.849
"557",80.67506,62.862335
"558",80.48951,62.87567
"559",80.14526,62.889008
"560",79.68139,62.902344
"561",79.149155,62.91568
"562",78.5803,62.928986
"563",78.02365,62.94232
"564",77.49386,62.955658
"565",77.01778,62.968994
"566",76.60273,62.98233
"567",76.25605,62.995667
"568",75.97528,63.009003
"569",75.75311,63.02234
"570",75.58221,63.035675
"571",75.45037,63.04898
"572",75.338066,63.062317
"573",75.23796,63.075653
"574",75.17937,63.08899
"575",75.2575,63.102325
"576",75.648125,63.11566
"577",76.5539,63.128998
"578",78.116425,63.142303
"579",80.35035,63.15564
"580",83.11406,63.168976
"581",86.10971,63.182312
"582",88.98085,63.19565
"583",91.39056,63.208984
"584",93.10933,63.22232
"585",94.03464,63.235657
"586",94.1738,63.248993
"587",93.62936,63.2623
"588",92.55756,63.275635
"589",91.14397,63.28897
"590",89.55947,63.302307
"591",87.94812,63.315643
"592",86.39536,63.32898
"593",84.96712,63.342316
"594",83.70489,63.35562
"595",82.63554,63.368958
"596",81.78836,63.382294
"597",81.18288,63.39563
"598",80.814224,63.408966
"599",80.66041,63.422302
"600",80.66773,63.43564
"601",80.762955,63.448975
"602",80.87526,63.46231
"603",80.93385,63.475616
"604",80.88014,63.488953
"605",80.68238,63.50229
"606",80.33082,63.515625
"607",79.84985,63.52896
"608",79.26635,63.542297
"609",78.61936,63.555634
"610",77.95285,63.56894
"611",77.30343,63.582275
"612",76.69306,63.59561
"613",76.1413,63.608948
"614",75.65789,63.622284
"615",75.245285,63.63562
"616",74.89128,63.648956
"617",74.58854,63.662292
"618",74.319984,63.67563
"619",74.08072,63.688934
"620",73.87808,63.70227
"621",73.7731,63.715607
"622",73.9147,63.728943
"623",74.50309,63.74228
"624",75.72381,63.755615
"625",77.6672,63.76895
"626",80.2649,63.782257
"627",83.27764,63.795593
"628",86.3563,63.80893
"629",89.127335,63.822266
"630",91.2929,63.8356
"631",92.679634,63.848938
"632",93.24361,63.862274
"633",93.06294,63.87561
"634",92.27924,63.888947
"635",91.08049,63.902252
"636",89.671776,63.91559
"637",88.20691,63.928925
"638",86.79576,63.94226
"639",85.49203,63.955597
"640",84.30549,63.968933
"641",83.22392,63.98227
"642",82.24979,63.995575
"643",81.392845,64.00891
"644",80.67506,64.02225
"645",80.11597,64.03558
"646",79.71557,64.04892
"647",79.4641,64.062256
"648",79.31274,64.07559
"649",79.20775,64.08893
"650",79.09544,64.102264
"651",78.92699,64.11557
"652",78.67063,64.12891
"653",78.3093,64.14224
"654",77.85031,64.15558
"655",77.313194,64.168915
"656",76.72968,64.18225
"657",76.12665,64.19559
"658",75.53094,64.20889
"659",74.97185,64.22223
"660",74.46403,64.235565
"661",74.01724,64.2489
"662",73.62417,64.26224
"663",73.287254,64.27557
"664",72.99428,64.28891
"665",72.73792,64.302246
"666",72.535286,64.31558
"667",72.47425,64.32889
"668",72.71595,64.342224
"669",73.45815,64.35556
"670",74.864426,64.3689
"671",76.9836,64.38223
"672",79.69848,64.39557
"673",82.72831,64.408905
"674",85.697105,64.42221
"675",88.236206,64.43555
"676",90.07706,64.44888
"677",91.08293,64.46222
"678",91.2636,64.475555
"679",90.74601,64.48889
"680",89.72793,64.50223
"681",88.43641,64.515564
"682",87.05943,64.5289
"683",85.72884,64.542206
"684",84.49836,64.55554
"685",83.38018,64.56888
"686",82.34257,64.582214
"687",81.375755,64.59555
"688",80.48463,64.60889
"689",79.691154,64.62222
"690",79.029526,64.63553
"691",78.52903,64.648865
"692",78.19211,64.6622
"693",77.99191,64.67554
"694",77.88693,64.68887
"695",77.81857,64.70221
"696",77.72823,64.715546
"697",77.57198,64.72888
"698",77.32296,64.74222
"699",76.97383,64.75552
"700",76.53193,64.76886
"701",76.019226,64.782196
"702",75.46746,64.79553
"703",74.91325,64.80887
"704",74.38102,64.822205
"705",73.89273,64.83554
"706",73.460594,64.84885
"707",73.094376,64.86218
"708",72.78676,64.87552
"709",72.54017,64.888855
"710",72.34974,64.90219
"711",72.21301,64.91553
"712",72.12268,64.92886
"713",72.076294,64.9422
"714",72.06653,64.955536
"715",72.0885,64.96884
"716",72.130005,64.98218
"717",72.18616,64.995514
"718",72.24475,65.00885
"719",72.30091,65.02219
"720",72.342415,65.03552
"721",72.37415,65.04886
"722",72.43519,65.062164
"723",72.64271,65.0755
"724",73.19203,65.08884
"725",74.302895,65.10217
"726",76.12421,65.11551
"727",78.658424,65.128845
"728",81.72488,65.14218
"729",84.98665,65.15552
"730",88.043335,65.16885
"731",90.54093,65.18216
"732",92.2475,65.195496
"733",93.07759,65.20883
"734",93.08736,65.22217
"735",92.42817,65.235504
"736",91.31487,65.24884
"737",89.969635,65.26218
"738",88.57313,65.27548
"739",87.2401,65.28882
"740",86.02182,65.302155
"741",84.91829,65.31549
"742",83.914856,65.32883
"743",83.00908,65.34216
"744",82.210724,65.3555
"745",81.53689,65.368835
"746",81.01442,65.38217
"747",80.638435,65.39548
"748",80.38941,65.40881
"749",80.22827,65.42215
"750",80.10376,65.435486
"751",79.9646,65.44882
"752",79.77173,65.46216
"753",79.49096,65.475494
"754",79.11009,65.4888
"755",78.63889,65.50214
"756",78.09445,65.51547
"757",77.503624,65.52881
"758",76.90059,65.542145
"759",76.30976,65.55548
"760",75.755554,65.56882
"761",75.25506,65.58215
"762",74.813156,65.59549
"763",74.43961,65.608795
"764",74.12955,65.62213
"765",73.87564,65.63547
"766",73.673,65.6488
"767",73.51919,65.66214
"768",73.40444,65.675476
"769",73.321434,65.68881
"770",73.26528,65.70212
"771",73.233536,65.715454
"772",73.22133,65.72879
"773",73.22621,65.74213
"774",73.24574,65.75546
"775",73.26772,65.7688
"776",73.29214,65.782135
"777",73.31167,65.79547
"778",73.31899,65.80881
"779",73.304344,65.82211
"780",73.272606,65.83545
"781",73.22621,65.848785
"782",73.20912,65.86212
"783",73.3312,65.87546
"784",73.77554,65.888794
"785",74.73258,65.90213
"786",76.32197,65.915436
"787",78.54368,65.92877
"788",81.22926,65.94211
"789",84.07843,65.955444
"790",86.744484,65.96878
"791",88.92226,65.98212
"792",90.426186,65.99545
"793",91.19035,66.00879
"794",91.24895,66.022125
"795",90.721596,66.03543
"796",89.776764,66.04877
"797",88.59022,66.0621
"798",87.310905,66.07544
"799",86.048676,66.088776
"800",84.86214,66.10211
"801",83.78546,66.11545
"802",82.84062,66.12875
"803",82.04471,66.14209
"804",81.42458,66.155426
"805",80.99733,66.16876
"806",80.75807,66.1821
"807",80.67017,66.195435
"808",80.67994,66.20877
"809",80.719,66.22211
"810",80.73121,66.23544
"811",80.65797,66.24875
"812",80.4773,66.262085
"813",80.17212,66.27542
"814",79.74975,66.28876
"815",79.22972,66.30209
"816",78.6511,66.31543
"817",78.048065,66.328766
"818",77.452354,66.34207
"819",76.89082,66.35541
"820",76.37324,66.368744
"821",75.91913,66.38208
"822",75.51873,66.39542
"823",75.174484,66.40875
"824",74.88396,66.42209
"825",74.64469,66.435425
"826",74.44694,66.44876
"827",74.29313,66.46207
"828",74.18082,66.4754
"829",74.10269,66.48874
"830",74.05386,66.502075
"831",74.02701,66.51541
"832",74.022125,66.52875
"833",74.02945,66.54208
"834",74.06119,66.55539
"835",74.10513,66.568726
"836",74.158844,66.58206
"837",74.215,66.5954
"838",74.26627,66.608734
"839",74.30045,66.62207
"840",74.3151,66.63541
"841",74.30045,66.64874
"842",74.25895,66.66208
"843",74.19791,66.675385
"844",74.158844,66.68872
"845",74.246735,66.70206
"846",74.6276,66.71539
"847",75.47234,66.72873
"848",76.87373,66.742065
"849",78.80736,66.7554
"850",81.11696,66.76871
"851",83.53643,66.78204
"852",85.767914,66.79538
"853",87.56237,66.808716
"854",88.77089,66.82205
"855",89.34463,66.83539
"856",89.31289,66.848724
"857",88.76845,66.86206
"858",87.852905,66.8754
"859",86.70786,66.8887
"860",85.46029,66.90204
"861",84.21271,66.915375
"862",83.04082,66.92871
"863",81.99588,66.94205
"864",81.126724,66.95538
"865",80.4773,66.96872
"866",80.06714,66.982025
"867",79.90112,66.99536
"868",79.94751,67.0087
"869",80.15015,67.02203
"870",80.430916,67.03537
"871",80.706795,67.048706
"872",80.907,67.06204
"873",80.98024,67.07538
"874",80.89723,67.088715
"875",80.66529,67.10202
"876",80.30396,67.11536
"877",79.85474,67.12869
"878",79.3518,67.14203
"879",78.82933,67.155365
"880",78.314186,67.1687
"881",77.83322,67.18204
"882",77.39376,67.19534
"883",77.00313,67.20868
"884",76.66621,67.222015
"885",76.385445,67.23535
"886",76.1535,67.24869
"887",75.96796,67.262024
"888",75.8288,67.27536
"889",75.72381,67.2887
"890",75.65545,67.30203
"891",75.613945,67.31534
"892",75.59197,67.328674
"893",75.579765,67.34201
"894",75.57244,67.35535
"895",75.55779,67.36868
"896",75.53094,67.38202
"897",75.50652,67.395355
"898",75.51873,67.40866
"899",75.6701,67.422
"900",76.10956,67.43533
"901",76.96651,67.44867
"902",78.30442,67.462006
"903",80.076904,67.47534
"904",82.127716,67.48868
"905",84.207825,67.502014
"906",86.06088,67.51535
"907",87.49157,67.528656
"908",88.39002,67.54199
"909",88.73182,67.55533
"910",88.56092,67.568665
"911",87.96033,67.582
"912",87.05699,67.59534
"913",85.97299,67.60867
"914",84.81087,67.62198
"915",83.6585,67.635315
"916",82.579384,67.64865
"917",81.62966,67.66199
"918",80.85573,67.67532
"919",80.29908,67.68866
"920",79.98657,67.701996
"921",79.91333,67.71533
"922",80.042725,67.72867
"923",80.31373,67.741974
"924",80.64576,67.75531
"925",80.955826,67.76865
"926",81.17067,67.78198
"927",81.248795,67.79532
"928",81.16823,67.808655
"929",80.93385,67.82199
"930",80.57252,67.8353
"931",80.12573,67.84863
"932",79.63256,67.86197
"933",79.1223,67.875305
"934",78.63157,67.88864
"935",78.184784,67.90198
"936",77.789276,67.91531
"937",77.44991,67.92865
"938",77.171585,67.941986
"939",76.944534,67.95529
"940",76.76143,67.96863
"941",76.612495,67.981964
"942",76.4831,67.9953
"943",76.36591,68.00864
"944",76.25849,68.02197
"945",76.173035,68.03531
"946",76.17792,68.048615
"947",76.39765,68.06195
"948",76.98604,68.07529
"949",78.048065,68.08862
"950",79.60815,68.10196
"951",81.5613,68.115295
"952",83.700005,68.12863
"953",85.750824,68.14197
"954",87.4696,68.155304
"955",88.6952,68.16861
"956",89.35195,68.181946
"957",89.45205,68.19528
"958",89.06142,68.20862
"959",88.289925,68.221954
"960",87.26696,68.23529
"961",86.11459,68.24863
"962",84.92561,68.26193
"963",83.773254,68.27527
"964",82.70634,68.288605
"965",81.761505,68.30194
"966",80.97536,68.31528
"967",80.37965,68.32861
"968",79.99634,68.34195
"969",79.82056,68.355286
"970",79.82788,68.36862
"971",79.95972,68.38193
"972",80.14526,68.39526
"973",80.31861,68.4086
"974",80.41871,68.421936
"975",80.39918,68.43527
"976",80.2478,68.44861
"977",79.96704,68.461945
"978",79.57885,68.47525
"979",79.11742,68.48859
"980",78.61692,68.50192
"981",78.11154,68.51526
"982",77.628136,68.528595
"983",77.188675,68.54193
"984",76.81026,68.55527
"985",76.490425,68.5686
"986",76.224304,68.58194
"987",76.00458,68.595245
"988",75.82147,68.60858
"989",75.665215,68.62192
"990",75.528496,68.635254
"991",75.41131,68.64859
"992",75.30389,68.66193
"993",75.21355,68.67526
"994",75.15007,68.68857
"995",75.17204,68.701904
"996",75.41131,68.71524
"997",76.033875,68.72858
"998",77.18379,68.74191
"999",78.907455,68.75525
"1000",81.12428,68.768585
"1001",83.62188,68.78192
"1002",86.10239,68.79526
"1003",88.2826,68.80856
"1004",89.95499,68.8219
"1005",91.00969,68.835236
"1006",91.43206,68.84857
"1007",91.283134,68.86191
"1008",90.67765,68.875244
"1009",89.75723,68.88858
"1010",88.670784,68.901886
"1011",87.53063,68.91522
"1012",86.417336,68.92856
"1013",85.3724,68.941895
"1014",84.41291,68.95523
"1015",83.54131,68.96857
"1016",82.76494,68.9819
"1017",82.10574,68.99524
"1018",81.57839,69.008575
"1019",81.19508,69.02188
"1020",80.95094,69.03522
"1021",80.81178,69.04855
"1022",80.740974,69.06189
"1023",80.689705,69.075226
"1024",80.604256,69.08856
"1025",80.448006,69.1019
"1026",80.19653,69.115204
"1027",79.84741,69.12854
"1028",79.40551,69.14188
"1029",78.89281,69.15521
"1030",78.3386,69.16855
"1031",77.77463,69.181885
"1032",77.22041,69.19522
"1033",76.70283,69.20856
"1034",76.23651,69.22189
"1035",75.8288,69.2352
"1036",75.47967,69.248535
"1037",75.18425,69.26187
"1038",74.94255,69.27521
"1039",74.74235,69.28854
"1040",74.57877,69.30188
"1041",74.442055,69.315216
"1042",74.322426,69.32852
"1043",74.21011,69.34186
"1044",74.13443,69.355194
"1045",74.161285,69.36853
"1046",74.43717,69.38187
"1047",75.13054,69.3952
"1048",76.37812,69.40854
"1049",78.20187,69.421875
"1050",80.5066,69.43521
"1051",83.06279,69.44852
"1052",85.56771,69.46185
"1053",87.73815,69.47519
"1054",89.37148,69.488525
"1055",90.36515,69.50186
"1056",90.719154,69.5152
"1057",90.50431,69.528534
"1058",89.84512,69.54184
"1059",88.883194,69.555176
"1060",87.7699,69.56851
"1061",86.61509,69.58185
"1062",85.487144,69.595184
"1063",84.42512,69.60852
"1064",83.44366,69.62186
"1065",82.55497,69.63519
"1066",81.77127,69.64853
"1067",81.1194,69.661835
"1068",80.61402,69.67517
"1069",80.26734,69.68851
"1070",80.059814,69.70184
"1071",79.954834,69.71518
"1072",79.906006,69.728516
"1073",79.85962,69.74185
"1074",79.76929,69.75516
"1075",79.5935,69.76849
"1076",79.31762,69.78183
"1077",78.94408,69.795166
"1078",78.485085,69.8085
"1079",77.96994,69.82184
"1080",77.42794,69.835175
"1081",76.88106,69.84851
"1082",76.35859,69.86185
"1083",75.8703,69.87515
"1084",75.42596,69.88849
"1085",75.03044,69.901825
"1086",74.69352,69.91516
"1087",74.41032,69.9285
"1088",74.18326,69.94183
"1089",74.00992,69.95517
"1090",73.882965,69.968475
"1091",73.79263,69.98181
"1092",73.73647,69.99515
"1093",73.70229,70.008484
"1094",73.68276,70.02182
"1095",73.66323,70.03516
"1096",73.636375,70.04849
"1097",73.616844,70.06183
"1098",73.66079,70.075165
"1099",73.89761,70.08847
"1100",74.50309,70.10181
"1101",75.63592,70.11514
"1102",77.36202,70.12848
"1103",79.61303,70.141815
"1104",82.193634,70.15515
"1105",84.80354,70.16849
"1106",87.13023,70.18179
"1107",88.9247,70.19513
"1108",90.055084,70.208466
"1109",90.49943,70.2218
"1110",90.309,70.23514
"1111",89.62051,70.248474
"1112",88.5951,70.26181
"1113",87.39147,70.27515
"1114",86.13901,70.28848
"1115",84.928055,70.30179
"1116",83.80011,70.315125
"1117",82.78203,70.32846
"1118",81.898224,70.3418
"1119",81.16579,70.35513
"1120",80.60914,70.36847
"1121",80.23804,70.381805
"1122",80.04028,70.39511
"1123",79.98413,70.40845
"1124",80.01343,70.42178
"1125",80.06958,70.43512
"1126",80.09888,70.448456
"1127",80.05493,70.46179
"1128",79.90845,70.47513
"1129",79.64477,70.488464
"1130",79.27123,70.5018
"1131",78.80492,70.51511
"1132",78.277565,70.52844
"1133",77.71847,70.54178
"1134",77.15938,70.555115
"1135",76.61982,70.56845
"1136",76.11688,70.58179
"1137",75.665215,70.59512
"1138",75.264824,70.60843
"1139",74.92302,70.621765
"1140",74.63981,70.6351
"1141",74.41276,70.64844
"1142",74.2272,70.66177
"1143",74.08804,70.67511
"1144",73.99283,70.688446
"1145",73.93912,70.70178
"1146",73.919586,70.71512
"1147",73.934235,70.728424
"1148",73.9733,70.74176
"1149",74.022125,70.7551
"1150",74.06851,70.76843
"1151",74.107574,70.78177
"1152",74.13199,70.795105
"1153",74.13931,70.80844
"1154",74.16373,70.82175
"1155",74.29557,70.83508
"1156",74.69352,70.84842
"1157",75.52361,70.861755
"1158",76.90547,70.87509
"1159",78.84154,70.88843
"1160",81.20485,70.901764
"1161",83.74151,70.9151
"1162",86.14633,70.92844
"1163",88.14099,70.94174
"1164",89.5375,70.95508
"1165",90.247955,70.968414
"1166",90.284584,70.98175
"1167",89.73769,70.99509
"1168",88.7538,71.00842
"1169",87.49401,71.02176
"1170",86.10727,71.035065
"1171",84.7132,71.0484
"1172",83.39239,71.06174
"1173",82.2034,71.07507
"1174",81.19508,71.08841
"1175",80.40406,71.101746
"1176",79.85718,71.11508
"1177",79.5642,71.12842
"1178",79.50317,71.141754
"1179",79.62768,71.15506
"1180",79.86206,71.168396
"1181",80.128174,71.18173
"1182",80.34791,71.19507
"1183",80.46021,71.208405
"1184",80.428474,71.22174
"1185",80.23804,71.23508
"1186",79.903564,71.24838
"1187",79.4519,71.26172
"1188",78.922104,71.275055
"1189",78.35569,71.28839
"1190",77.789276,71.30173
"1191",77.25216,71.31506
"1192",76.75899,71.3284
"1193",76.32441,71.341736
"1194",75.948425,71.35507
"1195",75.631035,71.36838
"1196",75.36248,71.381714
"1197",75.15007,71.39505
"1198",74.984055,71.40839
"1199",74.861984,71.42172
"1200",74.78142,71.43506
"1201",74.737465,71.448395
"1202",74.72526,71.4617
"1203",74.74235,71.47504
"1204",74.77409,71.48837
"1205",74.810715,71.50171
"1206",74.84001,71.515045
"1207",74.85466,71.52838
"1208",74.85222,71.54172
"1209",74.844894,71.55505
"1210",74.898605,71.56839
"1211",75.13542,71.581696
"1212",75.718925,71.59503
"1213",76.790726,71.60837
"1214",78.40208,71.621704
"1215",80.48463,71.63504
"1216",82.84062,71.64838
"1217",85.1844,71.66171
"1218",87.23277,71.67502
"1219",88.77089,71.688354
"1220",89.68154,71.70169
"1221",89.935455,71.71503
"1222",89.59121,71.72836
"1223",88.75868,71.7417
"1224",87.5819,71.755035
"1225",86.20737,71.76837
"1226",84.76448,71.78171
"1227",83.34844,71.79501
"1228",82.04227,71.80835
"1229",80.90944,71.821686
"1230",80.00122,71.83502
"1231",79.361565,71.84836
"1232",79.012436,71.861694
"1233",78.94652,71.87503
"1234",79.11253,71.888336
"1235",79.44457,71.90167
"1236",79.84741,71.91501
"1237",80.235596,71.928345
"1238",80.52613,71.94168
"1239",80.66285,71.95502
"1240",80.621346,71.96835
"1241",80.4065,71.98169
"1242",80.045166,71.995026
"1243",79.57641,72.00833
"1244",79.046616,72.02167
"1245",78.48997,72.035
"1246",77.943085,72.04834
"1247",77.420616,72.061676
"1248",76.94942,72.07501
"1249",76.53437,72.08835
"1250",76.18524,72.101654
"1251",75.90448,72.11499
"1252",75.68963,72.12833
"1253",75.526054,72.14166
"1254",75.406425,72.155
"1255",75.318535,72.168335
"1256",75.250175,72.18167
"1257",75.194016,72.19501
"1258",75.140305,72.20834
"1259",75.0988,72.22165
"1260",75.11833,72.234985
"1261",75.30633,72.24832
"1262",75.81659,72.26166
"1263",76.80049,72.274994
"1264",78.328835,72.28833
"1265",80.35035,72.30167
"1266",82.69413,72.31497
"1267",85.084305,72.32831
"1268",87.22545,72.341644
"1269",88.8954,72.35498
"1270",89.952545,72.36832
"1271",90.35294,72.38165
"1272",90.13565,72.39499
"1273",89.39834,72.408325
"1274",88.2826,72.42166
"1275",86.925156,72.43497
"1276",85.45541,72.4483
"1277",83.983215,72.46164
"1278",82.59159,72.474976
"1279",81.35134,72.48831
"1280",80.33326,72.50165
"1281",79.58129,72.514984
"1282",79.12474,72.52829
"1283",78.97093,72.541626
"1284",79.080795,72.55496
"1285",79.378654,72.5683
"1286",79.783936,72.581635
"1287",80.201416,72.59497
"1288",80.53834,72.60831
"1289",80.73853,72.62164
"1290",80.76051,72.63498
"1291",80.604256,72.648285
"1292",80.289314,72.66162
"1293",79.852295,72.67496
"1294",79.33959,72.68829
"1295",78.79027,72.70163
"1296",78.24094,72.714966
"1297",77.71603,72.7283
"1298",77.2375,72.74161
"1299",76.81514,72.754944
"1300",76.456245,72.76828
"1301",76.15839,72.78162
"1302",75.911804,72.79495
"1303",75.70916,72.80829
"1304",75.526054,72.821625
"1305",75.36736,72.83496
"1306",75.23552,72.8483
"1307",75.18913,72.8616
"1308",75.35027,72.87494
"1309",75.897156,72.888275
"1310",76.99336,72.90161
"1311",78.69993,72.91495
"1312",80.96071,72.92828
"1313",83.57305,72.94162
"1314",86.23422,72.954926
"1315",88.60975,72.96826
"1316",90.44816,72.9816
"1317",91.598076,72.994934
"1318",92.01312,73.00827
"1319",91.737236,73.02161
"1320",90.8925,73.03494
"1321",89.64004,73.04828
"1322",88.15076,73.061615
"1323",86.571144,73.07492
"1324",85.01106,73.08826
"1325",83.54864,73.10159
"1326",82.23758,73.11493
"1327",81.12184,73.128265
"1328",80.23804,73.1416
"1329",79.61547,73.15494
"1330",79.26147,73.16824
"1331",79.15404,73.18158
"1332",79.24681,73.194916
"1333",79.466545,73.20825
"1334",79.725334,73.22159
"1335",79.94995,73.234924
"1336",80.07202,73.24826
"1337",80.04761,73.2616
"1338",79.85962,73.27493
"1339",79.52514,73.28824
"1340",79.07347,73.301575
"1341",78.54368,73.31491
"1342",77.9675,73.32825
"1343",77.38644,73.34158
"1344",76.82979,73.35492
"1345",76.317085,73.368256
"1346",75.86786,73.38156
"1347",75.48211,73.3949
"1348",75.159836,73.40823
"1349",74.8864,73.42157
"1350",74.64713,73.434906
"1351",74.43229,73.44824
"1352",74.23941,73.46158
"1353",74.08316,73.474915
"1354",74.02945,73.48825
"1355",74.22232,73.50156
"1356",74.8571,73.51489
"1357",76.10712,73.52823
"1358",78.05295,73.541565
"1359",80.63355,73.5549
"1360",83.62188,73.56824
"1361",86.67124,73.58157
"1362",89.42275,73.59488
"1363",91.58343,73.608215
"1364",92.97749,73.62155
"1365",93.54879,73.63489
"1366",93.35592,73.648224
"1367",92.53315,73.66156
"1368",91.26116,73.6749
"1369",89.73525,73.68823
"1370",88.12146,73.70157
"1371",86.54673,73.714874
"1372",85.08675,73.72821
"1373",83.77814,73.74155
"1374",82.63554,73.75488
"1375",81.671165,73.76822
"1376",80.89723,73.781555
"1377",80.323494,73.79489
"1378",79.94751,73.8082
"1379",79.75464,73.82153
"1380",79.69604,73.83487
"1381",79.71557,73.848206
"1382",79.7522,73.86154
"1383",79.742424,73.87488
"1384",79.63744,73.888214
"1385",79.41772,73.90155
"1386",79.07347,73.91489
"1387",78.6218,73.92819
"1388",78.08469,73.94153
"1389",77.49386,73.954865
"1390",76.88594,73.9682
"1391",76.28779,73.98154
"1392",75.72625,73.99487
"1393",75.21843,74.00821
"1394",74.776535,74.021515
"1395",74.390785,74.03485
"1396",74.06363,74.04819
"1397",73.78531,74.06152
"1398",73.54604,74.07486
"1399",73.338524,74.088196
"1400",73.16762,74.10153
"1401",73.05043,74.11487
"1402",73.06508,74.128204
"1403",73.37026,74.14151
"1404",74.16617,74.15485
"1405",75.61639,74.16818
"1406",77.77707,74.18152
"1407",80.54322,74.194855
"1408",83.64385,74.20819
"1409",86.70542,74.22153
"1410",89.359276,74.23483
"1411",91.32952,74.24817
"1412",92.472115,74.261505
"1413",92.772415,74.27484
"1414",92.332954,74.28818
"1415",91.319756,74.30151
"1416",89.94034,74.31485
"1417",88.38758,74.328186
"1418",86.81041,74.34152
"1419",85.313805,74.35483
"1420",83.94415,74.368164
"1421",82.72343,74.3815
"1422",81.654076,74.39484
"1423",80.75319,74.40817
"1424",80.028076,74.42151
"1425",79.49584,74.434845
"1426",79.149155,74.44815
"1427",78.96849,74.46149
"1428",78.90257,74.47482
"1429",78.90013,74.48816
"1430",78.90257,74.501495
"1431",78.853745,74.51483
"1432",78.71458,74.52817
"1433",78.46311,74.541504
"1434",78.101776,74.55484
"1435",77.64034,74.568146
"1436",77.10567,74.58148
"1437",76.53193,74.59482
"1438",75.94354,74.608154
"1439",75.369804,74.62149
"1440",74.83269,74.63483
"1441",74.354164,74.64816
"1442",73.944,74.66147
"1443",73.60464,74.674805
"1444",73.338524,74.68814
"1445",73.13832,74.70148
"1446",72.99428,74.71481
"1447",72.89662,74.72815
"1448",72.82826,74.741486
"1449",72.77455,74.75482
"1450",72.7306,74.76816
"1451",72.691536,74.78146
"1452",72.69642,74.7948
"1453",72.85756,74.808136
"1454",73.36294,74.82147
"1455",74.42008,74.83481
"1456",76.173035,74.848145
"1457",78.61936,74.86148
"1458",81.58816,74.87479
"1459",84.754715,74.88812
"1460",87.72106,74.90146
"1461",90.13565,74.914795
"1462",91.76898,74.92813
"1463",92.523384,74.94147
"1464",92.44526,74.9548
"1465",91.67132,74.96814
"1466",90.406654,74.981476
"1467",88.86122,74.99478
"1468",87.22301,75.00812
"1469",85.628746,75.021454
"1470",84.15411,75.03479
"1471",82.83818,75.04813
"1472",81.69314,75.06146
"1473",80.740974,75.0748
"1474",79.98901,75.088104
"1475",79.45678,75.10144
"1476",79.14183,75.11478
"1477",79.01732,75.12811
"1478",79.03441,75.14145
"1479",79.132065,75.154785
"1480",79.24193,75.16812
"1481",79.30053,75.18146
"1482",79.259026,75.19479
"1483",79.08812,75.2081
"1484",78.7805,75.221436
"1485",78.35081,75.23477
"1486",77.82834,75.24811
"1487",77.25216,75.261444
"1488",76.65888,75.27478
"1489",76.08026,75.28812
"1490",75.53582,75.30142
"1491",75.035324,75.31476
"1492",74.59098,75.328094
"1493",74.212555,75.34143
"1494",73.900055,75.35477
"1495",73.64858,75.3681
"1496",73.460594,75.38144
"1497",73.32632,75.394775
"1498",73.233536,75.40811
"1499",73.179825,75.42142
"1500",73.15785,75.434784
"1501",73.16518,75.44809
"1502",73.18715,75.46146
"1503",73.216446,75.47476
"1504",73.23598,75.48813
"1505",73.2433,75.501434
"1506",73.24086,75.5148
"1507",73.306786,75.52811
"1508",73.57534,75.54147
"1509",74.25895,75.55478
"1510",75.53094,75.568146
"1511",77.486534,75.58145
"1512",80.062256,75.59482
"1513",83.02373,75.60812
"1514",86.01938,75.62149
"1515",88.67567,75.634796
"1516",90.69474,75.64816
"1517",91.90082,75.66147
"1518",92.25727,75.674835
"1519",91.8349,75.68814
"1520",90.78996,75.70151
"1521",89.322655,75.71481
"1522",87.63317,75.72818
"1523",85.889984,75.741486
"1524",84.22003,75.75485
"1525",82.69901,75.76816
"1526",81.38308,75.781525
"1527",80.32105,75.79483
"1528",79.53002,75.8082
"1529",79.029526,75.8215
"1530",78.819565,75.83487
"1531",78.86107,75.848175
"1532",79.08568,75.86154
"1533",79.40063,75.87485
"1534",79.72289,75.888214
"1535",79.96704,75.90152
"1536",80.076904,75.91489
"1537",80.008545,75.92819
"1538",79.764404,75.94156
"1539",79.36645,75.954865
"1540",78.84886,75.96823
"1541",78.25803,75.98154
"1542",77.63546,75.9949
"1543",77.01778,76.00821
"1544",76.43183,76.021576
"1545",75.90204,76.03488
"1546",75.43328,76.04825
"1547",75.03288,76.061554
"1548",74.69596,76.07492
"1549",74.42008,76.08823
"1550",74.20279,76.10159
"1551",74.03433,76.1149
"1552",73.9147,76.128265
"1553",73.84146,76.14157
"1554",73.80972,76.15494
"1555",73.814606,76.16824
"1556",73.85123,76.18161
"1557",73.9147,76.194916
"1558",73.99039,76.20828
"1559",74.06607,76.22159
"1560",74.124664,76.234955
"1561",74.1564,76.24826
"1562",74.16373,76.26163
"1563",74.18326,76.27493
"1564",74.322426,76.2883
"1565",74.75456,76.301605
"1566",75.67254,76.31497
"1567",77.208206,76.32828
"1568",79.37377,76.341644
"1569",82.01541,76.35495
"1570",84.84749,76.36832
"1571",87.52087,76.38162
"1572",89.71572,76.39499
"1573",91.22209,76.408295
"1574",91.94232,76.42166
"1575",91.895935,76.43497
"1576",91.18059,76.44833
"1577",89.95499,76.46164
"1578",88.39002,76.475006
"1579",86.65415,76.48831
"1580",84.88167,76.50168
"1581",83.18486,76.514984
"1582",81.6614,76.52835
"1583",80.38453,76.54166
"1584",79.41772,76.55502
"1585",78.802475,76.56833
"1586",78.54856,76.581696
"1587",78.6218,76.595
"1588",78.94408,76.60837
"1589",79.42016,76.62167
"1590",79.937744,76.63504
"1591",80.38941,76.648346
"1592",80.69703,76.66171
"1593",80.814224,76.67502
"1594",80.726326,76.688385
"1595",80.44068,76.70169
"1596",80.0061,76.71506
"1597",79.46166,76.72836
"1598",78.853745,76.74173
"1599",77.62081,76.7684
"1600",77.05684,76.78171
"1601",76.55634,76.795074
"1602",76.12909,76.80838
"1603",75.77753,76.82175
"1604",75.494316,76.83505
"1605",75.26971,76.84842
"1606",75.10124,76.861725
"1607",74.97673,76.87509
"1608",74.8864,76.8884
"1609",74.81804,76.901764
"1610",74.76189,76.91507
"1611",74.703285,76.92844
"1612",74.65446,76.94174
"1613",74.65934,76.95511
"1614",74.83513,76.968414
"1615",75.355156,76.98178
"1616",76.385445,76.99509
"1617",78.01633,77.00845
"1618",80.22095,77.02176
"1619",82.81865,77.035126
"1620",85.51888,77.04843
"1621",87.99451,77.0618
"1622",89.96719,77.0751
"1623",91.25384,77.08847
"1624",91.790955,77.101776
"1625",91.60784,77.11514
"1626",90.811935,77.12845
"1627",89.54482,77.141815
"1628",87.972534,77.15512
"1629",86.24155,77.16849
"1630",84.47639,77.18179
"1631",82.78447,77.19516
"1632",81.26345,77.208466
"1633",80.00122,77.22183
"1634",79.061264,77.23514
"1635",78.487526,77.248505
"1636",78.28489,77.26181
"1637",78.4094,77.27518
"1638",78.7805,77.28848
"1639",79.293205,77.30185
"1640",79.83276,77.315155
"1641",80.2942,77.32852
"1642",80.59937,77.34183
"1643",80.69947,77.355194
"1644",80.58961,77.3685
"1645",80.291756,77.38187
"1646",79.84741,77.39517
"1647",79.30297,77.40854
"1648",78.70725,77.421844
"1649",78.09689,77.43521
"1650",77.50851,77.44852
"1651",76.96651,77.46188
"1652",76.4831,77.47519
"1653",76.06561,77.488556
"1654",75.71404,77.50186
"1655",75.421074,77.51523
"1656",75.18181,77.528534
"1657",74.98161,77.5419
"1658",74.80827,77.55521
"1659",74.65446,77.56857
"1660",74.527504,77.58188
"1661",74.48112,77.595245
"1662",74.6569,77.60855
"1663",75.25994,77.62192
"1664",76.4831,77.63522
"1665",78.42405,77.64859
"1666",81.02663,77.661896
"1667",84.06378,77.67526
"1668",87.17906,77.68857
"1669",89.98917,77.701935
"1670",92.18402,77.71524
"1671",93.58297,77.72861
"1672",94.12009,77.74191
"1673",93.84177,77.75528
"1674",92.874954,77.768585
"1675",91.405205,77.78195
"1676",89.63027,77.79526
"1677",87.73327,77.808624
"1678",85.855804,77.82193
"1679",84.1004,77.8353
"1680",82.53544,77.8486
"1681",81.20485,77.86197
"1682",80.15747,77.875275
"1683",79.4226,77.88864
"1684",79.009995,77.90195
"1685",78.89769,77.91531
"1686",79.027084,77.92862
"1687",79.31762,77.941986
"1688",79.676506,77.95529
"1689",80.008545,77.96866
"1690",80.235596,77.981964
"1691",80.306404,77.99533
"1692",80.18921,78.00864
"1693",79.888916,78.022
"1694",79.432365,78.03531
"1695",78.86595,78.048676
"1696",78.23605,78.06198
"1697",77.58907,78.07535
"1698",76.9543,78.08865
"1699",76.36591,78.10202
"1700",75.841,78.115326
"1701",75.37957,78.12869
"1702",74.986496,78.142
"1703",74.65446,78.155365
"1704",74.371254,78.16867
"1705",74.11978,78.18204
"1706",73.89273,78.19534
"1707",73.69009,78.20871
"1708",73.56069,78.222015
"1709",73.62905,78.23538
"1710",74.10513,78.24869
"1711",75.211105,78.262054
"1712",77.0959,78.27536
"1713",79.74731,78.28873
"1714",82.97246,78.30203
"1715",86.41978,78.3154
"1716",89.66445,78.328705
"1717",92.33051,78.34207
"1718",94.16647,78.35538
"1719",95.064926,78.368744
"1720",95.05028,78.38205
"1721",94.25681,78.39542
"1722",92.88716,78.40872
"1723",91.17815,78.42209
"1724",89.342186,78.435394
"1725",87.535515,78.44876
"1726",85.86069,78.46207
"1727",84.3592,78.47543
"1728",83.04814,78.48874
"1729",81.9324,78.502106
"1730",81.02907,78.51541
"1731",80.35523,78.52878
"1732",79.91089,78.54208
"1733",79.676506,78.55545
"1734",79.61791,78.568756
"1735",79.66918,78.58212
"1736",79.75952,78.59543
"1737",79.82056,78.608795
"1738",79.79126,78.6221
"1739",79.635,78.63547
"1740",79.33715,78.64877
"1741",78.905014,78.66214
"1742",78.37034,78.675446
"1743",77.77219,78.68881
"1744",77.14961,78.70212
"1745",76.53193,78.715485
"1746",75.945984,78.72879
"1747",75.403984,78.74216
"1748",74.92058,78.75546
"1749",74.49821,78.76883
"1750",74.13687,78.782135
"1751",73.829254,78.7955
"1752",73.568016,78.80881
"1753",73.340965,78.822174
"1754",73.15297,78.83548
"1755",73.057755,78.84885
"1756",73.18715,78.86215
"1757",73.7438,78.87552
"1758",74.93767,78.888824
"1759",76.87862,78.90219
"1760",79.5227,78.9155
"1761",82.64286,78.92886
"1762",85.872894,78.94217
"1763",88.79286,78.955536
"1764",91.05119,78.96884
"1765",92.44282,78.98221
"1766",92.90669,78.995514
"1767",92.5185,79.00888
"1768",91.4638,79.02219
"1769",89.96475,79.03555
"1770",88.24597,79.04886
"1771",86.48814,79.062225
"1772",84.81819,79.07553
"1773",83.29717,79.0889
"1774",81.95438,79.1022
"1775",80.81178,79.11557
"1776",79.88403,79.128876
"1777",79.17845,79.14224
"1778",78.70725,79.15555
"1779",78.45579,79.168915
"1780",78.39475,79.18222
"1781",78.46311,79.19559
"1782",78.58518,79.20889
"1783",78.70237,79.22226
"1784",78.74387,79.235565
"1785",78.67063,79.24893
"1786",78.45823,79.26224
"1787",78.11398,79.275604
"1788",77.65255,79.28891
"1789",77.10811,79.30228
"1790",76.51484,79.31558
"1791",75.911804,79.32895
"1792",75.32586,79.342255
"1793",74.78386,79.35562
"1794",74.302895,79.36893
"1795",73.89273,79.38229
"1796",73.55337,79.3956
"1797",73.27993,79.408966
"1798",73.0724,79.42227
"1799",72.918594,79.43564
"1800",72.80385,79.448944
"1801",72.71351,79.46231
"1802",72.63294,79.47562
"1803",72.5597,79.48898
"1804",72.52552,79.50229
"1805",72.62806,79.515656
"1806",73.05043,79.52896
"1807",74.00015,79.54233
"1808",75.63592,79.55563
"1809",77.98703,79.569
"1810",80.902115,79.582306
"1811",84.06622,79.59567
"1812",87.07652,79.60898
"1813",89.54482,79.622345
"1814",91.20744,79.63565
"1815",91.94476,79.64902
"1816",91.793396,79.66232
"1817",90.897385,79.67569
"1818",89.478905,79.688995
"1819",87.76013,79.70236
"1820",85.94614,79.71567
"1821",84.18341,79.729034
"1822",82.56718,79.74234
"1823",81.15602,79.75571
"1824",79.98657,79.76901
"1825",79.09544,79.78238
"1826",78.50706,79.795685
"1827",78.22385,79.80905
"1828",78.21896,79.82236
"1829",78.433815,79.835724
"1830",78.7805,79.84903
"1831",79.15892,79.8624
"1832",79.47875,79.8757
"1833",79.6643,79.88907
"1834",79.676506,79.902374
"1835",79.49584,79.91574
"1836",79.13939,79.92905
"1837",78.641335,79.94241
"1838",78.05295,79.95572
"1839",77.418175,79.969086
"1840",76.78096,79.98239
"1841",76.17792,79.99576
"1842",75.63836,80.00906
"1843",75.17204,80.02243
"1844",74.78386,80.035736
"1845",74.478676,80.0491
"1846",74.246735,80.06241
"1847",74.073395,80.075775
"1848",73.951324,80.08908
"1849",73.865875,80.10245
"1850",73.797516,80.11575
"1851",73.73403,80.12912
"1852",73.66323,80.142426
"1853",73.58755,80.15579
"1854",73.53872,80.1691
"1855",73.60708,80.182465
"1856",73.96353,80.19577
"1857",74.80095,80.20914
"1858",76.27314,80.22244
"1859",78.41184,80.23581
"1860",81.08034,80.249115
"1861",83.99298,80.26248
"1862",86.766464,80.27579
"1863",89.05653,80.289154
"1864",90.60197,80.30246
"1865",91.29534,80.31583
"1866",91.15373,80.32913
"1867",90.29923,80.3425
"1868",88.919815,80.355804
"1869",87.22545,80.36917
"1870",85.39437,80.38248
"1871",83.577934,80.39584
"1872",81.883575,80.40915
"1873",80.394295,80.422516
"1874",79.183334,80.43582
"1875",78.314186,80.44919
"1876",77.81857,80.462494
"1877",77.70382,80.47586
"1878",77.925995,80.48917
"1879",78.39231,80.50253
"1880",78.98802,80.51584
"1881",79.588615,80.529205
"1882",80.076904,80.54251
"1883",80.36988,80.55588
"1884",80.42603,80.56918
"1885",80.24536,80.58255
"1886",79.852295,80.595856
"1887",79.30541,80.60922
"1888",78.66819,80.62253
"1889",77.996796,80.635895
"1890",77.33761,80.6492
"1891",76.72968,80.66257
"1892",76.19501,80.67587
"1893",75.74578,80.68924
"1894",75.37957,80.702545
"1895",75.0988,80.71591
"1896",74.8864,80.72922
"1897",74.72526,80.742584
"1898",74.59342,80.75589
"1899",74.47379,80.76926
"1900",74.356606,80.78256
"1901",74.25895,80.79593
"1902",74.26139,80.809235
"1903",74.512856,80.8226
"1904",75.228195,80.83591
"1905",76.5832,80.84927
"1906",78.643776,80.86258
"1907",81.307396,80.875946
"1908",84.30793,80.88925
"1909",87.259636,80.90262
"1910",89.77188,80.915924
"1911",91.55413,80.92929
"1912",92.45258,80.9426
"1913",92.45991,80.95596
"1914",91.69085,80.96927
"1915",90.338295,80.982635
"1916",88.621956,80.99594
"1917",86.74937,81.00931
"1918",84.8719,81.02261
"1919",83.106735,81.03598
"1920",81.52468,81.049286
"1921",80.19653,81.06265
"1922",79.166245,81.07596
"1923",78.48264,81.089325
"1924",78.15793,81.10263
"1925",78.17502,81.116
"1926",78.46067,81.1293
"1927",78.91966,81.14267
"1928",79.432365,81.155975
"1929",79.88403,81.16934
"1930",80.177,81.18265
"1931",80.257576,81.196014
"1932",80.1062,81.20932
"1933",79.73998,81.22269
"1934",79.20775,81.23599
"1935",78.56321,81.24936
"1936",77.86984,81.262665
"1937",77.18379,81.27603
"1938",76.544136,81.28934
"1939",75.97772,81.302704
"1940",75.4992,81.31601
"1941",75.106125,81.32938
"1942",74.78874,81.34268
"1943",74.527504,81.35605
"1944",74.319984,81.369354
"1945",74.15152,81.38272
"1946",74.002594,81.39603
"1947",73.865875,81.40939
"1948",73.760895,81.4227
"1949",73.763336,81.436066
"1950",74.04654,81.44937
"1951",74.847336,81.46274
"1952",76.38056,81.47604
"1953",78.72434,81.48941
"1954",81.778595,81.502716
"1955",85.23323,81.51608
"1956",88.653694,81.52939
"1957",91.578545,81.542755
"1958",93.66842,81.55606
"1959",94.75731,81.56943
"1960",94.84764,81.58273
"1961",94.0737,81.5961
"1962",92.662544,81.609406
"1963",90.87053,81.62277
"1964",88.936905,81.63608
"1965",87.0399,81.649445
"1966",85.296715,81.66275
"1967",83.758606,81.67612
"1968",82.442665,81.68942
"1969",81.35134,81.70279
"1970",80.49195,81.716095
"1971",79.87427,81.72946
"1972",79.50805,81.74277
"1973",79.37621,81.756134
"1974",79.429924,81.76944
"1975",79.59594,81.78281
"1976",79.781494,81.79611
"1977",79.903564,81.80948
"1978",79.888916,81.822784
"1979",79.70092,81.83615
"1980",79.33227,81.84946
"1981",78.80736,81.86282
"1982",78.16281,81.87613
"1983",77.452354,81.889496
"1984",76.7248,81.9028
"1985",76.016785,81.91617
"1986",75.36248,81.929474
"1987",74.7863,81.94284
"1988",74.30045,81.95615
"1989",73.900055,81.96951
"1990",73.57778,81.98282
"1991",73.31411,81.996185
"1992",73.09682,82.00949
"1993",72.90639,82.02286
"1994",72.73792,82.03616
"1995",72.59144,82.04953
"1996",72.515755,82.062836
"1997",72.63294,82.0762
"1998",73.16762,82.08951
"1999",74.35172,82.102875
"2000",76.35615,82.11618
"2001",79.168686,82.12955
"2002",82.58671,82.14285
"2003",86.20981,82.15622
"2004",89.56191,82.169525
"2005",92.22064,82.18289
"2006",93.92233,82.1962
"2007",94.588844,82.209564
"2008",94.30076,82.22287
"2009",93.25826,82.23624
"2010",91.72259,82.24954
"2011",89.94522,82.26291
"2012",88.13611,82.276215
"2013",86.434425,82.28958
"2014",84.9012,82.30289
"2015",83.543755,82.31625
"2016",82.34989,82.32956
"2017",81.30251,82.342926
"2018",80.40406,82.35623
"2019",79.67895,82.3696
"2020",79.14427,82.382904
"2021",78.802475,82.39627
"2022",78.62913,82.40958
"2023",78.57786,82.42294
"2024",78.57786,82.43625
"2025",78.56565,82.449615
"2026",78.48264,82.46292
"2027",78.28489,82.47629
"2028",77.95529,82.48959
"2029",77.49386,82.50296
"2030",76.92256,82.516266
"2031",76.280464,82.52963
"2032",75.59441,82.54294
"2033",74.91081,82.556305
"2034",74.25651,82.56961
"2035",73.65835,82.58298
"2036",73.131,82.59628
"2037",72.689095,82.60965
"2038",72.33509,82.622955
"2039",72.06897,82.63632
"2040",71.87854,82.64963
"2041",71.75403,82.662994
"2042",71.67834,82.6763
"2043",71.63683,82.68967
"2044",71.6173,82.70297
"2045",71.60998,82.71634
"2046",71.605095,82.729645
"2047",71.624626,82.74301
"2048",71.74181,82.75632
"2049",72.13245,82.769684
"2050",73.03822,82.78299
"2051",74.683754,82.79636
"2052",77.15938,82.80966
"2053",80.36256,82.82303
"2054",83.97833,82.836334
"2055",87.552605,82.8497
"2056",90.614174,82.86301
"2057",92.81148,82.87637
"2058",93.97116,82.88968
"2059",94.100555,82.903046
"2060",93.34615,82.91635
"2061",91.947205,82.92972
"2062",90.17227,82.94302
"2063",88.25819,82.95639
"2064",86.39292,82.969696
"2065",84.681465,82.98306
"2066",83.17021,82.99637
"2067",81.866486,83.009735
"2068",80.76784,83.02304
"2069",79.87915,83.03641
"2070",79.200424,83.04971
"2071",78.746315,83.06308
"2072",78.5095,83.076385
"2073",78.45823,83.08975
"2074",78.53391,83.10306
"2075",78.66575,83.116425
"2076",78.7805,83.12973
"2077",78.8098,83.1431
"2078",78.70237,83.1564
"2079",78.44114,83.16977
"2080",78.02365,83.183075
"2081",77.47677,83.19644
"2082",76.82979,83.20975
"2083",76.13153,83.223114
"2084",75.423515,83.23642
"2085",74.74479,83.24979
"2086",74.12222,83.26309
"2087",73.57534,83.27646
"2088",73.11391,83.289764
"2089",72.73548,83.30313
"2090",72.430305,83.31644
"2091",72.19348,83.3298
"2092",72.02991,83.34311
"2093",71.92737,83.356476
"2094",71.88098,83.36978
"2095",71.88342,83.38315
"2096",71.92737,83.396454
"2097",72.00305,83.40982
"2098",72.10803,83.42313
"2099",72.24231,83.43649
"2100",72.396126,83.4498
"2101",72.55482,83.463165
"2102",72.70374,83.47647
"2103",72.833145,83.48984
"2104",72.91615,83.50314
"2105",72.955215,83.51651
"2106",72.98207,83.529816
"2107",73.11635,83.54318
"2108",73.568016,83.55649
"2109",74.60319,83.569855
"2110",76.43183,83.58316
"2111",79.093,83.59653
"2112",82.41581,83.60983
"2113",86.04135,83.6232
"2114",89.50576,83.636505
"2115",92.38178,83.64987
"2116",94.364235,83.66318
"2117",95.33349,83.676544
"2118",95.311516,83.68985
"2119",94.435036,83.70322
"2120",92.91402,83.71652
"2121",91.002365,83.72989
"2122",88.92714,83.743195
"2123",86.86656,83.75656
"2124",84.94026,83.76987
"2125",83.23125,83.78323
"2126",81.78592,83.79654
"2127",80.65308,83.809906
"2128",79.86206,83.82321
"2129",79.43481,83.83658
"2130",79.34936,83.849884
"2131",79.54955,83.86325
"2132",79.93286,83.87656
"2133",80.394295,83.88992
"2134",80.816666,83.90323
"2135",81.10231,83.916595
"2136",81.18532,83.9299
"2137",81.03395,83.94327
"2138",80.65308,83.95657
"2139",80.08179,83.96994
"2140",79.37377,83.983246
"2141",78.59251,83.99661
"2142",77.79172,84.00992
"2143",77.01778,84.023285
"2144",76.299995,84.03659
"2145",75.65789,84.04996
"2146",75.10124,84.06326
"2147",74.63981,84.07663
"2148",74.26627,84.089935
"2149",73.98306,84.1033
"2150",73.777985,84.11661
"2151",73.6437,84.129974
"2152",73.568016,84.14328
"2153",73.54116,84.15665
"2154",73.54604,84.16995
"2155",73.57046,84.18332
"2156",73.599754,84.196625
"2157",73.616844,84.20999
"2158",73.60952,84.2233
"2159",73.585106,84.236664
"2160",73.56313,84.24997
"2161",73.633934,84.263336
"2162",73.96353,84.27664
"2163",74.78386,84.29001
"2164",76.28535,84.303314
"2165",78.53391,84.31668
"2166",81.41238,84.32999
"2167",84.63752,84.34335
"2168",87.80896,84.35666
"2169",90.53361,84.370026
"2170",92.51606,84.38333
"2171",93.60494,84.3967
"2172",93.77829,84.41
"2173",93.1313,84.42337
"2174",91.82025,84.436676
"2175",90.055084,84.45004
"2176",88.03845,84.46335
"2177",85.95346,84.476715
"2178",83.92706,84.49002
"2179",82.074005,84.50339
"2180",80.482185,84.51669
"2181",79.22972,84.53006
"2182",78.37522,84.543365
"2183",77.94797,84.55673
"2184",77.93088,84.57004
"2185",78.26292,84.583405
"2186",78.83177,84.59671
"2187",79.50561,84.61008
"2188",80.147705,84.62338
"2189",80.65064,84.63675
"2190",80.938736,84.650055
"2191",80.97536,84.66342
"2192",80.76784,84.67673
"2193",80.35767,84.690094
"2194",79.78882,84.7034
"2195",79.11742,84.71677
"2196",78.39231,84.73007
"2197",77.66476,84.74344
"2198",76.96895,84.756744
"2199",76.33173,84.77011
"2200",75.772644,84.78342
"2201",75.29412,84.79678
"2202",74.896164,84.81009
"2203",74.57389,84.823456
"2204",74.319984,84.83676
"2205",74.12955,84.85013
"2206",73.987946,84.863434
"2207",73.88541,84.8768
"2208",73.80972,84.89011
"2209",73.75357,84.90347
"2210",73.70229,84.91678
"2211",73.653465,84.930145
"2212",73.62173,84.94345
"2213",73.673,84.95682
"2214",73.97818,84.97012
"2215",74.7863,84.98349
"2216",76.33662,84.996796
"2217",78.73899,85.01016
"2218",81.898224,85.02347
"2219",85.50912,85.036835
"2220",89.127335,85.05014
"2221",92.29633,85.06351
"2222",94.66697,85.07681
"2223",96.05859,85.09018
"2224",96.446785,85.103485
"2225",95.91455,85.11685
"2226",94.63279,85.13016
"2227",92.8188,85.143524
"2228",90.702065,85.15683
"2229",88.495,85.1702
"2230",86.35386,85.1835
"2231",84.386055,85.19687
"2232",82.65995,85.210175
"2233",81.22194,85.22354
"2234",80.1062,85.23685
"2235",79.344475,85.25021
"2236",78.94652,85.26352
"2237",78.88548,85.276886
"2238",79.09056,85.29019
"2239",79.45922,85.30356
"2240",79.87671,85.316864
"2241",80.24048,85.33023
"2242",80.462654,85.34354
"2243",80.49195,85.3569
"2244",80.31129,85.37021
"2245",79.92554,85.383575
"2246",79.36889,85.39688
"2247",78.692604,85.41025
"2248",77.95041,85.42355
"2249",77.19112,85.43692
"2250",76.456245,85.450226
"2251",75.772644,85.46359
"2252",75.157394,85.4769
"2253",74.617836,85.490265
"2254",74.1564,85.50357
"2255",73.7731,85.51694
"2256",73.46548,85.53024
"2257",73.22133,85.54361
"2258",73.03578,85.556915
"2259",72.89662,85.57028
"2260",72.79408,85.58359
"2261",72.71351,85.596954
"2262",72.64759,85.61026
"2263",72.584114,85.62363
"2264",72.532845,85.63693
"2265",72.54749,85.6503
"2266",72.781876,85.663605
"2267",73.48257,85.67697
"2268",74.91325,85.69028
"2269",77.23262,85.70364
"2270",80.40894,85.71695
"2271",84.18829,85.730316
"2272",88.13611,85.74362
"2273",91.75922,85.75699
"2274",94.642555,85.770294
"2275",96.53956,85.78366
"2276",97.36721,85.79697
"2277",97.18654,85.81033
"2278",96.163574,85.82364
"2279",94.51804,85.837006
"2280",92.49897,85.85031
"2281",90.32609,85.86368
"2282",88.18494,85.87698
"2283",86.18295,85.89035
"2284",84.39094,85.903656
"2285",82.83818,85.91702
"2286",81.55154,85.93033
"2287",80.54322,85.943695
"2288",79.83276,85.957
"2289",79.42016,85.97037
"2290",79.27856,85.98367
"2291",79.34936,85.99704
"2292",79.54711,86.010345
"2293",79.78882,86.02371
"2294",79.98413,86.03702
"2295",80.0647,86.050385
"2296",79.98413,86.06369
"2297",79.725334,86.07706
"2298",79.293205,86.09036
"2299",78.71458,86.10373
"2300",78.0383,86.117035
"2301",77.30831,86.1304
"2302",76.56611,86.14371
"2303",75.841,86.157074
"2304",75.159836,86.17038
"2305",74.53727,86.18375
"2306",73.98062,86.19705
"2307",73.494774,86.21042
"2308",73.08705,86.223724
"2309",72.7599,86.23709
"2310",72.498665,86.2504
"2311",72.30335,86.26376
"2312",72.164185,86.27707
"2313",72.06897,86.290436
"2314",72.010376,86.30374
"2315",71.973755,86.31711
"2316",71.94934,86.330414
"2317",71.92737,86.34378
"2318",71.92981,86.357086
"2319",72.06409,86.37045
"2320",72.54749,86.38376
"2321",73.6437,86.397125
"2322",75.56512,86.41043
"2323",78.348366,86.4238
"2324",81.82498,86.4371
"2325",85.626305,86.45047
"2326",89.271385,86.463776
"2327",92.318306,86.47714
"2328",94.4741,86.49045
"2329",95.604485,86.503815
"2330",95.729,86.51712
"2331",94.96727,86.53049
"2332",93.51949,86.54379
"2333",91.615166,86.55716
"2334",89.481346,86.570465
"2335",87.308464,86.58383
"2336",85.23079,86.59714
"2337",83.34112,86.610504
"2338",81.685814,86.62381
"2339",80.306404,86.63718
"2340",79.234604,86.65048
"2341",78.49729,86.66385
"2342",78.099335,86.677155
"2343",78.013885,86.69052
"2344",78.18234,86.70383
"2345",78.50706,86.71719
"2346",78.887924,86.7305
"2347",79.22484,86.743866
"2348",79.44213,86.75717
"2349",79.48608,86.77054
"2350",79.34203,86.783844
"2351",79.012436,86.79721
"2352",78.53147,86.81052
"2353",77.94064,86.82388
"2354",77.27657,86.83719
"2355",76.58564,86.850555
"2356",75.90204,86.86386
"2357",75.25262,86.87723
"2358",74.6569,86.89053
"2359",74.12222,86.9039
"2360",73.65591,86.917206
"2361",73.25796,86.93057
"2362",72.92592,86.94388
"2363",72.65736,86.957245
"2364",72.444954,86.97055
"2365",72.28138,86.98392
"2366",72.16174,86.99722
"2367",72.07385,87.01059
"2368",72.0177,87.023895
"2369",71.98108,87.03726
"2370",71.956665,87.05057
"2371",71.93225,87.063934
"2372",71.920044,87.07724
"2373",71.990845,87.09061
"2374",72.318,87.10391
"2375",73.14076,87.11728
"2376",74.68864,87.130585
"2377",77.05684,87.14395
"2378",80.15015,87.15726
"2379",83.67071,87.17062
"2380",87.19127,87.18393
"2381",90.27482,87.197296
"2382",92.594185,87.2106
"2383",93.978485,87.22397
"2384",94.400856,87.237274
"2385",93.93942,87.25064
"2386",92.74311,87.26395
"2387",91.00725,87.27731
"2388",88.94179,87.29062
"2389",86.73472,87.303986
"2390",84.53742,87.31729
"2391",82.46952,87.33066
"2392",80.62867,87.34396
"2393",79.10277,87.35733
"2394",77.95773,87.370636
"2395",77.24727,87.384
"2396",76.9836,87.39731
"2397",77.1252,87.410675
"2398",77.58175,87.42398
"2399",78.22873,87.43735
"2400",78.92943,87.45065
"2401",79.55688,87.46402
"2402",80.02075,87.477325
"2403",80.26002,87.49069
"2404",80.257576,87.504
"2405",80.028076,87.517365
"2406",79.61547,87.53067
"2407",79.063705,87.54404
"2408",78.42649,87.55734
"2409",77.74532,87.57071
"2410",77.06416,87.584015
"2411",76.40742,87.59738
"2412",75.80194,87.61069
"2413",75.2575,87.624054
"2414",74.78142,87.63736
"2415",74.371254,87.65073
"2416",74.02701,87.66403
"2417",73.7438,87.6774
"2418",73.52407,87.690704
"2419",73.36538,87.70407
"2420",73.25796,87.71738
"2421",73.18959,87.73074
"2422",73.14809,87.74405
"2423",73.11635,87.757416
"2424",73.07973,87.77072
"2425",73.05531,87.78409
"2426",73.11635,87.79739
"2427",73.426414,87.81076
"2428",74.21744,87.824066
"2429",75.68963,87.83743
"2430",77.91623,87.85074
"2431",80.78737,87.864105
"2432",84.01495,87.87741
"2433",87.19371,87.89078
"2434",89.935455,87.90408
"2435",91.95453,87.91745
"2436",93.11665,87.930756
"2437",93.40963,87.94412
"2438",92.91402,87.95743
"2439",91.76654,87.970795
"2440",90.13321,87.9841
"2441",88.182495,87.99747
"2442",86.07553,88.01077
"2443",83.94415,88.02414
"2444",81.90799,88.037445
"2445",80.07202,88.05081
"2446",78.54856,88.06412
"2447",77.4255,88.077484
"2448",76.77852,88.09079
"2449",76.62226,88.10416
"2450",76.912796,88.11746
"2451",77.53536,88.13083
"2452",78.345924,88.144135
"2453",79.185776,88.1575
"2454",79.920654,88.17081
"2455",80.45045,88.18417
"2456",80.726326,88.19748
"2457",80.743416,88.210846
"2458",80.52613,88.22415
"2459",80.11597,88.23752
"2460",79.571526,88.250824
"2461",78.94896,88.26419
"2462",78.294655,88.2775
"2463",77.645226,88.29086
"2464",77.02998,88.30417
"2465",76.470894,88.317535
"2466",75.98016,88.33084
"2467",75.55779,88.34421
"2468",75.20134,88.35751
"2469",74.90105,88.37088
"2470",74.64469,88.384186
"2471",74.4152,88.39755
"2472",74.195465,88.41086
"2473",73.98306,88.424225
"2474",73.795074,88.43753
"2475",73.71938,88.4509
"2476",73.944,88.4642
"2477",74.69596,88.47757
"2478",76.16571,88.490875
"2479",78.397194,88.50424
"2480",81.253685,88.51755
"2481",84.41779,88.530914
"2482",87.49401,88.54422
"2483",90.11124,88.55759
"2484",92.015564,88.57089
"2485",93.09712,88.58426
"2486",93.35836,88.597565
"2487",92.86763,88.61093
"2488",91.75433,88.62424
"2489",90.16495,88.6376
"2490",88.26063,88.65091
"2491",86.187836,88.664276
"2492",84.08331,88.67758
"2493",82.0618,88.69095
"2494",80.235596,88.704254
"2495",78.71458,88.71762
"2496",77.591515,88.73093
"2497",76.925,88.74429
"2498",76.72724,88.7576
"2499",76.95674,88.770966
"2500",77.50851,88.78427
"2501",78.24094,88.79764
"2502",79.00755,88.81094
"2503",79.68139,88.82431
"2504",80.16724,88.837616
"2505",80.413826,88.85098
"2506",80.413826,88.86429
"2507",80.18921,88.877655
"2508",79.79126,88.89096
"2509",79.259026,88.90433
"2510",78.64622,88.91763
"2511",77.99924,88.931
"2512",77.3547,88.944305
"2513",76.73701,88.95767
"2514",76.16815,88.97098
"2515",75.65301,88.984344
"2516",75.18669,88.99765
"2517",74.76921,89.01102
"2518",74.38346,89.02432
"2519",74.02701,89.03769
"2520",73.721825,89.050995
"2521",73.56069,89.06436
"2522",73.71206,89.07767
"2523",74.4152,89.091034
"2524",75.860535,89.10434
"2525",78.08957,89.11771
"2526",80.970474,89.13101
"2527",84.2005,89.14438
"2528",87.37194,89.157684
"2529",90.10635,89.17105
"2530",92.140076,89.18436
"2531",93.35592,89.19772
"2532",93.73678,89.21103
"2533",93.351036,89.224396
"2534",92.32075,89.2377
"2535",90.80461,89.25107
"2536",88.95888,89.26437
"2537",86.94957,89.27774
"2538",84.89876,89.291046
"2539",82.916306,89.30441
"2540",81.09987,89.31772
"2541",79.537346,89.331085
"2542",78.3093,89.34439
"2543",77.47921,89.35776
"2544",77.083694,89.37106
"2545",77.100784,89.38443
"2546",77.454796,89.397736
"2547",78.02609,89.4111
"2548",78.692604,89.42441
"2549",79.32006,89.437775
"2550",79.81323,89.45108
"2551",80.10376,89.46445
"2552",80.16724,89.47775
"2553",80.01343,89.49112
"2554",79.66674,89.504425
"2555",79.17357,89.51779
"2556",78.58518,89.5311
"2557",77.94064,89.544464
"2558",77.27413,89.55777
"2559",76.61738,89.57114
"2560",75.98505,89.58444
"2561",75.39666,89.59781
"2562",74.85466,89.611115
"2563",74.36637,89.62448
"2564",73.94156,89.63779
"2565",73.62905,89.65115
"2566",73.56313,89.66446
"2567",73.95865,89.677826
"2568",75.04753,89.69113
"2569",76.964066,89.7045
"2570",79.66186,89.717804
"2571",82.90166,89.73117
"2572",86.30747,89.74448
"2573",89.45937,89.75784
"2574",92.01312,89.77115
"2575",93.76608,89.784515
"2576",94.65232,89.79782
"2577",94.69871,89.81119
"2578",94.00046,89.82449
"2579",92.72358,89.83786
"2580",91.04631,89.851166
"2581",89.14931,89.86453
"2582",87.183945,89.87784
"2583",85.26009,89.891205
"2584",83.46807,89.90451
"2585",81.87869,89.91788
"2586",80.570076,89.93118
"2587",79.59594,89.94455
"2588",78.995346,89.957855
"2589",78.765854,89.97122
"2590",78.85863,89.98453
"2591",79.17845,89.997894
"2592",79.61791,90.0112
"2593",80.05737,90.02457
"2594",80.39918,90.03787
"2595",80.5774,90.05124
"2596",80.552986,90.064545
"2597",80.32838,90.07791
"2598",79.92554,90.09122
"2599",79.38354,90.10458
"2600",78.74876,90.11789
"2601",78.06027,90.131256
"2602",77.35226,90.14456
"2603",76.65888,90.15793
"2604",75.99725,90.171234
"2605",75.37957,90.1846
"2606",74.810715,90.19791
"2607",74.302895,90.21127
"2608",73.88541,90.22458
"2609",73.65835,90.237946
"2610",73.81705,90.25125
"2611",74.58854,90.26462
"2612",76.1535,90.27792
"2613",78.54368,90.29129
"2614",81.59792,90.304596
"2615",84.97688,90.31796
"2616",88.2533,90.33127
"2617",91.00969,90.344635
"2618",92.96773,90.35794
"2619",93.99069,90.37131
"2620",94.081024,90.38461
"2621",93.34615,90.39798
"2622",91.97894,90.411285
"2623",90.20401,90.42465
"2624",88.23865,90.43796
"2625",86.2562,90.451324
"2626",84.368965,90.46463
"2627",82.64774,90.478
"2628",81.13649,90.4913
"2629",79.871826,90.50467
"2630",78.89525,90.517975
"2631",78.23361,90.53134
"2632",77.891815,90.54465
"2633",77.83566,90.558014
"2634",77.99191,90.57132
"2635",78.27024,90.58469
"2636",78.57053,90.59799
"2637",78.80003,90.61136
"2638",78.89281,90.624664
"2639",78.802475,90.63803
"2640",78.52903,90.65134
"2641",78.09201,90.6647
"2642",77.52804,90.67801
"2643",76.87862,90.691376
"2644",76.19501,90.70468
"2645",75.508965,90.71805
"2646",74.83757,90.73135
"2647",74.20279,90.74472
"2648",73.62173,90.758026
"2649",73.09682,90.77139
"2650",72.637825,90.7847
"2651",72.26917,90.798065
"2652",72.0885,90.81137
"2653",72.2765,90.82474
"2654",73.0724,90.83804
"2655",74.669106,90.85141
"2656",77.11055,90.864716
"2657",80.25025,90.87808
"2658",83.74151,90.89139
"2659",87.13023,90.904755
"2660",89.97452,90.91806
"2661",91.981384,90.93143
"2662",93.00923,90.94473
"2663",93.09468,90.9581
"2664",92.37202,90.971405
"2665",91.0634,90.98477
"2666",89.393456,90.99808
"2667",87.57702,91.011444
"2668",85.770355,91.02475
"2669",84.06622,91.03812
"2670",82.50614,91.05142
"2671",81.112076,91.06479
"2672",79.90112,91.078094
"2673",78.890366,91.09146
"2674",78.099335,91.10477
"2675",77.55001,91.11813
"2676",77.23262,91.13144
"2677",77.11299,91.144806
"2678",77.12276,91.15811
"2679",77.19112,91.17148
"2680",77.239944,91.184784
"2681",77.205765,91.19815
"2682",77.049515,91.21146
"2683",76.756546,91.22482
"2684",76.33173,91.23813
"2685",75.80194,91.251495
"2686",75.20378,91.2648
"2687",74.57145,91.27817
"2688",73.944,91.29147
"2689",73.34585,91.30484
"2690",72.80873,91.318146
"2691",72.33509,91.33151
"2692",71.92493,91.34482
"2693",71.57336,91.358185
"2694",71.27062,91.37149
"2695",71.0045,91.38486
"2696",70.7628,91.39816
"2697",70.555275,91.41153
"2698",70.435646,91.424835
"2699",70.54551,91.4382
"2700",71.10704,91.45151
"2701",72.33997,91.464874
"2702",74.354164,91.47818
"2703",77.08858,91.49155
"2704",80.291756,91.50485
"2705",83.580376,91.51822
"2706",86.536964,91.531525
"2707",88.83681,91.54489
"2708",90.29435,91.5582
"2709",90.89006,91.57156
"2710",90.69474,91.58487
"2711",89.8793,91.598236
"2712",88.64881,91.61154
"2713",87.21324,91.62491
"2714",85.74349,91.638214
"2715",84.34211,91.65158
"2716",83.053024,91.66489
"2717",81.881134,91.67825
"2718",80.814224,91.69156
"2719",79.84741,91.704926
"2720",78.995346,91.71823
"2721",78.28489,91.7316
"2722",77.738,91.7449
"2723",77.35958,91.75827
"2724",77.12764,91.771576
"2725",77.00069,91.78494
"2726",76.93477,91.79825
"2727",76.86641,91.811615
"2728",76.749214,91.82492
"2729",76.54902,91.83829
"2730",76.243835,91.85159
"2731",75.83856,91.86496
"2732",75.34295,91.878265
"2733",74.78874,91.89163
"2734",74.20279,91.90494
"2735",73.616844,91.918304
"2736",73.05531,91.93161
"2737",72.53773,91.94498
"2738",72.08118,91.95828
"2739",71.690544,91.97165
"2740",71.37316,91.984955
"2741",71.12413,91.99832
"2742",70.94347,92.01163
"2743",70.821396,92.024994
"2744",70.745705,92.0383
"2745",70.70664,92.05167
"2746",70.68955,92.06497
"2747",70.68467,92.07834
"2748",70.68467,92.091644
"2749",70.68467,92.10501
"2750",70.694435,92.11832
"2751",70.77257,92.13168
"2752",71.05089,92.14499
"2753",71.727165,92.158356
"2754",72.96742,92.17166
"2755",74.83269,92.18503
"2756",77.23506,92.19833
"2757",79.94507,92.2117
"2758",82.63065,92.225006
"2759",84.981766,92.23837
"2760",86.77623,92.25168
"2761",87.921265,92.265045
"2762",88.42664,92.27835
"2763",88.360725,92.29172
"2764",87.85535,92.30502
"2765",87.05699,92.31839
"2766",86.10727,92.331696
"2767",85.11116,92.34506
"2768",84.137024,92.35837
"2769",83.21416,92.371735
"2770",82.34501,92.38504
"2771",81.53445,92.39841
"2772",80.79225,92.41171
"2773",80.1355,92.42508
"2774",79.59838,92.438385
"2775",79.18822,92.45175
"2776",78.90257,92.46506
"2777",78.71946,92.478424
"2778",78.60471,92.49173
"2779",78.51194,92.5051
"2780",78.40208,92.5184
"2781",78.24338,92.53177
"2782",78.01877,92.545074
"2783",77.71114,92.55844
"2784",77.330284,92.57175
"2785",76.893265,92.58511
"2786",76.419624,92.59842
"2787",75.928894,92.611786
"2788",75.44549,92.62509
"2789",74.986496,92.63846
"2790",74.56901,92.651764
"2791",74.19791,92.66513
"2792",73.882965,92.67844
"2793",73.62417,92.6918
"2794",73.41665,92.70511
"2795",73.26284,92.718475
"2796",73.15541,92.73178
"2797",73.08217,92.74515
"2798",73.040665,92.75845
"2799",73.023575,92.77182
"2800",73.02602,92.785126
"2801",73.040665,92.79849
"2802",73.06752,92.8118
"2803",73.09682,92.825165
"2804",73.12367,92.83847
"2805",73.13832,92.85184
"2806",73.14809,92.86514
"2807",73.199356,92.87851
"2808",73.38979,92.891815
"2809",73.8732,92.90518
"2810",74.77898,92.91849
"2811",76.16083,92.931854
"2812",77.945526,92.94516
"2813",79.94507,92.95853
"2814",81.900665,92.97183
"2815",83.56817,92.9852
"2816",84.78401,92.998505
"2817",85.489586,93.01187
"2818",85.70931,93.02518
"2819",85.514,93.03854
"2820",84.998856,93.05185
"2821",84.27863,93.065216
"2822",83.46319,93.07852
"2823",82.63798,93.09189
"2824",81.8616,93.105194
"2825",81.16579,93.11856
"2826",80.56275,93.13187
"2827",80.05249,93.14523
"2828",79.639885,93.15854
"2829",79.33227,93.171906
"2830",79.13939,93.18521
"2831",79.05882,93.19858
"2832",79.080795,93.21188
"2833",79.166245,93.22525
"2834",79.28344,93.238556
"2835",79.38354,93.25192
"2836",79.432365,93.26523
"2837",79.40063,93.278595
"2838",79.28832,93.2919
"2839",79.097885,93.30527
"2840",78.84642,93.31857
"2841",78.54856,93.33194
"2842",78.221405,93.345245
"2843",77.891815,93.35861
"2844",77.574425,93.37192
"2845",77.279015,93.385284
"2846",77.01778,93.39859
"2847",76.79805,93.41196
"2848",76.61982,93.42526
"2849",76.47822,93.43863
"2850",76.3708,93.451935
"2851",76.29511,93.4653
"2852",76.241394,93.47861
"2853",76.2121,93.491974
"2854",76.209656,93.50528
"2855",76.23163,93.51865
"2856",76.27314,93.53195
"2857",76.33662,93.54532
"2858",76.41718,93.558624
"2859",76.507515,93.57199
"2860",76.595406,93.5853
"2861",76.67597,93.59866
"2862",76.74433,93.61197
"2863",76.788284,93.625336
"2864",76.81026,93.63864
"2865",76.81758,93.65201
"2866",76.82979,93.66531
"2867",76.910355,93.67868
"2868",77.1667,93.691986
"2869",77.72579,93.70535
"2870",78.65598,93.71866
"2871",79.92554,93.732025
"2872",81.3904,93.74533
"2873",82.83818,93.7587
"2874",84.04669,93.772
"2875",84.85481,93.78537
"2876",85.21614,93.798676
"2877",85.16487,93.81204
"2878",84.77913,93.82535
"2879",84.15411,93.838715
"2880",83.38506,93.85202
"2881",82.562294,93.86539
"2882",81.75418,93.87869
"2883",81.02174,93.89206
"2884",80.39185,93.905365
"2885",79.89136,93.91873
"2886",79.53979,93.93204
"2887",79.34692,93.945404
"2888",79.31274,93.95871
"2889",79.43481,93.97208
"2890",79.68383,93.98538
"2891",80.01587,93.99875
"2892",80.37476,94.012054
"2893",80.69703,94.02542
"2894",80.938736,94.03873
"2895",81.06813,94.05209
"2896",81.07301,94.0654
"2897",80.96315,94.078766
"2898",80.765396,94.09207
"2899",80.50904,94.10544
"2900",80.22583,94.118744
"2901",79.94263,94.13211
"2902",79.674065,94.14542
"2903",79.429924,94.15878
"2904",79.217514,94.17209
"2905",79.03685,94.185455
"2906",78.890366,94.19876
"2907",78.7805,94.21213
"2908",78.709694,94.22543
"2909",78.67063,94.2388
"2910",78.65354,94.252106
"2911",78.6511,94.26547
"2912",78.6511,94.27878
"2913",78.6511,94.292145
"2914",78.641335,94.30545
"2915",78.6218,94.31882
"2916",78.590065,94.33212
"2917",78.555885,94.34549
"2918",78.53391,94.358795
"2919",78.57542,94.37216
"2920",78.77318,94.38547
"2921",79.2224,94.398834
"2922",79.96948,94.41214
"2923",80.972916,94.42551
"2924",82.12039,94.43881
"2925",83.228806,94.45218
"2926",84.12482,94.465485
"2927",84.681465,94.47885
"2928",84.86946,94.49216
"2929",84.71809,94.50552
"2930",84.29328,94.51883
"2931",83.67071,94.532196
"2932",82.930954,94.5455
"2933",82.14969,94.55887
"2934",81.38796,94.572174
"2935",80.68726,94.58554
"2936",80.08423,94.59885
"2937",79.603264,94.61221
"2938",79.26147,94.62552
"2939",79.080795,94.638885
"2940",79.06615,94.65219
"2941",79.217514,94.66556
"2942",79.50561,94.67886
"2943",79.88403,94.69223
"2944",80.28687,94.705536
"2945",80.65308,94.7189
"2946",80.93141,94.73221
"2947",81.0901,94.745575
"2948",81.12428,94.75888
"2949",81.0486,94.77225
"2950",80.885025,94.78555
"2951",80.66529,94.79892
"2952",80.411385,94.812225
"2953",80.15015,94.82559
"2954",79.89868,94.8389
"2955",79.676506,94.852264
"2956",79.49096,94.86557
"2957",79.344475,94.87894
"2958",79.234604,94.89224
"2959",79.14671,94.90561
"2960",79.078354,94.918915
"2961",79.02464,94.93228
"2962",78.975815,94.94559
"2963",78.92943,94.958954
"2964",78.88304,94.97226
"2965",78.8513,94.98563
"2966",78.86351,94.99893
"2967",79.01488,95.0123
"2968",79.40551,95.025604
"2969",80.10132,95.03897
"2970",81.0901,95.05228
"2971",82.262,95.06564
"2972",83.441216,95.07895
"2973",84.43244,95.092316
"2974",85.08919,95.10562
"2975",85.35287,95.11899
"2976",85.24544,95.13229
"2977",84.83284,95.14566
"2978",84.210266,95.158966
"2979",83.455864,95.17233
"2980",82.65751,95.18564
"2981",81.88846,95.199005
"2982",81.197525,95.21231
"2983",80.6067,95.22568
"2984",80.12573,95.23898
"2985",79.76196,95.25235
"2986",79.53002,95.265656
"2987",79.429924,95.27902
"2988",79.4641,95.29233
"2989",79.622795,95.305695
"2990",79.87915,95.319
"2991",80.184326,95.33237
"2992",80.48707,95.34567
"2993",80.73853,95.35904
"2994",80.90944,95.372345
"2995",80.98024,95.38571
"2996",80.95094,95.39902
"2997",80.82887,95.412384
"2998",80.638435,95.42569
"2999",80.40406,95.43906
"3000",80.15015,95.45236
"3001",79.89624,95.46573
"3002",79.66186,95.479034
"3003",79.45678,95.4924
"3004",79.28588,95.50571
"3005",79.149155,95.51907
"3006",79.03685,95.53238
"3007",78.9514,95.545746
"3008",78.88304,95.55905
"3009",78.82689,95.57242
"3010",78.7805,95.585724
"3011",78.74876,95.59909
"3012",78.74876,95.6124
"3013",78.8513,95.62576
"3014",79.166245,95.63907
"3015",79.78638,95.652435
"3016",80.73365,95.66574
"3017",81.92752,95.67911
"3018",83.19707,95.69241
"3019",84.33967,95.70578
"3020",85.16731,95.719086
"3021",85.58724,95.73245
"3022",85.60433,95.74576
"3023",85.28695,95.759125
"3024",84.72053,95.77243
"3025",83.99298,95.7858
"3026",83.19707,95.7991
"3027",82.408485,95.81247
"3028",81.6907,95.825775
"3029",81.0901,95.83914
"3030",80.61402,95.85245
"3031",80.255135,95.865814
"3032",80.0061,95.87912
"3033",79.85474,95.89249
"3034",79.783936,95.90579
"3035",79.798584,95.91916
"3036",79.888916,95.932465
"3037",80.03296,95.94583
"3038",80.2063,95.95914
"3039",80.37965,95.9725
"3040",80.52125,95.98581
"3041",80.6067,95.999176
"3042",80.61646,96.01248
"3043",80.550545,96.02585
"3044",80.41627,96.039154
"3045",80.233154,96.05252
"3046",80.025635,96.06583
"3047",79.81079,96.07919
"3048",79.603264,96.0925
"3049",79.41039,96.105865
"3050",79.23949,96.11917
"3051",79.093,96.13254
"3052",78.97337,96.14584
"3053",78.8806,96.15921
"3054",78.80492,96.172516
"3055",78.74143,96.18588
"3056",78.68772,96.19919
"3057",78.6511,96.212555
"3058",78.66575,96.22586
"3059",78.81468,96.23923
"3060",79.200424,96.25253
"3061",79.888916,96.2659
"3062",80.86305,96.279205
"3063",82.022736,96.29257
"3064",83.18974,96.30588
"3065",84.173645,96.319244
"3066",84.82063,96.33255
"3067",85.08675,96.34592
"3068",84.98909,96.35922
"3069",84.613106,96.37259
"3070",84.03937,96.385895
"3071",83.36309,96.39926
"3072",82.66483,96.41257
"3073",82.01541,96.425934
"3074",81.45388,96.43924
"3075",80.99977,96.45261
"3076",80.64332,96.46591
"3077",80.36744,96.47928
"3078",80.15503,96.492584
"3079",79.99878,96.50595
"3080",79.89868,96.51926
"3081",79.86694,96.53262
"3082",79.89624,96.54593
"3083",79.97681,96.559296
"3084",80.08423,96.5726
"3085",80.19409,96.58597
"3086",80.27955,96.59927
"3087",80.31861,96.61264
"3088",80.30396,96.625946
"3089",80.233154,96.63931
"3090",80.111084,96.65262
"3091",79.94995,96.665985
"3092",79.76196,96.67929
"3093",79.569084,96.69266
"3094",79.378654,96.70596
"3095",79.200424,96.71933
"3096",79.03685,96.732635
"3097",78.89281,96.746
"3098",78.77318,96.75931
"3099",78.677956,96.772675
"3100",78.607155,96.78598
"3101",78.56077,96.79935
"3102",78.52903,96.81265
"3103",78.502174,96.82602
"3104",78.47776,96.839325
"3105",78.45823,96.85269
"3106",78.470436,96.866
"3107",78.58518,96.879364
"3108",78.907455,96.89267
"3109",79.517815,96.90604
"3110",80.42603,96.91934
"3111",81.549095,96.93271
"3112",82.73319,96.946014
"3113",83.7879,96.95938
"3114",84.54963,96.97269
"3115",84.93538,96.98605
"3116",84.962234,96.99936
"3117",84.68635,97.012726
"3118",84.18829,97.02603
"3119",83.560844,97.0394
"3120",82.88457,97.052704
"3121",82.230255,97.06607
"3122",81.64187,97.07938
"3123",81.15114,97.09274
"3124",80.75319,97.10605
"3125",80.445564,97.119415
"3126",80.22095,97.13272
"3127",80.07202,97.14609
"3128",79.99878,97.15939
"3129",80.00122,97.17276
"3130",80.07446,97.186066
"3131",80.19409,97.19943
"3132",80.33814,97.21274
"3133",80.47242,97.226105
"3134",80.5774,97.23941
"3135",80.62623,97.25278
"3136",80.6067,97.26608
"3137",80.52125,97.27945
"3138",80.377205,97.292755
"3139",80.19165,97.30612
"3140",79.97925,97.31943
"3141",79.75952,97.332794
"3142",79.54223,97.3461
"3143",79.33959,97.35947
"3144",79.16136,97.37277
"3145",79.009995,97.38614
"3146",78.88304,97.399445
"3147",78.78294,97.41281
"3148",78.709694,97.42612
"3149",78.65598,97.43948
"3150",78.61448,97.45279
"3151",78.58518,97.466156
"3152",78.56077,97.47946
"3153",78.536354,97.49283
"3154",78.5095,97.506134
"3155",78.4802,97.5195
"3156",78.450905,97.53281
"3157",78.45823,97.54617
"3158",78.56565,97.55948
"3159",78.86839,97.572845
"3160",79.44213,97.58615
"3161",80.291756,97.59952
"3162",81.33669,97.61282
"3163",82.4329,97.62619
"3164",83.404594,97.639496
"3165",84.1004,97.65286
"3166",84.454414,97.66617
"3167",84.46662,97.679535
"3168",84.19318,97.69284
"3169",83.702446,97.70621
"3170",83.07744,97.71951
"3171",82.39384,97.73288
"3172",81.72732,97.746185
"3173",81.12184,97.75955
"3174",80.61158,97.77286
"3175",80.198975,97.786224
"3176",79.89136,97.79953
"3177",79.68139,97.8129
"3178",79.57397,97.8262
"3179",79.571526,97.83957
"3180",79.6643,97.852875
"3181",79.83276,97.86624
"3182",80.04761,97.87955
"3183",80.26002,97.892914
"3184",80.43824,97.90622
"3185",80.550545,97.919586
"3186",80.584724,97.93289
"3187",80.5359,97.94626
"3188",80.41627,97.959564
"3189",80.235596,97.97293
"3190",80.02319,97.98624
"3191",79.7937,97.9996
"3192",79.56176,98.01291
"3193",79.33959,98.026276
"3194",79.13939,98.03958
"3195",78.96361,98.05295
"3196",78.81468,98.06625
"3197",78.692604,98.07962
"3198",78.59251,98.092926
"3199",78.51194,98.10629
"3200",78.44602,98.1196
"3201",78.399635,98.132965
"3202",78.365456,98.14627
"3203",78.348366,98.15964
"3204",78.3386,98.17294
"3205",78.33372,98.18631
"3206",78.32151,98.199615
"3207",78.30198,98.21298
"3208",78.28001,98.22629
"3209",78.26292,98.239655
"3210",78.28733,98.25296
"3211",78.42649,98.26633
"3212",78.77074,98.27963
"3213",79.36889,98.293
"3214",80.20874,98.306305
"3215",81.20729,98.31967
"3216",82.21805,98.33298
"3217",83.08476,98.346344
"3218",83.67803,98.35965
"3219",83.949036,98.37302
"3220",83.90753,98.38632
"3221",83.59991,98.39969
"3222",83.089645,98.412994
"3223",82.4622,98.42636
"3224",81.78104,98.43967
"3225",81.11696,98.45303
"3226",80.50416,98.46634
"3227",79.97681,98.479706
"3228",79.551994,98.49301
"3229",79.2517,98.50638
"3230",79.080795,98.519684
"3231",79.046616,98.53305
"3232",79.149155,98.54636
"3233",79.36889,98.55972
"3234",79.66186,98.57303
"3235",79.97681,98.586395
"3236",80.26246,98.5997
"3237",80.4773,98.61307
"3238",80.59205,98.62637
"3239",80.604256,98.63974
"3240",80.52613,98.653046
"3241",80.37476,98.66641
"3242",80.177,98.67972
"3243",79.94751,98.693085
"3244",79.710686,98.70639
"3245",79.48119,98.71976
"3246",79.273674,98.73306
"3247",79.09544,98.74643
"3248",78.941635,98.759735
"3249",78.81468,98.7731
"3250",78.712135,98.78641
"3251",78.62913,98.799774
"3252",78.57053,98.81308
"3253",78.52659,98.82645
"3254",78.49729,98.83975
"3255",78.467995,98.85312
"3256",78.43137,98.866425
"3257",78.38499,98.87979
"3258",78.34348,98.8931
"3259",78.33372,98.90646
"3260",78.42161,98.91977
"3261",78.69993,98.933136
"3262",79.22728,98.94644
"3263",80.00122,98.95981
"3264",80.955826,98.973114
"3265",81.969025,98.98648
"3266",82.882126,98.99979
"3267",83.56573,99.01315
"3268",83.949036,99.02646
"3269",84.02472,99.039825
"3270",83.826965,99.05313
"3271",83.41192,99.0665
"3272",82.845505,99.0798
"3273",82.2034,99.09317
"3274",81.54177,99.106476
"3275",80.90944,99.11984
"3276",80.33814,99.13315
"3277",79.85718,99.146515
"3278",79.483635,99.15982
"3279",79.23949,99.17319
"3280",79.14183,99.18649
"3281",79.19066,99.19986
"3282",79.37133,99.213165
"3283",79.65209,99.22653
"3284",79.97925,99.23984
"3285",80.291756,99.253204
"3286",80.54566,99.26651
"3287",80.71168,99.27988
"3288",80.77516,99.29318
"3289",80.73609,99.30655
"3290",80.61646,99.319855
"3291",80.43824,99.33322
"3292",80.22095,99.34653
"3293",79.98901,99.35989
"3294",79.75708,99.3732
"3295",79.54223,99.386566
"3296",79.34692,99.39987
"3297",79.17845,99.41324
"3298",79.03685,99.426544
"3299",78.91966,99.43991
"3300",78.82445,99.45322
"3301",78.74387,99.46658
"3302",78.66575,99.47989
"3303",78.59251,99.493256
"3304",78.52659,99.50656
"3305",78.48997,99.51993
"3306",78.553444,99.53323
"3307",78.82201,99.5466
"3308",79.36889,99.559906
"3309",80.21118,99.57327
"3310",81.287865,99.58658
"3311",82.46464,99.599945
"3312",83.563286,99.61325
"3313",84.43,99.62662
"3314",84.96956,99.63992
"3315",85.16731,99.65329
"3316",85.050125,99.666595
"3317",84.66682,99.67996
"3318",84.09796,99.69327
"3319",83.41192,99.706635
"3320",82.684364,99.71994
"3321",81.969025,99.73331
"3322",81.31716,99.74661
"3323",80.75319,99.75998
"3324",80.2942,99.773285
"3325",79.96216,99.78665
"3326",79.75952,99.79996
"3327",79.69604,99.813324
"3328",79.75952,99.82663
"3329",79.92798,99.84
"3330",80.15991,99.8533
"3331",80.40894,99.86667
"3332",80.63111,99.879974
"3333",80.78493,99.89334
"3334",80.848404,99.90665
"3335",80.816666,99.92001
"3336",80.69947,99.93332
"3337",80.51148,99.946686
"3338",80.28199,99.95999
"3339",80.028076,99.97336
"3340",79.77173,99.986664
"3341",79.517815,100.00003
"3342",79.281,100.013336
"3343",79.06615,100.0267
"3344",78.8806,100.04001
"3345",78.71946,100.053375
"3346",78.58518,100.06668
"3347",78.46555,100.08005
"3348",78.36057,100.09335
"3349",78.277565,100.10672
"3350",78.25559,100.120026
"3351",78.38499,100.13339
"3352",78.77074,100.1467
"3353",79.47875,100.160065
"3354",80.50416,100.17337
"3355",81.76639,100.18674
"3356",83.10918,100.20004
"3357",84.35432,100.21341
"3358",85.33822,100.226715
"3359",85.977875,100.24008
"3360",86.24155,100.25339
"3361",86.14877,100.266754
"3362",85.750824,100.28006
"3363",85.13069,100.29343
"3364",84.37629,100.30673
"3365",83.56573,100.3201
"3366",82.7625,100.333405
"3367",82.01785,100.34677
"3368",81.36111,100.36008
"3369",80.81178,100.37344
"3370",80.38941,100.38675
"3371",80.10132,100.400116
"3372",79.95239,100.41342
"3373",79.9353,100.42679
"3374",80.03052,100.440094
"3375",80.198975,100.45346
"3376",80.39185,100.46677
"3377",80.567635,100.48013
"3378",80.68726,100.49344
"3379",80.72877,100.506805
"3380",80.69459,100.52011
"3381",80.587166,100.53348
"3382",80.41627,100.54678
"3383",80.19653,100.56015
"3384",79.94507,100.573456
"3385",79.676506,100.58682
"3386",79.41772,100.60013
"3387",79.1931,100.613495
"3388",79.00755,100.6268
"3389",78.86595,100.64017
"3390",78.75365,100.65347
"3391",78.66575,100.66684
"3392",78.56809,100.680145
"3393",78.44114,100.69351
"3394",78.28977,100.70682
"3395",78.17502,100.720184
"3396",78.18967,100.73349
"3397",78.46067,100.74686
"3398",79.09056,100.76016
"3399",80.093994,100.77353
"3400",81.38308,100.786835
"3401",82.794235,100.8002
"3402",84.13214,100.81351
"3403",85.22835,100.82687
"3404",85.96567,100.84018
"3405",86.30259,100.853546
"3406",86.25376,100.86685
"3407",85.88266,100.88022
"3408",85.2723,100.893524
"3409",84.51545,100.90689
"3410",83.70733,100.9202
"3411",82.916306,100.93356
"3412",82.18387,100.94687
"3413",81.53689,100.960236
"3414",80.99489,100.97354
"3415",80.57252,100.98691
"3416",80.274666,101.00021
"3417",80.10376,101.01358
"3418",80.05005,101.026886
"3419",80.08911,101.04025
"3420",80.184326,101.05356
"3421",80.29908,101.066925
"3422",80.38209,101.08023
"3423",80.39918,101.0936
"3424",80.323494,101.1069
"3425",80.15747,101.12027
"3426",79.91821,101.133575
"3427",79.63012,101.14694
"3428",79.31762,101.16025
"3429",79.00267,101.173615
"3430",78.70481,101.18692
"3431",78.42893,101.20029
"3432",78.1799,101.21359
"3433",77.96506,101.22696
"3434",77.78439,101.240265
"3435",77.64034,101.25363
"3436",77.51339,101.26694
"3437",77.3962,101.280304
"3438",77.27657,101.29361
"3439",77.152054,101.30698
"3440",77.02266,101.32028
"3441",76.91524,101.33365
"3442",76.895706,101.346954
"3443",77.06172,101.36032
"3444",77.51583,101.37363
"3445",78.32395,101.38699
"3446",79.47631,101.4003
"3447",80.88258,101.413666
"3448",82.37919,101.42697
"3449",83.77081,101.44034
"3450",84.88655,101.45364
"3451",85.6141,101.46701
"3452",85.907074,101.480316
"3453",85.785,101.49368
"3454",85.316246,101.50699
"3455",84.59846,101.520355
"3456",83.74395,101.53366
"3457",82.85527,101.54703
"3458",81.99832,101.56033
"3459",81.214615,101.5737
"3460",80.533455,101.587006
"3461",79.97681,101.60037
"3462",79.551994,101.61368
"3463",79.276115,101.627045
"3464",79.14671,101.64035
"3465",79.151596,101.65372
"3466",79.259026,101.66702
"3467",79.41772,101.68039
"3468",79.58373,101.693695
"3469",79.70336,101.70706
"3470",79.74731,101.72037
"3471",79.693596,101.733734
"3472",79.54711,101.74704
"3473",79.31762,101.76041
"3474",79.02464,101.77371
"3475",78.68772,101.78708
"3476",78.33616,101.800385
"3477",77.98459,101.81375
"3478",77.65011,101.82706
"3479",77.34493,101.84042
"3480",77.07881,101.85373
"3481",76.85176,101.867096
"3482",76.66132,101.8804
"3483",76.50019,101.89377
"3484",76.37324,101.907074
"3485",76.27314,101.92044
"3486",76.18768,101.93375
"3487",76.11932,101.94711
"3488",76.06073,101.96042
"3489",76.00458,101.973785
"3490",75.965515,101.98709
"3491",75.98505,102.00046
"3492",76.13641,102.01376
"3493",76.53193,102.02713
"3494",77.25216,102.040436
"3495",78.31907,102.0538
"3496",79.66918,102.06711
"3497",81.16823,102.080475
"3498",82.633095,102.09378
"3499",83.878235,102.10715
"3500",84.77425,102.12045
"3501",85.25521,102.13382
"3502",85.30648,102.147125
"3503",84.972,102.16049
"3504",84.33723,102.1738
"3505",83.50469,102.187164
"3506",82.579384,102.20047
"3507",81.651634,102.21384
"3508",80.78493,102.22714
"3509",80.028076,102.24051
"3510",79.412834,102.253815
"3511",78.958725,102.26718
"3512",78.68772,102.28049
"3513",78.59495,102.29385
"3514",78.66575,102.30716
"3515",78.86107,102.320526
"3516",79.12962,102.33383
"3517",79.40551,102.3472
"3518",79.639885,102.360504
"3519",79.78882,102.37387
"3520",79.83032,102.38718
"3521",79.75708,102.40054
"3522",79.58373,102.41385
"3523",79.33715,102.427216
"3524",79.03685,102.44052
"3525",78.712135,102.45389
"3526",78.38499,102.46719
"3527",78.07004,102.48056
"3528",77.77707,102.493866
"3529",77.51583,102.50723
"3530",77.28878,102.52054
"3531",77.09346,102.533905
"3532",76.93233,102.54721
"3533",76.80049,102.56058
"3534",76.69062,102.57388
"3535",76.595406,102.58725
"3536",76.50996,102.600555
"3537",76.422066,102.61392
"3538",76.3415,102.62723
"3539",76.29511,102.640594
"3540",76.34638,102.6539
"3541",76.60029,102.66727
"3542",77.154495,102.68057
"3543",78.05539,102.69394
"3544",79.28588,102.707245
"3545",80.73853,102.72061
"3546",82.24002,102.73392
"3547",83.597466,102.747284
"3548",84.65217,102.76059
"3549",85.30404,102.77396
"3550",85.52621,102.78726
"3551",85.347984,102.80063
"3552",84.82796,102.813934
"3553",84.06622,102.8273
"3554",83.160446,102.84061
"3555",82.19852,102.85397
"3556",81.25613,102.86728
"3557",80.396736,102.880646
"3558",79.67162,102.89395
"3559",79.11742,102.90732
"3560",78.76341,102.92062
"3561",78.61448,102.93399
"3562",78.660866,102.947296
"3563",78.86595,102.96066
"3564",79.17601,102.97397
"3565",79.52514,102.987335
"3566",79.84741,103.00064
"3567",80.08911,103.01401
"3568",80.21118,103.02731
"3569",80.198975,103.04068
"3570",80.062256,103.053986
"3571",79.82544,103.06735
"3572",79.5227,103.08066
"3573",79.19066,103.094025
"3574",78.853745,103.10733
"3575",78.53391,103.1207
"3576",78.24094,103.134
"3577",77.98215,103.14737
"3578",77.75754,103.160675
"3579",77.56222,103.17404
"3580",77.39376,103.18735
"3581",77.24483,103.200714
"3582",77.10811,103.21402
"3583",76.978714,103.22739
"3584",76.85664,103.24069
"3585",76.76387,103.25406
"3586",76.749214,103.267365
"3587",76.92256,103.28073
"3588",77.39132,103.29404
"3589",78.24094,103.3074
"3590",79.48119,103.32071
"3591",81.024185,103.334076
"3592",82.69657,103.34738
"3593",84.29084,103.36075
"3594",85.61166,103.374054
"3595",86.52476,103.38742
"3596",86.9691,103.40073
"3597",86.93492,103.41409
"3598",86.49302,103.4274
"3599",85.73373,103.440765
"3600",84.77425,103.45407
"3601",83.7293,103.46744
"3602",82.686806,103.48074
"3603",81.71267,103.49411
"3604",80.85329,103.507416
"3605",80.14526,103.52078
"3606",79.61547,103.53409
"3607",79.28344,103.547455
"3608",79.151596,103.56076
"3609",79.19798,103.57413
"3610",79.378654,103.58743
"3611",79.635,103.6008
"3612",79.906006,103.614105
"3613",80.128174,103.62747
"3614",80.257576,103.64078
"3615",80.26246,103.654144
"3616",80.14526,103.66745
"3617",79.91333,103.68082
"3618",79.59838,103.69412
"3619",79.234604,103.70749
"3620",78.8513,103.720795
"3621",78.470436,103.73416
"3622",78.10422,103.74747
"3623",77.769745,103.76083
"3624",77.46212,103.77414
"3625",77.19356,103.787506
"3626",76.964066,103.80081
"3627",76.771194,103.81418
"3628",76.610054,103.827484
"3629",76.46845,103.84085
"3630",76.34394,103.85416
"3631",76.25361,103.86752
"3632",76.263374,103.88083
"3633",76.49775,103.894196
"3634",77.0959,103.9075
"3635",78.14084,103.92087
"3636",79.63744,103.93417
"3637",81.47585,103.94754
"3638",83.455864,103.960846
"3639",85.32357,103.97421
"3640",86.86168,103.98752
"3641",87.91638,104.000885
"3642",88.42176,104.01419
"3643",88.38514,104.02756
"3644",87.887085,104.04086
"3645",87.047226,104.05423
"3646",86.00961,104.067535
"3647",84.90364,104.0809
"3648",83.824524,104.09421
"3649",82.83086,104.107574
"3650",81.95438,104.12088
"3651",81.20973,104.13425
"3652",80.60914,104.14755
"3653",80.164795,104.16092
"3654",79.88403,104.174225
"3655",79.75952,104.18759
"3656",79.764404,104.2009
"3657",79.85474,104.214264
"3658",79.98169,104.22757
"3659",80.093994,104.24094
"3660",80.147705,104.25424
"3661",80.10864,104.26761
"3662",79.9646,104.280914
"3663",79.71313,104.29428
"3664",79.37377,104.30759
"3665",78.97093,104.32095
"3666",78.53147,104.33426
"3667",78.08713,104.347626
"3668",77.65499,104.36093
"3669",77.25948,104.3743
"3670",76.90303,104.3876
"3671",76.592964,104.40097
"3672",76.32685,104.414276
"3673",76.10712,104.42764
"3674",75.91669,104.44095
"3675",75.755554,104.454315
"3676",75.613945,104.46762
"3677",75.51629,104.48099
"3678",75.53094,104.49429
"3679",75.789734,104.50766
"3680",76.42451,104.520966
"3681",77.53536,104.53433
"3682",79.1223,104.54764
"3683",81.07057,104.561005
"3684",83.16289,104.57431
"3685",85.135574,104.58768
"3686",86.7396,104.60098
"3687",87.82117,104.61435
"3688",88.31434,104.627655
"3689",88.24353,104.64102
"3690",87.711296,104.65433
"3691",86.84703,104.667694
"3692",85.80209,104.681
"3693",84.70344,104.69437
"3694",83.64141,104.70767
"3695",82.66239,104.72104
"3696",81.79813,104.734344
"3697",81.05592,104.74771
"3698",80.445564,104.76102
"3699",79.96948,104.77438
"3700",79.64233,104.78769
"3701",79.4641,104.801056
"3702",79.412834,104.81436
"3703",79.4519,104.82773
"3704",79.54223,104.841034
"3705",79.63012,104.8544
"3706",79.67162,104.86771
"3707",79.635,104.88107
"3708",79.50317,104.89438
"3709",79.27123,104.907745
"3710",78.95384,104.92105
"3711",78.57786,104.93442
"3712",78.16281,104.94772
"3713",77.74288,104.96109
"3714",77.332726,104.974396
"3715",76.9543,104.98776
"3716",76.612495,105.00107
"3717",76.314644,105.014435
"3718",76.053406,105.02774
"3719",75.826355,105.04111
"3720",75.62615,105.05441
"3721",75.45037,105.06778
"3722",75.29412,105.081085
"3723",75.18181,105.09445
"3724",75.1696,105.10776
"3725",75.37469,105.121124
"3726",75.931335,105.13443
"3727",76.94209,105.1478
"3728",78.42405,105.1611
"3729",80.28687,105.17447
"3730",82.32304,105.187775
"3731",84.27131,105.20114
"3732",85.889984,105.21445
"3733",87.01549,105.22781
"3734",87.56481,105.24112
"3735",87.55993,105.254486
"3736",87.09361,105.26779
"3737",86.2855,105.28116
"3738",85.279625,105.294464
"3739",84.20538,105.30783
"3740",83.14824,105.32114
"3741",82.161896,105.3345
"3742",81.28298,105.34781
"3743",80.533455,105.361176
"3744",79.93042,105.37448
"3745",79.483635,105.38785
"3746",79.200424,105.40115
"3747",79.078354,105.41452
"3748",79.08812,105.427826
"3749",79.1931,105.44119
"3750",79.33471,105.4545
"3751",79.45922,105.467865
"3752",79.51537,105.48117
"3753",79.466545,105.49454
"3754",79.30541,105.50784
"3755",79.04173,105.52121
"3756",78.69749,105.534515
"3757",78.30198,105.54788
"3758",77.87961,105.56119
"3759",77.45968,105.574554
"3760",77.05928,105.58786
"3761",76.700386,105.60123
"3762",76.385445,105.61453
"3763",76.11932,105.6279
"3764",75.897156,105.641205
"3765",75.70672,105.65457
"3766",75.543144,105.66788
"3767",75.40154,105.681244
"3768",75.27703,105.69455
"3769",75.16472,105.70792
"3770",75.07683,105.72122
"3771",75.054855,105.73459
"3772",75.18913,105.747894
"3773",75.60174,105.76126
"3774",76.41474,105.77457
"3775",77.6672,105.78793
"3776",79.31518,105.80124
"3777",81.20729,105.814606
"3778",83.10918,105.82791
"3779",84.77913,105.84128
"3780",86.029144,105.85458
"3781",86.74937,105.86795
"3782",86.91783,105.881256
"3783",86.59312,105.89462
"3784",85.87778,105.90793
"3785",84.910965,105.921295
"3786",83.8172,105.9346
"3787",82.703896,105.94797
"3788",81.654076,105.96127
"3789",80.71412,105.97464
"3790",79.92554,105.987946
"3791",79.32006,106.00131
"3792",78.91478,106.01462
"3793",78.712135,106.027985
"3794",78.695045,106.04129
"3795",78.82689,106.05466
"3796",79.046616,106.06796
"3797",79.290764,106.08133
"3798",79.49828,106.094635
"3799",79.622795,106.108
"3800",79.62524,106.12131
"3801",79.49828,106.134674
"3802",79.256584,106.14798
"3803",78.91966,106.16135
"3804",78.52415,106.17465
"3805",78.101776,106.18802
"3806",77.679405,106.201324
"3807",77.281456,106.21469
"3808",76.927444,106.228
"3809",76.62226,106.24136
"3810",76.368355,106.25467
"3811",76.16083,106.268036
"3812",75.99237,106.28134
"3813",75.85321,106.29471
"3814",75.736015,106.308014
"3815",75.63592,106.32138
"3816",75.545586,106.33469
"3817",75.457695,106.34805
"3818",75.372246,106.36136
"3819",75.30877,106.374725
"3820",75.32342,106.38803
"3821",75.51385,106.4014
"3822",76.00214,106.4147
"3823",76.88106,106.42807
"3824",78.17258,106.441376
"3825",79.801025,106.45474
"3826",81.602806,106.46805
"3827",83.34356,106.481415
"3828",84.80354,106.49472
"3829",85.83139,106.50809
"3830",86.34165,106.52139
"3831",86.33677,106.53476
"3832",85.8851,106.548065
"3833",85.09651,106.56143
"3834",84.09064,106.57474
"3835",82.984665,106.588104
"3836",81.87137,106.60141
"3837",80.82643,106.61478
"3838",79.91333,106.62808
"3839",79.18089,106.64145
"3840",78.67063,106.654755
"3841",78.399635,106.66812
"3842",78.363014,106.68143
"3843",78.52415,106.69479
"3844",78.82201,106.7081
"3845",79.183334,106.721466
"3846",79.53246,106.73477
"3847",79.798584,106.74814
"3848",79.937744,106.761444
"3849",79.93286,106.77481
"3850",79.783936,106.78812
"3851",79.517815,106.80148
"3852",79.17113,106.81479
"3853",78.77562,106.828156
"3854",78.3679,106.84146
"3855",77.96994,106.85483
"3856",77.59884,106.86813
"3857",77.26681,106.8815
"3858",76.981155,106.894806
"3859",76.734566,106.90817
"3860",76.52949,106.92148
"3861",76.35371,106.934845
"3862",76.19501,106.94815
"3863",76.050964,106.96152
"3864",75.91669,106.97482
"3865",75.81171,106.98819
"3866",75.77753,107.001495
"3867",75.914246,107.01486
"3868",76.3415,107.02817
"3869",77.154495,107.041534
"3870",78.38987,107.05484
"3871",79.97925,107.06821
"3872",81.77127,107.08151
"3873",83.543755,107.09488
"3874",85.07698,107.108185
"3875",86.202484,107.12155
"3876",86.83238,107.13486
"3877",86.95201,107.148224
"3878",86.60044,107.16153
"3879",85.88022,107.1749
"3880",84.91341,107.1882
"3881",83.809875,107.20157
"3882",82.667274,107.214874
"3883",81.57351,107.22824
"3884",80.58961,107.24155
"3885",79.766846,107.25491
"3886",79.15404,107.26822
"3887",78.7805,107.281586
"3888",78.65598,107.29489
"3889",78.75365,107.30826
"3890",79.02464,107.32156
"3891",79.3933,107.33493
"3892",79.77661,107.348236
"3893",80.1062,107.3616
"3894",80.32105,107.37491
"3895",80.38697,107.388275
"3896",80.29664,107.40158
"3897",80.07202,107.41495
"3898",79.7522,107.42825
"3899",79.37377,107.44162
"3900",78.96849,107.454926
"3901",78.56565,107.46829
"3902",78.184784,107.4816
"3903",77.8259,107.494965
"3904",77.503624,107.50827
"3905",77.21797,107.52164
"3906",76.964066,107.53494
"3907",76.734566,107.54831
"3908",76.52949,107.561615
"3909",76.35615,107.57498
"3910",76.26826,107.58829
"3911",76.37324,107.601654
"3912",76.81026,107.61496
"3913",77.696495,107.62833
"3914",79.07103,107.64163
"3915",80.86061,107.655
"3916",82.88945,107.668304
"3917",84.90608,107.68167
"3918",86.65659,107.69498
"3919",87.955444,107.70834
"3920",88.69276,107.72165
"3921",88.8539,107.735016
"3922",88.499886,107.74832
"3923",87.74059,107.76169
"3924",86.70786,107.774994
"3925",85.538414,107.78836
"3926",84.33967,107.80167
"3927",83.192184,107.81503
"3928",82.14725,107.82834
"3929",81.25613,107.841705
"3930",80.54566,107.85501
"3931",80.04761,107.86838
"3932",79.766846,107.88168
"3933",79.68627,107.89505
"3934",79.76196,107.908356
"3935",79.937744,107.92172
"3936",80.147705,107.93503
"3937",80.33082,107.948395
"3938",80.43336,107.9617
"3939",80.41627,107.97507
"3940",80.26734,107.98837
"3941",79.991455,108.00174
"3942",79.61791,108.015045
"3943",79.17601,108.02841
"3944",78.70237,108.04172
"3945",78.22385,108.055084
"3946",77.76486,108.06839
"3947",77.34005,108.08176
"3948",76.95674,108.09506
"3949",76.6247,108.10843
"3950",76.33906,108.121735
"3951",76.09247,108.1351
"3952",75.87274,108.14841
"3953",75.68719,108.16177
"3954",75.56756,108.17508
"3955",75.61639,108.188446
"3956",75.98505,108.20175
"3957",76.822464,108.21512
"3958",78.21164,108.228424
"3959",80.12573,108.24179
"3960",82.406044,108.2551
"3961",84.79378,108.26846
"3962",86.993515,108.28177
"3963",88.75136,108.295135
"3964",89.91104,108.30844
"3965",90.41642,108.32181
"3966",90.29679,108.33511
"3967",89.669334,108.34848
"3968",88.69276,108.361786
"3969",87.52087,108.37515
"3970",86.30015,108.38846
"3971",85.118484,108.401825
"3972",84.03204,108.41513
"3973",83.053024,108.4285
"3974",82.19852,108.4418
"3975",81.47585,108.45517
"3976",80.89723,108.468475
"3977",80.47242,108.48184
"3978",80.20386,108.49515
"3979",80.06958,108.508514
"3980",80.028076,108.52182
"3981",80.028076,108.53519
"3982",80.01587,108.54849
"3983",79.94995,108.56186
"3984",79.79126,108.575165
"3985",79.5227,108.58853
"3986",79.15404,108.60184
"3987",78.70237,108.615204
"3988",78.19943,108.62851
"3989",77.67208,108.64188
"3990",77.152054,108.65518
"3991",76.65644,108.66855
"3992",76.20233,108.681854
"3993",75.79706,108.69522
"3994",75.44305,108.70853
"3995",75.13786,108.72189
"3996",74.87663,108.7352
"3997",74.652016,108.748566
"3998",74.4567,108.76187
"3999",74.32731,108.77524
"4000",74.35905,108.78854
"4001",74.703285,108.80191
"4002",75.526054,108.815216
"4003",76.927444,108.82858
"4004",78.89525,108.84189
"4005",81.2781,108.855255
"4006",83.80499,108.86856
"4007",86.1561,108.88193
"4008",88.05798,108.89523
"4009",89.322655,108.9086
"4010",89.89151,108.921906
"4011",89.80118,108.93527
"4012",89.178604,108.94858
"4013",88.18982,108.961945
"4014",87.00816,108.97525
"4015",85.787445,108.98862
"4016",84.62043,109.00192
"4017",83.55108,109.01529
"4018",82.58915,109.028595
"4019",81.73464,109.04196
"4020",80.9778,109.05527
"4021",80.325935,109.068634
"4022",79.79614,109.08194
"4023",79.40307,109.09531
"4024",79.14183,109.10861
"4025",78.98802,109.12198
"4026",78.91234,109.135284
"4027",78.86595,109.14865
"4028",78.79759,109.16196
"4029",78.66575,109.17532
"4030",78.45335,109.18863
"4031",78.15549,109.201996
"4032",77.78195,109.2153
"4033",77.35226,109.22867
"4034",76.893265,109.241974
"4035",76.422066,109.25534
"4036",75.96063,109.26865
"4037",75.526054,109.28201
"4038",75.13786,109.29532
"4039",74.80339,109.308685
"4040",74.52506,109.32199
"4041",74.30045,109.33536
"4042",74.11978,109.34866
"4043",73.97818,109.36203
"4044",73.85855,109.375336
"4045",73.75601,109.3887
"4046",73.66811,109.40201
"4047",73.602196,109.415375
"4048",73.60952,109.42868
"4049",73.80484,109.44205
"4050",75.403984,109.46872
"4051",77.04707,109.482025
"4052",79.22972,109.49539
"4053",81.761505,109.5087
"4054",84.33723,109.522064
"4055",86.63706,109.53537
"4056",88.38758,109.54874
"4057",89.43984,109.56204
"4058",89.762115,109.57541
"4059",89.43252,109.588715
"4060",88.604866,109.60208
"4061",87.4696,109.61539
"4062",86.20004,109.62875
"4063",84.93538,109.64206
"4064",83.75128,109.655426
"4065",82.68192,109.66873
"4066",81.73708,109.6821
"4067",80.921646,109.695404
"4068",80.24048,109.70877
"4069",79.708244,109.72208
"4070",79.33227,109.73544
"4071",79.10521,109.74875
"4072",79.00267,109.762115
"4073",78.98558,109.77542
"4074",79.00267,109.78879
"4075",79.00755,109.80209
"4076",78.95384,109.81546
"4077",78.81468,109.828766
"4078",78.57053,109.84213
"4079",78.23361,109.85544
"4080",77.821014,109.868805
"4081",77.35714,109.88211
"4082",76.86885,109.89548
"4083",76.385445,109.90878
"4084",75.91669,109.92215
"4085",75.48211,109.935455
"4086",75.09148,109.94882
"4087",74.74967,109.96213
"4088",74.459145,109.975494
"4089",74.22232,109.9888
"4090",74.03189,110.00217
"4091",73.88052,110.01547
"4092",73.763336,110.02884
"4093",73.673,110.042145
"4094",73.60952,110.05551
"4095",73.57046,110.06882
"4096",73.55093,110.082184
"4097",73.55093,110.09549
"4098",73.55825,110.10886
"4099",73.57046,110.12216
"4100",73.58022,110.13553
"4101",73.599754,110.148834
"4102",73.68032,110.1622
"4103",73.936676,110.17551
"4104",74.53239,110.18887
"4105",75.6115,110.20218
"4106",77.242386,110.215546
"4107",79.37377,110.22885
"4108",81.8201,110.24222
"4109",84.29328,110.25552
"4110",86.485695,110.26889
"4111",88.162964,110.282196
"4112",89.18593,110.29556
"4113",89.52773,110.30887
"4114",89.24696,110.322235
"4115",88.47547,110.33554
"4116",87.37194,110.34891
"4117",86.099945,110.36221
"4118",84.78645,110.37558
"4119",83.52422,110.388885
"4120",82.37675,110.40225
"4121",81.38064,110.41556
"4122",80.56031,110.428925
"4123",79.94263,110.44223
"4124",79.53979,110.4556
"4125",79.3518,110.4689
"4126",79.3518,110.48227
"4127",79.4934,110.495575
"4128",79.708244,110.50894
"4129",79.923096,110.52225
"4130",80.076904,110.535614
"4131",80.11841,110.54892
"4132",80.02319,110.56229
"4133",79.79126,110.57559
"4134",79.43481,110.58896
"4135",78.98802,110.602264
"4136",78.47288,110.61563
"4137",77.93332,110.62894
"4138",77.39376,110.6423
"4139",76.8835,110.65561
"4140",76.41718,110.668976
"4141",76.00702,110.68228
"4142",75.65545,110.69565
"4143",75.36004,110.708954
"4144",75.125656,110.72232
"4145",74.94011,110.73563
"4146",74.80339,110.74899
"4147",74.70573,110.7623
"4148",74.652016,110.775665
"4149",74.634926,110.78897
"4150",74.64225,110.80234
"4151",74.67643,110.81564
"4152",74.72282,110.82901
"4153",74.76921,110.842316
"4154",74.80095,110.85568
"4155",74.82292,110.86899
"4156",74.83269,110.882355
"4157",74.87175,110.89566
"4158",75.037766,110.90903
"4159",75.4699,110.92233
"4160",76.314644,110.9357
"4161",77.65255,110.949005
"4162",79.45678,110.96237
"4163",81.57595,110.97568
"4164",83.76593,110.989044
"4165",85.74593,111.00235
"4166",87.293816,111.01572
"4167",88.25819,111.02902
"4168",88.59998,111.04239
"4169",88.35096,111.055695
"4170",87.620964,111.06906
"4171",86.54673,111.08237
"4172",85.279625,111.09573
"4173",83.94415,111.10904
"4174",82.63798,111.122406
"4175",81.43191,111.13571
"4176",80.38453,111.14908
"4177",79.54955,111.162384
"4178",78.96605,111.17575
"4179",78.64866,111.18906
"4180",78.59739,111.20242
"4181",78.765854,111.21573
"4182",79.08568,111.229095
"4183",79.47875,111.2424
"4184",79.86694,111.25577
"4185",80.17212,111.26907
"4186",80.34547,111.28244
"4187",80.360115,111.295746
"4188",80.216064,111.30911
"4189",79.9353,111.32242
"4190",79.554436,111.335785
"4191",79.11009,111.34909
"4192",78.63889,111.36246
"4193",78.17502,111.37576
"4194",77.733116,111.38913
"4195",77.33517,111.402435
"4196",76.98848,111.4158
"4197",76.700386,111.42911
"4198",76.470894,111.442474
"4199",76.29511,111.45578
"4200",76.16083,111.46915
"4201",76.06073,111.48245
"4202",75.982605,111.49582
"4203",75.911804,111.509125
"4204",75.83612,111.52249
"4205",75.76288,111.5358
"4206",75.70916,111.549164
"4207",75.74578,111.56247
"4208",75.99725,111.575836
"4209",76.610054,111.58914
"4210",77.69161,111.60251
"4211",79.26879,111.615814
"4212",81.231705,111.62918
"4213",83.38262,111.64249
"4214",85.44808,111.65585
"4215",87.183945,111.66916
"4216",88.41688,111.682526
"4217",89.0663,111.69583
"4218",89.13222,111.7092
"4219",88.67567,111.7225
"4220",87.8114,111.73587
"4221",86.66636,111.749176
"4222",85.36996,111.76254
"4223",84.02716,111.77585
"4224",82.72831,111.789215
"4225",81.54665,111.80252
"4226",80.54322,111.81589
"4227",79.75708,111.82919
"4228",79.22484,111.84256
"4229",78.96361,111.855865
"4230",78.9514,111.86923
"4231",79.14183,111.88254
"4232",79.466545,111.895905
"4233",79.84741,111.90921
"4234",80.201416,111.92258
"4235",80.46021,111.93588
"4236",80.58228,111.94925
"4237",80.54078,111.962555
"4238",80.34547,111.97592
"4239",80.02319,111.98923
"4240",79.61059,112.002594
"4241",79.14671,112.0159
"4242",78.66331,112.02927
"4243",78.184784,112.04257
"4244",77.74044,112.05594
"4245",77.34005,112.069244
"4246",76.99336,112.08261
"4247",76.70283,112.09592
"4248",76.46845,112.10928
"4249",76.27802,112.12259
"4250",76.10956,112.135956
"4251",75.96307,112.14926
"4252",75.8288,112.16263
"4253",75.7116,112.175934
"4254",75.65545,112.1893
"4255",75.7702,112.20261
"4256",76.21698,112.21597
"4257",77.15694,112.22928
"4258",78.675514,112.242645
"4259",80.73365,112.25595
"4260",83.16777,112.26932
"4261",85.68978,112.28262
"4262",87.989624,112.29599
"4263",89.81583,112.309296
"4264",91.019455,112.32266
"4265",91.53216,112.33597
"4266",91.38567,112.349335
"4267",90.68253,112.36264
"4268",89.57168,112.37601
"4269",88.20447,112.38931
"4270",86.74204,112.40268
"4271",85.29916,112.415985
"4272",83.946594,112.42935
"4273",82.73319,112.44266
"4274",81.69558,112.456024
"4275",80.85573,112.46933
"4276",80.23071,112.4827
"4277",79.83765,112.496
"4278",79.6643,112.50937
"4279",79.674065,112.522675
"4280",79.80835,112.53604
"4281",80.00366,112.54935
"4282",80.19165,112.56271
"4283",80.31129,112.57602
"4284",80.32105,112.589386
"4285",80.201416,112.60269
"4286",79.95239,112.61606
"4287",79.58373,112.629364
"4288",79.13451,112.64273
"4289",78.63645,112.65604
"4290",78.12375,112.6694
"4291",77.62325,112.68271
"4292",77.15938,112.696075
"4293",76.74189,112.70938
"4294",76.37568,112.72275
"4295",76.06073,112.73605
"4296",75.792175,112.74942
"4297",75.55779,112.762726
"4298",75.34539,112.77609
"4299",75.15495,112.7894
"4300",74.984055,112.802765
"4301",74.8864,112.81607
"4302",74.98161,112.82944
"4303",75.45281,112.84274
"4304",76.45869,112.85611
"4305",78.09201,112.869415
"4306",80.31129,112.88278
"4307",82.92363,112.89609
"4308",85.62386,112.909454
"4309",88.0824,112.92276
"4310",90.02823,112.93613
"4311",91.29534,112.94943
"4312",91.83246,112.9628
"4313",91.67376,112.976105
"4314",90.94377,112.98947
"4315",89.79874,113.00278
"4316",88.40711,113.01614
"4317",86.9276,113.02945
"4318",85.46761,113.042816
"4319",84.105286,113.05612
"4320",82.87724,113.06949
"4321",81.80545,113.082794
"4322",80.91188,113.09616
"4323",80.218506,113.10947
"4324",79.7351,113.12283
"4325",79.466545,113.13614
"4326",79.37377,113.149506
"4327",79.41772,113.16281
"4328",79.534904,113.17618
"4329",79.656975,113.18948
"4330",79.727776,113.20285
"4331",79.708244,113.216156
"4332",79.56664,113.22952
"4333",79.29809,113.24283
"4334",78.91722,113.256195
"4335",78.450905,113.2695
"4336",77.9382,113.28287
"4337",77.40353,113.29617
"4338",76.87862,113.30954
"4339",76.38056,113.322845
"4340",75.92157,113.33621
"4341",75.50652,113.34952
"4342",75.140305,113.362885
"4343",74.82292,113.37619
"4344",74.55192,113.38956
"4345",74.31754,113.40286
"4346",74.11734,113.41623
"4347",73.95621,113.429535
"4348",73.88541,113.4429
"4349",74.01724,113.45621
"4350",74.52262,113.469574
"4351",75.55779,113.48288
"4352",77.20332,113.49625
"4353",79.40795,113.50955
"4354",81.98367,113.52292
"4355",84.627754,113.536224
"4356",87.00816,113.54959
"4357",88.87099,113.5629
"4358",90.05264,113.57626
"4359",90.511635,113.58957
"4360",90.29679,113.602936
"4361",89.52529,113.61624
"4362",88.35584,113.62961
"4363",86.96178,113.642914
"4364",85.489586,113.65628
"4365",84.04913,113.669586
"4366",82.70878,113.68295
"4367",81.51736,113.69626
"4368",80.50904,113.709625
"4369",79.70092,113.72293
"4370",79.114975,113.7363
"4371",78.76097,113.7496
"4372",78.6218,113.76297
"4373",78.658424,113.776276
"4374",78.81224,113.78964
"4375",79.012436,113.80295
"4376",79.19066,113.816315
"4377",79.281,113.82962
"4378",79.2517,113.84299
"4379",79.080795,113.85629
"4380",78.785385,113.86966
"4381",78.38743,113.882965
"4382",77.92355,113.89633
"4383",77.4255,113.90964
"4384",76.91768,113.923004
"4385",76.42695,113.93631
"4386",75.97284,113.94968
"4387",75.56756,113.96298
"4388",75.21843,113.97635
"4389",74.92302,113.989655
"4390",74.67399,114.00302
"4391",74.46891,114.01633
"4392",74.29801,114.02969
"4393",74.14664,114.043
"4394",74.00748,114.056366
"4395",73.88541,114.06967
"4396",73.81705,114.08304
"4397",73.90738,114.096344
"4398",74.322426,114.10971
"4399",75.23308,114.12302
"4400",76.73945,114.13638
"4401",78.81712,114.14969
"4402",81.29519,114.163055
"4403",83.89288,114.17636
"4404",86.278175,114.18973
"4405",88.17029,114.20303
"4406",89.393456,114.2164
"4407",89.88907,114.229706
"4408",89.69375,114.24307
"4409",88.919815,114.25638
"4410",87.73327,114.269745
"4411",86.29282,114.28305
"4412",84.754715,114.29642
"4413",83.228806,114.30972
"4414",81.80057,114.32309
"4415",80.53101,114.336395
"4416",79.47143,114.34976
"4417",78.66575,114.36307
"4418",78.14084,114.376434
"4419",77.90158,114.38974
"4420",77.91623,114.40311
"4421",78.12863,114.41641
"4422",78.45335,114.42978
"4423",78.80492,114.443085
"4424",79.10277,114.45645
"4425",79.290764,114.46976
"4426",79.33471,114.48312
"4427",79.21263,114.49643
"4428",78.941635,114.509796
"4429",78.555885,114.5231
"4430",78.09201,114.53647
"4431",77.58907,114.549774
"4432",77.083694,114.56314
"4433",76.610054,114.57645
"4434",76.173035,114.58981
"4435",75.78729,114.60312
"4436",75.46014,114.616486
"4437",75.18425,114.62979
"4438",74.9572,114.64316
"4439",74.77165,114.65646
"4440",74.62516,114.66983
"4441",74.50553,114.683136
"4442",74.407875,114.6965
"4443",74.32487,114.70981
"4444",74.249176,114.723175
"4445",74.18082,114.73648
"4446",74.16617,114.74985
"4447",74.29313,114.76315
"4448",74.720375,114.77652
"4449",75.6115,114.789825
"4450",77.06172,114.80319
"4451",79.0515,114.8165
"4452",81.42214,114.829865
"4453",83.90509,114.84317
"4454",86.187836,114.85654
"4455",88.00183,114.86984
"4456",89.18349,114.88321
"4457",89.66445,114.896515
"4458",89.47402,114.90988
"4459",88.71229,114.92319
"4460",87.52087,114.936554
"4461",86.063324,114.94986
"4462",84.48127,114.96323
"4463",82.899216,114.97653
"4464",81.40749,114.9899
"4465",80.093994,115.003204
"4466",79.027084,115.01657
"4467",78.26536,115.02988
"4468",77.83322,115.04324
"4469",77.738,115.05655
"4470",77.92844,115.069916
"4471",78.32151,115.08322
"4472",78.82445,115.09659
"4473",79.33227,115.10989
"4474",79.7522,115.12326
"4475",80.028076,115.136566
"4476",80.11841,115.14993
"4477",80.025635,115.16324
"4478",79.764404,115.176605
"4479",79.378654,115.18991
"4480",78.9099,115.20328
"4481",78.399635,115.21658
"4482",77.88693,115.22995
"4483",77.401085,115.243256
"4484",76.961624,115.25662
"4485",76.575874,115.26993
"4486",76.25117,115.283295
"4487",75.982605,115.2966
"4488",75.76288,115.30997
"4489",75.58221,115.32327
"4490",75.43084,115.33664
"4491",75.28924,115.349945
"4492",75.15251,115.36331
"4493",75.01335,115.37662
"4494",74.90593,115.389984
"4495",74.92058,115.40329
"4496",75.20622,115.41666
"4497",75.93378,115.42996
"4498",77.21797,115.44333
"4499",79.061264,115.456635
"4500",81.324486,115.47
"4501",83.76105,115.48331
"4502",86.06821,115.49667
"4503",87.97009,115.50998
"4504",89.28359,115.523346
"4505",89.92569,115.53665
"4506",89.901276,115.55002
"4507",89.28603,115.563324
"4508",88.21179,115.57669
"4509",86.81773,115.59
"4510",85.25765,115.60336
"4511",83.65362,115.61667
"4512",82.10574,115.630035
"4513",80.70191,115.64334
"4514",79.52514,115.65671
"4515",78.63645,115.67001
"4516",78.08469,115.68338
"4517",77.87717,115.696686
"4518",77.99191,115.71005
"4519",78.35569,115.72336
"4520",78.870834,115.736725
"4521",79.432365,115.75003
"4522",79.9353,115.7634
"4523",80.30396,115.7767
"4524",80.48951,115.79007
"4525",80.482185,115.803375
"4526",80.2942,115.81674
"4527",79.96704,115.83005
"4528",79.53246,115.843414
"4529",79.03685,115.85672
"4530",78.51682,115.87009
"4531",78.00656,115.88339
"4532",77.53048,115.89676
"4533",77.100784,115.910065
"4534",76.732124,115.92343
"4535",76.4123,115.93674
"4536",76.13641,115.9501
"4537",75.89227,115.96341
"4538",75.67254,115.976776
"4539",75.47723,115.99008
"4540",75.32342,116.00345
"4541",75.29412,116.016754
"4542",75.55779,116.03012
"4543",76.29267,116.04343
"4544",77.6379,116.05679
"4545",79.60815,116.0701
"4546",82.06912,116.083466
"4547",84.74494,116.09677
"4548",87.293816,116.11014
