"","ppg","time"
"1",74.05386,71.65169
"2",74.0441,71.66502
"3",74.0441,71.67835
"4",74.05875,71.69168
"5",74.08804,71.70502
"6",74.12955,71.71835
"7",74.18082,71.73168
"8",74.24185,71.74501
"9",74.30045,71.75835
"10",74.356606,71.77168
"11",74.40543,71.78501
"12",74.42985,71.79834
"13",74.43229,71.811676
"14",74.42008,71.82501
"15",74.39323,71.83834
"16",74.32487,71.85167
"17",74.17349,71.865005
"18",73.934235,71.87834
"19",73.65835,71.89167
"20",73.39956,71.905
"21",73.23842,71.918335
"22",73.34341,71.93167
"23",73.92203,71.945
"24",75.14763,71.95833
"25",77.08858,71.971664
"26",79.68383,71.985
"27",82.68192,71.99833
"28",85.6849,72.01166
"29",88.27772,72.024994
"30",90.160065,72.03833
"31",91.21721,72.05166
"32",91.490654,72.06499
"33",91.11711,72.07832
"34",90.267494,72.09166
"35",89.12001,72.10499
"36",87.82605,72.11832
"37",86.505226,72.13165
"38",85.23079,72.14499
"39",84.03937,72.15832
"40",82.948044,72.171646
"41",81.951935,72.18498
"42",81.06081,72.19832
"43",80.29664,72.21165
"44",79.69604,72.224976
"45",79.29565,72.23831
"46",79.1223,72.25165
"47",79.17113,72.26498
"48",79.41039,72.278305
"49",79.76929,72.29164
"50",80.17456,72.30498
"51",80.54566,72.318306
"52",80.816666,72.331635
"53",80.9485,72.34497
"54",80.93141,72.35831
"55",80.77516,72.371635
"56",80.50904,72.384964
"57",80.17212,72.3983
"58",79.78882,72.41164
"59",79.38354,72.424965
"60",78.9807,72.43829
"61",78.59495,72.45163
"62",78.238495,72.464966
"63",77.925995,72.478294
"64",77.659874,72.49162
"65",77.44503,72.50496
"66",77.27169,72.518295
"67",77.13008,72.531624
"68",77.01289,72.54495
"69",76.910355,72.55829
"70",76.81758,72.571625
"71",76.74189,72.58495
"72",76.68574,72.59828
"73",76.64912,72.61162
"74",76.63691,72.624954
"75",76.646675,72.63828
"76",76.67597,72.65161
"77",76.715034,72.66495
"78",76.75899,72.67828
"79",76.807816,72.69161
"80",76.86397,72.70494
"81",76.92012,72.71828
"82",76.97627,72.73161
"83",77.0251,72.74494
"84",77.06416,72.75827
"85",77.08125,72.77161
"86",77.07149,72.78494
"87",77.04463,72.79827
"88",76.998245,72.8116
"89",76.93721,72.824936
"90",76.87862,72.83827
"91",76.83467,72.8516
"92",76.83711,72.86493
"93",76.96651,72.878265
"94",77.38644,72.8916
"95",78.27268,72.90493
"96",79.742424,72.91826
"97",81.75906,72.931595
"98",84.13458,72.94493
"99",86.54185,72.95826
"100",88.61463,72.97159
"101",90.06973,72.984924
"102",90.794846,72.99826
"103",90.809494,73.01159
"104",90.250404,73.02492
"105",89.28359,73.03825
"106",88.06775,73.05159
"107",86.744484,73.06492
"108",85.4139,73.07825
"109",84.14191,73.09158
"110",82.96025,73.10492
"111",81.883575,73.11825
"112",80.921646,73.13158
"113",80.093994,73.14491
"114",79.432365,73.15825
"115",78.96605,73.17158
"116",78.729225,73.184906
"117",78.72678,73.19824
"118",78.941635,73.21158
"119",79.32494,73.22491
"120",79.801025,73.238235
"121",80.29664,73.25157
"122",80.73121,73.26491
"123",81.0486,73.27824
"124",81.21217,73.291565
"125",81.21706,73.3049
"126",81.07057,73.31824
"127",80.799576,73.331566
"128",80.43824,73.344894
"129",80.02319,73.35823
"130",79.58129,73.37157
"131",79.149155,73.384895
"132",78.74143,73.398224
"133",78.3679,73.41156
"134",78.03342,73.4249
"135",77.738,73.438225
"136",77.47677,73.45155
"137",77.242386,73.46489
"138",77.03487,73.478226
"139",76.85664,73.491554
"140",76.71259,73.50488
"141",76.60761,73.51822
"142",76.53437,73.531555
"143",76.49531,73.54488
"144",76.48798,73.55821
"145",76.50996,73.57155
"146",76.558784,73.584885
"147",76.63447,73.59821
"148",76.72968,73.61154
"149",76.83223,73.62488
"150",76.929886,73.638214
"151",77.02266,73.65154
"152",77.103226,73.66487
"153",77.1667,73.67821
"154",77.21309,73.69154
"155",77.239944,73.70487
"156",77.242386,73.7182
"157",77.21797,73.73154
"158",77.17647,73.74487
"159",77.120316,73.7582
"160",77.06416,73.77153
"161",77.03731,73.78487
"162",77.100784,73.7982
"163",77.38155,73.81153
"164",78.0383,73.82486
"165",79.202866,73.838196
"166",80.88991,73.85153
"167",82.9749,73.86486
"168",85.19661,73.87819
"169",87.22789,73.891525
"170",88.7831,73.90486
"171",89.69131,73.91819
"172",89.933014,73.93152
"173",89.59609,73.944855
"174",88.80995,73.95819
"175",87.728386,73.97152
"176",86.47593,73.98485
"177",85.152664,73.998184
"178",83.82208,74.01152
"179",82.52567,74.02485
"180",81.29519,74.03818
"181",80.16724,74.05151
"182",79.19798,74.06485
"183",78.4387,74.07818
"184",77.943085,74.09151
"185",77.733116,74.10484
"186",77.803925,74.11818
"187",78.116425,74.13151
"188",78.60471,74.14484
"189",79.1931,74.15817
"190",79.80347,74.17151
"191",80.360115,74.18484
"192",80.80446,74.198166
"193",81.0901,74.2115
"194",81.214615,74.22484
"195",81.18288,74.23817
"196",81.02907,74.251495
"197",80.78493,74.26483
"198",80.48463,74.27817
"199",80.15015,74.2915
"200",79.801025,74.304825
"201",79.447014,74.31816
"202",79.10765,74.3315
"203",78.79027,74.344826
"204",78.49729,74.358154
"205",78.23605,74.37149
"206",78.00656,74.38483
"207",77.803925,74.398155
"208",77.63302,74.41148
"209",77.49386,74.42482
"210",77.38644,74.438156
"211",77.313194,74.451485
"212",77.27657,74.46481
"213",77.26681,74.47815
"214",77.279015,74.491486
"215",77.31075,74.504814
"216",77.36202,74.51814
"217",77.43038,74.53148
"218",77.51339,74.544815
"219",77.61593,74.55814
"220",77.72823,74.57147
"221",77.838104,74.58481
"222",77.9382,74.598145
"223",78.01877,74.61147
"224",78.0798,74.6248
"225",78.118866,74.63814
"226",78.1384,74.651474
"227",78.14816,74.6648
"228",78.16037,74.67813
"229",78.21652,74.69147
"230",78.39475,74.7048
"231",78.83177,74.71813
"232",79.67895,74.73146
"233",81.01442,74.7448
"234",82.79912,74.75813
"235",84.86702,74.77146
"236",86.939804,74.78479
"237",88.71717,74.79813
"238",89.97696,74.81146
"239",90.614174,74.82479
"240",90.65324,74.83812
"241",90.18692,74.851456
"242",89.34463,74.86479
"243",88.24841,74.87812
"244",87.010605,74.89145
"245",85.70687,74.904785
"246",84.38117,74.91812
"247",83.070114,74.93145
"248",81.812775,74.94478
"249",80.65797,74.958115
"250",79.66674,74.97145
"251",78.90013,74.98478
"252",78.4094,74.99811
"253",78.21408,75.011444
"254",78.30686,75.02478
"255",78.643776,75.03811
"256",79.151596,75.05144
"257",79.75464,75.06477
"258",80.36744,75.07811
"259",80.919205,75.09144
"260",81.35378,75.10477
"261",81.636986,75.1181
"262",81.76639,75.13144
"263",81.75174,75.14477
"264",81.61013,75.1581
"265",81.3782,75.17143
"266",81.08278,75.18477
"267",80.75319,75.1981
"268",80.40894,75.211426
"269",80.05737,75.22476
"270",79.71313,75.2381
"271",79.37621,75.25143
"272",79.05882,75.264755
"273",78.765854,75.27809
"274",78.49973,75.29143
"275",78.26292,75.304756
"276",78.05295,75.318085
"277",77.86008,75.33142
"278",77.696495,75.34476
"279",77.55245,75.358086
"280",77.43282,75.371414
"281",77.33517,75.38475
"282",77.26925,75.39809
"283",77.225296,75.411415
"284",77.205765,75.42474
"285",77.21065,75.43808
"286",77.23018,75.451416
"287",77.25216,75.464745
"288",77.27169,75.47807
"289",77.28634,75.49141
"290",77.29366,75.504745
"291",77.29366,75.518074
"292",77.315636,75.5314
"293",77.40597,75.54474
"294",77.68917,75.558075
"295",78.31663,75.5714
"296",79.43725,75.58473
"297",81.07301,75.59807
"298",83.13115,75.611404
"299",85.37972,75.62473
"300",87.51354,75.63806
"301",89.24452,75.6514
"302",90.39445,75.664734
"303",90.90959,75.67806
"304",90.83391,75.69139
"305",90.27238,75.70473
"306",89.35439,75.71806
"307",88.20203,75.73139
"308",86.92027,75.74472
"309",85.58236,75.75806
"310",84.23468,75.77139
"311",82.91875,75.78472
"312",81.668724,75.79805
"313",80.53101,75.811386
"314",79.56176,75.82472
"315",78.819565,75.83805
"316",78.34348,75.85138
"317",78.16037,75.864716
"318",78.26536,75.87805
"319",78.61936,75.89138
"320",79.15892,75.90471
"321",79.80591,75.918045
"322",80.46998,75.93138
"323",81.06813,75.94471
"324",81.54177,75.95804
"325",81.8616,75.971375
"326",82.01541,75.98471
"327",82.01541,75.99804
"328",81.88602,76.01137
"329",81.65896,76.024704
"330",81.358665,76.03804
"331",81.004654,76.05137
"332",80.62623,76.0647
"333",80.23804,76.07803
"334",79.84741,76.09137
"335",79.47631,76.1047
"336",79.12962,76.11803
"337",78.80492,76.13136
"338",78.504616,76.1447
"339",78.22873,76.15803
"340",77.97482,76.17136
"341",77.75021,76.18469
"342",77.55978,76.19803
"343",77.40353,76.21136
"344",77.28634,76.224686
"345",77.196,76.23802
"346",77.13252,76.25136
"347",77.09346,76.26469
"348",77.07149,76.278015
"349",77.05928,76.29135
"350",77.04707,76.30469
"351",77.02998,76.318016
"352",76.998245,76.331345
"353",76.9543,76.34468
"354",76.92256,76.35802
"355",76.961624,76.371346
"356",77.18379,76.384674
"357",77.74288,76.39801
"358",78.78294,76.41135
"359",80.360115,76.424675
"360",82.406044,76.438
"361",84.71809,76.45134
"362",87.010605,76.464676
"363",88.990616,76.478004
"364",90.43839,76.49133
"365",91.25872,76.50467
"366",91.456474,76.518005
"367",91.104904,76.531334
"368",90.32853,76.54466
"369",89.24696,76.558
"370",87.97009,76.571335
"371",86.58579,76.58466
"372",85.15755,76.59799
"373",83.734184,76.61133
"374",82.34989,76.624664
"375",81.05104,76.63799
"376",79.8938,76.65132
"377",78.93919,76.66466
"378",78.24826,76.67799
"379",77.86008,76.69132
"380",77.79416,76.70465
"381",78.01877,76.71799
"382",78.470436,76.73132
"383",79.06859,76.74465
"384",79.71557,76.75798
"385",80.325935,76.77132
"386",80.8362,76.78465
"387",81.20973,76.79798
"388",81.43191,76.81131
"389",81.50759,76.824646
"390",81.45144,76.83798
"391",81.290306,76.85131
"392",81.03639,76.86464
"393",80.719,76.877975
"394",80.35523,76.89131
"395",79.96216,76.90464
"396",79.55932,76.91797
"397",79.15404,76.931305
"398",78.76097,76.94464
"399",78.38987,76.95797
"400",78.0383,76.9713
"401",77.7087,76.984634
"402",77.40597,76.99797
"403",77.13252,77.0113
"404",76.89082,77.02463
"405",76.68574,77.037964
"406",76.51728,77.0513
"407",76.39277,77.06463
"408",76.30244,77.07796
"409",76.24628,77.09129
"410",76.21454,77.10463
"411",76.20233,77.11796
"412",76.18768,77.13129
"413",76.173035,77.14462
"414",76.15839,77.15796
"415",76.18524,77.17129
"416",76.35371,77.184616
"417",76.82002,77.19795
"418",77.738,77.21129
"419",79.1931,77.22462
"420",81.143814,77.237946
"421",83.41192,77.25128
"422",85.72396,77.26462
"423",87.77722,77.27795
"424",89.34707,77.291275
"425",90.31632,77.30461
"426",90.67521,77.31795
"427",90.4799,77.331276
"428",89.83536,77.34461
"429",88.84657,77.35795
"430",87.61852,77.371284
"431",86.2269,77.38462
"432",84.74738,77.39796
"433",83.23125,77.41129
"434",81.74197,77.42463
"435",80.33814,77.437965
"436",79.10033,77.4513
"437",78.09445,77.46464
"438",77.37911,77.477974
"439",76.995804,77.49131
"440",76.9543,77.50465
"441",77.21309,77.51798
"442",77.7087,77.53132
"443",78.35081,77.544655
"444",79.044174,77.55799
"445",79.70336,77.57133
"446",80.272224,77.58466
"447",80.719,77.598
"448",81.0193,77.611336
"449",81.17555,77.62467
"450",81.1902,77.63801
"451",81.077896,77.651344
"452",80.86061,77.66468
"453",80.57252,77.67802
"454",80.235596,77.69135
"455",79.869385,77.70469
"456",79.48852,77.718025
"457",79.10521,77.73136
"458",78.71702,77.7447
"459",78.3386,77.75803
"460",77.98215,77.77137
"461",77.65499,77.784706
"462",77.3547,77.79804
"463",77.086136,77.81138
"464",76.84688,77.824715
"465",76.629585,77.83805
"466",76.43427,77.85139
"467",76.25361,77.86472
"468",76.09491,77.87806
"469",75.965515,77.891396
"470",75.8996,77.90473
"471",75.97772,77.91807
"472",76.3415,77.931404
"473",77.14473,77.94474
"474",78.502174,77.95808
"475",80.42359,77.97141
"476",82.78447,77.98475
"477",85.33822,77.998085
"478",87.784546,78.01142
"479",89.84024,78.02476
"480",91.3222,78.03809
"481",92.1474,78.05143
"482",92.32319,78.064766
"483",91.92035,78.0781
"484",91.053635,78.09144
"485",89.830475,78.104774
"486",88.360725,78.11811
"487",86.73472,78.13145
"488",85.030594,78.14478
"489",83.3167,78.15812
"490",81.668724,78.171455
"491",80.177,78.18479
"492",78.93187,78.19813
"493",78.011444,78.211464
"494",77.469444,78.2248
"495",77.31075,78.23814
"496",77.506065,78.25147
"497",77.98215,78.26481
"498",78.63645,78.278145
"499",79.36889,78.29148
"500",80.079346,78.30482
"501",80.69215,78.31815
"502",81.15846,78.33149
"503",81.45388,78.344826
"504",81.56863,78.35816
"505",81.5198,78.3715
"506",81.33425,78.384834
"507",81.03639,78.39817
"508",80.655525,78.41151
"509",80.22095,78.42484
"510",79.75464,78.43818
"511",79.27123,78.451515
"512",78.78783,78.46485
"513",78.3093,78.47819
"514",77.85275,78.49152
"515",77.4255,78.50486
"516",77.03487,78.518196
"517",76.68574,78.53153
"518",76.38056,78.54487
"519",76.10956,78.558205
"520",75.87274,78.57154
"521",75.667656,78.58488
"522",75.50408,78.59821
"523",75.43328,78.61155
"524",75.57244,78.624886
"525",76.121765,78.63822
"526",77.2839,78.65156
"527",79.183334,78.664894
"528",81.795685,78.67823
"529",84.92561,78.69157
"530",88.23865,78.7049
"531",91.34905,78.71824
"532",93.924774,78.731575
"533",95.75098,78.74491
"534",96.73975,78.75825
"535",96.9131,78.77158
"536",96.35645,78.78492
"537",95.221176,78.798256
"538",93.66842,78.81159
"539",91.84955,78.82493
"540",89.8793,78.838264
"541",87.850464,78.8516
"542",85.83139,78.86494
"543",83.89044,78.87827
"544",82.108185,78.89161
"545",80.58228,78.904945
"546",79.40551,78.91828
"547",78.641335,78.93162
"548",78.314186,78.944954
"549",78.38499,78.95829
"550",78.77562,78.97163
"551",79.37377,78.98496
"552",80.05737,78.9983
"553",80.71412,79.011635
"554",81.25857,79.02497
"555",81.62966,79.03831
"556",81.795685,79.05164
"557",81.75662,79.06498
"558",81.52712,79.078316
"559",81.13893,79.09165
"560",80.618904,79.10499
"561",80.01099,79.118324
"562",79.3518,79.13166
"563",78.675514,79.145
"564",78.009,79.15833
"565",77.37667,79.17167
"566",76.78096,79.185005
"567",76.23407,79.19834
"568",75.733574,79.21168
"569",75.2868,79.22501
"570",74.898605,79.23835
"571",74.56168,79.251686
"572",74.27604,79.26502
"573",74.02945,79.27836
"574",73.82193,79.291695
"575",73.653465,79.30503
"576",73.56069,79.31837
"577",73.63149,79.3317
"578",74.056305,79.34504
"579",75.06462,79.358376
"580",76.86153,79.37171
"581",79.5227,79.38505
"582",82.94072,79.398384
"583",86.8275,79.41172
"584",90.76799,79.42506
"585",94.32517,79.43839
"586",97.15236,79.45173
"587",99.037155,79.465065
"588",99.913635,79.4784
"589",99.828186,79.49174
"590",98.932175,79.50507
"591",97.42336,79.51841
"592",95.501945,79.531746
"593",93.34371,79.54508
"594",91.087814,79.55842
"595",88.82216,79.571754
"596",86.61509,79.58509
"597",84.51545,79.59843
"598",82.58671,79.61176
"599",80.90456,79.6251
"600",79.53979,79.638435
"601",78.55833,79.65177
"602",77.99191,79.66511
"603",77.821014,79.678444
"604",77.98459,79.69178
"605",78.382545,79.70512
"606",78.89525,79.71845
"607",79.40551,79.73179
"608",79.815674,79.745125
"609",80.05249,79.75846
"610",80.076904,79.7718
"611",79.87915,79.78513
"612",79.47631,79.79847
"613",78.905014,79.811806
"614",78.21164,79.82514
"615",77.44503,79.83848
"616",76.64912,79.851814
"617",75.862976,79.86515
"618",75.11345,79.87849
"619",74.41764,79.89182
"620",73.78775,79.90516
"621",73.22621,79.918495
"622",72.73304,79.93183
"623",72.30579,79.94517
"624",71.94446,79.9585
"625",71.641716,79.97184
"626",71.395134,79.985176
"627",71.19737,79.99851
"628",71.03868,80.01185
"629",70.90929,80.025185
"630",70.82628,80.03852
"631",70.81163,80.05186
"632",70.97276,80.06519
"633",71.48791,80.07853
"634",72.60853,80.091866
"635",74.54215,80.1052
"636",77.36935,80.11854
"637",80.972916,80.131874
"638",85.04768,80.14521
"639",89.129776,80.15855
"640",92.75044,80.17188
"641",95.54101,80.18522
"642",97.29885,80.198555
"643",97.97757,80.21189
"644",97.669945,80.22523
"645",96.55421,80.23856
"646",94.86961,80.2519
"647",92.823685,80.265236
"648",90.60929,80.27857
"649",88.358284,80.29191
"650",86.15854,80.305244
"651",84.054016,80.31858
"652",82.08865,80.33192
"653",80.306404,80.34525
"654",78.77562,80.35859
"655",77.574425,80.371925
"656",76.76387,80.38526
"657",76.36591,80.3986
"658",76.35615,80.411934
"659",76.65644,80.42527
"660",77.15938,80.43861
"661",77.738,80.45194
"662",78.277565,80.46528
"663",78.68284,80.478615
"664",78.88548,80.49195
"665",78.84886,80.50529
"666",78.572975,80.51862
"667",78.08713,80.53196
"668",77.435265,80.545296
"669",76.66132,80.55863
"670",75.82147,80.57197
"671",74.97673,80.585304
"672",74.158844,80.59864
"673",73.402,80.61198
"674",72.72816,80.62531
"675",72.15442,80.63865
"676",71.67101,80.651985
"677",71.27795,80.66532
"678",70.963,80.67866
"679",70.72373,80.69199
"680",70.54551,80.70533
"681",70.416115,80.718666
"682",70.32578,80.732
"683",70.26963,80.74534
"684",70.23544,80.758675
"685",70.21835,80.77201
"686",70.22812,80.78535
"687",70.30869,80.79868
"688",70.57481,80.81202
"689",71.22667,80.825356
"690",72.498665,80.83869
"691",74.57145,80.85203
"692",77.48409,80.865364
"693",81.0901,80.8787
"694",85.04036,80.89204
"695",88.87587,80.90537
"696",92.157166,80.91871
"697",94.55222,80.932045
"698",95.90234,80.94538
"699",96.200195,80.95872
"700",95.57519,80.97205
"701",94.23239,80.98539
"702",92.41352,80.998726
"703",90.32853,81.01206
"704",88.148315,81.0254
"705",85.98276,81.038734
"706",83.888,81.05207
"707",81.898224,81.06541
"708",80.05493,81.07874
"709",78.42405,81.09208
"710",77.09346,81.105415
"711",76.138855,81.11875
"712",75.613945,81.13209
"713",75.51629,81.145424
"714",75.78241,81.15876
"715",76.297554,81.1721
"716",76.93233,81.18543
"717",77.55489,81.19877
"718",78.05539,81.212105
"719",78.348366,81.22544
"720",78.399635,81.23878
"721",78.2092,81.25211
"722",77.806366,81.26545
"723",77.239944,81.278786
"724",76.56611,81.29212
"725",75.82391,81.30546
"726",75.05974,81.318794
"727",74.30045,81.33213
"728",73.5729,81.34547
"729",72.901505,81.3588
"730",72.31312,81.37214
"731",71.82239,81.385475
"732",71.431755,81.39881
"733",71.14122,81.41215
"734",70.93614,81.42548
"735",70.80675,81.43882
"736",70.74326,81.452156
"737",70.7335,81.46549
"738",70.77501,81.47883
"739",70.85802,81.492165
"740",70.96788,81.5055
"741",71.09483,81.51884
"742",71.22423,81.53217
"743",71.343864,81.54551
"744",71.44396,81.558846
"745",71.52697,81.57218
"746",71.6173,81.58552
"747",71.78577,81.598854
"748",72.198364,81.61219
"749",73.08705,81.62553
"750",74.686195,81.63886
"751",77.137405,81.6522
"752",80.41627,81.665535
"753",84.29328,81.67887
"754",88.36317,81.69221
"755",92.1474,81.70554
"756",95.221176,81.71888
"757",97.306175,81.732216
"758",98.29496,81.74555
"759",98.24368,81.75889
"760",97.323265,81.772224
"761",95.76807,81.78556
"762",93.81979,81.7989
"763",91.68841,81.81223
"764",89.51797,81.82557
"765",87.39147,81.838905
"766",85.34066,81.85224
"767",83.39727,81.86558
"768",81.59548,81.878914
"769",80.01343,81.89225
"770",78.74143,81.90559
"771",77.874725,81.91892
"772",77.44503,81.93226
"773",77.4255,81.945595
"774",78.25315,81.97227
"775",78.839096,81.9856
"776",79.364006,81.99894
"777",79.73266,82.012276
"778",79.87915,82.02561
"779",79.783936,82.03895
"780",79.44457,82.052284
"781",78.90257,82.06562
"782",78.20187,82.07896
"783",77.40353,82.09229
"784",76.561226,82.10563
"785",75.72625,82.118965
"786",74.932785,82.1323
"787",74.20279,82.14564
"788",73.55825,82.15897
"789",73.00404,82.17231
"790",72.54749,82.185646
"791",72.18616,82.19898
"792",71.920044,82.21232
"793",71.7467,82.225655
"794",71.656364,82.23899
"795",71.641716,82.25233
"796",71.6881,82.26566
"797",71.78088,82.279
"798",71.91028,82.292336
"799",72.05432,82.30567
"800",72.20569,82.31901
"801",72.35218,82.332344
"802",72.48402,82.34568
"803",72.59632,82.35902
"804",72.672005,82.37235
"805",72.71595,82.38569
"806",72.73548,82.399025
"807",72.75258,82.41236
"808",72.82826,82.4257
"809",73.09926,82.43903
"810",73.78775,82.45237
"811",75.142746,82.465706
"812",77.34249,82.47904
"813",80.42359,82.49238
"814",84.21271,82.505714
"815",88.33387,82.51905
"816",92.30366,82.53239
"817",95.66552,82.54572
"818",98.092316,82.55906
"819",99.422905,82.572395
"820",99.67437,82.58573
"821",98.98833,82.59907
"822",97.59182,82.612404
"823",95.726555,82.62574
"824",93.609825,82.63908
"825",91.407646,82.65241
"826",89.21767,82.66575
"827",87.09117,82.679085
"828",85.05745,82.69242
"829",83.16533,82.70576
"830",81.48318,82.71909
"831",80.1062,82.73243
"832",79.114975,82.745766
"833",78.56321,82.7591
"834",78.43626,82.77244
"835",78.65598,82.785774
"836",79.097885,82.79911
"837",79.62768,82.81245
"838",80.10864,82.82578
"839",80.4358,82.83912
"840",80.5359,82.852455
"841",80.38453,82.86579
"842",79.9939,82.87913
"843",79.398186,82.89246
"844",78.64622,82.9058
"845",77.79172,82.919136
"846",76.90059,82.93247
"847",76.01434,82.94581
"848",75.18425,82.959145
"849",74.43961,82.97248
"850",73.797516,82.98582
"851",73.26772,82.99915
"852",72.850235,83.01249
"853",72.532845,83.025826
"854",72.31068,83.03916
"855",72.17151,83.0525
"856",72.112915,83.065834
"857",72.12024,83.07917
"858",72.183716,83.09251
"859",72.29359,83.10584
"860",72.44007,83.11918
"861",72.60853,83.132515
"862",72.779434,83.14585
"863",72.95033,83.15919
"864",73.10414,83.17252
"865",73.231094,83.18586
"866",73.31655,83.199196
"867",73.3605,83.21253
"868",73.36294,83.22587
"869",73.3312,83.239204
"870",73.272606,83.25254
"871",73.20668,83.26588
"872",73.16762,83.27921
"873",73.255516,83.29255
"874",73.66567,83.305885
"875",74.669106,83.31922
"876",76.50507,83.33256
"877",79.30053,83.345894
"878",82.97734,83.35923
"879",87.23277,83.37257
"880",91.58343,83.3859
"881",95.499504,83.39924
"882",98.55131,83.412575
"883",100.48249,83.42591
"884",101.2198,83.43925
"885",100.860916,83.45258
"886",99.62798,83.46592
"887",97.78226,83.479256
"888",95.58251,83.49259
"889",93.25094,83.50593
"890",90.931564,83.519264
"891",88.69764,83.5326
"892",86.57847,83.54594
"893",84.58869,83.55927
"894",82.76494,83.57261
"895",81.17555,83.585945
"896",79.906006,83.59928
"897",79.03685,83.61262
"898",78.59495,83.62595
"899",78.553444,83.63929
"900",78.819565,83.652626
"901",79.27123,83.66596
"902",79.76929,83.6793
"903",80.17944,83.692635
"904",80.40406,83.70597
"905",80.38697,83.71931
"906",80.10864,83.73264
"907",79.59594,83.74598
"908",78.89525,83.759315
"909",78.05783,83.77265
"910",77.14717,83.78599
"911",76.21942,83.799324
"912",75.318535,83.81266
"913",74.48356,83.826
"914",73.738914,83.83933
"915",73.094376,83.85267
"916",72.55726,83.866005
"917",72.12024,83.87934
"918",71.77356,83.89268
"919",71.50744,83.90601
"920",71.31701,83.91935
"921",71.19249,83.932686
"922",71.12413,83.94602
"923",71.10216,83.95936
"924",71.12169,83.972694
"925",71.1754,83.98603
"926",71.25353,83.99937
"927",71.346306,84.0127
"928",71.45617,84.02604
"929",71.5758,84.039375
"930",71.69787,84.05271
"931",71.81995,84.06605
"932",71.939575,84.079384
"933",72.044556,84.09272
"934",72.130005,84.10606
"935",72.19592,84.11939
"936",72.234985,84.13273
"937",72.24963,84.146065
"938",72.24231,84.1594
"939",72.215454,84.17274
"940",72.17151,84.18607
"941",72.11536,84.19941
"942",72.06409,84.212746
"943",72.08362,84.22608
"944",72.32288,84.23942
"945",73.040665,84.252754
"946",74.529945,84.26609
"947",77.00069,84.27943
"948",80.48463,84.29276
"949",84.77425,84.3061
"950",89.4374,84.319435
"951",93.91745,84.33277
"952",97.70168,84.34611
"953",100.421455,84.35944
"954",101.908295,84.37278
"955",102.17441,84.386116
"956",101.38827,84.39945
"957",99.80621,84.41279
"958",97.69924,84.426125
"959",95.33593,84.43946
"960",92.9189,84.4528
"961",90.58976,84.46613
"962",88.39979,84.47947
"963",86.37095,84.492805
"964",84.49836,84.50614
"965",82.81377,84.51948
"966",81.36599,84.532814
"967",80.23804,84.54615
"968",79.49584,84.55949
"969",79.15892,84.57282
"970",79.17601,84.58616
"971",79.45678,84.599495
"972",79.86206,84.61283
"973",80.26002,84.62617
"974",80.54078,84.6395
"975",80.63111,84.65284
"976",80.48951,84.666176
"977",80.10864,84.67951
"978",79.520256,84.69285
"979",78.768295,84.706184
"980",77.908905,84.71952
"981",76.99092,84.73286
"982",76.07538,84.74619
"983",75.20134,84.75953
"984",74.39811,84.772865
"985",73.687645,84.7862
"986",73.07973,84.79954
"987",72.57435,84.812874
"988",72.16174,84.82621
"989",71.84192,84.83955
"990",71.605095,84.85288
"991",71.44396,84.86622
"992",71.34875,84.879555
"993",71.309685,84.89289
"994",71.31457,84.90623
"995",71.35607,84.91956
"996",71.431755,84.9329
"997",71.52697,84.946236
"998",71.63683,84.95957
"999",71.74914,84.97291
"1000",71.85901,84.986244
"1001",71.96155,84.99958
"1002",72.061646,85.01292
"1003",72.15686,85.02625
"1004",72.24719,85.03959
"1005",72.33509,85.052925
"1006",72.4181,85.06626
"1007",72.49622,85.0796
"1008",72.56458,85.09293
"1009",72.620735,85.10627
"1010",72.66712,85.119606
"1011",72.7013,85.13294
"1012",72.72083,85.14628
"1013",72.73304,85.159615
"1014",72.73548,85.17295
"1015",72.72816,85.18629
"1016",72.71595,85.19962
"1017",72.708626,85.21296
"1018",72.72816,85.226295
"1019",72.86244,85.23963
"1020",73.29458,85.25297
"1021",74.29801,85.266304
"1022",76.15106,85.27964
"1023",79.00511,85.29298
"1024",82.80888,85.30631
"1025",87.2694,85.31965
"1026",91.90814,85.332985
"1027",96.17334,85.34632
"1028",99.60357,85.35966
"1029",101.92294,85.37299
"1030",103.03624,85.38633
"1031",103.00694,85.399666
"1032",102.02548,85.413
"1033",100.34333,85.42634
"1034",98.22659,85.439674
"1035",95.91211,85.45301
"1036",93.592735,85.46635
"1037",91.37591,85.47968
"1038",89.305565,85.49302
"1039",87.38659,85.506355
"1040",85.61654,85.51969
"1041",84.01984,85.53303
"1042",82.6453,85.546364
"1043",81.5613,85.5597
"1044",80.831314,85.57304
"1045",80.46754,85.58637
"1046",80.430916,85.59971
"1047",80.638435,85.613045
"1048",80.97536,85.62638
"1049",81.31716,85.63972
"1050",81.56374,85.65305
"1051",81.636986,85.66639
"1052",81.495384,85.679726
"1053",81.13161,85.69306
"1054",80.570076,85.7064
"1055",79.84497,85.719734
"1056",79.012436,85.73307
"1057",78.12131,85.74641
"1058",77.22041,85.75974
"1059",76.351265,85.77308
"1060",75.5407,85.786415
"1061",74.810715,85.79975
"1062",74.178375,85.81309
"1063",73.20912,85.83976
"1064",72.86244,85.853096
"1065",72.59876,85.86643
"1066",72.410774,85.87977
"1067",72.28626,85.893105
"1068",72.22034,85.90644
"1069",72.20325,85.91978
"1070",72.22766,85.93311
"1071",72.27894,85.94645
"1072",72.35462,85.959785
"1073",72.444954,85.97312
"1074",72.54749,85.98646
"1075",72.65247,85.999794
"1076",72.7599,86.01313
"1077",72.86488,86.02647
"1078",72.96254,86.0398
"1079",73.04799,86.05314
"1080",73.12123,86.066475
"1081",73.179825,86.07981
"1082",73.22621,86.09315
"1083",73.2604,86.10648
"1084",73.29946,86.11982
"1085",73.338524,86.133156
"1086",73.38491,86.14649
"1087",73.426414,86.15983
"1088",73.463036,86.173164
"1089",73.48989,86.1865
"1090",73.50454,86.19984
"1091",73.51186,86.21317
"1092",73.50942,86.22651
"1093",73.5021,86.239845
"1094",73.494774,86.25318
"1095",73.50698,86.26652
"1096",73.58755,86.279854
"1097",73.8732,86.29319
"1098",74.600746,86.306526
"1099",76.050964,86.31986
"1100",78.43626,86.3332
"1101",81.80301,86.346535
"1102",85.96811,86.35987
"1103",90.53605,86.37321
"1104",94.974594,86.38654
"1105",98.78325,86.39988
"1106",101.60555,86.413216
"1107",103.258415,86.42655
"1108",103.73937,86.43989
"1109",103.1754,86.453224
"1110",101.78134,86.46656
"1111",99.808655,86.4799
"1112",97.50637,86.49323
"1113",95.07469,86.50657
"1114",92.6601,86.519905
"1115",90.3505,86.53324
"1116",88.18982,86.54658
"1117",86.1976,86.55991
"1118",84.403145,86.57325
"1119",82.85283,86.586586
"1120",81.61013,86.59992
"1121",80.743416,86.61326
"1122",80.27955,86.626595
"1123",80.198975,86.63993
"1124",80.41871,86.65327
"1125",80.8362,86.6666
"1126",81.31716,86.67994
"1127",81.74197,86.693275
"1128",82.01785,86.70661
"1129",82.08621,86.71995
"1130",81.92264,86.733284
"1131",81.53689,86.74662
"1132",80.953384,86.75996
"1133",80.22095,86.77329
"1134",79.38598,86.78663
"1135",78.49485,86.799965
"1136",77.58907,86.8133
"1137",76.71015,86.82664
"1138",75.88495,86.83997
"1139",75.13786,86.85331
"1140",74.48356,86.866646
"1141",73.93179,86.87998
"1142",73.4728,86.89332
"1143",73.10658,86.906654
"1144",72.82338,86.91999
"1145",72.61829,86.93333
"1146",72.47669,86.94666
"1147",72.40101,86.96
"1148",72.376595,86.973335
"1149",72.39857,86.98667
"1150",72.4596,87.00001
"1151",72.549934,87.01334
"1152",72.66224,87.02668
"1153",72.78676,87.040016
"1154",72.91371,87.05335
"1155",73.040665,87.06669
"1156",73.15785,87.080025
"1157",73.26528,87.09336
"1158",73.36294,87.1067
"1159",73.445946,87.12003
"1160",73.51186,87.13337
"1161",73.565575,87.146706
"1162",73.60952,87.16004
"1163",73.6437,87.17338
"1164",73.67544,87.186714
"1165",73.704735,87.20005
"1166",73.724266,87.21339
"1167",73.738914,87.22672
"1168",73.741356,87.24006
"1169",73.741356,87.253395
"1170",73.73159,87.26673
"1171",73.7145,87.28007
"1172",73.69253,87.2934
"1173",73.66811,87.30674
"1174",73.651024,87.320076
"1175",73.670555,87.33341
"1176",73.814606,87.34675
"1177",74.29313,87.360085
"1178",75.386894,87.37342
"1179",77.35226,87.38676
"1180",80.31129,87.40009
"1181",84.16632,87.41343
"1182",88.58289,87.426765
"1183",93.05562,87.4401
"1184",97.06691,87.45344
"1185",100.20172,87.466774
"1186",102.233,87.48011
"1187",103.09239,87.49345
"1188",102.85802,87.50678
"1189",101.70077,87.52012
"1190",99.845276,87.533455
"1191",97.53567,87.54679
"1192",94.98436,87.56013
"1193",92.35737,87.57346
"1194",89.77432,87.5868
"1195",87.308464,87.600136
"1196",85.00862,87.61347
"1197",82.93828,87.62681
"1198",81.17555,87.640144
"1199",79.80835,87.65348
"1200",78.91234,87.66682
"1201",78.519264,87.68015
"1202",78.59983,87.69349
"1203",79.05882,87.706825
"1204",79.764404,87.72016
"1205",80.570076,87.7335
"1206",81.33181,87.74683
"1207",81.94217,87.76017
"1208",82.31815,87.773506
"1209",82.425575,87.78684
"1210",82.25712,87.80018
"1211",81.83475,87.813515
"1212",81.19997,87.82685
"1213",80.41871,87.84019
"1214",79.54711,87.85352
"1215",78.62913,87.86686
"1216",77.71603,87.880196
"1217",76.841995,87.89353
"1218",76.03143,87.90687
"1219",75.29656,87.920204
"1220",74.65446,87.93354
"1221",74.107574,87.94688
"1222",73.653465,87.96021
"1223",73.29458,87.97355
"1224",73.01137,87.986885
"1225",72.80629,88.00022
"1226",72.66956,88.01356
"1227",72.59632,88.02689
"1228",72.57923,88.04023
"1229",72.61097,88.053566
"1230",72.68177,88.0669
"1231",72.7892,88.08024
"1232",72.92592,88.093575
"1233",73.07973,88.10691
"1234",73.24086,88.12025
"1235",73.409325,88.13358
"1236",73.568016,88.14692
"1237",73.71206,88.160255
"1238",73.848785,88.17359
"1239",73.970856,88.18693
"1240",74.07095,88.200264
"1241",74.15396,88.2136
"1242",74.21744,88.22694
"1243",74.26383,88.24027
"1244",74.29313,88.25361
"1245",74.31022,88.266945
"1246",74.30778,88.28028
"1247",74.285805,88.29362
"1248",74.23697,88.30695
"1249",74.16617,88.32029
"1250",74.07828,88.333626
"1251",73.99283,88.34696
"1252",73.934235,88.3603
"1253",73.98062,88.373634
"1254",74.30045,88.38697
"1255",75.16228,88.40031
"1256",76.83467,88.41364
"1257",79.46899,88.42698
"1258",83.01152,88.440315
"1259",87.17906,88.45365
"1260",91.507744,88.46699
"1261",95.484856,88.48032
"1262",98.68314,88.49366
"1263",100.85115,88.506996
"1264",101.90097,88.52033
"1265",101.88388,88.53367
"1266",100.93172,88.547005
"1267",99.25201,88.56034
"1268",97.05226,88.57368
"1269",94.540016,88.58701
"1270",91.87152,88.60035
"1271",89.17372,88.613686
"1272",86.52964,88.62702
"1273",84.017395,88.64036
"1274",81.71267,88.653694
"1275",79.725334,88.66703
"1276",78.15793,88.68037
"1277",77.100784,88.6937
"1278",76.60029,88.70704
"1279",76.64179,88.720375
"1280",77.14473,88.73371
"1281",77.979706,88.74705
"1282",78.98802,88.76038
"1283",80.01099,88.77372
"1284",80.91432,88.787056
"1285",81.602806,88.80039
"1286",82.01053,88.81373
"1287",82.125275,88.827065
"1288",81.96658,88.8404
"1289",81.56863,88.85374
"1290",80.98268,88.86707
"1291",80.257576,88.88041
"1292",79.44457,88.893745
"1293",78.590065,88.90708
"1294",77.733116,88.92042
"1295",76.90791,88.933754
"1296",76.13641,88.94709
"1297",75.43084,88.96043
"1298",74.79851,88.97376
"1299",74.24185,88.9871
"1300",73.760895,89.000435
"1301",73.3605,89.01377
"1302",73.043106,89.02711
"1303",72.80629,89.04044
"1304",72.64271,89.05378
"1305",72.549934,89.067116
"1306",72.518196,89.08045
"1307",72.53773,89.09379
"1308",72.60609,89.107124
"1309",72.71351,89.12046
"1310",72.86,89.1338
"1311",73.023575,89.14713
"1312",73.196915,89.16047
"1313",73.36782,89.173805
"1314",73.52895,89.18714
"1315",73.66079,89.20048
"1316",73.75845,89.21381
"1317",73.81949,89.22715
"1318",73.831696,89.240486
"1319",73.79019,89.25382
"1320",73.69497,89.26716
"1321",73.5436,89.280495
"1322",73.34585,89.29383
"1323",73.1017,89.30717
"1324",72.813614,89.3205
"1325",72.498665,89.33384
"1326",72.17395,89.347176
"1327",71.88098,89.36051
"1328",71.71252,89.37385
"1329",71.88342,89.387184
"1330",72.68665,89.40052
"1331",74.43473,89.41386
"1332",77.279015,89.42719
"1333",81.13161,89.44053
"1334",85.645836,89.453865
"1335",90.287025,89.4672
"1336",94.49363,89.48054
"1337",97.81888,89.49387
"1338",100.04059,89.50721
"1339",101.119705,89.520546
"1340",101.14168,89.53388
"1341",100.26765,89.54722
"1342",98.67582,89.560555
"1343",96.55909,89.57389
"1344",94.09323,89.58723
"1345",91.41985,89.60056
"1346",88.653694,89.6139
"1347",85.88754,89.627235
"1348",83.22148,89.64057
"1349",80.74586,89.65391
"1350",78.5803,89.667244
"1351",76.839554,89.68058
"1352",75.63348,89.69392
"1353",75.028,89.70725
"1354",75.028,89.72059
"1355",75.562675,89.733925
"1356",76.50507,89.74726
"1357",77.70138,89.7606
"1358",78.97826,89.77393
"1359",80.18677,89.78727
"1360",81.20973,89.800606
"1361",81.97879,89.81394
"1362",82.45487,89.82728
"1363",82.6453,89.840614
"1364",82.5745,89.85395
"1365",82.27421,89.86729
"1366",81.78592,89.88062
"1367",81.15114,89.89396
"1368",80.41627,89.907295
"1369",79.62524,89.92063
"1370",78.81468,89.93397
"1371",78.009,89.9473
"1372",77.22774,89.96064
"1373",76.490425,89.973976
"1374",75.80438,89.98731
"1375",75.18181,90.00065
"1376",74.632484,90.013985
"1377",74.17105,90.02732
"1378",73.79996,90.04066
"1379",73.52163,90.05399
"1380",73.33608,90.06733
"1381",73.23842,90.080666
"1382",73.22621,90.094
"1383",73.287254,90.10734
"1384",73.41421,90.120674
"1385",73.60464,90.13401
"1386",73.83414,90.14735
"1387",74.090485,90.16068
"1388",74.34928,90.17402
"1389",74.58854,90.187355
"1390",74.793625,90.20069
"1391",74.94499,90.21403
"1392",75.04265,90.22736
"1393",75.09148,90.2407
"1394",75.11833,90.254036
"1395",75.17937,90.26737
"1396",75.40887,90.28071
"1397",76.03143,90.294044
"1398",77.279015,90.30738
"1399",79.30541,90.32072
"1400",82.108185,90.33405
"1401",85.4847,90.34739
"1402",89.0663,90.360725
"1403",92.420845,90.37406
"1404",95.16991,90.3874
"1405",97.074234,90.400734
"1406",98.05081,90.41407
"1407",98.126495,90.42741
"1408",97.40627,90.44074
"1409",96.03662,90.45408
"1410",94.17136,90.467415
"1411",91.95453,90.48075
"1412",89.51064,90.49409
"1413",86.93736,90.50742
"1414",84.32258,90.52076
"1415",81.75418,90.534096
"1416",79.34936,90.54743
"1417",77.23018,90.56077
"1418",75.53094,90.574104
"1419",74.35905,90.58744
"1420",73.777985,90.60078
"1421",73.78775,90.61411
"1422",74.319984,90.62745
"1423",75.2575,90.640785
"1424",76.439156,90.65412
"1425",77.70626,90.66746
"1426",78.92699,90.68079
"1427",79.98413,90.69413
"1428",80.814224,90.707466
"1429",81.38796,90.7208
"1430",81.7029,90.73414
"1431",81.76883,90.747475
"1432",81.62234,90.76081
"1433",81.29275,90.77415
"1434",80.82643,90.78748
"1435",80.26246,90.80082
"1436",79.63012,90.814156
"1437",78.95384,90.82749
"1438",78.26536,90.84083
"1439",77.574425,90.854164
"1440",76.89815,90.8675
"1441",76.25605,90.88084
"1442",75.66033,90.89417
"1443",75.125656,90.90751
"1444",74.66422,90.920845
"1445",74.27604,90.93418
"1446",73.96597,90.94752
"1447",73.73647,90.96085
"1448",73.58999,90.97419
"1449",73.52407,90.987526
"1450",73.52407,91.00086
"1451",73.58755,91.0142
"1452",73.69741,91.027534
"1453",73.83658,91.04087
"1454",73.987946,91.05421
"1455",74.13931,91.06754
"1456",74.285805,91.08088
"1457",74.45182,91.094215
"1458",74.73258,91.10755
"1459",75.34295,91.12089
"1460",76.60273,91.134224
"1461",78.79515,91.14756
"1462",82.02518,91.1609
"1463",86.1561,91.17423
"1464",90.80461,91.18757
"1465",95.433586,91.200905
"1466",99.49859,91.21424
"1467",102.623634,91.22758
"1468",104.62318,91.24091
"1469",105.48745,91.25425
"1470",105.29458,91.267586
"1471",104.19348,91.28092
"1472",102.364845,91.29426
"1473",100.00397,91.307594
"1474",97.29397,91.32093
"1475",94.39353,91.33427
"1476",91.41741,91.3476
"1477",88.45838,91.36094
"1478",85.58724,91.374275
"1479",82.88457,91.38761
"1480",80.46021,91.40095
"1481",78.43137,91.41428
"1482",76.92012,91.42762
"1483",76.019226,91.440956
"1484",75.75311,91.45429
"1485",76.070496,91.46763
"1486",76.86153,91.480965
"1487",77.95773,91.4943
"1488",79.17845,91.50764
"1489",80.35767,91.52097
"1490",81.356224,91.53431
"1491",82.091095,91.547646
"1492",82.52323,91.56098
"1493",82.65507,91.57432
"1494",82.50858,91.587654
"1495",82.125275,91.60099
"1496",81.54177,91.61433
"1497",80.814224,91.62766
"1498",79.97925,91.641
"1499",79.08324,91.654335
"1500",78.167694,91.66767
"1501",77.264366,91.68101
"1502",76.39277,91.69434
"1503",75.57244,91.70768
"1504",74.82048,91.721016
"1505",74.144196,91.73435
"1506",73.55581,91.74769
"1507",73.06264,91.761024
"1508",72.66956,91.77436
"1509",72.36927,91.7877
"1510",72.166626,91.80103
"1511",72.05188,91.81437
"1512",72.02258,91.827705
"1513",72.07141,91.84104
"1514",72.19104,91.85438
"1515",72.359505,91.867714
"1516",72.552376,91.88105
"1517",72.74525,91.89439
"1518",72.92836,91.90772
"1519",73.09926,91.92106
"1520",73.31411,91.934395
"1521",73.741356,91.94773
"1522",74.68131,91.96107
"1523",76.46601,91.9744
"1524",79.327385,91.98774
"1525",83.267876,92.001076
"1526",88.01648,92.01441
"1527",93.084915,92.02775
"1528",97.88724,92.041084
"1529",101.910736,92.05442
"1530",104.83803,92.06776
"1531",106.54215,92.08109
"1532",107.03044,92.09443
"1533",106.41032,92.107765
"1534",104.86977,92.1211
"1535",102.62852,92.13444
"1536",99.92096,92.14777
"1537",96.954605,92.16111
"1538",93.89792,92.174446
"1539",90.863205,92.18778
"1540",87.92859,92.20112
"1541",85.14534,92.214455
"1542",82.5745,92.22779
"1543",80.29908,92.24113
"1544",78.43626,92.25446
"1545",77.09102,92.2678
"1546",76.34394,92.281136
"1547",76.20233,92.29447
"1548",76.60029,92.30781
"1549",77.40353,92.321144
"1550",78.433815,92.33448
"1551",79.50805,92.34782
"1552",80.46754,92.36115
"1553",81.19508,92.37449
"1554",81.62234,92.387825
"1555",81.71999,92.40116
"1556",81.50515,92.4145
"1557",81.02174,92.42783
"1558",80.31617,92.44117
"1559",79.447014,92.454506
"1560",78.47288,92.46784
"1561",77.452354,92.48118
"1562",76.42939,92.494514
"1563",75.440605,92.50785
"1564",74.512856,92.52119
"1565",73.66323,92.53452
"1566",72.89906,92.54786
"1567",72.234985,92.561195
"1568",71.67834,92.57453
"1569",71.22667,92.58787
"1570",70.88487,92.601204
"1571",70.643166,92.61454
"1572",70.49912,92.62788
"1573",70.44541,92.64121
"1574",70.467384,92.65455
"1575",70.55772,92.667885
"1576",70.70176,92.68122
"1577",70.87999,92.69456
"1578",71.07286,92.70789
"1579",71.26086,92.72123
"1580",71.4342,92.734566
"1581",71.58556,92.7479
"1582",71.74181,92.76124
"1583",71.9762,92.774574
"1584",72.481575,92.78791
"1585",73.5729,92.80125
"1586",75.56756,92.81458
"1587",78.65354,92.82792
"1588",82.77226,92.841255
"1589",87.61608,92.85459
"1590",92.66987,92.86793
"1591",97.3428,92.88126
"1592",101.14656,92.8946
"1593",103.79553,92.907936
"1594",105.18227,92.92127
"1595",105.34585,92.93461
"1596",104.427864,92.947945
"1597",102.640724,92.96128
"1598",100.226135,92.97462
"1599",97.42336,92.98795
"1600",94.44724,93.00129
"1601",91.4638,93.014626
"1602",88.57557,93.02796
"1603",85.841156,93.0413
"1604",83.31182,93.054634
"1605",81.03639,93.06797
"1606",79.08324,93.08131
"1607",77.55978,93.09464
"1608",76.55634,93.10798
"1609",76.10956,93.121315
"1610",76.19501,93.13465
"1611",76.70771,93.14799
"1612",77.4963,93.16132
"1613",78.38743,93.17466
"1614",79.22972,93.187996
"1615",79.89136,93.20133
"1616",80.291756,93.21467
"1617",80.38941,93.228004
"1618",80.184326,93.24134
"1619",79.70092,93.25468
"1620",78.98802,93.26801
"1621",78.10666,93.28135
"1622",77.12276,93.294685
"1623",76.09979,93.30802
"1624",75.08659,93.32136
"1625",74.12222,93.334694
"1626",73.22865,93.34803
"1627",72.427864,93.36137
"1628",71.72228,93.3747
"1629",71.12657,93.38804
"1630",70.640724,93.401375
"1631",70.259865,93.41471
"1632",69.97177,93.42805
"1633",69.77646,93.44138
"1634",69.661705,93.45472
"1635",69.6202,93.468056
"1636",69.65438,93.48139
"1637",69.752045,93.49473
"1638",69.908295,93.508064
"1639",70.10605,93.5214
"1640",70.3209,93.53474
"1641",70.5333,93.54807
"1642",70.72373,93.56141
"1643",70.87511,93.574745
"1644",70.98985,93.58808
"1645",71.08995,93.60142
"1646",71.23888,93.61475
"1647",71.59045,93.62809
"1648",72.42054,93.641426
"1649",74.04654,93.65476
"1650",76.70771,93.6681
"1651",80.44312,93.681435
"1652",85.03792,93.69477
"1653",90.03311,93.70811
"1654",94.85252,93.72144
"1655",98.94682,93.73478
"1656",101.94736,93.748116
"1657",103.68078,93.76145
"1658",104.147095,93.77479
"1659",103.4757,93.788124
"1660",101.88144,93.80146
"1661",99.6231,93.8148
"1662",96.95705,93.82813
"1663",94.10788,93.84147
"1664",91.246506,93.854805
"1665",88.482796,93.86814
"1666",85.87045,93.88148
"1667",83.44366,93.89481
"1668",81.23659,93.90815
"1669",79.31762,93.921486
"1670",77.77951,93.93482
"1671",76.70527,93.94816
"1672",76.1535,93.961494
"1673",76.112,93.97483
"1674",76.49287,93.98817
"1675",77.15938,94.0015
"1676",77.95285,94.01484
"1677",78.71458,94.028175
"1678",79.3225,94.04151
"1679",79.691154,94.05485
"1680",79.766846,94.068184
"1681",79.54223,94.08152
"1682",79.04173,94.09486
"1683",78.314186,94.10819
"1684",77.420616,94.12153
"1685",76.42939,94.134865
"1686",75.406425,94.1482
"1687",74.41276,94.16154
"1688",73.48501,94.17487
"1689",72.64515,94.18821
"1690",71.91272,94.201546
"1691",71.292595,94.21488
"1692",70.77745,94.22822
"1693",70.36729,94.241554
"1694",70.05478,94.25489
"1695",69.83261,94.26823
"1696",69.691,94.28156
"1697",69.627525,94.2949
"1698",69.63973,94.308235
"1699",69.715416,94.32157
"1700",69.8497,94.33491
"1701",70.03281,94.34824
"1702",70.2501,94.36158
"1703",70.484474,94.374916
"1704",70.71641,94.38825
"1705",70.9337,94.40159
"1706",71.12413,94.414925
"1707",71.27306,94.42826
"1708",71.37316,94.4416
"1709",71.42443,94.45493
"1710",71.431755,94.46827
"1711",71.42687,94.481606
"1712",71.48791,94.49494
"1713",71.80286,94.50828
"1714",72.66712,94.521614
"1715",74.39811,94.53495
"1716",77.208206,94.54829
"1717",81.08522,94.56162
"1718",85.75571,94.57496
"1719",90.72404,94.588295
"1720",95.39941,94.60163
"1721",99.25445,94.61497
"1722",101.95224,94.6283
"1723",103.35607,94.64164
"1724",103.505,94.654976
"1725",102.555275,94.66831
"1726",100.75105,94.68165
"1727",98.355995,94.694984
"1728",95.6289,94.70832
"1729",92.78218,94.72166
"1730",89.96231,94.73499
"1731",87.25231,94.74833
"1732",84.70588,94.761665
"1733",82.36698,94.775
"1734",80.29664,94.78834
"1735",78.58518,94.801674
"1736",77.330284,94.81501
"1737",76.59785,94.82835
"1738",76.39521,94.84168
"1739",76.654,94.85502
"1740",77.24727,94.868355
"1741",78.009,94.88169
"1742",78.785385,94.89503
"1743",79.43969,94.90836
"1744",79.871826,94.9217
"1745",80.028076,94.935036
"1746",79.89136,94.94837
"1747",79.47875,94.96171
"1748",78.836655,94.975044
"1749",78.013885,94.98838
"1750",77.07637,95.00172
"1751",76.07782,95.01505
"1752",75.08171,95.02839
"1753",74.12222,95.041725
"1754",73.248184,95.05506
"1755",72.47669,95.0684
"1756",71.82483,95.08173
"1757",71.28527,95.09507
"1758",70.853134,95.108406
"1759",70.521095,95.12174
"1760",70.27451,95.13508
"1761",70.10361,95.148415
"1762",70.01083,95.16175
"1763",69.98886,95.17509
"1764",70.02548,95.18842
"1765",70.118256,95.20176
"1766",70.25498,95.215096
"1767",70.42832,95.22843
"1768",70.626076,95.24177
"1769",70.8336,95.255104
"1770",71.03868,95.26844
"1771",71.23399,95.28178
"1772",71.40246,95.29511
"1773",71.53185,95.30845
"1774",71.61242,95.321785
"1775",71.641716,95.33512
"1776",71.622185,95.34846
"1777",71.568474,95.36179
"1778",71.52453,95.37513
"1779",71.58312,95.388466
"1780",71.94934,95.4018
"1781",72.91127,95.41514
"1782",74.77409,95.428474
"1783",77.696495,95.44181
"1784",81.619896,95.45515
"1785",86.22934,95.46848
"1786",91.00969,95.48182
"1787",95.37255,95.495155
"1788",98.8394,95.50849
"1789",101.119705,95.52183
"1790",102.1207,95.535164
"1791",101.910736,95.5485
"1792",100.67292,95.56184
"1793",98.648964,95.57517
"1794",96.10742,95.58851
"1795",93.28512,95.601845
"1796",90.36759,95.61518
"1797",87.484245,95.62852
"1798",84.71076,95.64185
"1799",82.12283,95.65519
"1800",79.80591,95.668526
"1801",77.88205,95.68186
"1802",76.46601,95.6952
"1803",75.65545,95.708534
"1804",75.474785,95.72187
"1805",75.85809,95.73521
"1806",76.66621,95.74854
"1807",77.71847,95.76188
"1808",78.82933,95.775215
"1809",79.823,95.78855
"1810",80.57252,95.80189
"1811",81.007095,95.81522
"1812",81.094986,95.82856
"1813",80.850845,95.841896
"1814",80.325935,95.85523
"1815",79.58129,95.86857
"1816",78.6804,95.881905
"1817",77.68917,95.89524
"1818",76.66621,95.90858
"1819",75.665215,95.92191
"1820",74.73014,95.93525
"1821",73.88541,95.948586
"1822",73.15297,95.96192
"1823",72.53773,95.97526
"1824",72.03723,95.988594
"1825",71.6466,96.00193
"1826",71.363396,96.01527
"1827",71.18028,96.0286
"1828",71.09483,96.04194
"1829",71.09972,96.055275
"1830",71.185165,96.06861
"1831",71.33654,96.08195
"1832",71.54894,96.09528
"1833",71.800415,96.10862
"1834",72.06897,96.121956
"1835",72.34974,96.13529
"1836",72.61829,96.14863
"1837",72.85756,96.161964
"1838",73.060196,96.1753
"1839",73.21156,96.18864
"1840",73.306786,96.20197
"1841",73.340965,96.21531
"1842",73.31655,96.228645
"1843",73.24086,96.24198
"1844",73.11635,96.25532
"1845",72.97719,96.268654
"1846",72.88197,96.28199
"1847",72.99184,96.29533
"1848",73.548485,96.30866
"1849",74.85954,96.322
"1850",77.13985,96.335335
"1851",80.41627,96.34867
"1852",84.47639,96.36201
"1853",88.88808,96.37534
"1854",93.10445,96.38868
"1855",96.62501,96.402016
"1856",99.1104,96.41535
"1857",100.419014,96.42869
"1858",100.56794,96.442024
"1859",99.6939,96.45536
"1860",97.9971,96.4687
"1861",95.71191,96.48203
"1862",93.050735,96.49537
"1863",90.18448,96.508705
"1864",87.24742,96.52204
"1865",84.34211,96.53538
"1866",81.57351,96.54871
"1867",79.07347,96.56205
"1868",77.00313,96.575386
"1869",75.51385,96.58872
"1870",74.720375,96.60206
"1871",74.65446,96.615395
"1872",75.23308,96.62873
"1873",76.29267,96.64207
"1874",77.62081,96.6554
"1875",78.995346,96.66874
"1876",80.233154,96.682076
"1877",81.19508,96.69541
"1878",81.81033,96.70875
"1879",82.05203,96.722084
"1880",81.934845,96.73542
"1881",81.50515,96.74876
"1882",80.82399,96.76209
"1883",79.96216,96.77543
"1884",78.98314,96.788765
"1885",77.95041,96.8021
"1886",76.925,96.81544
"1887",75.948425,96.82877
"1888",75.052414,96.84211
"1889",74.25651,96.855446
"1890",73.58022,96.86878
"1891",73.02113,96.88212
"1892",72.58167,96.895454
"1893",72.25941,96.90879
"1894",72.05432,96.92213
"1895",71.95911,96.93546
"1896",71.96399,96.9488
"1897",72.059204,96.962135
"1898",72.232544,96.97547
"1899",72.464485,96.98881
"1900",72.72816,97.002144
"1901",73.00404,97.01548
"1902",73.272606,97.02882
"1903",73.50454,97.04215
"1904",73.68032,97.05549
"1905",73.795074,97.068825
"1906",73.846344,97.08216
"1907",73.85123,97.0955
"1908",73.846344,97.10883
"1909",73.934235,97.12217
"1910",74.302895,97.135506
"1911",75.23308,97.14884
"1912",76.9836,97.16218
"1913",79.691154,97.175514
"1914",83.28008,97.18885
"1915",87.4403,97.20219
"1916",91.68841,97.21552
"1917",95.50683,97.22886
"1918",98.4683,97.242195
"1919",100.333565,97.25553
"1920",101.031815,97.26887
"1921",100.63142,97.2822
"1922",99.303276,97.29554
"1923",97.26223,97.308876
"1924",94.730446,97.32221
"1925",91.91791,97.33555
"1926",88.97597,97.348885
"1927",86.01694,97.36222
"1928",83.13359,97.37556
"1929",80.43336,97.38889
"1930",78.05295,97.40223
"1931",76.14618,97.415565
"1932",74.861984,97.4289
"1933",74.29069,97.44224
"1934",74.43229,97.455574
"1935",75.18181,97.46891
"1936",76.36347,97.48225
"1937",77.75754,97.49558
"1938",79.15648,97.50892
"1939",80.377205,97.522255
"1940",81.29519,97.53559
"1941",81.84451,97.54893
"1942",82.01541,97.56226
"1943",81.829865,97.5756
"1944",81.34646,97.588936
"1945",80.62623,97.60227
"1946",79.74731,97.61561
"1947",78.77318,97.628944
"1948",77.76242,97.64228
"1949",76.76143,97.65562
"1950",75.809265,97.66895
"1951",74.93523,97.68229
"1952",74.15396,97.695625
"1953",73.48501,97.70896
"1954",72.935684,97.7223
"1955",72.50599,97.735634
"1956",72.200806,97.74897
"1957",72.02014,97.76231
"1958",71.95178,97.77564
"1959",71.98596,97.78898
"1960",72.10315,97.802315
"1961",72.274055,97.81565
"1962",72.46937,97.82899
"1963",72.66712,97.84232
"1964",72.84779,97.85566
"1965",73.00404,97.868996
"1966",73.12367,97.88233
"1967",73.22621,97.89567
"1968",73.35317,97.909004
"1969",73.6144,97.92234
"1970",74.23697,97.93568
"1971",75.52361,97.94901
"1972",77.74044,97.96235
"1973",80.972916,97.975685
"1974",85.067215,97.98902
"1975",89.637596,98.00236
"1976",94.14206,98.01569
"1977",98.04349,98.02903
"1978",100.946365,98.042366
"1979",102.660255,98.0557
"1980",103.16075,98.06904
"1981",102.55039,98.082375
"1982",101.01961,98.09571
"1983",98.7979,98.10905
"1984",96.12695,98.12238
"1985",93.224075,98.13572
"1986",90.247955,98.149055
"1987",87.310905,98.16239
"1988",84.47883,98.17573
"1989",81.82254,98.189064
"1990",79.447014,98.2024
"1991",77.48409,98.21574
"1992",76.07294,98.22907
"1993",75.32342,98.24241
"1994",75.25506,98.255745
"1995",75.7995,98.26908
"1996",76.79317,98.28242
"1997",78.028534,98.29575
"1998",79.29565,98.30909
"1999",80.41627,98.322426
"2000",81.26101,98.33576
"2001",81.74685,98.3491
"2002",81.85184,98.362434
"2003",81.602806,98.37577
"2004",81.03639,98.38911
"2005",80.22095,98.40244
"2006",79.23216,98.41578
"2007",78.14816,98.429115
"2008",77.02998,98.44245
"2009",75.931335,98.45579
"2010",74.89128,98.469124
"2011",73.94156,98.48246
"2012",73.109024,98.4958
"2013",72.410774,98.50913
"2014",71.854126,98.52247
"2015",71.4464,98.535805
"2016",71.182724,98.54914
"2017",71.046005,98.56248
"2018",71.01915,98.57581
"2019",71.08995,98.58915
"2020",71.23155,98.602486
"2021",71.41955,98.61582
"2022",71.62707,98.62916
"2023",71.82727,98.642494
"2024",72.00061,98.65583
"2025",72.13489,98.66917
"2026",72.23743,98.6825
"2027",72.32044,98.69584
"2028",72.44251,98.709175
"2029",72.75502,98.72251
"2030",73.54116,98.73585
"2031",75.11833,98.74918
"2032",77.71847,98.76252
"2033",81.36355,98.775856
"2034",85.8143,98.78919
"2035",90.597084,98.80253
"2036",95.13573,98.815865
"2037",98.91264,98.8292
"2038",101.59579,98.84254
"2039",103.05333,98.85587
"2040",103.309685,98.86921
"2041",102.49668,98.882545
"2042",100.82674,98.89588
"2043",98.54398,98.90922
"2044",95.88281,98.922554
"2045",93.0605,98.93589
"2046",90.228424,98.94923
"2047",87.47692,98.96256
"2048",84.857254,98.9759
"2049",82.41581,98.989235
"2050",80.216064,99.00257
"2051",78.365456,99.01591
"2052",76.98604,99.02924
"2053",76.16815,99.04258
"2054",75.93378,99.055916
"2055",76.224304,99.06925
"2056",76.90059,99.08259
"2057",77.78439,99.095924
"2058",78.69016,99.10926
"2059",79.4641,99.1226
"2060",79.991455,99.13593
"2061",80.20874,99.14927
"2062",80.096436,99.162605
"2063",79.67895,99.17594
"2064",79.00511,99.18928
"2065",78.135956,99.202614
"2066",77.13252,99.21595
"2067",76.06317,99.22929
"2068",74.98894,99.24262
"2069",73.95621,99.25596
"2070",73.0016,99.269295
"2071",72.15686,99.28263
"2072",71.43664,99.29597
"2073",70.853134,99.3093
"2074",70.399025,99.32264
"2075",70.07187,99.335976
"2076",69.85458,99.34931
"2077",69.730064,99.36265
"2078",69.68612,99.375984
"2079",69.715416,99.38932
"2080",69.803314,99.40266
"2081",69.93271,99.41599
"2082",70.084076,99.42933
"2083",70.237885,99.442665
"2084",70.37461,99.456
"2085",70.47959,99.46934
"2086",70.55039,99.48267
"2087",70.59434,99.49601
"2088",70.63584,99.509346
"2089",70.75548,99.52268
"2090",71.16075,99.53602
"2091",72.13977,99.549355
"2092",73.96353,99.56269
"2093",76.75899,99.57603
"2094",80.42115,99.58936
"2095",84.62287,99.6027
"2096",88.86122,99.616035
"2097",92.6186,99.62937
"2098",95.52392,99.64271
"2099",97.3843,99.656044
"2100",98.18265,99.66938
"2101",98.01419,99.68272
"2102",97.04738,99.69605
"2103",95.482414,99.70939
"2104",93.5317,99.722725
"2105",91.37835,99.73606
"2106",89.17128,99.7494
"2107",87.00816,99.76273
"2108",84.93782,99.77607
"2109",82.97978,99.789406
"2110",81.15602,99.80274
"2111",79.51537,99.81608
"2112",78.14572,99.829414
"2113",77.14473,99.84275
"2114",76.57343,99.85609
"2115",76.44404,99.86942
"2116",76.6955,99.88276
"2117",77.205765,99.896095
"2118",77.8259,99.90943
"2119",78.416725,99.92277
"2120",78.86595,99.936104
"2121",79.10033,99.94944
"2122",79.08324,99.962776
"2123",78.81224,99.97611
"2124",78.31663,99.98945
"2125",77.642784,100.002785
"2126",76.84444,100.01612
"2127",75.98016,100.02946
"2128",75.10368,100.04279
"2129",74.26383,100.05613
"2130",73.48501,100.069466
"2131",72.79164,100.0828
"2132",72.1886,100.09614
"2133",71.68078,100.109474
"2134",71.27062,100.12281
"2135",70.95323,100.13615
"2136",70.7335,100.14948
"2137",70.6041,100.16282
"2138",70.55283,100.176155
"2139",70.56748,100.18949
"2140",70.640724,100.20283
"2141",70.75548,100.21616
"2142",70.906845,100.2295
"2143",71.0753,100.242836
"2144",71.25109,100.25617
"2145",71.42199,100.26951
"2146",71.57824,100.282845
"2147",71.71252,100.29618
"2148",71.81506,100.30952
"2149",71.87854,100.32285
"2150",71.902954,100.33619
"2151",71.89563,100.349525
"2152",71.871216,100.36286
"2153",71.86633,100.3762
"2154",71.98596,100.389534
"2155",72.43275,100.40287
"2156",73.47036,100.41621
"2157",75.32586,100.42954
"2158",78.05295,100.44288
"2159",81.478294,100.456215
"2160",85.22835,100.46955
"2161",88.82704,100.48289
"2162",91.83246,100.49622
"2163",93.978485,100.50956
"2164",95.187,100.522896
"2165",95.516594,100.53623
"2166",95.10155,100.54957
"2167",94.100555,100.562904
"2168",92.70161,100.57624
"2169",91.06828,100.58958
"2170",89.35439,100.60291
"2171",87.67223,100.61625
"2172",86.0975,100.629585
"2173",84.647285,100.64292
"2174",83.3167,100.65626
"2175",82.108185,100.66959
"2176",81.03395,100.68293
"2177",80.14526,100.696266
"2178",79.50805,100.7096
"2179",79.17601,100.72294
"2180",79.15404,100.736275
"2181",79.38598,100.74961
"2182",79.783936,100.76295
"2183",80.23071,100.77628
"2184",80.62623,100.78962
"2185",80.89723,100.802956
"2186",80.99977,100.81629
"2187",80.91432,100.82963
"2188",80.65064,100.842964
"2189",80.22827,100.8563
"2190",79.674065,100.86964
"2191",79.029526,100.88297
"2192",78.33616,100.89631
"2193",77.64034,100.909645
"2194",76.96651,100.92298
"2195",76.34638,100.93632
"2196",75.789734,100.94965
"2197",75.299,100.96299
"2198",74.879074,100.976326
"2199",74.527504,100.98966
"2200",74.24429,101.003
"2201",74.03433,101.016335
"2202",73.89029,101.02967
"2203",73.80972,101.04301
"2204",73.78287,101.05634
"2205",73.795074,101.06968
"2206",73.83902,101.083015
"2207",73.900055,101.09635
"2208",73.98306,101.10969
"2209",74.075836,101.123024
"2210",74.178375,101.13636
"2211",74.29557,101.1497
"2212",74.42008,101.16303
"2213",74.54459,101.17637
"2214",74.66178,101.189705
"2215",74.757,101.20304
"2216",74.827805,101.21638
"2217",74.864426,101.22971
"2218",74.86931,101.24305
"2219",74.84245,101.256386
"2220",74.78874,101.26972
"2221",74.70817,101.28306
"2222",74.60563,101.296394
"2223",74.493324,101.30973
"2224",74.40543,101.32307
"2225",74.43717,101.3364
"2226",74.78142,101.34974
"2227",75.71404,101.363075
"2228",77.467,101.37641
"2229",80.09888,101.38975
"2230",83.441216,101.40308
"2231",87.1107,101.41642
"2232",90.61906,101.429756
"2233",93.51217,101.44309
"2234",95.519035,101.45643
"2235",96.5835,101.469765
"2236",96.79347,101.4831
"2237",96.29542,101.49644
"2238",95.26757,101.50977
"2239",93.890594,101.52311
"2240",92.32075,101.536446
"2241",90.69962,101.54978
"2242",89.13222,101.56312
"2243",87.674675,101.576454
"2244",86.34409,101.58979
"2245",85.13069,101.60313
"2246",84.01251,101.61646
"2247",82.97978,101.6298
"2248",82.06668,101.643135
"2249",81.32937,101.65647
"2250",80.82643,101.66981
"2251",80.59205,101.68314
"2252",80.61646,101.69648
"2253",80.84596,101.709816
"2254",81.18532,101.72315
"2255",81.53933,101.73649
"2256",81.815216,101.749825
"2257",81.95682,101.76316
"2258",81.92996,101.7765
"2259",81.72976,101.78983
"2260",81.373314,101.80317
"2261",80.88258,101.816505
"2262",80.29664,101.82984
"2263",79.65209,101.84318
"2264",78.992905,101.856514
"2265",78.34348,101.86985
"2266",77.738,101.88319
"2267",77.18623,101.89652
"2268",76.700386,101.90986
"2269",76.27558,101.923195
"2270",75.914246,101.93653
"2271",75.61639,101.94987
"2272",75.37957,101.9632
"2273",75.1989,101.97654
"2274",75.071945,101.989876
"2275",74.986496,102.00321
"2276",74.93767,102.01655
"2277",74.92302,102.029884
"2278",74.932785,102.04322
"2279",74.95964,102.05656
"2280",75.00603,102.06989
"2281",75.05974,102.08323
"2282",75.11589,102.096565
"2283",75.1696,102.1099
"2284",75.21355,102.12324
"2285",75.2575,102.13657
"2286",75.29656,102.14991
"2287",75.335625,102.163246
"2288",75.369804,102.17658
"2289",75.403984,102.18992
"2290",75.421074,102.203255
"2291",75.423515,102.21659
"2292",75.406425,102.22993
"2293",75.36248,102.24326
"2294",75.29656,102.2566
"2295",75.211105,102.269936
"2296",75.11345,102.28327
"2297",75.018234,102.29661
"2298",74.9572,102.309944
"2299",75.03044,102.32328
"2300",75.45037,102.33662
"2301",76.48554,102.34995
"2302",78.34348,102.36329
"2303",81.03639,102.376625
"2304",84.35676,102.38996
"2305",87.89929,102.4033
"2306",91.175705,102.41663
"2307",93.768524,102.42997
"2308",95.46044,102.443306
"2309",96.23682,102.45664
"2310",96.200195,102.46998
"2311",95.50927,102.483315
"2312",94.33494,102.49665
"2313",92.860306,102.50999
"2314",91.23186,102.52332
"2315",89.58633,102.53666
"2316",88.02136,102.549995
"2317",86.588234,102.56333
"2318",85.3016,102.57667
"2319",84.14191,102.590004
"2320",83.087204,102.60334
"2321",82.1326,102.61668
"2322",81.31228,102.63001
"2323",80.672615,102.64335
"2324",80.26734,102.656685
"2325",80.11841,102.67002
"2326",80.21118,102.68336
"2327",80.48707,102.69669
"2328",80.86061,102.71003
"2329",81.22926,102.723366
"2330",81.514915,102.7367
"2331",81.65896,102.75004
"2332",81.62966,102.763374
"2333",81.42214,102.77671
"2334",81.058365,102.79005
"2335",80.570076,102.80338
"2336",79.98657,102.81672
"2337",79.3518,102.830055
"2338",78.70481,102.84339
"2339",78.07248,102.85673
"2340",77.47677,102.87006
"2341",76.93477,102.8834
"2342",76.45869,102.896736
"2343",76.04364,102.91007
"2344",75.69695,102.92341
"2345",75.41863,102.936745
"2346",75.20134,102.95008
"2347",75.04509,102.96342
"2348",74.93523,102.97675
"2349",74.861984,102.99009
"2350",74.81804,103.003426
"2351",74.79607,103.01676
"2352",74.793625,103.0301
"2353",74.80583,103.043434
"2354",74.84001,103.05677
"2355",74.88884,103.07011
"2356",74.949875,103.08344
"2357",75.020676,103.09678
"2358",75.09392,103.110115
"2359",75.16472,103.12345
"2360",75.23308,103.13679
"2361",75.28924,103.15012
"2362",75.335625,103.16346
"2363",75.37469,103.176796
"2364",75.406425,103.19013
"2365",75.43084,103.20347
"2366",75.44549,103.216805
"2367",75.44793,103.23014
"2368",75.43328,103.24348
"2369",75.40154,103.25681
"2370",75.34783,103.27015
"2371",75.27947,103.283485
"2372",75.20378,103.29682
"2373",75.13054,103.31016
"2374",75.10857,103.323494
"2375",75.267265,103.33683
"2376",75.83124,103.35017
"2377",77.069046,103.3635
"2378",79.14183,103.37684
"2379",82.02518,103.390175
"2380",85.46273,103.40351
"2381",89.02724,103.41685
"2382",92.2475,103.43018
"2383",94.74265,103.44352
"2384",96.33692,103.456856
"2385",97.03761,103.47019
"2386",96.95705,103.48353
"2387",96.24658,103.496864
"2388",95.07469,103.5102
"2389",93.609825,103.52354
"2390",92.000916,103.53687
"2391",90.36515,103.55021
"2392",88.78798,103.563545
"2393",87.31823,103.57688
"2394",85.97055,103.59022
"2395",84.73029,103.60355
"2396",83.59258,103.61689
"2397",82.57694,103.630226
"2398",81.722435,103.64356
"2399",81.08766,103.6569
"2400",80.71656,103.670235
"2401",80.62379,103.68357
"2402",80.77272,103.69691
"2403",81.09987,103.71024
"2404",81.51003,103.72358
"2405",81.900665,103.736916
"2406",82.193634,103.75025
"2407",82.3328,103.76359
"2408",82.286415,103.776924
"2409",82.05936,103.79026
"2410",81.668724,103.8036
"2411",81.15602,103.81693
"2412",80.55543,103.83027
"2413",79.90845,103.843605
"2414",79.23949,103.85694
"2415",78.5803,103.87028
"2416",77.95041,103.88361
"2417",77.366905,103.89695
"2418",76.83711,103.910286
"2419",76.3708,103.92362
"2420",75.96796,103.93696
"2421",75.62859,103.950294
"2422",75.34295,103.96363
"2423",75.10857,103.97697
"2424",74.9279,103.9903
"2425",74.79118,104.00364
"2426",74.69108,104.016975
"2427",74.6276,104.03031
"2428",74.59342,104.04365
"2429",74.581215,104.056984
"2430",74.59342,104.07032
"2431",74.62516,104.08366
"2432",74.666664,104.09699
"2433",74.71061,104.11033
"2434",74.75456,104.123665
"2435",74.79607,104.137
"2436",74.83269,104.15034
"2437",74.87175,104.16367
"2438",74.90837,104.17701
"2439",74.94743,104.190346
"2440",74.98161,104.20368
"2441",75.00603,104.21702
"2442",75.02312,104.230354
"2443",75.02312,104.24369
"2444",75.00603,104.25703
"2445",74.97429,104.27036
"2446",74.94011,104.2837
"2447",74.90349,104.297035
"2448",74.87175,104.31037
"2449",74.83513,104.32371
"2450",74.776535,104.33704
"2451",74.686195,104.35038
"2452",74.598305,104.363716
"2453",74.59098,104.37705
"2454",74.84001,104.39039
"2455",75.631035,104.403725
"2456",77.21309,104.41706
"2457",79.68627,104.4304
"2458",82.94072,104.44373
"2459",86.659035,104.45707
"2460",90.38468,104.470406
"2461",93.66598,104.48374
"2462",96.18799,104.49708
"2463",97.81644,104.510414
"2464",98.563515,104.52375
"2465",98.52445,104.53709
"2466",97.84329,104.55042
"2467",96.66407,104.56376
"2468",95.150375,104.577095
"2469",93.43893,104.59043
"2470",91.646904,104.60377
"2471",89.85489,104.6171
"2472",88.11902,104.63044
"2473",86.46616,104.643776
"2474",84.91585,104.65711
"2475",83.49737,104.67045
"2476",82.262,104.683784
"2477",81.27566,104.69712
"2478",80.6067,104.71046
"2479",80.30152,104.72379
"2480",80.35035,104.73713
"2481",80.689705,104.750465
"2482",81.22194,104.7638
"2483",81.829865,104.77714
"2484",82.388954,104.790474
"2485",82.81621,104.80381
"2486",83.04326,104.81715
"2487",83.04326,104.83048
"2488",82.81865,104.84382
"2489",82.39872,104.857155
"2490",81.81766,104.87049
"2491",81.12184,104.88383
"2492",80.35279,104.89716
"2493",79.55932,104.9105
"2494",78.77074,104.923836
"2495",78.01633,104.93717
"2496",77.31808,104.95051
"2497",76.6833,104.963844
"2498",76.112,104.97718
"2499",75.60418,104.99052
"2500",75.159836,105.00385
"2501",74.776535,105.01719
"2502",74.45426,105.030525
"2503",74.195465,105.04386
"2504",74.005035,105.0572
"2505",73.88785,105.07053
"2506",73.84146,105.08387
"2507",73.85855,105.097206
"2508",73.92935,105.11054
"2509",74.03433,105.12388
"2510",74.16373,105.137215
"2511",74.30045,105.15055
"2512",74.442055,105.16389
"2513",74.58366,105.17722
"2514",74.720375,105.19056
"2515",74.847336,105.203896
"2516",74.95232,105.21723
"2517",75.028,105.23057
"2518",75.07439,105.243904
"2519",75.08659,105.25724
"2520",75.0695,105.27058
"2521",75.03288,105.28391
"2522",74.98161,105.29725
"2523",74.9279,105.310585
"2524",74.87175,105.32392
"2525",74.8156,105.33726
"2526",74.75456,105.35059
"2527",74.67155,105.36393
"2528",74.56168,105.377266
"2529",74.43229,105.3906
"2530",74.30778,105.40394
"2531",74.26139,105.417274
"2532",74.461586,105.43061
"2533",75.16716,105.44395
"2534",76.63203,105.45728
"2535",78.98558,105.47062
"2536",82.161896,105.483955
"2537",85.87778,105.49729
"2538",89.705956,105.51063
"2539",93.189896,105.523964
"2540",95.990234,105.5373
"2541",97.94095,105.55064
"2542",99.02251,105.56397
"2543",99.29839,105.57731
"2544",98.88579,105.590645
"2545",97.90921,105.60398
"2546",96.51026,105.61732
"2547",94.8159,105.63065
"2548",92.92622,105.64399
"2549",90.92424,105.657326
"2550",88.86366,105.67066
"2551",86.79088,105.684
"2552",84.76936,105.697334
"2553",82.8748,105.71067
"2554",81.20241,105.72401
"2555",79.85474,105.73734
"2556",78.91478,105.75068
"2557",78.41184,105.764015
"2558",78.311745,105.77735
"2559",78.553444,105.79069
"2560",79.03929,105.80402
"2561",79.656975,105.81736
"2562",80.30152,105.830696
"2563",80.88258,105.84403
"2564",81.322044,105.85737
"2565",81.566185,105.870705
"2566",81.600365,105.88404
"2567",81.44167,105.89738
"2568",81.12184,105.91071
"2569",80.67994,105.92405
"2570",80.14038,105.937386
"2571",79.52758,105.95072
"2572",78.86107,105.96406
"2573",78.17502,105.977394
"2574",77.503624,105.99073
"2575",76.87862,106.00407
"2576",76.3122,106.0174
"2577",75.79706,106.03074
"2578",75.30877,106.044075
"2579",74.830246,106.05741
"2580",74.36637,106.07075
"2581",73.934235,106.08408
"2582",73.55581,106.09742
"2583",73.25063,106.110756
"2584",73.023575,106.12409
"2585",72.867325,106.13743
"2586",72.76967,106.150764
"2587",72.72083,106.1641
"2588",72.708626,106.17744
"2589",72.73304,106.19077
"2590",72.796524,106.20411
"2591",72.903946,106.217445
"2592",73.057755,106.23078
"2593",73.24086,106.24412
"2594",73.43618,106.257454
"2595",73.62173,106.27079
"2596",73.777985,106.28413
"2597",73.89029,106.29746
"2598",73.96109,106.3108
"2599",74.00015,106.324135
"2600",74.002594,106.33747
"2601",73.97574,106.35081
"2602",73.92691,106.36414
"2603",73.87564,106.37748
"2604",73.85367,106.390816
"2605",73.95621,106.40415
"2606",74.38834,106.41749
"2607",75.421074,106.430824
"2608",77.28878,106.44416
"2609",80.05493,106.4575
"2610",83.56573,106.47083
"2611",87.47204,106.48417
"2612",91.302666,106.497505
"2613",94.60349,106.51084
"2614",97.08156,106.52418
"2615",98.61234,106.53751
"2616",99.20805,106.55085
"2617",98.95659,106.564186
"2618",97.99954,106.57752
"2619",96.49561,106.59086
"2620",94.608376,106.604195
"2621",92.46967,106.61753
"2622",90.18448,106.63087
"2623",87.82361,106.6442
"2624",85.45052,106.65754
"2625",83.123825,106.670876
"2626",80.921646,106.68421
"2627",78.94652,106.69755
"2628",77.313194,106.710884
"2629",76.112,106.72422
"2630",75.41863,106.73756
"2631",75.25506,106.75089
"2632",75.577324,106.76423
"2633",76.29267,106.777565
"2634",77.25948,106.7909
"2635",78.32395,106.80424
"2636",79.33959,106.81757
"2637",80.19165,106.83091
"2638",80.797134,106.844246
"2639",81.13405,106.85758
"2640",81.20485,106.87092
"2641",81.03883,106.884254
"2642",80.67506,106.89759
"2643",80.15503,106.91093
"2644",79.52514,106.92426
"2645",78.81468,106.9376
"2646",78.06271,106.950935
"2647",77.296104,106.96427
"2648",76.54902,106.97761
"2649",75.84589,106.990944
"2650",75.208664,107.00428
"2651",74.64225,107.01762
"2652",74.144196,107.03095
"2653",73.69985,107.04429
"2654",73.29458,107.057625
"2655",72.921036,107.07096
"2656",72.57679,107.0843
"2657",72.274055,107.09763
"2658",72.03235,107.11097
"2659",71.871216,107.124306
"2660",71.81262,107.13764
"2661",71.86633,107.15098
"2662",72.02014,107.164314
"2663",72.25208,107.17765
"2664",72.53773,107.19099
"2665",72.850235,107.20432
"2666",73.15785,107.21766
"2667",73.45083,107.230995
"2668",73.70718,107.24433
"2669",73.90494,107.25767
"2670",74.03189,107.271
"2671",74.08072,107.28434
"2672",74.05386,107.297676
"2673",73.968414,107.31101
"2674",73.85611,107.32435
"2675",73.77066,107.337685
"2676",73.846344,107.35102
"2677",74.322426,107.36436
"2678",75.4992,107.37769
"2679",77.62325,107.39103
"2680",80.73853,107.404366
"2681",84.65217,107.4177
"2682",88.93935,107.43104
"2683",93.08003,107.444374
"2684",96.59571,107.45771
"2685",99.17876,107.47105
"2686",100.72907,107.48438
"2687",101.27352,107.49772
"2688",100.91707,107.511055
"2689",99.80133,107.52439
"2690",98.092316,107.53773
"2691",95.95117,107.55106
"2692",93.52926,107.5644
"2693",90.951096,107.577736
"2694",88.31434,107.59107
"2695",85.697105,107.60441
"2696",83.17021,107.617744
"2697",80.8069,107.63108
"2698",78.68772,107.64442
"2699",76.90547,107.65775
"2700",75.545586,107.67109
"2701",74.67399,107.684425
"2702",74.32487,107.69776
"2703",74.48112,107.7111
"2704",75.07439,107.724434
"2705",75.999695,107.73777
"2706",77.117874,107.75111
"2707",78.27512,107.76444
"2708",79.34692,107.77778
"2709",80.235596,107.791115
"2710",80.88258,107.80445
"2711",81.270775,107.81779
"2712",81.40749,107.83112
"2713",81.324486,107.84446
"2714",81.05104,107.857796
"2715",80.618904,107.87113
"2716",80.059814,107.88447
"2717",79.40795,107.897804
"2718",78.695045,107.91114
"2719",77.945526,107.92448
"2720",77.18623,107.93781
"2721",76.42451,107.95115
"2722",75.67742,107.964485
"2723",74.96208,107.97782
"2724",74.27848,107.99116
"2725",73.633934,108.00449
"2726",73.023575,108.01783
"2727",72.45472,108.031166
"2728",71.94446,108.0445
"2729",71.50744,108.05784
"2730",71.16319,108.071175
"2731",70.92882,108.08451
"2732",70.81163,108.09785
"2733",70.801865,108.11118
"2734",70.870224,108.12452
"2735",70.99962,108.137856
"2736",71.16075,108.15119
"2737",71.33654,108.16453
"2738",71.50988,108.177864
"2739",71.66613,108.1912
"2740",71.79309,108.20454
"2741",71.885864,108.21787
"2742",71.95911,108.23121
"2743",72.061646,108.244545
"2744",72.35462,108.25788
"2745",73.13832,108.27122
"2746",74.75456,108.28455
"2747",77.40841,108.29789
"2748",81.06081,108.311226
"2749",85.39437,108.32456
"2750",89.884186,108.3379
"2751",93.95407,108.351234
"2752",97.15236,108.36457
"2753",99.266655,108.37791
"2754",100.28474,108.39124
"2755",100.30183,108.40458
"2756",99.44732,108.417915
"2757",97.87991,108.43125
"2758",95.76318,108.44459
"2759",93.25826,108.457924
"2760",90.51408,108.47126
"2761",87.6527,108.4846
"2762",84.75716,108.49793
"2763",81.900665,108.51127
"2764",79.15648,108.524605
"2765",76.60761,108.53794
"2766",74.36149,108.55128
"2767",72.552376,108.56461
"2768",71.32189,108.57795
"2769",70.78722,108.591286
"2770",70.98741,108.60462
"2771",71.868774,108.61796
"2772",73.26528,108.631294
"2773",74.94499,108.64463
"2774",76.663765,108.65797
"2775",78.2092,108.6713
"2776",79.45434,108.68464
"2777",80.34547,108.697975
"2778",80.89235,108.71131
"2779",81.126724,108.72465
"2780",81.09987,108.73798
"2781",80.85573,108.75132
"2782",80.4358,108.764656
"2783",79.87671,108.77799
"2784",79.21263,108.79133
"2785",78.470436,108.804665
"2786",77.68917,108.818
"2787",76.90547,108.83134
"2788",76.155945,108.84467
"2789",75.45525,108.85801
"2790",74.810715,108.871346
"2791",74.21988,108.88468
"2792",73.673,108.89802
"2793",73.16762,108.911354
"2794",72.7013,108.92469
"2795",72.28138,108.93803
"2796",71.89563,108.95136
"2797",71.551384,108.9647
"2798",71.24864,108.978035
"2799",70.994736,108.99137
"2800",70.79942,109.00471
"2801",70.68467,109.01804
"2802",70.65049,109.03138
"2803",70.68223,109.044716
"2804",70.75304,109.05805
"2805",70.84093,109.07139
"2806",70.923935,109.084724
"2807",71.011826,109.09806
"2808",71.16075,109.1114
"2809",71.536736,109.12473
"2810",72.447395,109.13807
"2811",74.249176,109.151405
"2812",77.19356,109.16474
"2813",81.24635,109.17808
"2814",86.065765,109.191414
"2815",91.073166,109.20475
"2816",95.621574,109.21809
"2817",99.19096,109.23142
"2818",101.53231,109.24476
"2819",102.640724,109.258095
"2820",102.643166,109.27143
"2821",101.71053,109.28477
"2822",100.01373,109.2981
"2823",97.73342,109.31144
"2824",95.03075,109.324776
"2825",92.04974,109.33811
"2826",88.90517,109.35145
"2827",85.68734,109.364784
"2828",82.48905,109.37812
"2829",79.412834,109.39146
"2830",76.578316,109.40479
"2831",74.11246,109.41813
"2832",72.147095,109.431465
"2833",70.80919,109.4448
"2834",70.19638,109.45814
"2835",70.347755,109.47147
"2836",71.22423,109.48481
"2837",72.69886,109.498146
"2838",74.56168,109.51148
"2839",76.5539,109.52482
"2840",78.42161,109.538155
"2841",79.974365,109.55149
"2842",81.11452,109.56483
"2843",81.82742,109.57816
"2844",82.15213,109.5915
"2845",82.15701,109.604836
"2846",81.9202,109.61817
"2847",81.50027,109.63151
"2848",80.938736,109.644844
"2849",80.26734,109.65818
"2850",79.51049,109.67152
"2851",78.69749,109.68485
"2852",77.857635,109.69819
"2853",77.01289,109.711525
"2854",76.18524,109.72486
"2855",75.40887,109.7382
"2856",74.703285,109.75153
"2857",74.09537,109.76487
"2858",73.59731,109.778206
"2859",73.21889,109.79154
"2860",72.952774,109.80488
"2861",72.79408,109.818214
"2862",72.71351,109.83155
"2863",72.68665,109.84489
"2864",72.689095,109.85822
"2865",72.70374,109.87156
"2866",72.73548,109.884895
"2867",72.798965,109.89823
"2868",72.95033,109.91157
"2869",73.321434,109.924904
"2870",74.16861,109.93824
"2871",75.81903,109.95158
"2872",78.53147,109.96491
"2873",82.32548,109.97825
"2874",86.9276,109.991585
"2875",91.81781,110.00492
"2876",96.37354,110.01826
"2877",100.05524,110.03159
"2878",102.5626,110.04493
"2879",103.834595,110.058266
"2880",103.96399,110.0716
"2881",103.10216,110.08494
"2882",101.42733,110.098274
"2883",99.12749,110.11161
"2884",96.37354,110.12495
"2885",93.33395,110.13828
"2886",90.13565,110.15162
"2887",86.88365,110.164955
"2888",83.67559,110.17829
"2889",80.62623,110.19163
"2890",77.86008,110.20496
"2891",75.50652,110.2183
"2892",73.71694,110.231636
"2893",72.61585,110.24497
"2894",72.28138,110.25831
"2895",72.70374,110.271645
"2896",73.77554,110.28498
"2897",75.30389,110.29832
"2898",77.032425,110.31165
"2899",78.709694,110.32499
"2900",80.14038,110.338326
"2901",81.22926,110.35166
"2902",81.94705,110.365
"2903",82.32792,110.378334
"2904",82.42069,110.39167
"2905",82.27421,110.40501
"2906",81.9324,110.41834
"2907",81.42947,110.43168
"2908",80.80446,110.445015
"2909",80.096436,110.45835
"2910",79.33959,110.47169
"2911",78.57053,110.48502
"2912",77.81369,110.49836
"2913",77.08858,110.511696
"2914",76.4123,110.52503
"2915",75.79706,110.53837
"2916",75.245285,110.551704
"2917",74.75212,110.56504
"2918",74.31022,110.57838
"2919",73.917145,110.59171
"2920",73.5729,110.60505
"2921",73.27993,110.618385
"2922",73.03822,110.63172
"2923",72.84779,110.64506
"2924",72.69398,110.658394
"2925",72.57191,110.67173
"2926",72.532845,110.68507
"2927",72.742805,110.6984
"2928",73.52163,110.71174
"2929",75.27947,110.725075
"2930",78.30442,110.73841
"2931",82.581825,110.75175
"2932",87.75037,110.76508
"2933",93.19722,110.77842
"2934",98.21683,110.791756
"2935",102.233,110.80509
"2936",104.95033,110.81843
"2937",106.34196,110.831764
"2938",106.512856,110.8451
"2939",105.636375,110.85844
"2940",103.89563,110.87177
"2941",101.49081,110.88511
"2942",98.617226,110.898445
"2943",95.450676,110.91178
"2944",92.13031,110.92512
"2945",88.76601,110.93845
"2946",85.4432,110.95179
"2947",82.262,110.965126
"2948",79.3225,110.97846
"2949",76.76631,110.9918
"2950",74.76677,111.005135
"2951",73.4728,111.01847
"2952",72.97963,111.03181
"2953",73.29458,111.04514
"2954",74.302895,111.05848
"2955",75.79706,111.071815
"2956",77.52071,111.08515
"2957",79.2224,111.09849
"2958",80.69459,111.111824
"2959",81.81766,111.12516
"2960",82.530556,111.1385
"2961",82.847946,111.15183
"2962",82.80888,111.16517
"2963",82.476845,111.178505
"2964",81.917755,111.19184
"2965",81.17799,111.20518
"2966",80.308846,111.21851
"2967",79.35424,111.23185
"2968",78.35569,111.245186
"2969",77.347374,111.25852
"2970",76.36103,111.27186
"2971",75.43084,111.285194
"2972",74.56657,111.29853
"2973",73.78775,111.31187
"2974",73.09926,111.3252
"2975",72.515755,111.33854
"2976",72.042114,111.351875
"2977",71.67834,111.36521
"2978",71.414665,111.37855
"2979",71.24376,111.391884
"2980",71.14122,111.40522
"2981",71.09239,111.41856
"2982",71.11192,111.43189
"2983",71.27306,111.44523
"2984",71.783325,111.458565
"2985",72.99184,111.4719
"2986",75.26238,111.48524
"2987",78.76097,111.49857
"2988",83.36797,111.51191
"2989",88.66346,111.525246
"2990",94.02487,111.53858
"2991",98.80278,111.55192
"2992",102.51377,111.565254
"2993",104.938126,111.57859
"2994",106.056305,111.59193
"2995",105.96109,111.60526
"2996",104.816055,111.6186
"2997",102.81651,111.631935
"2998",100.18463,111.64527
"2999",97.13039,111.65861
"3000",93.839325,111.67194
"3001",90.4506,111.68528
"3002",87.078964,111.698616
"3003",83.80011,111.71195
"3004",80.709236,111.72529
"3005",77.925995,111.738625
"3006",75.5993,111.75196
"3007",73.88785,111.7653
"3008",72.9308,111.77863
"3009",72.781876,111.79197
"3010",73.375145,111.805305
"3011",74.54948,111.81864
"3012",76.07538,111.83198
"3013",77.69894,111.845314
"3014",79.200424,111.85865
"3015",80.42115,111.87199
"3016",81.26833,111.88532
"3017",81.722435,111.89866
"3018",81.80057,111.911995
"3019",81.549095,111.92533
"3020",81.02907,111.93867
"3021",80.308846,111.952
"3022",79.44213,111.96534
"3023",78.487526,111.978676
"3024",77.49874,111.99201
"3025",76.51484,112.00535
"3026",75.560234,112.018684
"3027",74.63737,112.03202
"3028",73.7438,112.04536
"3029",72.86977,112.05869
"3030",72.027466,112.07203
"3031",71.23888,112.085365
"3032",70.54795,112.0987
"3033",69.98886,112.11204
"3034",69.58846,112.125374
"3035",69.34676,112.13871
"3036",69.23445,112.15205
"3037",69.207596,112.16538
"3038",69.24666,112.17872
"3039",69.39071,112.192055
"3040",69.81796,112.20539
"3041",70.855576,112.21873
"3042",72.86,112.23206
"3043",76.03876,112.2454
"3044",80.33326,112.258736
"3045",85.38705,112.27207
"3046",90.63126,112.28541
"3047",95.4287,112.298744
"3048",99.27642,112.31208
"3049",101.89609,112.32542
"3050",103.22423,112.33875
"3051",103.326775,112.35209
"3052",102.3502,112.365425
"3053",100.509346,112.37876
"3054",98.02884,112.3921
"3055",95.13573,112.40543
"3056",92.02289,112.41877
"3057",88.851456,112.432106
"3058",85.72396,112.44544
"3059",82.72343,112.45878
"3060",79.94263,112.472115
"3061",77.48409,112.48545
"3062",75.48455,112.49879
"3063",74.06363,112.51212
"3064",73.31411,112.52546
"3065",73.25063,112.538795
"3066",73.78775,112.55213
"3067",74.77409,112.56547
"3068",76.00702,112.578804
"3069",77.29122,112.59214
"3070",78.44358,112.60548
"3071",79.33715,112.61881
"3072",79.89868,112.63215
"3073",80.1062,112.645485
"3074",79.96948,112.65882
"3075",79.52514,112.67216
"3076",78.839096,112.68549
"3077",77.97482,112.69883
"3078",76.99092,112.712166
"3079",75.948425,112.7255
"3080",74.90105,112.73884
"3081",73.89761,112.752174
"3082",72.96498,112.76551
"3083",72.12512,112.77885
"3084",71.39025,112.79218
"3085",70.76524,112.80552
"3086",70.2501,112.818855
"3087",69.837494,112.83219
"3088",69.30282,112.858864
"3089",69.16609,112.8722
"3090",69.09773,112.88554
"3091",69.0782,112.89887
"3092",69.09773,112.91221
"3093",69.15144,112.925545
"3094",69.25887,112.93888
"3095",69.52499,112.95222
"3096",70.1622,112.96555
"3097",71.483025,112.97889
"3098",73.763336,112.992226
"3099",77.10567,113.00556
"3100",81.35378,113.0189
"3101",86.10239,113.032234
"3102",90.79729,113.04557
"3103",94.87938,113.05891
"3104",97.94583,113.07224
"3105",99.80377,113.08558
"3106",100.438545,113.098915
"3107",99.9527,113.11225
"3108",98.51469,113.12559
"3109",96.35157,113.13892
"3110",93.695274,113.15226
"3111",90.758224,113.165596
"3112",87.69909,113.17893
"3113",84.63752,113.19227
"3114",81.65652,113.205605
"3115",78.84886,113.21894
"3116",76.334175,113.23228
"3117",74.268715,113.24561
"3118",72.81117,113.25895
"3119",72.07385,113.272285
"3120",72.08606,113.28562
"3121",72.75746,113.29896
"3122",73.919586,113.312294
"3123",75.34295,113.32563
"3124",76.81026,113.33897
"3125",78.13107,113.3523
"3126",79.17113,113.36564
"3127",79.84985,113.378975
"3128",80.15259,113.39231
"3129",80.10132,113.40565
"3130",79.73998,113.41898
"3131",79.132065,113.43232
"3132",78.345924,113.445656
"3133",77.44747,113.45899
"3134",76.48066,113.47233
"3135",75.4992,113.485664
"3136",74.53971,113.499
"3137",73.63149,113.51234
"3138",72.796524,113.52567
"3139",72.05676,113.53901
"3140",71.42443,113.552345
"3141",70.90196,113.56568
"3142",70.4918,113.57902
"3143",70.19394,113.592354
"3144",69.993744,113.60569
"3145",69.86923,113.619026
"3146",69.80087,113.63236
"3147",69.78134,113.6457
"3148",69.805756,113.659035
"3149",69.90341,113.67237
"3150",70.17929,113.68571
"3151",70.84825,113.69904
"3152",72.181274,113.71238
"3153",74.40543,113.725716
"3154",77.58419,113.73905
"3155",81.55154,113.75239
"3156",85.91928,113.765724
"3157",90.16983,113.77906
"3158",93.802704,113.7924
"3159",96.46632,113.80573
"3160",98.00198,113.81907
"3161",98.40482,113.832405
"3162",97.7847,113.84574
"3163",96.31495,113.85908
"3164",94.19821,113.87241
"3165",91.629814,113.88575
"3166",88.780655,113.899086
"3167",85.787445,113.91242
"3168",82.75273,113.92576
"3169",79.79126,113.939095
"3170",77.04219,113.95243
"3171",74.683754,113.96577
"3172",72.89906,113.9791
"3173",71.84192,113.99244
"3174",71.5758,114.005775
"3175",72.05432,114.01911
"3176",73.128555,114.03245
"3177",74.581215,114.045784
"3178",76.16571,114.05912
"3179",77.67452,114.07246
"3180",78.94652,114.08579
"3181",79.88403,114.09913
"3182",80.4358,114.112465
"3183",80.61402,114.1258
"3184",80.448006,114.13914
"3185",79.99634,114.15247
"3186",79.32006,114.16581
"3187",78.4802,114.179146
"3188",77.5378,114.19248
"3189",76.5539,114.20582
"3190",75.57244,114.219154
"3191",74.63737,114.23249
"3192",73.777985,114.24583
"3193",73.02113,114.25916
"3194",72.38148,114.2725
"3195",71.86389,114.285835
"3196",71.46349,114.29917
"3197",71.17784,114.31251
"3198",70.992294,114.32584
"3199",70.88243,114.33918
"3200",70.836044,114.352516
"3201",70.84093,114.36585
"3202",70.9044,114.37919
"3203",71.06554,114.392525
"3204",71.465935,114.40586
"3205",72.3473,114.4192
"3206",73.98306,114.43253
"3207",76.57343,114.44587
"3208",80.12085,114.459206
"3209",84.37873,114.47254
"3210",88.902725,114.48588
"3211",93.155716,114.499214
"3212",96.65919,114.51255
"3213",99.107956,114.52589
"3214",100.38972,114.53922
"3215",100.53132,114.55256
"3216",99.65972,114.565895
"3217",97.96536,114.57923
"3218",95.66064,114.59257
"3219",92.9482,114.6059
"3220",89.99161,114.61924
"3221",86.925156,114.632576
"3222",83.85626,114.64591
"3223",80.907,114.65925
"3224",78.21408,114.672585
"3225",75.95087,114.68592
"3226",74.29069,114.69926
"3227",73.3605,114.71259
"3228",73.196915,114.72593
"3229",73.72915,114.739265
"3230",74.79851,114.7526
"3231",76.18036,114.76594
"3232",77.65499,114.779274
"3233",79.0222,114.79261
"3234",80.130615,114.80595
"3235",80.88991,114.81928
"3236",81.26833,114.83262
"3237",81.27322,114.845955
"3238",80.938736,114.85929
"3239",80.33082,114.87263
"3240",79.520256,114.88596
"3241",78.5803,114.8993
"3242",77.57931,114.912636
"3243",76.57343,114.92597
"3244",75.60662,114.93931
"3245",74.70817,114.952644
"3246",73.900055,114.96598
"3247",73.19203,114.97932
"3248",72.603645,114.99265
"3249",72.13977,115.00599
"3250",71.79065,115.019325
"3251",71.5465,115.03266
"3252",71.395134,115.046
"3253",71.309685,115.05933
"3254",71.275505,115.07267
"3255",71.28771,115.086006
"3256",71.35363,115.09934
"3257",71.53185,115.11268
"3258",71.96399,115.126015
"3259",72.921036,115.13935
"3260",74.70573,115.15269
"3261",77.51095,115.16602
"3262",81.31716,115.17936
"3263",85.85092,115.192696
"3264",90.63615,115.20603
"3265",95.096664,115.21937
"3266",98.74174,115.232704
"3267",101.2662,115.24604
"3268",102.56504,115.25938
"3269",102.67246,115.27271
"3270",101.732506,115.28605
"3271",99.95758,115.299385
"3272",97.584496,115.31272
"3273",94.85252,115.32606
"3274",91.95209,115.33939
"3275",89.01747,115.35273
"3276",86.14389,115.366066
"3277",83.4168,115.3794
"3278",80.94362,115.39274
"3279",78.85863,115.406075
"3280",77.30831,115.41941
"3281",76.40742,115.43275
"3282",76.192566,115.44608
"3283",76.592964,115.45942
"3284",77.454796,115.472755
"3285",78.56809,115.48609
"3286",79.73022,115.49943
"3287",80.75563,115.512764
"3288",81.514915,115.5261
"3289",81.92752,115.53944
"3290",81.96658,115.55277
"3291",81.654076,115.56611
"3292",81.03639,115.579445
"3293",80.177,115.59278
"3294",79.151596,115.60612
"3295",78.04074,115.61945
"3296",76.90791,115.63279
"3297",75.81171,115.646126
"3298",74.79851,115.65946
"3299",73.90494,115.672806
"3300",73.14809,115.68614
"3301",72.52796,115.69948
"3302",72.042114,115.712814
"3303",71.68322,115.72615
"3304",71.43664,115.73949
"3305",71.28283,115.75282
"3306",71.20958,115.76616
"3307",71.18761,115.779495
"3308",71.199814,115.79283
"3309",71.22667,115.80617
"3310",71.25353,115.8195
"3311",71.292595,115.83284
"3312",71.40002,115.846176
"3313",71.7467,115.85951
"3314",72.601204,115.87285
"3315",74.27116,115.886185
"3316",76.944534,115.89952
"3317",80.601814,115.91286
"3318",84.972,115.92619
"3319",89.57412,115.93953
"3320",93.84177,115.952866
"3321",97.29641,115.9662
"3322",99.64507,115.97954
"3323",100.78279,115.992874
"3324",100.76326,116.00621
"3325",99.754944,116.01955
"3326",97.98245,116.03288
"3327",95.70458,116.04622
"3328",93.16548,116.059555
"3329",90.5507,116.07289
"3330",87.9823,116.08623
"3331",85.521324,116.09956
"3332",83.19951,116.1129
"3333",81.05104,116.126236
"3334",79.151596,116.13957
"3335",77.60128,116.15291
"3336",76.50507,116.166245
"3337",75.92645,116.17958
"3338",75.85321,116.19292
"3339",76.18768,116.20625
"3340",76.7834,116.21959
"3341",77.467,116.232925
"3342",78.09201,116.24626
"3343",78.52903,116.2596
"3344",78.709694,116.272934
"3345",78.59739,116.28627
"3346",78.20676,116.29961
"3347",77.56954,116.31294
"3348",76.74677,116.32628
"3349",75.80438,116.339615
"3350",74.80339,116.35295
"3351",73.80484,116.36629
"3352",72.85756,116.37962
"3353",71.9884,116.39296
"3354",71.219345,116.406296
"3355",70.56992,116.41963
"3356",70.030365,116.43297
"3357",69.60067,116.446304
"3358",69.280846,116.45964
"3359",69.06355,116.47298
"3360",68.93904,116.48631
"3361",68.90242,116.49965
"3362",68.9366,116.512985
"3363",69.02937,116.52632
"3364",69.16121,116.53966
"3365",69.32235,116.55299
"3366",69.49081,116.56633
"3367",69.65194,116.579666
"3368",69.79355,116.593
"3369",69.91562,116.60634
"3370",70.00107,116.619675
"3371",70.047455,116.63301
"3372",70.05966,116.64635
"3373",70.05722,116.65968
"3374",70.11093,116.67302
"3375",70.39414,116.686356
"3376",71.18028,116.69969
"3377",72.75502,116.71303
"3378",75.29168,116.726364
"3379",78.74387,116.7397
"3380",82.845505,116.75304
"3381",87.12535,116.76637
"3382",91.06584,116.77971
"3383",94.23483,116.793045
"3384",96.395515,116.80638
"3385",97.48196,116.81972
"3386",97.55764,116.83305
"3387",96.78371,116.84639
"3388",95.360344,116.859726
"3389",93.507286,116.87306
"3390",91.42962,116.8864
"3391",89.2958,116.899734
"3392",87.21568,116.91307
"3393",85.24788,116.92641
"3394",83.40948,116.93974
"3395",81.70779,116.95308
"3396",80.181885,116.966415
"3397",78.887924,116.97975
"3398",77.8967,116.99309
"3399",77.26681,117.006424
"3400",77.01045,117.01976
"3401",77.07637,117.0331
"3402",77.36935,117.04643
"3403",77.76242,117.05977
"3404",78.14084,117.073105
"3405",78.40452,117.08644
"3406",78.487526,117.09978
"3407",78.363014,117.11311
"3408",78.028534,117.12645
"3409",77.50851,117.139786
"3410",76.839554,117.15312
"3411",76.07294,117.16646
"3412",75.25506,117.179794
"3413",74.43473,117.19313
"3414",73.64858,117.20647
"3415",72.92348,117.2198
"3416",72.274055,117.23314
"3417",71.71252,117.246475
"3418",71.24376,117.25981
"3419",70.86534,117.27315
"3420",70.57481,117.28648
"3421",70.364845,117.29982
"3422",70.22812,117.313156
"3423",70.15732,117.32649
"3424",70.14511,117.33983
"3425",70.18417,117.353165
"3426",70.26719,117.3665
"3427",70.37705,117.37984
"3428",70.51377,117.39317
"3429",70.657814,117.40651
"3430",70.804306,117.419846
"3431",70.95079,117.43318
"3432",71.1046,117.44652
"3433",71.25353,117.459854
"3434",71.395134,117.47319
"3435",71.52453,117.48653
"3436",71.63683,117.49986
"3437",71.71984,117.5132
"3438",71.776,117.526535
"3439",71.80286,117.53987
"3440",71.8053,117.55321
"3441",71.783325,117.56654
"3442",71.744255,117.57988
"3443",71.70519,117.593216
"3444",71.69543,117.60655
"3445",71.78577,117.61989
"3446",72.149536,117.633224
"3447",73.05043,117.64656
"3448",74.720375,117.6599
"3449",77.24483,117.67323
"3450",80.50416,117.68657
"3451",84.173645,117.699905
"3452",87.784546,117.71324
"3453",90.88518,117.72658
"3454",93.16792,117.739914
"3455",94.520485,117.75325
"3456",94.97948,117.76659
"3457",94.66209,117.77992
"3458",93.73434,117.79326
"3459",92.37934,117.806595
"3460",90.777756,117.81993
"3461",89.08339,117.83327
"3462",87.40612,117.8466
"3463",85.81674,117.85994
"3464",84.33723,117.873276
"3465",82.98711,117.88661
"3466",81.778595,117.89995
"3467",80.76784,117.913284
"3468",80.01099,117.92662
"3469",79.569084,117.93996
"3470",79.45678,117.95329
"3471",79.64721,117.96663
"3472",80.05493,117.979965
"3473",80.56519,117.9933
"3474",81.06813,118.00664
"3475",81.46853,118.01997
"3476",81.69802,118.03331
"3477",81.72488,118.046646
"3478",81.54665,118.05998
"3479",81.18288,118.07332
"3480",80.66529,118.086655
"3481",80.04761,118.09999
"3482",79.361565,118.11333
"3483",78.64866,118.12666
"3484",77.94797,118.14
"3485",77.28634,118.153336
"3486",76.68818,118.16667
"3487",76.16815,118.18001
"3488",75.736015,118.193344
"3489",75.39422,118.20668
"3490",75.13298,118.22002
"3491",74.94255,118.23335
"3492",74.810715,118.24669
"3493",74.7277,118.260025
"3494",74.68864,118.27336
"3495",74.68131,118.2867
"3496",74.70084,118.30003
"3497",74.74967,118.31337
"3498",74.82048,118.326706
"3499",74.90349,118.34004
"3500",74.98894,118.35338
"3501",75.0695,118.366714
"3502",75.14519,118.38005
"3503",75.208664,118.39339
"3504",75.26238,118.40672
"3505",75.30877,118.42006
"3506",75.34783,118.433395
"3507",75.37713,118.44673
"3508",75.39666,118.46007
"3509",75.40154,118.473404
"3510",75.39422,118.48674
"3511",75.372246,118.50008
"3512",75.338066,118.51341
"3513",75.29168,118.52675
"3514",75.23308,118.540085
"3515",75.16228,118.55342
"3516",75.08171,118.56676
"3517",75.003586,118.58009
"3518",74.95964,118.59343
"3519",75.035324,118.606766
"3520",75.406425,118.6201
"3521",76.3122,118.63344
"3522",77.93088,118.646774
"3523",80.2942,118.66011
"3524",83.228806,118.67345
"3525",86.39536,118.68678
"3526",89.36172,118.70012
"3527",91.74212,118.713455
"3528",93.314415,118.72679
"3529",94.032196,118.74013
"3530",93.978485,118.75346
"3531",93.28756,118.7668
"3532",92.13031,118.780136
"3533",90.667885,118.79347
"3534",89.04921,118.80681
"3535",87.38171,118.820145
"3536",85.750824,118.83348
"3537",84.210266,118.84682
"3538",82.78691,118.86015
"3539",81.51736,118.87349
"3540",80.462654,118.886826
"3541",79.67895,118.90016
"3542",79.22972,118.9135
"3543",79.151596,118.926834
"3544",79.4226,118.94017
"3545",79.95972,118.95351
"3546",80.65064,118.96684
"3547",81.36599,118.98018
"3548",81.99588,118.993515
"3549",82.45243,119.00685
"3550",82.69657,119.02019
"3551",82.7161,119.03352
"3552",82.52323,119.04686
"3553",82.144806,119.060196
"3554",81.636986,119.07353
"3555",81.041275,119.08687
"3556",80.39918,119.100204
"3557",79.742424,119.11354
"3558",79.10765,119.12688
"3559",78.50706,119.14021
"3560",77.962616,119.15355
"3561",77.486534,119.166885
"3562",77.09346,119.18022
"3563",76.77608,119.19356
"3564",76.53437,119.206894
"3565",76.35615,119.22023
"3566",76.23651,119.23357
"3567",76.16083,119.2469
"3568",76.12665,119.26024
"3569",76.12421,119.273575
"3570",76.14618,119.28691
"3571",76.192566,119.30025
"3572",76.25117,119.31358
"3573",76.31953,119.32692
"3574",76.39521,119.340256
"3575",76.470894,119.35359
"3576",76.541695,119.36693
"3577",76.60517,119.380264
"3578",76.663765,119.3936
"3579",76.70771,119.40694
"3580",76.74433,119.42027
"3581",76.756546,119.43361
"3582",76.749214,119.446945
"3583",76.715034,119.46028
"3584",76.66621,119.47362
"3585",76.60517,119.48695
"3586",76.53193,119.50029
"3587",76.44892,119.513626
"3588",76.34882,119.52696
"3589",76.23895,119.5403
"3590",76.121765,119.553635
"3591",76.019226,119.56697
"3592",75.9704,119.58031
"3593",76.0827,119.59364
"3594",76.54902,119.60698
"3595",77.58419,119.620316
"3596",79.30297,119.63365
"3597",81.66384,119.64699
"3598",84.439766,119.660324
"3599",87.259636,119.67366
"3600",89.71328,119.687
"3601",91.50286,119.70033
"3602",92.49409,119.71367
"3603",92.71381,119.727005
"3604",92.264595,119.74034
"3605",91.30511,119.75368
"3606",89.98428,119.76701
"3607",88.448616,119.78035
"3608",86.80797,119.793686
"3609",85.152664,119.80702
"3610",83.54131,119.82036
"3611",82.01785,119.833694
"3612",80.63111,119.84703
"3613",79.44213,119.86037
"3614",78.52659,119.8737
"3615",77.960175,119.88704
"3616",77.79416,119.900375
"3617",78.02609,119.91371
"3618",78.59739,119.92705
"3619",79.38842,119.940384
"3620",80.26978,119.95372
"3621",81.109634,119.96706
"3622",81.80545,119.98039
"3623",82.286415,119.99373
"3624",82.52567,120.007065
"3625",82.530556,120.0204
"3626",82.320595,120.03374
"3627",81.93973,120.04707
"3628",81.43679,120.06041
"3629",80.85817,120.073746
"3630",80.24048,120.08708
"3631",79.62035,120.10042
"3632",79.0222,120.113754
"3633",78.467995,120.12709
"3634",77.97482,120.14043
"3635",77.54513,120.15376
"3636",77.18379,120.1671
"3637",76.88594,120.180435
"3638",76.64423,120.19377
"3639",76.453804,120.20711
"3640",76.30976,120.22044
"3641",76.209656,120.23378
"3642",76.14374,120.247116
"3643",76.10956,120.26045
"3644",76.09979,120.27379
"3645",76.11444,120.287125
"3646",76.14618,120.30046
"3647",76.18524,120.3138
"3648",76.23407,120.32713
"3649",76.29023,120.34047
"3650",76.34882,120.353806
"3651",76.39765,120.36714
"3652",76.436714,120.38048
"3653",76.456245,120.393814
"3654",76.456245,120.40715
"3655",76.42939,120.42049
"3656",76.37812,120.43382
"3657",76.30488,120.44716
"3658",76.209656,120.460495
"3659",76.09247,120.47383
"3660",75.95331,120.48717
"3661",75.80438,120.5005
"3662",75.648125,120.51384
"3663",75.50164,120.527176
"3664",75.39666,120.54051
"3665",75.40887,120.55385
"3666",75.70672,120.567184
"3667",76.50507,120.58052
"3668",77.96994,120.59386
"3669",80.11597,120.60719
"3670",82.7625,120.62053
"3671",85.57992,120.633865
"3672",88.162964,120.6472
"3673",90.162506,120.66054
"3674",91.39056,120.673874
"3675",91.83246,120.68721
"3676",91.58587,120.70055
"3677",90.78752,120.71388
"3678",89.58877,120.72722
"3679",88.12634,120.740555
"3680",86.505226,120.75389
"3681",84.808426,120.76723
"3682",83.09697,120.78056
"3683",81.41726,120.7939
"3684",79.83765,120.807236
"3685",78.44358,120.82057
"3686",77.330284,120.83391
"3687",76.5832,120.847244
"3688",76.27314,120.86058
"3689",76.422066,120.87392
"3690",76.99092,120.88725
"3691",77.88937,120.90059
"3692",78.98558,120.913925
"3693",80.130615,120.92726
"3694",81.18776,120.9406
"3695",82.04471,120.95393
"3696",82.64042,120.96727
"3697",82.95537,120.980606
"3698",83.01152,120.99394
"3699",82.85039,121.00728
"3700",82.51591,121.020615
"3701",82.056915,121.03395
"3702",81.514915,121.04729
"3703",80.92653,121.06062
"3704",80.323494,121.07396
"3705",79.7351,121.087296
"3706",79.18089,121.10063
"3707",78.66819,121.11397
"3708",78.21164,121.127304
"3709",77.81613,121.14064
"3710",77.486534,121.15398
"3711",77.22041,121.16731
"3712",77.0251,121.18065
"3713",76.89082,121.193985
"3714",76.81514,121.20732
"3715",76.78584,121.22066
"3716",76.81026,121.23399
"3717",76.87129,121.24733
"3718",76.97139,121.260666
"3719",77.100784,121.274
"3720",77.24727,121.28734
"3721",77.39864,121.300674
"3722",77.54757,121.31401
"3723",77.67452,121.32735
"3724",77.77219,121.34068
"3725",77.83078,121.35402
"3726",77.84787,121.367355
"3727",77.82834,121.38069
"3728",77.77951,121.39403
"3729",77.72091,121.407364
"3730",77.70382,121.4207
"3731",77.840546,121.43404
"3732",78.28245,121.44737
"3733",79.202866,121.46071
"3734",80.69459,121.474045
"3735",82.70878,121.48738
"3736",85.04524,121.50072
"3737",87.39147,121.51405
"3738",89.42519,121.52739
"3739",90.89006,121.540726
"3740",91.68841,121.55406
"3741",91.827576,121.5674
"3742",91.39788,121.580734
"3743",90.51652,121.59407
"3744",89.305565,121.60741
"3745",87.87244,121.62074
"3746",86.29771,121.63408
"3747",84.65217,121.647415
"3748",82.97734,121.66075
"3749",81.34402,121.67409
"3750",79.82544,121.68742
"3751",78.519264,121.70076
"3752",77.52804,121.714096
"3753",76.94209,121.72743
"3754",76.805374,121.74077
"3755",77.10811,121.754105
"3756",77.786835,121.76744
"3757",78.72434,121.78078
"3758",79.783936,121.79411
"3759",80.831314,121.80745
"3760",81.74685,121.820786
"3761",82.45243,121.83412
"3762",82.90898,121.84746
"3763",83.11162,121.860794
"3764",83.089645,121.87413
"3765",82.879684,121.88747
"3766",82.52567,121.9008
"3767",82.07156,121.91414
"3768",81.55398,121.927475
"3769",81.00221,121.94081
"3770",80.4358,121.95415
"3771",79.86694,121.96748
"3772",79.31762,121.98082
"3773",78.79271,121.994156
"3774",78.311745,122.00749
"3775",77.87717,122.02083
"3776",77.50118,122.034164
"3777",77.17647,122.0475
"3778",76.912796,122.06084
"3779",76.70527,122.07417
"3780",76.561226,122.08751
"3781",76.47822,122.100845
"3782",76.46357,122.11418
"3783",76.50263,122.12752
"3784",76.59052,122.140854
"3785",76.70527,122.15419
"3786",76.839554,122.16753
"3787",76.97383,122.18086
"3788",77.09102,122.1942
"3789",77.18379,122.207535
"3790",77.24971,122.22087
"3791",77.27169,122.23421
"3792",77.2546,122.24754
"3793",77.26681,122.26088
"3794",77.48165,122.274216
"3795",78.153046,122.28755
"3796",79.52758,122.30089
"3797",81.71023,122.314224
"3798",84.60822,122.32756
"3799",87.923706,122.3409
"3800",91.23186,122.35423
"3801",94.117645,122.36757
"3802",96.29786,122.380905
"3803",97.64309,122.39424
"3804",98.14603,122.40758
"3805",97.89212,122.42091
"3806",96.99855,122.43425
"3807",95.60937,122.447586
"3808",93.875946,122.46092
"3809",91.93988,122.47426
"3810",89.91104,122.487595
"3811",87.87488,122.50093
"3812",85.88754,122.51427
"3813",84.00275,122.5276
"3814",82.28153,122.54094
"3815",80.797134,122.554276
"3816",79.64965,122.56761
"3817",78.92699,122.58095
"3818",78.68528,122.594284
"3819",78.91966,122.60762
"3820",79.551994,122.62096
"3821",80.45289,122.63429
"3822",81.46609,122.64763
"3823",82.4329,122.660965
"3824",83.228806,122.6743
"3825",83.773254,122.68764
"3826",84.02716,122.70097
"3827",83.99786,122.71431
"3828",83.71221,122.727646
"3829",83.21904,122.74098
"3830",82.57206,122.75432
"3831",81.8201,122.767654
"3832",81.007095,122.78099
"3833",80.15991,122.79433
"3834",79.310295,122.80766
"3835",78.485085,122.821
"3836",77.70626,122.834335
"3837",76.99092,122.84767
"3838",76.36347,122.86101
"3839",75.81903,122.874344
"3840",75.36492,122.88768
"3841",74.986496,122.90102
"3842",74.686195,122.91435
"3843",74.4567,122.92769
"3844",74.302895,122.941025
"3845",74.21744,122.95436
"3846",74.20035,122.9677
"3847",74.24185,122.98103
"3848",74.34196,122.99437
"3849",74.48112,123.007706
"3850",74.63981,123.02104
"3851",74.80095,123.03438
"3852",74.94499,123.047714
"3853",75.054855,123.06105
"3854",75.11833,123.07439
"3855",75.142746,123.08772
"3856",75.159836,123.10106
"3857",75.27703,123.114395
"3858",75.70916,123.12773
"3859",76.73945,123.14107
"3860",78.59251,123.1544
"3861",81.322044,123.16774
"3862",84.77913,123.181076
"3863",88.61707,123.19441
"3864",92.386665,123.20775
"3865",95.66064,123.221085
"3866",98.15335,123.23442
"3867",99.72564,123.24776
"3868",100.367744,123.26109
"3869",100.13336,123.27443
"3870",99.1519,123.287766
"3871",97.59426,123.3011
"3872",95.641106,123.31444
"3873",93.46334,123.327774
"3874",91.212326,123.34111
"3875",88.988174,123.35445
"3876",86.85924,123.36778
"3877",84.857254,123.38112
"3878",83.02617,123.394455
"3879",81.41726,123.40779
"3880",80.1062,123.42113
"3881",79.17357,123.43446
"3882",78.67307,123.4478
"3883",78.61448,123.461136
"3884",78.93675,123.47447
"3885",79.52758,123.48781
"3886",80.24536,123.501144
"3887",80.95094,123.51448
"3888",81.52224,123.52782
"3889",81.88846,123.54115
"3890",82.003204,123.55449
"3891",81.85916,123.567825
"3892",81.48318,123.58116
"3893",80.907,123.5945
"3894",80.17212,123.607834
"3895",79.32006,123.62117
"3896",78.40696,123.63451
"3897",77.47433,123.64784
"3898",76.561226,123.66118
"3899",75.699394,123.674515
"3900",74.91325,123.68785
"3901",74.215,123.70119
"3902",73.60464,123.71452
"3903",73.08217,123.72786
"3904",72.64271,123.741196
"3905",72.291145,123.75453
"3906",72.01526,123.76787
"3907",71.82483,123.781204
"3908",71.70275,123.79454
"3909",71.6466,123.80788
"3910",71.641716,123.82121
"3911",71.690544,123.83455
"3912",71.79309,123.847885
"3913",71.94446,123.86122
"3914",72.13489,123.87456
"3915",72.35218,123.88789
"3916",72.569466,123.90123
"3917",72.75746,123.914566
"3918",72.89906,123.9279
"3919",72.98695,123.94124
"3920",73.03334,123.954575
"3921",73.08705,123.96791
"3922",73.27993,123.98125
"3923",73.85123,123.99458
"3924",75.07439,124.00792
"3925",77.14717,124.021255
"3926",80.111084,124.03459
"3927",83.80011,124.04793
"3928",87.86511,124.061264
"3929",91.844666,124.0746
"3930",95.29931,124.08794
"3931",97.90921,124.10127
"3932",99.49859,124.11461
"3933",100.02594,124.127945
"3934",99.562065,124.14128
"3935",98.285194,124.15462
"3936",96.40772,124.16795
"3937",94.15427,124.18129
"3938",91.72259,124.194626
"3939",89.271385,124.20796
"3940",86.908066,124.2213
"3941",84.701,124.234634
"3942",82.67704,124.24797
"3943",80.88258,124.26131
"3944",79.36645,124.27464
"3945",78.19943,124.28798
"3946",77.452354,124.301315
"3947",77.17403,124.31465
"3948",77.34493,124.32799
"3949",77.88449,124.341324
"3950",78.658424,124.35466
"3951",79.51293,124.368
"3952",80.30396,124.38133
"3953",80.91188,124.39467
"3954",81.26833,124.408005
"3955",81.33181,124.42134
"3956",81.112076,124.43468
"3957",80.63355,124.44801
"3958",79.954834,124.46135
"3959",79.132065,124.474686
"3960",78.22385,124.48802
"3961",77.281456,124.50136
"3962",76.36103,124.514694
"3963",75.49676,124.52803
"3964",74.70817,124.54137
"3965",74.01236,124.5547
"3966",73.41665,124.56804
"3967",72.918594,124.581375
"3968",72.515755,124.59471
"3969",72.20813,124.60805
"3970",71.98596,124.62138
"3971",71.84924,124.63472
"3972",71.79065,124.648056
"3973",71.80774,124.66139
"3974",71.88342,124.67473
"3975",72.00305,124.688065
"3976",72.15442,124.7014
"3977",72.32288,124.71474
"3978",72.48402,124.72807
"3979",72.62806,124.74141
"3980",72.75258,124.754745
"3981",72.83559,124.76808
"3982",72.87709,124.78142
"3983",72.87709,124.794754
"3984",72.850235,124.80809
"3985",72.8307,124.82143
"3986",72.91615,124.83476
"3987",73.306786,124.8481
"3988",74.27848,124.861435
"3989",76.07782,124.87477
"3990",78.81712,124.88811
"3991",82.408485,124.90144
"3992",86.53208,124.91478
"3993",90.721596,124.928116
"3994",94.483864,124.94145
"3995",97.43069,124.95479
"3996",99.3399,124.968124
"3997",100.14801,124.98146
"3998",99.92096,124.9948
"3999",98.81987,125.00813
"4000",97.057144,125.02147
"4001",94.86473,125.034805
"4002",92.4477,125.04814
"4003",89.97696,125.06148
"4004",87.55993,125.074814
"4005",85.262535,125.08815
"4006",83.11894,125.10149
"4007",81.17799,125.11482
"4008",79.50561,125.12816
"4009",78.19455,125.141495
"4010",77.32784,125.15483
"4011",76.95186,125.16817
"4012",77.051956,125.1815
"4013",77.540245,125.19484
"4014",78.27268,125.208176
"4015",79.09544,125.22151
"4016",79.85718,125.23485
"4017",80.4358,125.248184
"4018",80.75563,125.26152
"4019",80.782486,125.27486
"4020",80.52369,125.28819
"4021",80.01831,125.30153
"4022",79.31274,125.314865
"4023",78.467995,125.3282
"4024",77.54269,125.34154
"4025",76.5832,125.35487
"4026",75.6408,125.36821
"4027",74.75212,125.381546
"4028",73.94644,125.39488
"4029",73.24086,125.40822
"4030",72.65003,125.421555
"4031",72.16907,125.43489
"4032",71.79309,125.44823
"4033",71.519646,125.46156
"4034",71.33898,125.4749
"4035",71.24132,125.488235
"4036",71.219345,125.50157
"4037",71.26574,125.51491
"4038",71.36828,125.528244
"4039",71.51476,125.54158
"4040",71.6881,125.55492
"4041",71.868774,125.56825
"4042",72.04944,125.58159
"4043",72.21301,125.594925
"4044",72.35462,125.60826
"4045",72.46204,125.6216
"4046",72.52796,125.63493
"4047",72.55726,125.64827
"4048",72.55726,125.661606
"4049",72.57435,125.67494
"4050",72.73792,125.68828
"4051",73.27749,125.701614
"4052",74.46891,125.71495
"4053",76.53437,125.72829
"4054",79.537346,125.74162
"4055",83.31426,125.75496
"4056",87.49157,125.768295
"4057",91.578545,125.78163
"4058",95.08934,125.79497
"4059",97.67727,125.808304
"4060",99.16899,125.82164
"4061",99.54742,125.83498
"4062",98.92485,125.84831
"4063",97.49905,125.86165
"4064",95.49218,125.874985
"4065",93.136185,125.88832
"4066",90.62394,125.90166
"4067",88.10437,125.91499
"4068",85.65804,125.92833
"4069",83.34356,125.941666
"4070",81.22438,125.955
"4071",79.37621,125.96834
"4072",77.88449,125.981674
"4073",76.84444,125.99501
"4074",76.317085,126.00835
"4075",76.30244,126.02168
"4076",76.72968,126.03502
"4077",77.471886,126.048355
"4078",78.37522,126.06169
"4079",79.28344,126.07503
"4080",80.062256,126.08836
"4081",80.61402,126.1017
"4082",80.88258,126.115036
"4083",80.848404,126.12837
"4084",80.52613,126.14171
"4085",79.954834,126.155045
"4086",79.19554,126.16838
"4087",78.30442,126.18172
"4088",77.349815,126.19505
"4089",76.38056,126.20839
"4090",75.44549,126.221725
"4091",74.57877,126.23506
"4092",73.80728,126.2484
"4093",73.13832,126.261734
"4094",72.589,126.27507
"4095",72.16174,126.28841
"4096",71.84924,126.30174
"4097",71.641716,126.31508
"4098",71.534294,126.328415
"4099",71.51476,126.34175
"4100",71.56359,126.35509
"4101",71.67101,126.36842
"4102",71.82239,126.38176
"4103",72.00549,126.395096
"4104",72.200806,126.40843
"4105",72.396126,126.42177
"4106",72.57679,126.435104
"4107",72.73548,126.44844
"4108",72.85512,126.46178
"4109",72.93324,126.47511
"4110",72.96254,126.48845
"4111",72.95766,126.501785
"4112",72.94545,126.51512
"4113",73.01381,126.52846
"4114",73.34585,126.541794
"4115",74.195465,126.55513
"4116",75.80682,126.56847
"4117",78.30198,126.5818
"4118",81.60525,126.59514
"4119",85.42367,126.608475
"4120",89.31777,126.62181
"4121",92.80171,126.63515
"4122",95.49218,126.64848
"4123",97.16945,126.66182
"4124",97.78226,126.675156
"4125",97.394066,126.68849
"4126",96.16846,126.70183
"4127",94.312965,126.715164
"4128",92.03998,126.7285
"4129",89.532616,126.74184
"4130",86.93492,126.75517
"4131",84.349434,126.76851
"4132",81.8616,126.781845
"4133",79.5642,126.79518
"4134",77.58175,126.80852
"4135",76.04852,126.82185
"4136",75.07927,126.83519
"4137",74.74479,126.848526
"4138",75.02312,126.86186
"4139",75.80682,126.8752
"4140",76.912796,126.888535
"4141",78.15549,126.90187
"4142",79.344475,126.91521
"4143",80.33082,126.92854
"4144",81.02174,126.94188
"4145",81.375755,126.955215
"4146",81.392845,126.96855
"4147",81.10231,126.98189
"4148",80.55787,126.995224
"4149",79.82056,127.00856
"4150",78.9514,127.0219
"4151",78.011444,127.03523
"4152",77.051956,127.04857
"4153",76.121765,127.061905
"4154",75.2575,127.07524
"4155",74.486,127.08858
"4156",73.82437,127.10191
"4157",73.27749,127.11525
"4158",72.84535,127.128586
"4159",72.52552,127.14192
"4160",72.32044,127.15526
"4161",72.22278,127.168594
"4162",72.22034,127.18193
"4163",72.29359,127.19527
"4164",72.42054,127.2086
"4165",72.57679,127.22194
"4166",72.73792,127.235275
"4167",72.8893,127.24861
"4168",73.0309,127.26195
"4169",73.15541,127.27528
"4170",73.26772,127.28862
"4171",73.39712,127.301956
"4172",73.63149,127.31529
"4173",74.13199,127.32863
"4174",75.13054,127.341965
"4175",76.83467,127.3553
"4176",79.32006,127.36864
"4177",82.48661,127.38197
"4178",86.04379,127.39531
"4179",89.579,127.408646
"4180",92.662544,127.42198
"4181",94.96971,127.43532
"4182",96.324715,127.448654
"4183",96.69581,127.46199
"4184",96.16113,127.47533
"4185",94.872055,127.48866
"4186",93.02632,127.502
"4187",90.81926,127.515335
"4188",88.40467,127.52867
"4189",85.91196,127.54201
"4190",83.424126,127.55534
"4191",81.02663,127.56868
"4192",78.82689,127.582016
"4193",76.9543,127.59535
"4194",75.54803,127.60869
"4195",74.73014,127.622025
"4196",74.54948,127.63536
"4197",74.97185,127.6487
"4198",75.8703,127.66203
"4199",77.06172,127.67537
"4200",78.35325,127.688705
"4201",79.56176,127.70204
"4202",80.5481,127.71538
"4203",81.22438,127.728714
"4204",81.55886,127.74205
"4205",81.55886,127.75539
"4206",81.25857,127.76872
"4207",80.71168,127.78206
"4208",79.98413,127.795395
"4209",79.13939,127.80873
"4210",78.238495,127.82207
"4211",77.330284,127.8354
"4212",76.456245,127.84874
"4213",75.650566,127.862076
"4214",74.93767,127.87541
"4215",74.32731,127.88875
"4216",73.82437,127.902084
"4217",73.43374,127.91542
"4218",73.15297,127.92876
"4219",72.97475,127.94209
"4220",72.8893,127.95543
"4221",72.884415,127.968765
"4222",72.94545,127.9821
"4223",73.05043,127.99544
"4224",73.179825,128.00877
"4225",73.30923,128.02211
"4226",73.428856,128.03545
"4227",73.53872,128.04878
"4228",73.653465,128.06212
"4229",73.82681,128.07545
"4230",74.19791,128.08879
"4231",74.99382,128.10213
"4232",76.456245,128.11546
"4233",78.74143,128.1288
"4234",81.83475,128.14214
"4235",85.523766,128.15547
"4236",89.43008,128.16881
"4237",93.09468,128.18214
"4238",96.11719,128.19548
"4239",98.231476,128.20882
"4240",99.32281,128.22215
"4241",99.40337,128.23549
"4242",98.58793,128.24883
"4243",97.057144,128.26216
"4244",95.02098,128.2755
"4245",92.679634,128.28883
"4246",90.18692,128.30217
"4247",87.66247,128.3155
"4248",85.18196,128.32884
"4249",82.82109,128.34218
"4250",80.67017,128.35551
"4251",78.8513,128.36885
"4252",77.48409,128.38219
"4253",76.680855,128.39552
"4254",76.473335,128.40886
"4255",76.82979,128.4222
"4256",77.62081,128.43553
"4257",78.67307,128.44887
"4258",79.79614,128.4622
"4259",80.82155,128.47554
"4260",81.617455,128.48888
"4261",82.11063,128.50221
"4262",82.262,128.51555
"4263",82.08133,128.52888
"4264",81.602806,128.54222
"4265",80.89235,128.55556
"4266",80.01343,128.5689
"4267",79.03685,128.58223
"4268",78.02121,128.59557
"4269",77.02754,128.6089
"4270",76.087585,128.62224
"4271",75.23796,128.63557
"4272",74.50065,128.64891
"4273",73.89273,128.66225
"4274",73.41665,128.67558
"4275",73.06996,128.68892
"4276",72.83559,128.70226
"4277",72.71107,128.71559
"4278",72.67689,128.72893
"4279",72.723274,128.74226
"4280",72.82582,128.7556
"4281",72.969864,128.76894
"4282",73.128555,128.78227
"4283",73.28237,128.79561
"4284",73.41665,128.80894
"4285",73.53384,128.82228
"4286",73.651024,128.83562
"4287",73.83658,128.84895
"4288",74.249176,128.86229
"4289",75.13054,128.87563
"4290",76.73701,128.88896
"4291",79.22728,128.9023
"4292",82.57206,128.91563
"4293",86.53208,128.92897
"4294",90.68986,128.9423
"4295",94.554665,128.95564
"4296",97.704124,128.96898
"4297",99.86481,128.98232
"4298",100.93172,128.99565
"4299",100.9366,129.00899
"4300",100.01373,129.02232
"4301",98.36576,129.03566
"4302",96.22217,129.049
"4303",93.80026,129.06233
"4304",91.283134,129.07567
"4305",88.78798,129.089
"4306",86.39292,129.10234
"4307",84.14435,129.11568
"4308",82.10086,129.12901
"4309",80.34791,129.14235
"4310",78.99046,129.15569
"4311",78.118866,129.16902
"4312",77.78195,129.18236
"4313",77.945526,129.1957
"4314",78.502174,129.20903
"4315",79.29565,129.22237
"4316",80.15259,129.2357
"4317",80.91676,129.24904
"4318",81.47097,129.26237
"4319",81.73708,129.27571
"4320",81.688255,129.28905
"4321",81.33181,129.30238
"4322",80.71168,129.31572
"4323",79.87915,129.32906
"4324",78.90013,129.34239
"4325",77.85031,129.35573
"4326",76.790726,129.36906
"4327",75.7702,129.3824
"4328",74.83513,129.39574
"4329",74.00748,129.40907
"4330",73.29702,129.42241
"4331",72.71351,129.43575
"4332",72.256966,129.44908
"4333",71.92493,129.46242
"4334",71.70519,129.47575
"4335",71.59289,129.48909
"4336",71.56603,129.50243
"4337",71.6173,129.51576
"4338",71.72228,129.5291
"4339",71.871216,129.54243
"4340",72.047,129.55577
"4341",72.22766,129.5691
"4342",72.39124,129.58244
"4343",72.52064,129.59578
"4344",72.61097,129.60912
"4345",72.65247,129.62245
"4346",72.66224,129.63579
"4347",72.674446,129.64912
"4348",72.78432,129.66246
"4349",73.196915,129.6758
"4350",74.212555,129.68913
"4351",76.102234,129.70247
"4352",79.00267,129.7158
"4353",82.83086,129.72914
"4354",87.26696,129.74248
"4355",91.8056,129.75581
"4356",95.8999,129.76915
"4357",99.11284,129.78249
"4358",101.188065,129.79582
"4359",102.047455,129.80916
"4360",101.75937,129.8225
"4361",100.51667,129.83583
"4362",98.563515,129.84917
"4363",96.17334,129.8625
"4364",93.58297,129.87584
"4365",90.98772,129.88918
"4366",88.50965,129.90251
"4367",86.204926,129.91585
"4368",84.088196,129.92918
"4369",82.1741,129.94252
"4370",80.516365,129.95586
"4371",79.185776,129.9692
"4372",78.2678,129.98253
"4373",77.81613,129.99586
"4374",77.81125,130.0092
"4375",78.16037,130.02254
"4376",78.72434,130.03587
"4377",79.3518,130.04921
"4378",79.903564,130.06255
"4379",80.2649,130.07588
"4380",80.37476,130.08922
"4381",80.201416,130.10255
"4382",79.75464,130.11589
"4383",79.07347,130.12923
"4384",78.2092,130.14256
"4385",77.225296,130.1559
"4386",76.18524,130.16924
"4387",75.14519,130.18257
"4388",74.16373,130.1959
"4389",73.270164,130.20924
"4390",72.4889,130.22258
"4391",71.82971,130.23592
"4392",71.28527,130.24925
"4393",70.855576,130.26259
"4394",70.53086,130.27592
"4395",70.30381,130.28926
"4396",70.169525,130.3026
"4397",70.11337,130.31593
"4398",70.12314,130.32927
"4399",70.18906,130.3426
"4400",70.29893,130.35594
"4401",70.44785,130.36928
"4402",70.623634,130.38261
"4403",70.818954,130.39595
"4404",71.0338,130.40929
"4405",71.25353,130.42262
"4406",71.46105,130.43596
"4407",71.64416,130.4493
"4408",71.79797,130.46263
"4409",71.90784,130.47597
"4410",71.9762,130.4893
"4411",72.00061,130.50264
"4412",71.98352,130.51598
"4413",71.93469,130.52931
"4414",71.86389,130.54265
"4415",71.82483,130.55598
"4416",71.96399,130.56932
"4417",72.54505,130.58266
"4418",73.92203,130.596
"4419",76.37324,130.60933
"4420",79.97681,130.62267
"4421",84.53498,130.636
"4422",89.59853,130.64934
"4423",94.56199,130.66267
"4424",98.846725,130.67601
"4425",102.030365,130.68935
"4426",103.9176,130.70268
"4427",104.49622,130.71602
"4428",103.89075,130.72935
"4429",102.32578,130.74269
"4430",100.09186,130.75603
"4431",97.47219,130.76936
"4432",94.728004,130.7827
"4433",92.04486,130.79604
"4434",89.5375,130.80937
"4435",87.235214,130.82271
"4436",85.138016,130.83604
"4437",83.250786,130.84938
"4438",81.59792,130.86272
"4439",80.25025,130.87605
"4440",79.27856,130.88939
"4441",78.73655,130.90273
"4442",78.607155,130.91606
"4443",78.8098,130.9294
"4444",79.217514,130.94273
"4445",79.693596,130.95607
"4446",80.10864,130.9694
"4447",80.35767,130.98274
"4448",80.38209,130.99608
"4449",80.15015,131.00941
"4450",79.66674,131.02275
"4451",78.96849,131.03609
"4452",78.10666,131.04942
"4453",77.14473,131.06276
"4454",76.12909,131.0761
"4455",75.11833,131.08943
"4456",74.14908,131.10277
"4457",73.25796,131.1161
"4458",72.46693,131.12944
"4459",71.79309,131.14278
"4460",71.24132,131.15611
"4461",70.804306,131.16945
"4462",70.47471,131.18279
"4463",70.23544,131.19612
"4464",70.081635,131.20946
"4465",70.00351,131.2228
"4466",69.9913,131.23613
"4467",70.03769,131.24947
"4468",70.13779,131.2628
"4469",70.279396,131.27614
"4470",70.44785,131.28947
"4471",70.63096,131.30281
"4472",70.82628,131.31615
"4473",71.02159,131.32948
"4474",71.21446,131.34282
"4475",71.40734,131.35616
"4476",71.59045,131.36949
"4477",71.75403,131.38283
"4478",71.89563,131.39616
"4479",72.00549,131.4095
"4480",72.076294,131.42284
"4481",72.11047,131.43617
"4482",72.10559,131.44951
"4483",72.06409,131.46284
"4484",71.99573,131.47618
"4485",71.905396,131.48952
"4486",71.81506,131.50285
"4487",71.783325,131.51619
"4488",71.96155,131.52953
"4489",72.6305,131.54286
"4490",74.13931,131.5562
"4491",76.756546,131.56953
"4492",80.51881,131.58287
"4493",85.186844,131.5962
"4494",90.284584,131.60954
"4495",95.19432,131.62288
"4496",99.34478,131.63622
"4497",102.35264,131.64955
"4498",104.059204,131.66289
"4499",104.47669,131.67622
"4500",103.73449,131.68956
"4501",102.0499,131.7029
"4502",99.698784,131.71623
"4503",96.94728,131.72957
"4504",94.032196,131.7429
"4505",91.124435,131.75624
"4506",88.35096,131.76958
"4507",85.767914,131.78291
"4508",83.421684,131.79625
"4509",81.37087,131.80959
"4510",79.69848,131.82292
"4511",78.4802,131.83626
