"","ppg","time"
"1",76.90547,63.345627
"2",76.58564,63.358955
"3",75.95575,63.372284
"4",75.0573,63.38562
"5",73.94644,63.398956
"6",72.69886,63.412285
"7",71.38293,63.425613
"8",70.05234,63.43895
"9",68.76326,63.452286
"10",67.562065,63.465614
"11",66.4683,63.478943
"12",65.50149,63.49228
"13",64.66407,63.505615
"14",63.96582,63.518944
"15",63.409172,63.532272
"16",62.989243,63.54561
"17",62.706036,63.558945
"18",62.5449,63.572273
"19",62.486305,63.5856
"20",62.503395,63.598938
"21",62.58396,63.612274
"22",62.740215,63.625603
"23",63.057602,63.63893
"24",63.758297,63.652267
"25",65.23537,63.665604
"26",67.90631,63.678932
"27",71.973755,63.69226
"28",77.25216,63.705597
"29",83.20195,63.718933
"30",89.06874,63.73226
"31",94.10544,63.74559
"32",97.82376,63.758926
"33",100.11139,63.772263
"34",101.11238,63.78559
"35",101.04646,63.79892
"36",100.11627,63.812256
"37",98.50248,63.825592
"38",96.34913,63.83892
"39",93.78317,63.85225
"40",90.90471,63.865585
"41",87.80652,63.87892
"42",84.55451,63.89225
"43",81.25613,63.90558
"44",78.0676,63.918915
"45",75.1989,63.93225
"46",72.886856,63.94558
"47",71.37316,63.958908
"48",70.801865,63.972244
"49",71.16319,63.98558
"50",72.30335,63.99891
"51",73.95865,64.01224
"52",75.809265,64.02557
"53",77.54757,64.03891
"54",78.97093,64.05224
"55",79.9646,64.06557
"56",80.51392,64.0789
"57",80.66529,64.09224
"58",80.48707,64.10557
"59",80.05005,64.1189
"60",79.41039,64.13223
"61",78.61204,64.14557
"62",77.68185,64.1589
"63",76.63691,64.172226
"64",75.50652,64.18556
"65",74.31266,64.1989
"66",73.07973,64.21223
"67",71.82727,64.225555
"68",70.57725,64.23889
"69",69.33944,64.25223
"70",68.140686,64.26556
"71",67.00542,64.278885
"72",65.97513,64.29222
"73",65.10353,64.30556
"74",64.43458,64.318886
"75",64.00244,64.332214
"76",63.802242,64.34555
"77",63.79736,64.35889
"78",63.956055,64.372215
"79",64.28321,64.385544
"80",64.93263,64.39888
"81",66.229034,64.41222
"82",68.58015,64.425545
"83",72.24719,64.43887
"84",77.16182,64.45221
"85",82.89189,64.465546
"86",88.76601,64.478874
"87",94.05417,64.4922
"88",98.21683,64.50554
"89",101.02693,64.518875
"90",102.53574,64.5322
"91",102.91173,64.54553
"92",102.37461,64.55887
"93",101.119705,64.572205
"94",99.32281,64.58553
"95",97.1133,64.59886
"96",94.58152,64.6122
"97",91.78363,64.625534
"98",88.77577,64.63886
"99",85.65804,64.65219
"100",82.598915,64.66553
"101",79.79614,64.67886
"102",77.44991,64.69219
"103",75.73113,64.70552
"104",74.75212,64.71886
"105",74.54459,64.73219
"106",75.05974,64.74552
"107",76.16327,64.75885
"108",77.60616,64.77219
"109",79.11742,64.78552
"110",80.45289,64.79885
"111",81.42214,64.81218
"112",81.90555,64.825516
"113",81.89334,64.83885
"114",81.45632,64.85218
"115",80.67994,64.86551
"116",79.64965,64.878845
"117",78.46311,64.89218
"118",77.222855,64.90551
"119",75.96307,64.91884
"120",74.72526,64.932175
"121",73.54604,64.94551
"122",72.47425,64.95884
"123",71.519646,64.97217
"124",70.68223,64.985504
"125",69.91806,64.99884
"126",69.18318,65.01217
"127",68.45319,65.0255
"128",67.77203,65.03883
"129",67.24956,65.05217
"130",66.981,65.0655
"131",67.04692,65.07883
"132",67.48638,65.09216
"133",68.27253,65.1055
"134",69.297935,65.11883
"135",70.42588,65.13216
"136",71.553825,65.14549
"137",72.69886,65.15883
"138",74.03189,65.17216
"139",75.87274,65.185486
"140",78.52415,65.19882
"141",82.07645,65.21216
"142",86.33189,65.22549
"143",90.83879,65.238815
"144",95.0576,65.25215
"145",98.512245,65.26549
"146",100.9366,65.27882
"147",102.259865,65.292145
"148",102.55039,65.30548
"149",101.94003,65.31882
"150",100.60212,65.332146
"151",98.722206,65.345474
"152",96.47364,65.35881
"153",93.97604,65.37215
"154",91.29778,65.385475
"155",88.465706,65.3988
"156",85.53109,65.41214
"157",82.60136,65.425476
"158",79.84741,65.438805
"159",77.47677,65.45213
"160",75.6701,65.46547
"161",74.527504,65.478806
"162",74.04898,65.492134
"163",74.13443,65.50546
"164",74.62516,65.5188
"165",75.34783,65.532135
"166",76.138855,65.54546
"167",76.87129,65.55879
"168",77.45968,65.57213
"169",77.86008,65.585464
"170",78.06271,65.59879
"171",78.08957,65.61212
"172",77.97238,65.62546
"173",77.7673,65.638794
"174",77.523155,65.65212
"175",77.27169,65.66545
"176",77.032425,65.67879
"177",76.80293,65.69212
"178",76.57099,65.70545
"179",76.29023,65.71878
"180",75.90936,65.73212
"181",75.37713,65.74545
"182",74.67399,65.75878
"183",73.78775,65.77211
"184",72.73792,65.785446
"185",71.553825,65.79878
"186",70.28672,65.81211
"187",68.99031,65.82544
"188",67.73052,65.838776
"189",66.5684,65.85211
"190",65.550316,65.86544
"191",64.71046,65.87877
"192",64.14404,65.892105
"193",64.095215,65.90544
"194",64.9424,65.91877
"195",67.0518,65.9321
"196",70.55039,65.945435
"197",75.21355,65.95877
"198",80.49439,65.9721
"199",85.68246,65.98543
"200",90.125885,65.998764
"201",93.436485,66.0121
"202",95.519035,66.02543
"203",96.49073,66.03876
"204",96.542,66.05209
"205",95.87305,66.06543
"206",94.64988,66.07876
"207",92.98726,66.09209
"208",90.94621,66.10542
"209",88.551155,66.11876
"210",85.82895,66.13209
"211",82.85771,66.14542
"212",79.79614,66.15875
"213",76.876175,66.17209
"214",74.34928,66.18542
"215",72.44984,66.198746
"216",71.35363,66.21208
"217",71.11192,66.22542
"218",71.66369,66.23875
"219",72.82338,66.252075
"220",74.33219,66.26541
"221",75.911804,66.27875
"222",77.33517,66.292076
"223",78.44358,66.305405
"224",79.183334,66.31874
"225",79.55688,66.33208
"226",79.61547,66.345406
"227",79.42504,66.358734
"228",79.044174,66.37207
"229",78.51682,66.38541
"230",77.88205,66.398735
"231",77.17403,66.41206
"232",76.42939,66.4254
"233",75.684746,66.438736
"234",74.98161,66.452065
"235",74.354164,66.46539
"236",73.81705,66.47873
"237",73.38003,66.492065
"238",73.0309,66.505394
"239",72.73792,66.51872
"240",72.44984,66.53206
"241",72.130005,66.545395
"242",71.75891,66.55872
"243",71.34875,66.57205
"244",70.92882,66.58539
"245",70.61143,66.598724
"246",70.61875,66.61205
"247",71.26574,66.62538
"248",72.87709,66.63872
"249",75.63348,66.652054
"250",79.47143,66.66538
"251",84.051575,66.67871
"252",88.84413,66.69205
"253",93.27535,66.70538
"254",96.89113,66.71871
"255",99.44244,66.73204
"256",100.87312,66.74538
"257",101.22713,66.75871
"258",100.628975,66.77204
"259",99.23735,66.78537
"260",97.2256,66.798706
"261",94.75731,66.81204
"262",91.966736,66.82537
"263",88.97841,66.8387
"264",85.90219,66.852036
"265",82.865036,66.86537
"266",80.028076,66.8787
"267",77.557335,66.89203
"268",75.613945,66.905365
"269",74.305336,66.9187
"270",73.68032,66.93203
"271",73.69741,66.94536
"272",74.229645,66.958694
"273",75.10857,66.97203
"274",76.14374,66.98536
"275",77.16182,66.99869
"276",78.03342,67.012024
"277",78.67307,67.02536
"278",79.03441,67.03869
"279",79.11253,67.05202
"280",78.91966,67.06535
"281",78.4802,67.07869
"282",77.83566,67.09202
"283",77.03731,67.10535
"284",76.1413,67.11868
"285",75.1989,67.13202
"286",74.25651,67.14535
"287",73.35561,67.158676
"288",72.51087,67.17201
"289",71.727165,67.18535
"290",71.00694,67.19868
"291",70.33799,67.212006
"292",69.7203,67.22534
"293",69.14656,67.23868
"294",68.61921,67.25201
"295",68.155334,67.265335
"296",67.79645,67.27867
"297",67.61089,67.29201
"298",67.754944,67.305336
"299",68.48005,67.318665
"300",70.0621,67.332
"301",72.64759,67.34534
"302",76.173035,67.358665
"303",80.34791,67.371994
"304",84.71076,67.38533
"305",88.74647,67.39867
"306",92.04242,67.411995
"307",94.37888,67.42532
"308",95.70702,67.43866
"309",96.08545,67.451996
"310",95.63134,67.465324
"311",94.49363,67.47865
"312",92.81636,67.49199
"313",90.73136,67.505325
"314",88.343636,67.518654
"315",85.74349,67.53198
"316",83.0164,67.54532
"317",80.26978,67.558655
"318",77.65011,67.57198
"319",75.32342,67.58531
"320",73.45571,67.59865
"321",72.17883,67.611984
"322",71.551384,67.62531
"323",71.54406,67.63864
"324",72.044556,67.65198
"325",72.89174,67.66531
"326",73.9025,67.67864
"327",74.90105,67.69197
"328",75.755554,67.70531
"329",76.387886,67.71864
"330",76.76387,67.73197
"331",76.88106,67.7453
"332",76.76875,67.75864
"333",76.46357,67.77197
"334",76.00946,67.7853
"335",75.44549,67.79863
"336",74.80827,67.811966
"337",74.13443,67.8253
"338",73.445946,67.83863
"339",72.764786,67.85196
"340",72.11536,67.865295
"341",71.505,67.87863
"342",70.94347,67.89196
"343",70.43076,67.90529
"344",69.962006,67.918625
"345",69.539635,67.93196
"346",69.16365,67.94529
"347",68.84871,67.95862
"348",68.63386,67.971954
"349",68.59968,67.98529
"350",68.912186,67.99862
"351",69.8082,68.01195
"352",71.49767,68.02528
"353",74.05386,68.03862
"354",77.34493,68.05195
"355",81.05348,68.06528
"356",84.75227,68.07861
"357",88.026245,68.09195
"358",90.582436,68.10528
"359",92.301216,68.11861
"360",93.19722,68.13194
"361",93.34371,68.14528
"362",92.8481,68.15861
"363",91.8349,68.171936
"364",90.41398,68.18527
"365",88.690315,68.19861
"366",86.73716,68.21194
"367",84.627754,68.225266
"368",82.45487,68.2386
"369",80.323494,68.25194
"370",78.36057,68.26527
"371",76.697945,68.278595
"372",75.45281,68.29193
"373",74.703285,68.30527
"374",74.46891,68.318596
"375",74.69352,68.331924
"376",75.267265,68.34526
"377",76.04852,68.3586
"378",76.8835,68.371925
"379",77.63546,68.385254
"380",78.21164,68.39859
"381",78.57053,68.41193
"382",78.69749,68.425255
"383",78.61448,68.43858
"384",78.35325,68.45192
"385",77.960175,68.465256
"386",77.46212,68.478584
"387",76.893265,68.49191
"388",76.28535,68.50525
"389",75.66033,68.518585
"390",75.04997,68.53191
"391",74.476234,68.54524
"392",73.96597,68.55858
"393",73.52895,68.571915
"394",73.162735,68.58524
"395",72.85268,68.59857
"396",72.58167,68.61191
"397",72.34486,68.625244
"398",72.147095,68.63857
"399",72.0177,68.6519
"400",72.042114,68.66524
"401",72.393684,68.67857
"402",73.29458,68.6919
"403",74.93034,68.70523
"404",77.34005,68.71857
"405",80.38697,68.7319
"406",83.758606,68.74523
"407",87.047226,68.75856
"408",89.86221,68.7719
"409",91.96185,68.78523
"410",93.24849,68.79856
"411",93.753876,68.81189
"412",93.57076,68.825226
"413",92.83833,68.83856
"414",91.683525,68.85189
"415",90.23575,68.86522
"416",88.5951,68.878555
"417",86.83482,68.89189
"418",85.00862,68.90522
"419",83.17998,68.91855
"420",81.4197,68.931885
"421",79.80591,68.94522
"422",78.450905,68.95855
"423",77.454796,68.97188
"424",76.8835,68.985214
"425",76.74677,68.99855
"426",76.99092,69.01188
"427",77.50851,69.02521
"428",78.17258,69.03854
"429",78.8513,69.05188
"430",79.43481,69.06521
"431",79.85474,69.07854
"432",80.07202,69.09187
"433",80.076904,69.10521
"434",79.888916,69.11854
"435",79.54467,69.13187
"436",79.080795,69.1452
"437",78.538795,69.15854
"438",77.962616,69.17187
"439",77.37667,69.185196
"440",76.805374,69.19853
"441",76.265816,69.21187
"442",75.76776,69.2252
"443",75.3283,69.238525
"444",74.94255,69.25186
"445",74.617836,69.2652
"446",74.34196,69.27853
"447",74.11246,69.291855
"448",73.919586,69.30519
"449",73.760895,69.31853
"450",73.636375,69.331856
"451",73.602196,69.345184
"452",73.77066,69.35852
"453",74.354164,69.37186
"454",75.57244,69.385185
"455",77.55978,69.39851
"456",80.2649,69.41185
"457",83.45342,69.425186
"458",86.751816,69.438515
"459",89.74502,69.45184
"460",92.11078,69.46518
"461",93.69039,69.478516
"462",94.469215,69.491844
"463",94.52293,69.50517
"464",93.98093,69.51851
"465",92.9897,69.531845
"466",91.69329,69.54517
"467",90.2211,69.5585
"468",88.65858,69.57184
"469",87.05943,69.585175
"470",85.45541,69.5985
"471",83.87579,69.61183
"472",82.36454,69.62517
"473",80.990005,69.638504
"474",79.83032,69.65183
"475",78.975815,69.66516
"476",78.467995,69.6785
"477",78.311745,69.69183
"478",78.46067,69.70516
"479",78.82201,69.71849
"480",79.276115,69.73183
"481",79.71801,69.74516
"482",80.05493,69.75849
"483",80.22095,69.77182
"484",80.19165,69.78516
"485",79.97925,69.79849
"486",79.603264,69.81182
"487",79.10521,69.82515
"488",78.52415,69.838486
"489",77.90402,69.85182
"490",77.27657,69.86515
"491",76.663765,69.87848
"492",76.087585,69.891815
"493",75.56512,69.90515
"494",75.10124,69.91848
"495",74.703285,69.93181
"496",74.373695,69.945145
"497",74.107574,69.95848
"498",73.89029,69.97181
"499",73.71938,69.98514
"500",73.57778,69.998474
"501",73.45571,70.01181
"502",73.35073,70.02514
"503",73.26284,70.03847
"504",73.18959,70.0518
"505",73.13832,70.06514
"506",73.13832,70.07847
"507",73.27505,70.0918
"508",73.721825,70.10513
"509",74.70573,70.11847
"510",76.387886,70.1318
"511",78.80003,70.14513
"512",81.76883,70.15846
"513",84.964676,70.1718
"514",87.97986,70.18513
"515",90.457924,70.198456
"516",92.1889,70.21179
"517",93.12642,70.22513
"518",93.33395,70.23846
"519",92.93843,70.251785
"520",92.09125,70.26512
"521",90.94377,70.27846
"522",89.62295,70.29179
"523",88.24353,70.305115
"524",86.87877,70.31845
"525",85.54818,70.33179
"526",84.25666,70.345116
"527",83.01152,70.358444
"528",81.82742,70.37178
"529",80.73853,70.38512
"530",79.81079,70.398445
"531",79.10277,70.41177
"532",78.64866,70.42511
"533",78.44602,70.438446
"534",78.45823,70.451775
"535",78.61692,70.4651
"536",78.83421,70.47844
"537",79.03929,70.491776
"538",79.15892,70.505104
"539",79.14427,70.51843
"540",78.98314,70.53177
"541",78.68528,70.545105
"542",78.27024,70.55843
"543",77.769745,70.57176
"544",77.22041,70.5851
"545",76.654,70.598434
"546",76.09979,70.61176
"547",75.577324,70.62509
"548",75.09636,70.63843
"549",74.66178,70.651764
"550",74.2736,70.66509
"551",73.93179,70.67842
"552",73.63882,70.69176
"553",73.392235,70.70509
"554",73.196915,70.71842
"555",73.04555,70.73175
"556",72.94301,70.74509
"557",72.87709,70.75842
"558",72.84779,70.77175
"559",72.84779,70.78508
"560",72.86977,70.798416
"561",72.90639,70.81175
"562",72.952774,70.82508
"563",73.0016,70.83841
"564",73.04799,70.851746
"565",73.08705,70.86508
"566",73.111465,70.87841
"567",73.109024,70.89174
"568",73.08217,70.905075
"569",73.03578,70.91841
"570",72.98207,70.93174
"571",72.96498,70.94507
"572",73.074844,70.958405
"573",73.480125,70.97174
"574",74.40055,70.98507
"575",75.98505,70.9984
"576",78.25315,71.011734
"577",81.02907,71.02507
"578",83.99298,71.0384
"579",86.7396,71.05173
"580",88.92958,71.06506
"581",90.36515,71.0784
"582",91.02922,71.09173
"583",91.00481,71.10506
"584",90.443275,71.11839
"585",89.50576,71.13173
"586",88.34852,71.14506
"587",87.098495,71.15839
"588",85.85336,71.17172
"589",84.661934,71.18506
"590",83.54864,71.19839
"591",82.50858,71.211716
"592",81.532005,71.22505
"593",80.61646,71.23839
"594",79.78638,71.25172
"595",79.08568,71.265045
"596",78.56321,71.27838
"597",78.260475,71.29172
"598",78.17258,71.305046
"599",78.27024,71.318375
"600",78.49241,71.33171
"601",78.75609,71.34505
"602",78.992905,71.358376
"603",79.14671,71.371704
"604",79.183334,71.38504
"605",79.08568,71.39838
"606",78.86351,71.411705
"607",78.53147,71.42503
"608",78.12131,71.43837
"609",77.662315,71.451706
"610",77.18623,71.465034
"611",76.71992,71.47836
"612",76.27558,71.4917
"613",75.86542,71.505035
"614",75.494316,71.518364
"615",75.1696,71.53169
"616",74.89372,71.54503
"617",74.666664,71.558365
"618",74.48356,71.57169
"619",74.339516,71.58502
"620",74.23453,71.59836
"621",74.158844,71.611694
"622",74.10513,71.62502
"623",74.073395,71.63835
"624",74.05386,71.65169
"625",74.0441,71.66502
"626",74.0441,71.67835
"627",74.05875,71.69168
"628",74.08804,71.70502
"629",74.12955,71.71835
"630",74.18082,71.73168
"631",74.24185,71.74501
"632",74.30045,71.75835
"633",74.356606,71.77168
"634",74.40543,71.78501
"635",74.42985,71.79834
"636",74.43229,71.811676
"637",74.42008,71.82501
"638",74.39323,71.83834
"639",74.32487,71.85167
"640",74.17349,71.865005
"641",73.934235,71.87834
"642",73.65835,71.89167
"643",73.39956,71.905
"644",73.23842,71.918335
"645",73.34341,71.93167
"646",73.92203,71.945
"647",75.14763,71.95833
"648",77.08858,71.971664
"649",79.68383,71.985
"650",82.68192,71.99833
"651",85.6849,72.01166
"652",88.27772,72.024994
"653",90.160065,72.03833
"654",91.21721,72.05166
"655",91.490654,72.06499
"656",91.11711,72.07832
"657",90.267494,72.09166
"658",89.12001,72.10499
"659",87.82605,72.11832
"660",86.505226,72.13165
"661",85.23079,72.14499
"662",84.03937,72.15832
"663",82.948044,72.171646
"664",81.951935,72.18498
"665",81.06081,72.19832
"666",80.29664,72.21165
"667",79.69604,72.224976
"668",79.29565,72.23831
"669",79.1223,72.25165
"670",79.17113,72.26498
"671",79.41039,72.278305
"672",79.76929,72.29164
"673",80.17456,72.30498
"674",80.54566,72.318306
"675",80.816666,72.331635
"676",80.9485,72.34497
"677",80.93141,72.35831
"678",80.77516,72.371635
"679",80.50904,72.384964
"680",80.17212,72.3983
"681",79.78882,72.41164
"682",79.38354,72.424965
"683",78.9807,72.43829
"684",78.59495,72.45163
"685",78.238495,72.464966
"686",77.925995,72.478294
"687",77.659874,72.49162
"688",77.44503,72.50496
"689",77.27169,72.518295
"690",77.13008,72.531624
"691",77.01289,72.54495
"692",76.910355,72.55829
"693",76.81758,72.571625
"694",76.74189,72.58495
"695",76.68574,72.59828
"696",76.64912,72.61162
"697",76.63691,72.624954
"698",76.646675,72.63828
"699",76.67597,72.65161
"700",76.715034,72.66495
"701",76.75899,72.67828
"702",76.807816,72.69161
"703",76.86397,72.70494
"704",76.92012,72.71828
"705",76.97627,72.73161
"706",77.0251,72.74494
"707",77.06416,72.75827
"708",77.08125,72.77161
"709",77.07149,72.78494
"710",77.04463,72.79827
"711",76.998245,72.8116
"712",76.93721,72.824936
"713",76.87862,72.83827
"714",76.83467,72.8516
"715",76.83711,72.86493
"716",76.96651,72.878265
"717",77.38644,72.8916
"718",78.27268,72.90493
"719",79.742424,72.91826
"720",81.75906,72.931595
"721",84.13458,72.94493
"722",86.54185,72.95826
"723",88.61463,72.97159
"724",90.06973,72.984924
"725",90.794846,72.99826
"726",90.809494,73.01159
"727",90.250404,73.02492
"728",89.28359,73.03825
"729",88.06775,73.05159
"730",86.744484,73.06492
"731",85.4139,73.07825
"732",84.14191,73.09158
"733",82.96025,73.10492
"734",81.883575,73.11825
"735",80.921646,73.13158
"736",80.093994,73.14491
"737",79.432365,73.15825
"738",78.96605,73.17158
"739",78.729225,73.184906
"740",78.72678,73.19824
"741",78.941635,73.21158
"742",79.32494,73.22491
"743",79.801025,73.238235
"744",80.29664,73.25157
"745",80.73121,73.26491
"746",81.0486,73.27824
"747",81.21217,73.291565
"748",81.21706,73.3049
"749",81.07057,73.31824
"750",80.799576,73.331566
"751",80.43824,73.344894
"752",80.02319,73.35823
"753",79.58129,73.37157
"754",79.149155,73.384895
"755",78.74143,73.398224
"756",78.3679,73.41156
"757",78.03342,73.4249
"758",77.738,73.438225
"759",77.47677,73.45155
"760",77.242386,73.46489
"761",77.03487,73.478226
"762",76.85664,73.491554
"763",76.71259,73.50488
"764",76.60761,73.51822
"765",76.53437,73.531555
"766",76.49531,73.54488
"767",76.48798,73.55821
"768",76.50996,73.57155
"769",76.558784,73.584885
"770",76.63447,73.59821
"771",76.72968,73.61154
"772",76.83223,73.62488
"773",76.929886,73.638214
"774",77.02266,73.65154
"775",77.103226,73.66487
"776",77.1667,73.67821
"777",77.21309,73.69154
"778",77.239944,73.70487
"779",77.242386,73.7182
"780",77.21797,73.73154
"781",77.17647,73.74487
"782",77.120316,73.7582
"783",77.06416,73.77153
"784",77.03731,73.78487
"785",77.100784,73.7982
"786",77.38155,73.81153
"787",78.0383,73.82486
"788",79.202866,73.838196
"789",80.88991,73.85153
"790",82.9749,73.86486
"791",85.19661,73.87819
"792",87.22789,73.891525
"793",88.7831,73.90486
"794",89.69131,73.91819
"795",89.933014,73.93152
"796",89.59609,73.944855
"797",88.80995,73.95819
"798",87.728386,73.97152
"799",86.47593,73.98485
"800",85.152664,73.998184
"801",83.82208,74.01152
"802",82.52567,74.02485
"803",81.29519,74.03818
"804",80.16724,74.05151
"805",79.19798,74.06485
"806",78.4387,74.07818
"807",77.943085,74.09151
"808",77.733116,74.10484
"809",77.803925,74.11818
"810",78.116425,74.13151
"811",78.60471,74.14484
"812",79.1931,74.15817
"813",79.80347,74.17151
"814",80.360115,74.18484
"815",80.80446,74.198166
"816",81.0901,74.2115
"817",81.214615,74.22484
"818",81.18288,74.23817
"819",81.02907,74.251495
"820",80.78493,74.26483
"821",80.48463,74.27817
"822",80.15015,74.2915
"823",79.801025,74.304825
"824",79.447014,74.31816
"825",79.10765,74.3315
"826",78.79027,74.344826
"827",78.49729,74.358154
"828",78.23605,74.37149
"829",78.00656,74.38483
"830",77.803925,74.398155
"831",77.63302,74.41148
"832",77.49386,74.42482
"833",77.38644,74.438156
"834",77.313194,74.451485
"835",77.27657,74.46481
"836",77.26681,74.47815
"837",77.279015,74.491486
"838",77.31075,74.504814
"839",77.36202,74.51814
"840",77.43038,74.53148
"841",77.51339,74.544815
"842",77.61593,74.55814
"843",77.72823,74.57147
"844",77.838104,74.58481
"845",77.9382,74.598145
"846",78.01877,74.61147
"847",78.0798,74.6248
"848",78.118866,74.63814
"849",78.1384,74.651474
"850",78.14816,74.6648
"851",78.16037,74.67813
"852",78.21652,74.69147
"853",78.39475,74.7048
"854",78.83177,74.71813
"855",79.67895,74.73146
"856",81.01442,74.7448
"857",82.79912,74.75813
"858",84.86702,74.77146
"859",86.939804,74.78479
"860",88.71717,74.79813
"861",89.97696,74.81146
"862",90.614174,74.82479
"863",90.65324,74.83812
"864",90.18692,74.851456
"865",89.34463,74.86479
"866",88.24841,74.87812
"867",87.010605,74.89145
"868",85.70687,74.904785
"869",84.38117,74.91812
"870",83.070114,74.93145
"871",81.812775,74.94478
"872",80.65797,74.958115
"873",79.66674,74.97145
"874",78.90013,74.98478
"875",78.4094,74.99811
"876",78.21408,75.011444
"877",78.30686,75.02478
"878",78.643776,75.03811
"879",79.151596,75.05144
"880",79.75464,75.06477
"881",80.36744,75.07811
"882",80.919205,75.09144
"883",81.35378,75.10477
"884",81.636986,75.1181
"885",81.76639,75.13144
"886",81.75174,75.14477
"887",81.61013,75.1581
"888",81.3782,75.17143
"889",81.08278,75.18477
"890",80.75319,75.1981
"891",80.40894,75.211426
"892",80.05737,75.22476
"893",79.71313,75.2381
"894",79.37621,75.25143
"895",79.05882,75.264755
"896",78.765854,75.27809
"897",78.49973,75.29143
"898",78.26292,75.304756
"899",78.05295,75.318085
"900",77.86008,75.33142
"901",77.696495,75.34476
"902",77.55245,75.358086
"903",77.43282,75.371414
"904",77.33517,75.38475
"905",77.26925,75.39809
"906",77.225296,75.411415
"907",77.205765,75.42474
"908",77.21065,75.43808
"909",77.23018,75.451416
"910",77.25216,75.464745
"911",77.27169,75.47807
"912",77.28634,75.49141
"913",77.29366,75.504745
"914",77.29366,75.518074
"915",77.315636,75.5314
"916",77.40597,75.54474
"917",77.68917,75.558075
"918",78.31663,75.5714
"919",79.43725,75.58473
"920",81.07301,75.59807
"921",83.13115,75.611404
"922",85.37972,75.62473
"923",87.51354,75.63806
"924",89.24452,75.6514
"925",90.39445,75.664734
"926",90.90959,75.67806
"927",90.83391,75.69139
"928",90.27238,75.70473
"929",89.35439,75.71806
"930",88.20203,75.73139
"931",86.92027,75.74472
"932",85.58236,75.75806
"933",84.23468,75.77139
"934",82.91875,75.78472
"935",81.668724,75.79805
"936",80.53101,75.811386
"937",79.56176,75.82472
"938",78.819565,75.83805
"939",78.34348,75.85138
"940",78.16037,75.864716
"941",78.26536,75.87805
"942",78.61936,75.89138
"943",79.15892,75.90471
"944",79.80591,75.918045
"945",80.46998,75.93138
"946",81.06813,75.94471
"947",81.54177,75.95804
"948",81.8616,75.971375
"949",82.01541,75.98471
"950",82.01541,75.99804
"951",81.88602,76.01137
"952",81.65896,76.024704
"953",81.358665,76.03804
"954",81.004654,76.05137
"955",80.62623,76.0647
"956",80.23804,76.07803
"957",79.84741,76.09137
"958",79.47631,76.1047
"959",79.12962,76.11803
"960",78.80492,76.13136
"961",78.504616,76.1447
"962",78.22873,76.15803
"963",77.97482,76.17136
"964",77.75021,76.18469
"965",77.55978,76.19803
"966",77.40353,76.21136
"967",77.28634,76.224686
"968",77.196,76.23802
"969",77.13252,76.25136
"970",77.09346,76.26469
"971",77.07149,76.278015
"972",77.05928,76.29135
"973",77.04707,76.30469
"974",77.02998,76.318016
"975",76.998245,76.331345
"976",76.9543,76.34468
"977",76.92256,76.35802
"978",76.961624,76.371346
"979",77.18379,76.384674
"980",77.74288,76.39801
"981",78.78294,76.41135
"982",80.360115,76.424675
"983",82.406044,76.438
"984",84.71809,76.45134
"985",87.010605,76.464676
"986",88.990616,76.478004
"987",90.43839,76.49133
"988",91.25872,76.50467
"989",91.456474,76.518005
"990",91.104904,76.531334
"991",90.32853,76.54466
"992",89.24696,76.558
"993",87.97009,76.571335
"994",86.58579,76.58466
"995",85.15755,76.59799
"996",83.734184,76.61133
"997",82.34989,76.624664
"998",81.05104,76.63799
"999",79.8938,76.65132
"1000",78.93919,76.66466
"1001",78.24826,76.67799
"1002",77.86008,76.69132
"1003",77.79416,76.70465
"1004",78.01877,76.71799
"1005",78.470436,76.73132
"1006",79.06859,76.74465
"1007",79.71557,76.75798
"1008",80.325935,76.77132
"1009",80.8362,76.78465
"1010",81.20973,76.79798
"1011",81.43191,76.81131
"1012",81.50759,76.824646
"1013",81.45144,76.83798
"1014",81.290306,76.85131
"1015",81.03639,76.86464
"1016",80.719,76.877975
"1017",80.35523,76.89131
"1018",79.96216,76.90464
"1019",79.55932,76.91797
"1020",79.15404,76.931305
"1021",78.76097,76.94464
"1022",78.38987,76.95797
"1023",78.0383,76.9713
"1024",77.7087,76.984634
"1025",77.40597,76.99797
"1026",77.13252,77.0113
"1027",76.89082,77.02463
"1028",76.68574,77.037964
"1029",76.51728,77.0513
"1030",76.39277,77.06463
"1031",76.30244,77.07796
"1032",76.24628,77.09129
"1033",76.21454,77.10463
"1034",76.20233,77.11796
"1035",76.18768,77.13129
"1036",76.173035,77.14462
"1037",76.15839,77.15796
"1038",76.18524,77.17129
"1039",76.35371,77.184616
"1040",76.82002,77.19795
"1041",77.738,77.21129
"1042",79.1931,77.22462
"1043",81.143814,77.237946
"1044",83.41192,77.25128
"1045",85.72396,77.26462
"1046",87.77722,77.27795
"1047",89.34707,77.291275
"1048",90.31632,77.30461
"1049",90.67521,77.31795
"1050",90.4799,77.331276
"1051",89.83536,77.34461
"1052",88.84657,77.35795
"1053",87.61852,77.371284
"1054",86.2269,77.38462
"1055",84.74738,77.39796
"1056",83.23125,77.41129
"1057",81.74197,77.42463
"1058",80.33814,77.437965
"1059",79.10033,77.4513
"1060",78.09445,77.46464
"1061",77.37911,77.477974
"1062",76.995804,77.49131
"1063",76.9543,77.50465
"1064",77.21309,77.51798
"1065",77.7087,77.53132
"1066",78.35081,77.544655
"1067",79.044174,77.55799
"1068",79.70336,77.57133
"1069",80.272224,77.58466
"1070",80.719,77.598
"1071",81.0193,77.611336
"1072",81.17555,77.62467
"1073",81.1902,77.63801
"1074",81.077896,77.651344
"1075",80.86061,77.66468
"1076",80.57252,77.67802
"1077",80.235596,77.69135
"1078",79.869385,77.70469
"1079",79.48852,77.718025
"1080",79.10521,77.73136
"1081",78.71702,77.7447
"1082",78.3386,77.75803
"1083",77.98215,77.77137
"1084",77.65499,77.784706
"1085",77.3547,77.79804
"1086",77.086136,77.81138
"1087",76.84688,77.824715
"1088",76.629585,77.83805
"1089",76.43427,77.85139
"1090",76.25361,77.86472
"1091",76.09491,77.87806
"1092",75.965515,77.891396
"1093",75.8996,77.90473
"1094",75.97772,77.91807
"1095",76.3415,77.931404
"1096",77.14473,77.94474
"1097",78.502174,77.95808
"1098",80.42359,77.97141
"1099",82.78447,77.98475
"1100",85.33822,77.998085
"1101",87.784546,78.01142
"1102",89.84024,78.02476
"1103",91.3222,78.03809
"1104",92.1474,78.05143
"1105",92.32319,78.064766
"1106",91.92035,78.0781
"1107",91.053635,78.09144
"1108",89.830475,78.104774
"1109",88.360725,78.11811
"1110",86.73472,78.13145
"1111",85.030594,78.14478
"1112",83.3167,78.15812
"1113",81.668724,78.171455
"1114",80.177,78.18479
"1115",78.93187,78.19813
"1116",78.011444,78.211464
"1117",77.469444,78.2248
"1118",77.31075,78.23814
"1119",77.506065,78.25147
"1120",77.98215,78.26481
"1121",78.63645,78.278145
"1122",79.36889,78.29148
"1123",80.079346,78.30482
"1124",80.69215,78.31815
"1125",81.15846,78.33149
"1126",81.45388,78.344826
"1127",81.56863,78.35816
"1128",81.5198,78.3715
"1129",81.33425,78.384834
"1130",81.03639,78.39817
"1131",80.655525,78.41151
"1132",80.22095,78.42484
"1133",79.75464,78.43818
"1134",79.27123,78.451515
"1135",78.78783,78.46485
"1136",78.3093,78.47819
"1137",77.85275,78.49152
"1138",77.4255,78.50486
"1139",77.03487,78.518196
"1140",76.68574,78.53153
"1141",76.38056,78.54487
"1142",76.10956,78.558205
"1143",75.87274,78.57154
"1144",75.667656,78.58488
"1145",75.50408,78.59821
"1146",75.43328,78.61155
"1147",75.57244,78.624886
"1148",76.121765,78.63822
"1149",77.2839,78.65156
"1150",79.183334,78.664894
"1151",81.795685,78.67823
"1152",84.92561,78.69157
"1153",88.23865,78.7049
"1154",91.34905,78.71824
"1155",93.924774,78.731575
"1156",95.75098,78.74491
"1157",96.73975,78.75825
"1158",96.9131,78.77158
"1159",96.35645,78.78492
"1160",95.221176,78.798256
"1161",93.66842,78.81159
"1162",91.84955,78.82493
"1163",89.8793,78.838264
"1164",87.850464,78.8516
"1165",85.83139,78.86494
"1166",83.89044,78.87827
"1167",82.108185,78.89161
"1168",80.58228,78.904945
"1169",79.40551,78.91828
"1170",78.641335,78.93162
"1171",78.314186,78.944954
"1172",78.38499,78.95829
"1173",78.77562,78.97163
"1174",79.37377,78.98496
"1175",80.05737,78.9983
"1176",80.71412,79.011635
"1177",81.25857,79.02497
"1178",81.62966,79.03831
"1179",81.795685,79.05164
"1180",81.75662,79.06498
"1181",81.52712,79.078316
"1182",81.13893,79.09165
"1183",80.618904,79.10499
"1184",80.01099,79.118324
"1185",79.3518,79.13166
"1186",78.675514,79.145
"1187",78.009,79.15833
"1188",77.37667,79.17167
"1189",76.78096,79.185005
"1190",76.23407,79.19834
"1191",75.733574,79.21168
"1192",75.2868,79.22501
"1193",74.898605,79.23835
"1194",74.56168,79.251686
"1195",74.27604,79.26502
"1196",74.02945,79.27836
"1197",73.82193,79.291695
"1198",73.653465,79.30503
"1199",73.56069,79.31837
"1200",73.63149,79.3317
"1201",74.056305,79.34504
"1202",75.06462,79.358376
"1203",76.86153,79.37171
"1204",79.5227,79.38505
"1205",82.94072,79.398384
"1206",86.8275,79.41172
"1207",90.76799,79.42506
"1208",94.32517,79.43839
"1209",97.15236,79.45173
"1210",99.037155,79.465065
"1211",99.913635,79.4784
"1212",99.828186,79.49174
"1213",98.932175,79.50507
"1214",97.42336,79.51841
"1215",95.501945,79.531746
"1216",93.34371,79.54508
"1217",91.087814,79.55842
"1218",88.82216,79.571754
"1219",86.61509,79.58509
"1220",84.51545,79.59843
"1221",82.58671,79.61176
"1222",80.90456,79.6251
"1223",79.53979,79.638435
"1224",78.55833,79.65177
"1225",77.99191,79.66511
"1226",77.821014,79.678444
"1227",77.98459,79.69178
"1228",78.382545,79.70512
"1229",78.89525,79.71845
"1230",79.40551,79.73179
"1231",79.815674,79.745125
"1232",80.05249,79.75846
"1233",80.076904,79.7718
"1234",79.87915,79.78513
"1235",79.47631,79.79847
"1236",78.905014,79.811806
"1237",78.21164,79.82514
"1238",77.44503,79.83848
"1239",76.64912,79.851814
"1240",75.862976,79.86515
"1241",75.11345,79.87849
"1242",74.41764,79.89182
"1243",73.78775,79.90516
"1244",73.22621,79.918495
"1245",72.73304,79.93183
"1246",72.30579,79.94517
"1247",71.94446,79.9585
"1248",71.641716,79.97184
"1249",71.395134,79.985176
"1250",71.19737,79.99851
"1251",71.03868,80.01185
"1252",70.90929,80.025185
"1253",70.82628,80.03852
"1254",70.81163,80.05186
"1255",70.97276,80.06519
"1256",71.48791,80.07853
"1257",72.60853,80.091866
"1258",74.54215,80.1052
"1259",77.36935,80.11854
"1260",80.972916,80.131874
"1261",85.04768,80.14521
"1262",89.129776,80.15855
"1263",92.75044,80.17188
"1264",95.54101,80.18522
"1265",97.29885,80.198555
"1266",97.97757,80.21189
"1267",97.669945,80.22523
"1268",96.55421,80.23856
"1269",94.86961,80.2519
"1270",92.823685,80.265236
"1271",90.60929,80.27857
"1272",88.358284,80.29191
"1273",86.15854,80.305244
"1274",84.054016,80.31858
"1275",82.08865,80.33192
"1276",80.306404,80.34525
"1277",78.77562,80.35859
"1278",77.574425,80.371925
"1279",76.76387,80.38526
"1280",76.36591,80.3986
"1281",76.35615,80.411934
"1282",76.65644,80.42527
"1283",77.15938,80.43861
"1284",77.738,80.45194
"1285",78.277565,80.46528
"1286",78.68284,80.478615
"1287",78.88548,80.49195
"1288",78.84886,80.50529
"1289",78.572975,80.51862
"1290",78.08713,80.53196
"1291",77.435265,80.545296
"1292",76.66132,80.55863
"1293",75.82147,80.57197
"1294",74.97673,80.585304
"1295",74.158844,80.59864
"1296",73.402,80.61198
"1297",72.72816,80.62531
"1298",72.15442,80.63865
"1299",71.67101,80.651985
"1300",71.27795,80.66532
"1301",70.963,80.67866
"1302",70.72373,80.69199
"1303",70.54551,80.70533
"1304",70.416115,80.718666
"1305",70.32578,80.732
"1306",70.26963,80.74534
"1307",70.23544,80.758675
"1308",70.21835,80.77201
"1309",70.22812,80.78535
"1310",70.30869,80.79868
"1311",70.57481,80.81202
"1312",71.22667,80.825356
"1313",72.498665,80.83869
"1314",74.57145,80.85203
"1315",77.48409,80.865364
"1316",81.0901,80.8787
"1317",85.04036,80.89204
"1318",88.87587,80.90537
"1319",92.157166,80.91871
"1320",94.55222,80.932045
"1321",95.90234,80.94538
"1322",96.200195,80.95872
"1323",95.57519,80.97205
"1324",94.23239,80.98539
"1325",92.41352,80.998726
"1326",90.32853,81.01206
"1327",88.148315,81.0254
"1328",85.98276,81.038734
"1329",83.888,81.05207
"1330",81.898224,81.06541
"1331",80.05493,81.07874
"1332",78.42405,81.09208
"1333",77.09346,81.105415
"1334",76.138855,81.11875
"1335",75.613945,81.13209
"1336",75.51629,81.145424
"1337",75.78241,81.15876
"1338",76.297554,81.1721
"1339",76.93233,81.18543
"1340",77.55489,81.19877
"1341",78.05539,81.212105
"1342",78.348366,81.22544
"1343",78.399635,81.23878
"1344",78.2092,81.25211
"1345",77.806366,81.26545
"1346",77.239944,81.278786
"1347",76.56611,81.29212
"1348",75.82391,81.30546
"1349",75.05974,81.318794
"1350",74.30045,81.33213
"1351",73.5729,81.34547
"1352",72.901505,81.3588
"1353",72.31312,81.37214
"1354",71.82239,81.385475
"1355",71.431755,81.39881
"1356",71.14122,81.41215
"1357",70.93614,81.42548
"1358",70.80675,81.43882
"1359",70.74326,81.452156
"1360",70.7335,81.46549
"1361",70.77501,81.47883
"1362",70.85802,81.492165
"1363",70.96788,81.5055
"1364",71.09483,81.51884
"1365",71.22423,81.53217
"1366",71.343864,81.54551
"1367",71.44396,81.558846
"1368",71.52697,81.57218
"1369",71.6173,81.58552
"1370",71.78577,81.598854
"1371",72.198364,81.61219
"1372",73.08705,81.62553
"1373",74.686195,81.63886
"1374",77.137405,81.6522
"1375",80.41627,81.665535
"1376",84.29328,81.67887
"1377",88.36317,81.69221
"1378",92.1474,81.70554
"1379",95.221176,81.71888
"1380",97.306175,81.732216
"1381",98.29496,81.74555
"1382",98.24368,81.75889
"1383",97.323265,81.772224
"1384",95.76807,81.78556
"1385",93.81979,81.7989
"1386",91.68841,81.81223
"1387",89.51797,81.82557
"1388",87.39147,81.838905
"1389",85.34066,81.85224
"1390",83.39727,81.86558
"1391",81.59548,81.878914
"1392",80.01343,81.89225
"1393",78.74143,81.90559
"1394",77.874725,81.91892
"1395",77.44503,81.93226
"1396",77.4255,81.945595
"1397",78.25315,81.97227
"1398",78.839096,81.9856
"1399",79.364006,81.99894
"1400",79.73266,82.012276
"1401",79.87915,82.02561
"1402",79.783936,82.03895
"1403",79.44457,82.052284
"1404",78.90257,82.06562
"1405",78.20187,82.07896
"1406",77.40353,82.09229
"1407",76.561226,82.10563
"1408",75.72625,82.118965
"1409",74.932785,82.1323
"1410",74.20279,82.14564
"1411",73.55825,82.15897
"1412",73.00404,82.17231
"1413",72.54749,82.185646
"1414",72.18616,82.19898
"1415",71.920044,82.21232
"1416",71.7467,82.225655
"1417",71.656364,82.23899
"1418",71.641716,82.25233
"1419",71.6881,82.26566
"1420",71.78088,82.279
"1421",71.91028,82.292336
"1422",72.05432,82.30567
"1423",72.20569,82.31901
"1424",72.35218,82.332344
"1425",72.48402,82.34568
"1426",72.59632,82.35902
"1427",72.672005,82.37235
"1428",72.71595,82.38569
"1429",72.73548,82.399025
"1430",72.75258,82.41236
"1431",72.82826,82.4257
"1432",73.09926,82.43903
"1433",73.78775,82.45237
"1434",75.142746,82.465706
"1435",77.34249,82.47904
"1436",80.42359,82.49238
"1437",84.21271,82.505714
"1438",88.33387,82.51905
"1439",92.30366,82.53239
"1440",95.66552,82.54572
"1441",98.092316,82.55906
"1442",99.422905,82.572395
"1443",99.67437,82.58573
"1444",98.98833,82.59907
"1445",97.59182,82.612404
"1446",95.726555,82.62574
"1447",93.609825,82.63908
"1448",91.407646,82.65241
"1449",89.21767,82.66575
"1450",87.09117,82.679085
"1451",85.05745,82.69242
"1452",83.16533,82.70576
"1453",81.48318,82.71909
"1454",80.1062,82.73243
"1455",79.114975,82.745766
"1456",78.56321,82.7591
"1457",78.43626,82.77244
"1458",78.65598,82.785774
"1459",79.097885,82.79911
"1460",79.62768,82.81245
"1461",80.10864,82.82578
"1462",80.4358,82.83912
"1463",80.5359,82.852455
"1464",80.38453,82.86579
"1465",79.9939,82.87913
"1466",79.398186,82.89246
"1467",78.64622,82.9058
"1468",77.79172,82.919136
"1469",76.90059,82.93247
"1470",76.01434,82.94581
"1471",75.18425,82.959145
"1472",74.43961,82.97248
"1473",73.797516,82.98582
"1474",73.26772,82.99915
"1475",72.850235,83.01249
"1476",72.532845,83.025826
"1477",72.31068,83.03916
"1478",72.17151,83.0525
"1479",72.112915,83.065834
"1480",72.12024,83.07917
"1481",72.183716,83.09251
"1482",72.29359,83.10584
"1483",72.44007,83.11918
"1484",72.60853,83.132515
"1485",72.779434,83.14585
"1486",72.95033,83.15919
"1487",73.10414,83.17252
"1488",73.231094,83.18586
"1489",73.31655,83.199196
"1490",73.3605,83.21253
"1491",73.36294,83.22587
"1492",73.3312,83.239204
"1493",73.272606,83.25254
"1494",73.20668,83.26588
"1495",73.16762,83.27921
"1496",73.255516,83.29255
"1497",73.66567,83.305885
"1498",74.669106,83.31922
"1499",76.50507,83.33256
"1500",79.30053,83.345894
"1501",82.97734,83.35923
"1502",87.23277,83.37257
"1503",91.58343,83.3859
"1504",95.499504,83.39924
"1505",98.55131,83.412575
"1506",100.48249,83.42591
"1507",101.2198,83.43925
"1508",100.860916,83.45258
"1509",99.62798,83.46592
"1510",97.78226,83.479256
"1511",95.58251,83.49259
"1512",93.25094,83.50593
"1513",90.931564,83.519264
"1514",88.69764,83.5326
"1515",86.57847,83.54594
"1516",84.58869,83.55927
"1517",82.76494,83.57261
"1518",81.17555,83.585945
"1519",79.906006,83.59928
"1520",79.03685,83.61262
"1521",78.59495,83.62595
"1522",78.553444,83.63929
"1523",78.819565,83.652626
"1524",79.27123,83.66596
"1525",79.76929,83.6793
"1526",80.17944,83.692635
"1527",80.40406,83.70597
"1528",80.38697,83.71931
"1529",80.10864,83.73264
"1530",79.59594,83.74598
"1531",78.89525,83.759315
"1532",78.05783,83.77265
"1533",77.14717,83.78599
"1534",76.21942,83.799324
"1535",75.318535,83.81266
"1536",74.48356,83.826
"1537",73.738914,83.83933
"1538",73.094376,83.85267
"1539",72.55726,83.866005
"1540",72.12024,83.87934
"1541",71.77356,83.89268
"1542",71.50744,83.90601
"1543",71.31701,83.91935
"1544",71.19249,83.932686
"1545",71.12413,83.94602
"1546",71.10216,83.95936
"1547",71.12169,83.972694
"1548",71.1754,83.98603
"1549",71.25353,83.99937
"1550",71.346306,84.0127
"1551",71.45617,84.02604
"1552",71.5758,84.039375
"1553",71.69787,84.05271
"1554",71.81995,84.06605
"1555",71.939575,84.079384
"1556",72.044556,84.09272
"1557",72.130005,84.10606
"1558",72.19592,84.11939
"1559",72.234985,84.13273
"1560",72.24963,84.146065
"1561",72.24231,84.1594
"1562",72.215454,84.17274
"1563",72.17151,84.18607
"1564",72.11536,84.19941
"1565",72.06409,84.212746
"1566",72.08362,84.22608
"1567",72.32288,84.23942
"1568",73.040665,84.252754
"1569",74.529945,84.26609
"1570",77.00069,84.27943
"1571",80.48463,84.29276
"1572",84.77425,84.3061
"1573",89.4374,84.319435
"1574",93.91745,84.33277
"1575",97.70168,84.34611
"1576",100.421455,84.35944
"1577",101.908295,84.37278
"1578",102.17441,84.386116
"1579",101.38827,84.39945
"1580",99.80621,84.41279
"1581",97.69924,84.426125
"1582",95.33593,84.43946
"1583",92.9189,84.4528
"1584",90.58976,84.46613
"1585",88.39979,84.47947
"1586",86.37095,84.492805
"1587",84.49836,84.50614
"1588",82.81377,84.51948
"1589",81.36599,84.532814
"1590",80.23804,84.54615
"1591",79.49584,84.55949
"1592",79.15892,84.57282
"1593",79.17601,84.58616
"1594",79.45678,84.599495
"1595",79.86206,84.61283
"1596",80.26002,84.62617
"1597",80.54078,84.6395
"1598",80.63111,84.65284
"1599",80.48951,84.666176
"1600",80.10864,84.67951
"1601",79.520256,84.69285
"1602",78.768295,84.706184
"1603",77.908905,84.71952
"1604",76.99092,84.73286
"1605",76.07538,84.74619
"1606",75.20134,84.75953
"1607",74.39811,84.772865
"1608",73.687645,84.7862
"1609",73.07973,84.79954
"1610",72.57435,84.812874
"1611",72.16174,84.82621
"1612",71.84192,84.83955
"1613",71.605095,84.85288
"1614",71.44396,84.86622
"1615",71.34875,84.879555
"1616",71.309685,84.89289
"1617",71.31457,84.90623
"1618",71.35607,84.91956
"1619",71.431755,84.9329
"1620",71.52697,84.946236
"1621",71.63683,84.95957
"1622",71.74914,84.97291
"1623",71.85901,84.986244
"1624",71.96155,84.99958
"1625",72.061646,85.01292
"1626",72.15686,85.02625
"1627",72.24719,85.03959
"1628",72.33509,85.052925
"1629",72.4181,85.06626
"1630",72.49622,85.0796
"1631",72.56458,85.09293
"1632",72.620735,85.10627
"1633",72.66712,85.119606
"1634",72.7013,85.13294
"1635",72.72083,85.14628
"1636",72.73304,85.159615
"1637",72.73548,85.17295
"1638",72.72816,85.18629
"1639",72.71595,85.19962
"1640",72.708626,85.21296
"1641",72.72816,85.226295
"1642",72.86244,85.23963
"1643",73.29458,85.25297
"1644",74.29801,85.266304
"1645",76.15106,85.27964
"1646",79.00511,85.29298
"1647",82.80888,85.30631
"1648",87.2694,85.31965
"1649",91.90814,85.332985
"1650",96.17334,85.34632
"1651",99.60357,85.35966
"1652",101.92294,85.37299
"1653",103.03624,85.38633
"1654",103.00694,85.399666
"1655",102.02548,85.413
"1656",100.34333,85.42634
"1657",98.22659,85.439674
"1658",95.91211,85.45301
"1659",93.592735,85.46635
"1660",91.37591,85.47968
"1661",89.305565,85.49302
"1662",87.38659,85.506355
"1663",85.61654,85.51969
"1664",84.01984,85.53303
"1665",82.6453,85.546364
"1666",81.5613,85.5597
"1667",80.831314,85.57304
"1668",80.46754,85.58637
"1669",80.430916,85.59971
"1670",80.638435,85.613045
"1671",80.97536,85.62638
"1672",81.31716,85.63972
"1673",81.56374,85.65305
"1674",81.636986,85.66639
"1675",81.495384,85.679726
"1676",81.13161,85.69306
"1677",80.570076,85.7064
"1678",79.84497,85.719734
"1679",79.012436,85.73307
"1680",78.12131,85.74641
"1681",77.22041,85.75974
"1682",76.351265,85.77308
"1683",75.5407,85.786415
"1684",74.810715,85.79975
"1685",74.178375,85.81309
"1686",73.20912,85.83976
"1687",72.86244,85.853096
"1688",72.59876,85.86643
"1689",72.410774,85.87977
"1690",72.28626,85.893105
"1691",72.22034,85.90644
"1692",72.20325,85.91978
"1693",72.22766,85.93311
"1694",72.27894,85.94645
"1695",72.35462,85.959785
"1696",72.444954,85.97312
"1697",72.54749,85.98646
"1698",72.65247,85.999794
"1699",72.7599,86.01313
"1700",72.86488,86.02647
"1701",72.96254,86.0398
"1702",73.04799,86.05314
"1703",73.12123,86.066475
"1704",73.179825,86.07981
"1705",73.22621,86.09315
"1706",73.2604,86.10648
"1707",73.29946,86.11982
"1708",73.338524,86.133156
"1709",73.38491,86.14649
"1710",73.426414,86.15983
"1711",73.463036,86.173164
"1712",73.48989,86.1865
"1713",73.50454,86.19984
"1714",73.51186,86.21317
"1715",73.50942,86.22651
"1716",73.5021,86.239845
"1717",73.494774,86.25318
"1718",73.50698,86.26652
"1719",73.58755,86.279854
"1720",73.8732,86.29319
"1721",74.600746,86.306526
"1722",76.050964,86.31986
"1723",78.43626,86.3332
"1724",81.80301,86.346535
"1725",85.96811,86.35987
"1726",90.53605,86.37321
"1727",94.974594,86.38654
"1728",98.78325,86.39988
"1729",101.60555,86.413216
"1730",103.258415,86.42655
"1731",103.73937,86.43989
"1732",103.1754,86.453224
"1733",101.78134,86.46656
"1734",99.808655,86.4799
"1735",97.50637,86.49323
"1736",95.07469,86.50657
"1737",92.6601,86.519905
"1738",90.3505,86.53324
"1739",88.18982,86.54658
"1740",86.1976,86.55991
"1741",84.403145,86.57325
"1742",82.85283,86.586586
"1743",81.61013,86.59992
"1744",80.743416,86.61326
"1745",80.27955,86.626595
"1746",80.198975,86.63993
"1747",80.41871,86.65327
"1748",80.8362,86.6666
"1749",81.31716,86.67994
"1750",81.74197,86.693275
"1751",82.01785,86.70661
"1752",82.08621,86.71995
"1753",81.92264,86.733284
"1754",81.53689,86.74662
"1755",80.953384,86.75996
"1756",80.22095,86.77329
"1757",79.38598,86.78663
"1758",78.49485,86.799965
"1759",77.58907,86.8133
"1760",76.71015,86.82664
"1761",75.88495,86.83997
"1762",75.13786,86.85331
"1763",74.48356,86.866646
"1764",73.93179,86.87998
"1765",73.4728,86.89332
"1766",73.10658,86.906654
"1767",72.82338,86.91999
"1768",72.61829,86.93333
"1769",72.47669,86.94666
"1770",72.40101,86.96
"1771",72.376595,86.973335
"1772",72.39857,86.98667
"1773",72.4596,87.00001
"1774",72.549934,87.01334
"1775",72.66224,87.02668
"1776",72.78676,87.040016
"1777",72.91371,87.05335
"1778",73.040665,87.06669
"1779",73.15785,87.080025
"1780",73.26528,87.09336
"1781",73.36294,87.1067
"1782",73.445946,87.12003
"1783",73.51186,87.13337
"1784",73.565575,87.146706
"1785",73.60952,87.16004
"1786",73.6437,87.17338
"1787",73.67544,87.186714
"1788",73.704735,87.20005
"1789",73.724266,87.21339
"1790",73.738914,87.22672
"1791",73.741356,87.24006
"1792",73.741356,87.253395
"1793",73.73159,87.26673
"1794",73.7145,87.28007
"1795",73.69253,87.2934
"1796",73.66811,87.30674
"1797",73.651024,87.320076
"1798",73.670555,87.33341
"1799",73.814606,87.34675
"1800",74.29313,87.360085
"1801",75.386894,87.37342
"1802",77.35226,87.38676
"1803",80.31129,87.40009
"1804",84.16632,87.41343
"1805",88.58289,87.426765
"1806",93.05562,87.4401
"1807",97.06691,87.45344
"1808",100.20172,87.466774
"1809",102.233,87.48011
"1810",103.09239,87.49345
"1811",102.85802,87.50678
"1812",101.70077,87.52012
"1813",99.845276,87.533455
"1814",97.53567,87.54679
"1815",94.98436,87.56013
"1816",92.35737,87.57346
"1817",89.77432,87.5868
"1818",87.308464,87.600136
"1819",85.00862,87.61347
"1820",82.93828,87.62681
"1821",81.17555,87.640144
"1822",79.80835,87.65348
"1823",78.91234,87.66682
"1824",78.519264,87.68015
"1825",78.59983,87.69349
"1826",79.05882,87.706825
"1827",79.764404,87.72016
"1828",80.570076,87.7335
"1829",81.33181,87.74683
"1830",81.94217,87.76017
"1831",82.31815,87.773506
"1832",82.425575,87.78684
"1833",82.25712,87.80018
"1834",81.83475,87.813515
"1835",81.19997,87.82685
"1836",80.41871,87.84019
"1837",79.54711,87.85352
"1838",78.62913,87.86686
"1839",77.71603,87.880196
"1840",76.841995,87.89353
"1841",76.03143,87.90687
"1842",75.29656,87.920204
"1843",74.65446,87.93354
"1844",74.107574,87.94688
"1845",73.653465,87.96021
"1846",73.29458,87.97355
"1847",73.01137,87.986885
"1848",72.80629,88.00022
"1849",72.66956,88.01356
"1850",72.59632,88.02689
"1851",72.57923,88.04023
"1852",72.61097,88.053566
"1853",72.68177,88.0669
"1854",72.7892,88.08024
"1855",72.92592,88.093575
"1856",73.07973,88.10691
"1857",73.24086,88.12025
"1858",73.409325,88.13358
"1859",73.568016,88.14692
"1860",73.71206,88.160255
"1861",73.848785,88.17359
"1862",73.970856,88.18693
"1863",74.07095,88.200264
"1864",74.15396,88.2136
"1865",74.21744,88.22694
"1866",74.26383,88.24027
"1867",74.29313,88.25361
"1868",74.31022,88.266945
"1869",74.30778,88.28028
"1870",74.285805,88.29362
"1871",74.23697,88.30695
"1872",74.16617,88.32029
"1873",74.07828,88.333626
"1874",73.99283,88.34696
"1875",73.934235,88.3603
"1876",73.98062,88.373634
"1877",74.30045,88.38697
"1878",75.16228,88.40031
"1879",76.83467,88.41364
"1880",79.46899,88.42698
"1881",83.01152,88.440315
"1882",87.17906,88.45365
"1883",91.507744,88.46699
"1884",95.484856,88.48032
"1885",98.68314,88.49366
"1886",100.85115,88.506996
"1887",101.90097,88.52033
"1888",101.88388,88.53367
"1889",100.93172,88.547005
"1890",99.25201,88.56034
"1891",97.05226,88.57368
"1892",94.540016,88.58701
"1893",91.87152,88.60035
"1894",89.17372,88.613686
"1895",86.52964,88.62702
"1896",84.017395,88.64036
"1897",81.71267,88.653694
"1898",79.725334,88.66703
"1899",78.15793,88.68037
"1900",77.100784,88.6937
"1901",76.60029,88.70704
"1902",76.64179,88.720375
"1903",77.14473,88.73371
"1904",77.979706,88.74705
"1905",78.98802,88.76038
"1906",80.01099,88.77372
"1907",80.91432,88.787056
"1908",81.602806,88.80039
"1909",82.01053,88.81373
"1910",82.125275,88.827065
"1911",81.96658,88.8404
"1912",81.56863,88.85374
"1913",80.98268,88.86707
"1914",80.257576,88.88041
"1915",79.44457,88.893745
"1916",78.590065,88.90708
"1917",77.733116,88.92042
"1918",76.90791,88.933754
"1919",76.13641,88.94709
"1920",75.43084,88.96043
"1921",74.79851,88.97376
"1922",74.24185,88.9871
"1923",73.760895,89.000435
"1924",73.3605,89.01377
"1925",73.043106,89.02711
"1926",72.80629,89.04044
"1927",72.64271,89.05378
"1928",72.549934,89.067116
"1929",72.518196,89.08045
"1930",72.53773,89.09379
"1931",72.60609,89.107124
"1932",72.71351,89.12046
"1933",72.86,89.1338
"1934",73.023575,89.14713
"1935",73.196915,89.16047
"1936",73.36782,89.173805
"1937",73.52895,89.18714
"1938",73.66079,89.20048
"1939",73.75845,89.21381
"1940",73.81949,89.22715
"1941",73.831696,89.240486
"1942",73.79019,89.25382
"1943",73.69497,89.26716
"1944",73.5436,89.280495
"1945",73.34585,89.29383
"1946",73.1017,89.30717
"1947",72.813614,89.3205
"1948",72.498665,89.33384
"1949",72.17395,89.347176
"1950",71.88098,89.36051
"1951",71.71252,89.37385
"1952",71.88342,89.387184
"1953",72.68665,89.40052
"1954",74.43473,89.41386
"1955",77.279015,89.42719
"1956",81.13161,89.44053
"1957",85.645836,89.453865
"1958",90.287025,89.4672
"1959",94.49363,89.48054
"1960",97.81888,89.49387
"1961",100.04059,89.50721
"1962",101.119705,89.520546
"1963",101.14168,89.53388
"1964",100.26765,89.54722
"1965",98.67582,89.560555
"1966",96.55909,89.57389
"1967",94.09323,89.58723
"1968",91.41985,89.60056
"1969",88.653694,89.6139
"1970",85.88754,89.627235
"1971",83.22148,89.64057
"1972",80.74586,89.65391
"1973",78.5803,89.667244
"1974",76.839554,89.68058
"1975",75.63348,89.69392
"1976",75.028,89.70725
"1977",75.028,89.72059
"1978",75.562675,89.733925
"1979",76.50507,89.74726
"1980",77.70138,89.7606
"1981",78.97826,89.77393
"1982",80.18677,89.78727
"1983",81.20973,89.800606
"1984",81.97879,89.81394
"1985",82.45487,89.82728
"1986",82.6453,89.840614
"1987",82.5745,89.85395
"1988",82.27421,89.86729
"1989",81.78592,89.88062
"1990",81.15114,89.89396
"1991",80.41627,89.907295
"1992",79.62524,89.92063
"1993",78.81468,89.93397
"1994",78.009,89.9473
"1995",77.22774,89.96064
"1996",76.490425,89.973976
"1997",75.80438,89.98731
"1998",75.18181,90.00065
"1999",74.632484,90.013985
"2000",74.17105,90.02732
"2001",73.79996,90.04066
"2002",73.52163,90.05399
"2003",73.33608,90.06733
"2004",73.23842,90.080666
"2005",73.22621,90.094
"2006",73.287254,90.10734
"2007",73.41421,90.120674
"2008",73.60464,90.13401
"2009",73.83414,90.14735
"2010",74.090485,90.16068
"2011",74.34928,90.17402
"2012",74.58854,90.187355
"2013",74.793625,90.20069
"2014",74.94499,90.21403
"2015",75.04265,90.22736
"2016",75.09148,90.2407
"2017",75.11833,90.254036
"2018",75.17937,90.26737
"2019",75.40887,90.28071
"2020",76.03143,90.294044
"2021",77.279015,90.30738
"2022",79.30541,90.32072
"2023",82.108185,90.33405
"2024",85.4847,90.34739
"2025",89.0663,90.360725
"2026",92.420845,90.37406
"2027",95.16991,90.3874
"2028",97.074234,90.400734
"2029",98.05081,90.41407
"2030",98.126495,90.42741
"2031",97.40627,90.44074
"2032",96.03662,90.45408
"2033",94.17136,90.467415
"2034",91.95453,90.48075
"2035",89.51064,90.49409
"2036",86.93736,90.50742
"2037",84.32258,90.52076
"2038",81.75418,90.534096
"2039",79.34936,90.54743
"2040",77.23018,90.56077
"2041",75.53094,90.574104
"2042",74.35905,90.58744
"2043",73.777985,90.60078
"2044",73.78775,90.61411
"2045",74.319984,90.62745
"2046",75.2575,90.640785
"2047",76.439156,90.65412
"2048",77.70626,90.66746
"2049",78.92699,90.68079
"2050",79.98413,90.69413
"2051",80.814224,90.707466
"2052",81.38796,90.7208
"2053",81.7029,90.73414
"2054",81.76883,90.747475
"2055",81.62234,90.76081
"2056",81.29275,90.77415
"2057",80.82643,90.78748
"2058",80.26246,90.80082
"2059",79.63012,90.814156
"2060",78.95384,90.82749
"2061",78.26536,90.84083
"2062",77.574425,90.854164
"2063",76.89815,90.8675
"2064",76.25605,90.88084
"2065",75.66033,90.89417
"2066",75.125656,90.90751
"2067",74.66422,90.920845
"2068",74.27604,90.93418
"2069",73.96597,90.94752
"2070",73.73647,90.96085
"2071",73.58999,90.97419
"2072",73.52407,90.987526
"2073",73.52407,91.00086
"2074",73.58755,91.0142
"2075",73.69741,91.027534
"2076",73.83658,91.04087
"2077",73.987946,91.05421
"2078",74.13931,91.06754
"2079",74.285805,91.08088
"2080",74.45182,91.094215
"2081",74.73258,91.10755
"2082",75.34295,91.12089
"2083",76.60273,91.134224
"2084",78.79515,91.14756
"2085",82.02518,91.1609
"2086",86.1561,91.17423
"2087",90.80461,91.18757
"2088",95.433586,91.200905
"2089",99.49859,91.21424
"2090",102.623634,91.22758
"2091",104.62318,91.24091
"2092",105.48745,91.25425
"2093",105.29458,91.267586
"2094",104.19348,91.28092
"2095",102.364845,91.29426
"2096",100.00397,91.307594
"2097",97.29397,91.32093
"2098",94.39353,91.33427
"2099",91.41741,91.3476
"2100",88.45838,91.36094
"2101",85.58724,91.374275
"2102",82.88457,91.38761
"2103",80.46021,91.40095
"2104",78.43137,91.41428
"2105",76.92012,91.42762
"2106",76.019226,91.440956
"2107",75.75311,91.45429
"2108",76.070496,91.46763
"2109",76.86153,91.480965
"2110",77.95773,91.4943
"2111",79.17845,91.50764
"2112",80.35767,91.52097
"2113",81.356224,91.53431
"2114",82.091095,91.547646
"2115",82.52323,91.56098
"2116",82.65507,91.57432
"2117",82.50858,91.587654
"2118",82.125275,91.60099
"2119",81.54177,91.61433
"2120",80.814224,91.62766
"2121",79.97925,91.641
"2122",79.08324,91.654335
"2123",78.167694,91.66767
"2124",77.264366,91.68101
"2125",76.39277,91.69434
"2126",75.57244,91.70768
"2127",74.82048,91.721016
"2128",74.144196,91.73435
"2129",73.55581,91.74769
"2130",73.06264,91.761024
"2131",72.66956,91.77436
"2132",72.36927,91.7877
"2133",72.166626,91.80103
"2134",72.05188,91.81437
"2135",72.02258,91.827705
"2136",72.07141,91.84104
"2137",72.19104,91.85438
"2138",72.359505,91.867714
"2139",72.552376,91.88105
"2140",72.74525,91.89439
"2141",72.92836,91.90772
"2142",73.09926,91.92106
"2143",73.31411,91.934395
"2144",73.741356,91.94773
"2145",74.68131,91.96107
"2146",76.46601,91.9744
"2147",79.327385,91.98774
"2148",83.267876,92.001076
"2149",88.01648,92.01441
"2150",93.084915,92.02775
"2151",97.88724,92.041084
"2152",101.910736,92.05442
"2153",104.83803,92.06776
"2154",106.54215,92.08109
"2155",107.03044,92.09443
"2156",106.41032,92.107765
"2157",104.86977,92.1211
"2158",102.62852,92.13444
"2159",99.92096,92.14777
"2160",96.954605,92.16111
"2161",93.89792,92.174446
"2162",90.863205,92.18778
"2163",87.92859,92.20112
"2164",85.14534,92.214455
"2165",82.5745,92.22779
"2166",80.29908,92.24113
"2167",78.43626,92.25446
"2168",77.09102,92.2678
"2169",76.34394,92.281136
"2170",76.20233,92.29447
"2171",76.60029,92.30781
"2172",77.40353,92.321144
"2173",78.433815,92.33448
"2174",79.50805,92.34782
"2175",80.46754,92.36115
"2176",81.19508,92.37449
"2177",81.62234,92.387825
"2178",81.71999,92.40116
"2179",81.50515,92.4145
"2180",81.02174,92.42783
"2181",80.31617,92.44117
"2182",79.447014,92.454506
"2183",78.47288,92.46784
"2184",77.452354,92.48118
"2185",76.42939,92.494514
"2186",75.440605,92.50785
"2187",74.512856,92.52119
"2188",73.66323,92.53452
"2189",72.89906,92.54786
"2190",72.234985,92.561195
"2191",71.67834,92.57453
"2192",71.22667,92.58787
"2193",70.88487,92.601204
"2194",70.643166,92.61454
"2195",70.49912,92.62788
"2196",70.44541,92.64121
"2197",70.467384,92.65455
"2198",70.55772,92.667885
"2199",70.70176,92.68122
"2200",70.87999,92.69456
"2201",71.07286,92.70789
"2202",71.26086,92.72123
"2203",71.4342,92.734566
"2204",71.58556,92.7479
"2205",71.74181,92.76124
"2206",71.9762,92.774574
"2207",72.481575,92.78791
"2208",73.5729,92.80125
"2209",75.56756,92.81458
"2210",78.65354,92.82792
"2211",82.77226,92.841255
"2212",87.61608,92.85459
"2213",92.66987,92.86793
"2214",97.3428,92.88126
"2215",101.14656,92.8946
"2216",103.79553,92.907936
"2217",105.18227,92.92127
"2218",105.34585,92.93461
"2219",104.427864,92.947945
"2220",102.640724,92.96128
"2221",100.226135,92.97462
"2222",97.42336,92.98795
"2223",94.44724,93.00129
"2224",91.4638,93.014626
"2225",88.57557,93.02796
"2226",85.841156,93.0413
"2227",83.31182,93.054634
"2228",81.03639,93.06797
"2229",79.08324,93.08131
"2230",77.55978,93.09464
"2231",76.55634,93.10798
"2232",76.10956,93.121315
"2233",76.19501,93.13465
"2234",76.70771,93.14799
"2235",77.4963,93.16132
"2236",78.38743,93.17466
"2237",79.22972,93.187996
"2238",79.89136,93.20133
"2239",80.291756,93.21467
"2240",80.38941,93.228004
"2241",80.184326,93.24134
"2242",79.70092,93.25468
"2243",78.98802,93.26801
"2244",78.10666,93.28135
"2245",77.12276,93.294685
"2246",76.09979,93.30802
"2247",75.08659,93.32136
"2248",74.12222,93.334694
"2249",73.22865,93.34803
"2250",72.427864,93.36137
"2251",71.72228,93.3747
"2252",71.12657,93.38804
"2253",70.640724,93.401375
"2254",70.259865,93.41471
"2255",69.97177,93.42805
"2256",69.77646,93.44138
"2257",69.661705,93.45472
"2258",69.6202,93.468056
"2259",69.65438,93.48139
"2260",69.752045,93.49473
"2261",69.908295,93.508064
"2262",70.10605,93.5214
"2263",70.3209,93.53474
"2264",70.5333,93.54807
"2265",70.72373,93.56141
"2266",70.87511,93.574745
"2267",70.98985,93.58808
"2268",71.08995,93.60142
"2269",71.23888,93.61475
"2270",71.59045,93.62809
"2271",72.42054,93.641426
"2272",74.04654,93.65476
"2273",76.70771,93.6681
"2274",80.44312,93.681435
"2275",85.03792,93.69477
"2276",90.03311,93.70811
"2277",94.85252,93.72144
"2278",98.94682,93.73478
"2279",101.94736,93.748116
"2280",103.68078,93.76145
"2281",104.147095,93.77479
"2282",103.4757,93.788124
"2283",101.88144,93.80146
"2284",99.6231,93.8148
"2285",96.95705,93.82813
"2286",94.10788,93.84147
"2287",91.246506,93.854805
"2288",88.482796,93.86814
"2289",85.87045,93.88148
"2290",83.44366,93.89481
"2291",81.23659,93.90815
"2292",79.31762,93.921486
"2293",77.77951,93.93482
"2294",76.70527,93.94816
"2295",76.1535,93.961494
"2296",76.112,93.97483
"2297",76.49287,93.98817
"2298",77.15938,94.0015
"2299",77.95285,94.01484
"2300",78.71458,94.028175
"2301",79.3225,94.04151
"2302",79.691154,94.05485
"2303",79.766846,94.068184
"2304",79.54223,94.08152
"2305",79.04173,94.09486
"2306",78.314186,94.10819
"2307",77.420616,94.12153
"2308",76.42939,94.134865
"2309",75.406425,94.1482
"2310",74.41276,94.16154
"2311",73.48501,94.17487
"2312",72.64515,94.18821
"2313",71.91272,94.201546
"2314",71.292595,94.21488
"2315",70.77745,94.22822
"2316",70.36729,94.241554
"2317",70.05478,94.25489
"2318",69.83261,94.26823
"2319",69.691,94.28156
"2320",69.627525,94.2949
"2321",69.63973,94.308235
"2322",69.715416,94.32157
"2323",69.8497,94.33491
"2324",70.03281,94.34824
"2325",70.2501,94.36158
"2326",70.484474,94.374916
"2327",70.71641,94.38825
"2328",70.9337,94.40159
"2329",71.12413,94.414925
"2330",71.27306,94.42826
"2331",71.37316,94.4416
"2332",71.42443,94.45493
"2333",71.431755,94.46827
"2334",71.42687,94.481606
"2335",71.48791,94.49494
"2336",71.80286,94.50828
"2337",72.66712,94.521614
"2338",74.39811,94.53495
"2339",77.208206,94.54829
"2340",81.08522,94.56162
"2341",85.75571,94.57496
"2342",90.72404,94.588295
"2343",95.39941,94.60163
"2344",99.25445,94.61497
"2345",101.95224,94.6283
"2346",103.35607,94.64164
"2347",103.505,94.654976
"2348",102.555275,94.66831
"2349",100.75105,94.68165
"2350",98.355995,94.694984
"2351",95.6289,94.70832
"2352",92.78218,94.72166
"2353",89.96231,94.73499
"2354",87.25231,94.74833
"2355",84.70588,94.761665
"2356",82.36698,94.775
"2357",80.29664,94.78834
"2358",78.58518,94.801674
"2359",77.330284,94.81501
"2360",76.59785,94.82835
"2361",76.39521,94.84168
"2362",76.654,94.85502
"2363",77.24727,94.868355
"2364",78.009,94.88169
"2365",78.785385,94.89503
"2366",79.43969,94.90836
"2367",79.871826,94.9217
"2368",80.028076,94.935036
"2369",79.89136,94.94837
"2370",79.47875,94.96171
"2371",78.836655,94.975044
"2372",78.013885,94.98838
"2373",77.07637,95.00172
"2374",76.07782,95.01505
"2375",75.08171,95.02839
"2376",74.12222,95.041725
"2377",73.248184,95.05506
"2378",72.47669,95.0684
"2379",71.82483,95.08173
"2380",71.28527,95.09507
"2381",70.853134,95.108406
"2382",70.521095,95.12174
"2383",70.27451,95.13508
"2384",70.10361,95.148415
"2385",70.01083,95.16175
"2386",69.98886,95.17509
"2387",70.02548,95.18842
"2388",70.118256,95.20176
"2389",70.25498,95.215096
"2390",70.42832,95.22843
"2391",70.626076,95.24177
"2392",70.8336,95.255104
"2393",71.03868,95.26844
"2394",71.23399,95.28178
"2395",71.40246,95.29511
"2396",71.53185,95.30845
"2397",71.61242,95.321785
"2398",71.641716,95.33512
"2399",71.622185,95.34846
"2400",71.568474,95.36179
"2401",71.52453,95.37513
"2402",71.58312,95.388466
"2403",71.94934,95.4018
"2404",72.91127,95.41514
"2405",74.77409,95.428474
"2406",77.696495,95.44181
"2407",81.619896,95.45515
"2408",86.22934,95.46848
"2409",91.00969,95.48182
"2410",95.37255,95.495155
"2411",98.8394,95.50849
"2412",101.119705,95.52183
"2413",102.1207,95.535164
"2414",101.910736,95.5485
"2415",100.67292,95.56184
"2416",98.648964,95.57517
"2417",96.10742,95.58851
"2418",93.28512,95.601845
"2419",90.36759,95.61518
"2420",87.484245,95.62852
"2421",84.71076,95.64185
"2422",82.12283,95.65519
"2423",79.80591,95.668526
"2424",77.88205,95.68186
"2425",76.46601,95.6952
"2426",75.65545,95.708534
"2427",75.474785,95.72187
"2428",75.85809,95.73521
"2429",76.66621,95.74854
"2430",77.71847,95.76188
"2431",78.82933,95.775215
"2432",79.823,95.78855
"2433",80.57252,95.80189
"2434",81.007095,95.81522
"2435",81.094986,95.82856
"2436",80.850845,95.841896
"2437",80.325935,95.85523
"2438",79.58129,95.86857
"2439",78.6804,95.881905
"2440",77.68917,95.89524
"2441",76.66621,95.90858
"2442",75.665215,95.92191
"2443",74.73014,95.93525
"2444",73.88541,95.948586
"2445",73.15297,95.96192
"2446",72.53773,95.97526
"2447",72.03723,95.988594
"2448",71.6466,96.00193
"2449",71.363396,96.01527
"2450",71.18028,96.0286
"2451",71.09483,96.04194
"2452",71.09972,96.055275
"2453",71.185165,96.06861
"2454",71.33654,96.08195
"2455",71.54894,96.09528
"2456",71.800415,96.10862
"2457",72.06897,96.121956
"2458",72.34974,96.13529
"2459",72.61829,96.14863
"2460",72.85756,96.161964
"2461",73.060196,96.1753
"2462",73.21156,96.18864
"2463",73.306786,96.20197
"2464",73.340965,96.21531
"2465",73.31655,96.228645
"2466",73.24086,96.24198
"2467",73.11635,96.25532
"2468",72.97719,96.268654
"2469",72.88197,96.28199
"2470",72.99184,96.29533
"2471",73.548485,96.30866
"2472",74.85954,96.322
"2473",77.13985,96.335335
"2474",80.41627,96.34867
"2475",84.47639,96.36201
"2476",88.88808,96.37534
"2477",93.10445,96.38868
"2478",96.62501,96.402016
"2479",99.1104,96.41535
"2480",100.419014,96.42869
"2481",100.56794,96.442024
"2482",99.6939,96.45536
"2483",97.9971,96.4687
"2484",95.71191,96.48203
"2485",93.050735,96.49537
"2486",90.18448,96.508705
"2487",87.24742,96.52204
"2488",84.34211,96.53538
"2489",81.57351,96.54871
"2490",79.07347,96.56205
"2491",77.00313,96.575386
"2492",75.51385,96.58872
"2493",74.720375,96.60206
"2494",74.65446,96.615395
"2495",75.23308,96.62873
"2496",76.29267,96.64207
"2497",77.62081,96.6554
"2498",78.995346,96.66874
"2499",80.233154,96.682076
"2500",81.19508,96.69541
"2501",81.81033,96.70875
"2502",82.05203,96.722084
"2503",81.934845,96.73542
"2504",81.50515,96.74876
"2505",80.82399,96.76209
"2506",79.96216,96.77543
"2507",78.98314,96.788765
"2508",77.95041,96.8021
"2509",76.925,96.81544
"2510",75.948425,96.82877
"2511",75.052414,96.84211
"2512",74.25651,96.855446
"2513",73.58022,96.86878
"2514",73.02113,96.88212
"2515",72.58167,96.895454
"2516",72.25941,96.90879
"2517",72.05432,96.92213
"2518",71.95911,96.93546
"2519",71.96399,96.9488
"2520",72.059204,96.962135
"2521",72.232544,96.97547
"2522",72.464485,96.98881
"2523",72.72816,97.002144
"2524",73.00404,97.01548
"2525",73.272606,97.02882
"2526",73.50454,97.04215
"2527",73.68032,97.05549
"2528",73.795074,97.068825
"2529",73.846344,97.08216
"2530",73.85123,97.0955
"2531",73.846344,97.10883
"2532",73.934235,97.12217
"2533",74.302895,97.135506
"2534",75.23308,97.14884
"2535",76.9836,97.16218
"2536",79.691154,97.175514
"2537",83.28008,97.18885
"2538",87.4403,97.20219
"2539",91.68841,97.21552
"2540",95.50683,97.22886
"2541",98.4683,97.242195
"2542",100.333565,97.25553
"2543",101.031815,97.26887
"2544",100.63142,97.2822
"2545",99.303276,97.29554
"2546",97.26223,97.308876
"2547",94.730446,97.32221
"2548",91.91791,97.33555
"2549",88.97597,97.348885
"2550",86.01694,97.36222
"2551",83.13359,97.37556
"2552",80.43336,97.38889
"2553",78.05295,97.40223
"2554",76.14618,97.415565
"2555",74.861984,97.4289
"2556",74.29069,97.44224
"2557",74.43229,97.455574
"2558",75.18181,97.46891
"2559",76.36347,97.48225
"2560",77.75754,97.49558
"2561",79.15648,97.50892
"2562",80.377205,97.522255
"2563",81.29519,97.53559
"2564",81.84451,97.54893
"2565",82.01541,97.56226
"2566",81.829865,97.5756
"2567",81.34646,97.588936
"2568",80.62623,97.60227
"2569",79.74731,97.61561
"2570",78.77318,97.628944
"2571",77.76242,97.64228
"2572",76.76143,97.65562
"2573",75.809265,97.66895
"2574",74.93523,97.68229
"2575",74.15396,97.695625
"2576",73.48501,97.70896
"2577",72.935684,97.7223
"2578",72.50599,97.735634
"2579",72.200806,97.74897
"2580",72.02014,97.76231
"2581",71.95178,97.77564
"2582",71.98596,97.78898
"2583",72.10315,97.802315
"2584",72.274055,97.81565
"2585",72.46937,97.82899
"2586",72.66712,97.84232
"2587",72.84779,97.85566
"2588",73.00404,97.868996
"2589",73.12367,97.88233
"2590",73.22621,97.89567
"2591",73.35317,97.909004
"2592",73.6144,97.92234
"2593",74.23697,97.93568
"2594",75.52361,97.94901
"2595",77.74044,97.96235
"2596",80.972916,97.975685
"2597",85.067215,97.98902
"2598",89.637596,98.00236
"2599",94.14206,98.01569
"2600",98.04349,98.02903
"2601",100.946365,98.042366
"2602",102.660255,98.0557
"2603",103.16075,98.06904
"2604",102.55039,98.082375
"2605",101.01961,98.09571
"2606",98.7979,98.10905
"2607",96.12695,98.12238
"2608",93.224075,98.13572
"2609",90.247955,98.149055
"2610",87.310905,98.16239
"2611",84.47883,98.17573
"2612",81.82254,98.189064
"2613",79.447014,98.2024
"2614",77.48409,98.21574
"2615",76.07294,98.22907
"2616",75.32342,98.24241
"2617",75.25506,98.255745
"2618",75.7995,98.26908
"2619",76.79317,98.28242
"2620",78.028534,98.29575
"2621",79.29565,98.30909
"2622",80.41627,98.322426
"2623",81.26101,98.33576
"2624",81.74685,98.3491
"2625",81.85184,98.362434
"2626",81.602806,98.37577
"2627",81.03639,98.38911
"2628",80.22095,98.40244
"2629",79.23216,98.41578
"2630",78.14816,98.429115
"2631",77.02998,98.44245
"2632",75.931335,98.45579
"2633",74.89128,98.469124
"2634",73.94156,98.48246
"2635",73.109024,98.4958
"2636",72.410774,98.50913
"2637",71.854126,98.52247
"2638",71.4464,98.535805
"2639",71.182724,98.54914
"2640",71.046005,98.56248
"2641",71.01915,98.57581
"2642",71.08995,98.58915
"2643",71.23155,98.602486
"2644",71.41955,98.61582
"2645",71.62707,98.62916
"2646",71.82727,98.642494
"2647",72.00061,98.65583
"2648",72.13489,98.66917
"2649",72.23743,98.6825
"2650",72.32044,98.69584
"2651",72.44251,98.709175
"2652",72.75502,98.72251
"2653",73.54116,98.73585
"2654",75.11833,98.74918
"2655",77.71847,98.76252
"2656",81.36355,98.775856
"2657",85.8143,98.78919
"2658",90.597084,98.80253
"2659",95.13573,98.815865
"2660",98.91264,98.8292
"2661",101.59579,98.84254
"2662",103.05333,98.85587
"2663",103.309685,98.86921
"2664",102.49668,98.882545
"2665",100.82674,98.89588
"2666",98.54398,98.90922
"2667",95.88281,98.922554
"2668",93.0605,98.93589
"2669",90.228424,98.94923
"2670",87.47692,98.96256
"2671",84.857254,98.9759
"2672",82.41581,98.989235
"2673",80.216064,99.00257
"2674",78.365456,99.01591
"2675",76.98604,99.02924
"2676",76.16815,99.04258
"2677",75.93378,99.055916
"2678",76.224304,99.06925
"2679",76.90059,99.08259
"2680",77.78439,99.095924
"2681",78.69016,99.10926
"2682",79.4641,99.1226
"2683",79.991455,99.13593
"2684",80.20874,99.14927
"2685",80.096436,99.162605
"2686",79.67895,99.17594
"2687",79.00511,99.18928
"2688",78.135956,99.202614
"2689",77.13252,99.21595
"2690",76.06317,99.22929
"2691",74.98894,99.24262
"2692",73.95621,99.25596
"2693",73.0016,99.269295
"2694",72.15686,99.28263
"2695",71.43664,99.29597
"2696",70.853134,99.3093
"2697",70.399025,99.32264
"2698",70.07187,99.335976
"2699",69.85458,99.34931
"2700",69.730064,99.36265
"2701",69.68612,99.375984
"2702",69.715416,99.38932
"2703",69.803314,99.40266
"2704",69.93271,99.41599
"2705",70.084076,99.42933
"2706",70.237885,99.442665
"2707",70.37461,99.456
"2708",70.47959,99.46934
"2709",70.55039,99.48267
"2710",70.59434,99.49601
"2711",70.63584,99.509346
"2712",70.75548,99.52268
"2713",71.16075,99.53602
"2714",72.13977,99.549355
"2715",73.96353,99.56269
"2716",76.75899,99.57603
"2717",80.42115,99.58936
"2718",84.62287,99.6027
"2719",88.86122,99.616035
"2720",92.6186,99.62937
"2721",95.52392,99.64271
"2722",97.3843,99.656044
"2723",98.18265,99.66938
"2724",98.01419,99.68272
"2725",97.04738,99.69605
"2726",95.482414,99.70939
"2727",93.5317,99.722725
"2728",91.37835,99.73606
"2729",89.17128,99.7494
"2730",87.00816,99.76273
"2731",84.93782,99.77607
"2732",82.97978,99.789406
"2733",81.15602,99.80274
"2734",79.51537,99.81608
"2735",78.14572,99.829414
"2736",77.14473,99.84275
"2737",76.57343,99.85609
"2738",76.44404,99.86942
"2739",76.6955,99.88276
"2740",77.205765,99.896095
"2741",77.8259,99.90943
"2742",78.416725,99.92277
"2743",78.86595,99.936104
"2744",79.10033,99.94944
"2745",79.08324,99.962776
"2746",78.81224,99.97611
"2747",78.31663,99.98945
"2748",77.642784,100.002785
"2749",76.84444,100.01612
"2750",75.98016,100.02946
"2751",75.10368,100.04279
"2752",74.26383,100.05613
"2753",73.48501,100.069466
"2754",72.79164,100.0828
"2755",72.1886,100.09614
"2756",71.68078,100.109474
"2757",71.27062,100.12281
"2758",70.95323,100.13615
"2759",70.7335,100.14948
"2760",70.6041,100.16282
"2761",70.55283,100.176155
"2762",70.56748,100.18949
"2763",70.640724,100.20283
"2764",70.75548,100.21616
"2765",70.906845,100.2295
"2766",71.0753,100.242836
"2767",71.25109,100.25617
"2768",71.42199,100.26951
"2769",71.57824,100.282845
"2770",71.71252,100.29618
"2771",71.81506,100.30952
"2772",71.87854,100.32285
"2773",71.902954,100.33619
"2774",71.89563,100.349525
"2775",71.871216,100.36286
"2776",71.86633,100.3762
"2777",71.98596,100.389534
"2778",72.43275,100.40287
"2779",73.47036,100.41621
"2780",75.32586,100.42954
"2781",78.05295,100.44288
"2782",81.478294,100.456215
"2783",85.22835,100.46955
"2784",88.82704,100.48289
"2785",91.83246,100.49622
"2786",93.978485,100.50956
"2787",95.187,100.522896
"2788",95.516594,100.53623
"2789",95.10155,100.54957
"2790",94.100555,100.562904
"2791",92.70161,100.57624
"2792",91.06828,100.58958
"2793",89.35439,100.60291
"2794",87.67223,100.61625
"2795",86.0975,100.629585
"2796",84.647285,100.64292
"2797",83.3167,100.65626
"2798",82.108185,100.66959
"2799",81.03395,100.68293
"2800",80.14526,100.696266
"2801",79.50805,100.7096
"2802",79.17601,100.72294
"2803",79.15404,100.736275
"2804",79.38598,100.74961
"2805",79.783936,100.76295
"2806",80.23071,100.77628
"2807",80.62623,100.78962
"2808",80.89723,100.802956
"2809",80.99977,100.81629
"2810",80.91432,100.82963
"2811",80.65064,100.842964
"2812",80.22827,100.8563
"2813",79.674065,100.86964
"2814",79.029526,100.88297
"2815",78.33616,100.89631
"2816",77.64034,100.909645
"2817",76.96651,100.92298
"2818",76.34638,100.93632
"2819",75.789734,100.94965
"2820",75.299,100.96299
"2821",74.879074,100.976326
"2822",74.527504,100.98966
"2823",74.24429,101.003
"2824",74.03433,101.016335
"2825",73.89029,101.02967
"2826",73.80972,101.04301
"2827",73.78287,101.05634
"2828",73.795074,101.06968
"2829",73.83902,101.083015
"2830",73.900055,101.09635
"2831",73.98306,101.10969
"2832",74.075836,101.123024
"2833",74.178375,101.13636
"2834",74.29557,101.1497
"2835",74.42008,101.16303
"2836",74.54459,101.17637
"2837",74.66178,101.189705
"2838",74.757,101.20304
"2839",74.827805,101.21638
"2840",74.864426,101.22971
"2841",74.86931,101.24305
"2842",74.84245,101.256386
"2843",74.78874,101.26972
"2844",74.70817,101.28306
"2845",74.60563,101.296394
"2846",74.493324,101.30973
"2847",74.40543,101.32307
"2848",74.43717,101.3364
"2849",74.78142,101.34974
"2850",75.71404,101.363075
"2851",77.467,101.37641
"2852",80.09888,101.38975
"2853",83.441216,101.40308
"2854",87.1107,101.41642
"2855",90.61906,101.429756
"2856",93.51217,101.44309
"2857",95.519035,101.45643
"2858",96.5835,101.469765
"2859",96.79347,101.4831
"2860",96.29542,101.49644
"2861",95.26757,101.50977
"2862",93.890594,101.52311
"2863",92.32075,101.536446
"2864",90.69962,101.54978
"2865",89.13222,101.56312
"2866",87.674675,101.576454
"2867",86.34409,101.58979
"2868",85.13069,101.60313
"2869",84.01251,101.61646
"2870",82.97978,101.6298
"2871",82.06668,101.643135
"2872",81.32937,101.65647
"2873",80.82643,101.66981
"2874",80.59205,101.68314
"2875",80.61646,101.69648
"2876",80.84596,101.709816
"2877",81.18532,101.72315
"2878",81.53933,101.73649
"2879",81.815216,101.749825
"2880",81.95682,101.76316
"2881",81.92996,101.7765
"2882",81.72976,101.78983
"2883",81.373314,101.80317
"2884",80.88258,101.816505
"2885",80.29664,101.82984
"2886",79.65209,101.84318
"2887",78.992905,101.856514
"2888",78.34348,101.86985
"2889",77.738,101.88319
"2890",77.18623,101.89652
"2891",76.700386,101.90986
"2892",76.27558,101.923195
"2893",75.914246,101.93653
"2894",75.61639,101.94987
"2895",75.37957,101.9632
"2896",75.1989,101.97654
"2897",75.071945,101.989876
"2898",74.986496,102.00321
"2899",74.93767,102.01655
"2900",74.92302,102.029884
"2901",74.932785,102.04322
"2902",74.95964,102.05656
"2903",75.00603,102.06989
"2904",75.05974,102.08323
"2905",75.11589,102.096565
"2906",75.1696,102.1099
"2907",75.21355,102.12324
"2908",75.2575,102.13657
"2909",75.29656,102.14991
"2910",75.335625,102.163246
"2911",75.369804,102.17658
"2912",75.403984,102.18992
"2913",75.421074,102.203255
"2914",75.423515,102.21659
"2915",75.406425,102.22993
"2916",75.36248,102.24326
"2917",75.29656,102.2566
"2918",75.211105,102.269936
"2919",75.11345,102.28327
"2920",75.018234,102.29661
"2921",74.9572,102.309944
"2922",75.03044,102.32328
"2923",75.45037,102.33662
"2924",76.48554,102.34995
"2925",78.34348,102.36329
"2926",81.03639,102.376625
"2927",84.35676,102.38996
"2928",87.89929,102.4033
"2929",91.175705,102.41663
"2930",93.768524,102.42997
"2931",95.46044,102.443306
"2932",96.23682,102.45664
"2933",96.200195,102.46998
"2934",95.50927,102.483315
"2935",94.33494,102.49665
"2936",92.860306,102.50999
"2937",91.23186,102.52332
"2938",89.58633,102.53666
"2939",88.02136,102.549995
"2940",86.588234,102.56333
"2941",85.3016,102.57667
"2942",84.14191,102.590004
"2943",83.087204,102.60334
"2944",82.1326,102.61668
"2945",81.31228,102.63001
"2946",80.672615,102.64335
"2947",80.26734,102.656685
"2948",80.11841,102.67002
"2949",80.21118,102.68336
"2950",80.48707,102.69669
"2951",80.86061,102.71003
"2952",81.22926,102.723366
"2953",81.514915,102.7367
"2954",81.65896,102.75004
"2955",81.62966,102.763374
"2956",81.42214,102.77671
"2957",81.058365,102.79005
"2958",80.570076,102.80338
"2959",79.98657,102.81672
"2960",79.3518,102.830055
"2961",78.70481,102.84339
"2962",78.07248,102.85673
"2963",77.47677,102.87006
"2964",76.93477,102.8834
"2965",76.45869,102.896736
"2966",76.04364,102.91007
"2967",75.69695,102.92341
"2968",75.41863,102.936745
"2969",75.20134,102.95008
"2970",75.04509,102.96342
"2971",74.93523,102.97675
"2972",74.861984,102.99009
"2973",74.81804,103.003426
"2974",74.79607,103.01676
"2975",74.793625,103.0301
"2976",74.80583,103.043434
"2977",74.84001,103.05677
"2978",74.88884,103.07011
"2979",74.949875,103.08344
"2980",75.020676,103.09678
"2981",75.09392,103.110115
"2982",75.16472,103.12345
"2983",75.23308,103.13679
"2984",75.28924,103.15012
"2985",75.335625,103.16346
"2986",75.37469,103.176796
"2987",75.406425,103.19013
"2988",75.43084,103.20347
"2989",75.44549,103.216805
"2990",75.44793,103.23014
"2991",75.43328,103.24348
"2992",75.40154,103.25681
"2993",75.34783,103.27015
"2994",75.27947,103.283485
"2995",75.20378,103.29682
"2996",75.13054,103.31016
"2997",75.10857,103.323494
"2998",75.267265,103.33683
"2999",75.83124,103.35017
"3000",77.069046,103.3635
"3001",79.14183,103.37684
"3002",82.02518,103.390175
"3003",85.46273,103.40351
"3004",89.02724,103.41685
"3005",92.2475,103.43018
"3006",94.74265,103.44352
"3007",96.33692,103.456856
"3008",97.03761,103.47019
"3009",96.95705,103.48353
"3010",96.24658,103.496864
"3011",95.07469,103.5102
"3012",93.609825,103.52354
"3013",92.000916,103.53687
"3014",90.36515,103.55021
"3015",88.78798,103.563545
"3016",87.31823,103.57688
"3017",85.97055,103.59022
"3018",84.73029,103.60355
"3019",83.59258,103.61689
"3020",82.57694,103.630226
"3021",81.722435,103.64356
"3022",81.08766,103.6569
"3023",80.71656,103.670235
"3024",80.62379,103.68357
"3025",80.77272,103.69691
"3026",81.09987,103.71024
"3027",81.51003,103.72358
"3028",81.900665,103.736916
"3029",82.193634,103.75025
"3030",82.3328,103.76359
"3031",82.286415,103.776924
"3032",82.05936,103.79026
"3033",81.668724,103.8036
"3034",81.15602,103.81693
"3035",80.55543,103.83027
"3036",79.90845,103.843605
"3037",79.23949,103.85694
"3038",78.5803,103.87028
"3039",77.95041,103.88361
"3040",77.366905,103.89695
"3041",76.83711,103.910286
"3042",76.3708,103.92362
"3043",75.96796,103.93696
"3044",75.62859,103.950294
"3045",75.34295,103.96363
"3046",75.10857,103.97697
"3047",74.9279,103.9903
"3048",74.79118,104.00364
"3049",74.69108,104.016975
"3050",74.6276,104.03031
"3051",74.59342,104.04365
"3052",74.581215,104.056984
"3053",74.59342,104.07032
"3054",74.62516,104.08366
"3055",74.666664,104.09699
"3056",74.71061,104.11033
"3057",74.75456,104.123665
"3058",74.79607,104.137
"3059",74.83269,104.15034
"3060",74.87175,104.16367
"3061",74.90837,104.17701
"3062",74.94743,104.190346
"3063",74.98161,104.20368
"3064",75.00603,104.21702
"3065",75.02312,104.230354
"3066",75.02312,104.24369
"3067",75.00603,104.25703
"3068",74.97429,104.27036
"3069",74.94011,104.2837
"3070",74.90349,104.297035
"3071",74.87175,104.31037
"3072",74.83513,104.32371
"3073",74.776535,104.33704
"3074",74.686195,104.35038
"3075",74.598305,104.363716
"3076",74.59098,104.37705
"3077",74.84001,104.39039
"3078",75.631035,104.403725
"3079",77.21309,104.41706
"3080",79.68627,104.4304
"3081",82.94072,104.44373
"3082",86.659035,104.45707
"3083",90.38468,104.470406
"3084",93.66598,104.48374
"3085",96.18799,104.49708
"3086",97.81644,104.510414
"3087",98.563515,104.52375
"3088",98.52445,104.53709
"3089",97.84329,104.55042
"3090",96.66407,104.56376
"3091",95.150375,104.577095
"3092",93.43893,104.59043
"3093",91.646904,104.60377
"3094",89.85489,104.6171
"3095",88.11902,104.63044
"3096",86.46616,104.643776
"3097",84.91585,104.65711
"3098",83.49737,104.67045
"3099",82.262,104.683784
"3100",81.27566,104.69712
"3101",80.6067,104.71046
"3102",80.30152,104.72379
"3103",80.35035,104.73713
"3104",80.689705,104.750465
"3105",81.22194,104.7638
"3106",81.829865,104.77714
"3107",82.388954,104.790474
"3108",82.81621,104.80381
"3109",83.04326,104.81715
"3110",83.04326,104.83048
"3111",82.81865,104.84382
"3112",82.39872,104.857155
"3113",81.81766,104.87049
"3114",81.12184,104.88383
"3115",80.35279,104.89716
"3116",79.55932,104.9105
"3117",78.77074,104.923836
"3118",78.01633,104.93717
"3119",77.31808,104.95051
"3120",76.6833,104.963844
"3121",76.112,104.97718
"3122",75.60418,104.99052
"3123",75.159836,105.00385
"3124",74.776535,105.01719
"3125",74.45426,105.030525
"3126",74.195465,105.04386
"3127",74.005035,105.0572
"3128",73.88785,105.07053
"3129",73.84146,105.08387
"3130",73.85855,105.097206
"3131",73.92935,105.11054
"3132",74.03433,105.12388
"3133",74.16373,105.137215
"3134",74.30045,105.15055
"3135",74.442055,105.16389
"3136",74.58366,105.17722
"3137",74.720375,105.19056
"3138",74.847336,105.203896
"3139",74.95232,105.21723
"3140",75.028,105.23057
"3141",75.07439,105.243904
"3142",75.08659,105.25724
"3143",75.0695,105.27058
"3144",75.03288,105.28391
"3145",74.98161,105.29725
"3146",74.9279,105.310585
"3147",74.87175,105.32392
"3148",74.8156,105.33726
"3149",74.75456,105.35059
"3150",74.67155,105.36393
"3151",74.56168,105.377266
"3152",74.43229,105.3906
"3153",74.30778,105.40394
"3154",74.26139,105.417274
"3155",74.461586,105.43061
"3156",75.16716,105.44395
"3157",76.63203,105.45728
"3158",78.98558,105.47062
"3159",82.161896,105.483955
"3160",85.87778,105.49729
"3161",89.705956,105.51063
"3162",93.189896,105.523964
"3163",95.990234,105.5373
"3164",97.94095,105.55064
"3165",99.02251,105.56397
"3166",99.29839,105.57731
"3167",98.88579,105.590645
"3168",97.90921,105.60398
"3169",96.51026,105.61732
"3170",94.8159,105.63065
"3171",92.92622,105.64399
"3172",90.92424,105.657326
"3173",88.86366,105.67066
"3174",86.79088,105.684
"3175",84.76936,105.697334
"3176",82.8748,105.71067
"3177",81.20241,105.72401
"3178",79.85474,105.73734
"3179",78.91478,105.75068
"3180",78.41184,105.764015
"3181",78.311745,105.77735
"3182",78.553444,105.79069
"3183",79.03929,105.80402
"3184",79.656975,105.81736
"3185",80.30152,105.830696
"3186",80.88258,105.84403
"3187",81.322044,105.85737
"3188",81.566185,105.870705
"3189",81.600365,105.88404
"3190",81.44167,105.89738
"3191",81.12184,105.91071
"3192",80.67994,105.92405
"3193",80.14038,105.937386
"3194",79.52758,105.95072
"3195",78.86107,105.96406
"3196",78.17502,105.977394
"3197",77.503624,105.99073
"3198",76.87862,106.00407
"3199",76.3122,106.0174
"3200",75.79706,106.03074
"3201",75.30877,106.044075
"3202",74.830246,106.05741
"3203",74.36637,106.07075
"3204",73.934235,106.08408
"3205",73.55581,106.09742
"3206",73.25063,106.110756
"3207",73.023575,106.12409
"3208",72.867325,106.13743
"3209",72.76967,106.150764
"3210",72.72083,106.1641
"3211",72.708626,106.17744
"3212",72.73304,106.19077
"3213",72.796524,106.20411
"3214",72.903946,106.217445
"3215",73.057755,106.23078
"3216",73.24086,106.24412
"3217",73.43618,106.257454
"3218",73.62173,106.27079
"3219",73.777985,106.28413
"3220",73.89029,106.29746
"3221",73.96109,106.3108
"3222",74.00015,106.324135
"3223",74.002594,106.33747
"3224",73.97574,106.35081
"3225",73.92691,106.36414
"3226",73.87564,106.37748
"3227",73.85367,106.390816
"3228",73.95621,106.40415
"3229",74.38834,106.41749
"3230",75.421074,106.430824
"3231",77.28878,106.44416
"3232",80.05493,106.4575
"3233",83.56573,106.47083
"3234",87.47204,106.48417
"3235",91.302666,106.497505
"3236",94.60349,106.51084
"3237",97.08156,106.52418
"3238",98.61234,106.53751
"3239",99.20805,106.55085
"3240",98.95659,106.564186
"3241",97.99954,106.57752
"3242",96.49561,106.59086
"3243",94.608376,106.604195
"3244",92.46967,106.61753
"3245",90.18448,106.63087
"3246",87.82361,106.6442
"3247",85.45052,106.65754
"3248",83.123825,106.670876
"3249",80.921646,106.68421
"3250",78.94652,106.69755
"3251",77.313194,106.710884
"3252",76.112,106.72422
"3253",75.41863,106.73756
"3254",75.25506,106.75089
"3255",75.577324,106.76423
"3256",76.29267,106.777565
"3257",77.25948,106.7909
"3258",78.32395,106.80424
"3259",79.33959,106.81757
"3260",80.19165,106.83091
"3261",80.797134,106.844246
"3262",81.13405,106.85758
"3263",81.20485,106.87092
"3264",81.03883,106.884254
"3265",80.67506,106.89759
"3266",80.15503,106.91093
"3267",79.52514,106.92426
"3268",78.81468,106.9376
"3269",78.06271,106.950935
"3270",77.296104,106.96427
"3271",76.54902,106.97761
"3272",75.84589,106.990944
"3273",75.208664,107.00428
"3274",74.64225,107.01762
"3275",74.144196,107.03095
"3276",73.69985,107.04429
"3277",73.29458,107.057625
"3278",72.921036,107.07096
"3279",72.57679,107.0843
"3280",72.274055,107.09763
"3281",72.03235,107.11097
"3282",71.871216,107.124306
"3283",71.81262,107.13764
"3284",71.86633,107.15098
"3285",72.02014,107.164314
"3286",72.25208,107.17765
"3287",72.53773,107.19099
"3288",72.850235,107.20432
"3289",73.15785,107.21766
"3290",73.45083,107.230995
"3291",73.70718,107.24433
"3292",73.90494,107.25767
"3293",74.03189,107.271
"3294",74.08072,107.28434
"3295",74.05386,107.297676
"3296",73.968414,107.31101
"3297",73.85611,107.32435
"3298",73.77066,107.337685
"3299",73.846344,107.35102
"3300",74.322426,107.36436
"3301",75.4992,107.37769
"3302",77.62325,107.39103
"3303",80.73853,107.404366
"3304",84.65217,107.4177
"3305",88.93935,107.43104
"3306",93.08003,107.444374
"3307",96.59571,107.45771
"3308",99.17876,107.47105
"3309",100.72907,107.48438
"3310",101.27352,107.49772
"3311",100.91707,107.511055
"3312",99.80133,107.52439
"3313",98.092316,107.53773
"3314",95.95117,107.55106
"3315",93.52926,107.5644
"3316",90.951096,107.577736
"3317",88.31434,107.59107
"3318",85.697105,107.60441
"3319",83.17021,107.617744
"3320",80.8069,107.63108
"3321",78.68772,107.64442
"3322",76.90547,107.65775
"3323",75.545586,107.67109
"3324",74.67399,107.684425
"3325",74.32487,107.69776
"3326",74.48112,107.7111
"3327",75.07439,107.724434
"3328",75.999695,107.73777
"3329",77.117874,107.75111
"3330",78.27512,107.76444
"3331",79.34692,107.77778
"3332",80.235596,107.791115
"3333",80.88258,107.80445
"3334",81.270775,107.81779
"3335",81.40749,107.83112
"3336",81.324486,107.84446
"3337",81.05104,107.857796
"3338",80.618904,107.87113
"3339",80.059814,107.88447
"3340",79.40795,107.897804
"3341",78.695045,107.91114
"3342",77.945526,107.92448
"3343",77.18623,107.93781
"3344",76.42451,107.95115
"3345",75.67742,107.964485
"3346",74.96208,107.97782
"3347",74.27848,107.99116
"3348",73.633934,108.00449
"3349",73.023575,108.01783
"3350",72.45472,108.031166
"3351",71.94446,108.0445
"3352",71.50744,108.05784
"3353",71.16319,108.071175
"3354",70.92882,108.08451
"3355",70.81163,108.09785
"3356",70.801865,108.11118
"3357",70.870224,108.12452
"3358",70.99962,108.137856
"3359",71.16075,108.15119
"3360",71.33654,108.16453
"3361",71.50988,108.177864
"3362",71.66613,108.1912
"3363",71.79309,108.20454
"3364",71.885864,108.21787
"3365",71.95911,108.23121
"3366",72.061646,108.244545
"3367",72.35462,108.25788
"3368",73.13832,108.27122
"3369",74.75456,108.28455
"3370",77.40841,108.29789
"3371",81.06081,108.311226
"3372",85.39437,108.32456
"3373",89.884186,108.3379
"3374",93.95407,108.351234
"3375",97.15236,108.36457
"3376",99.266655,108.37791
"3377",100.28474,108.39124
"3378",100.30183,108.40458
"3379",99.44732,108.417915
"3380",97.87991,108.43125
"3381",95.76318,108.44459
"3382",93.25826,108.457924
"3383",90.51408,108.47126
"3384",87.6527,108.4846
"3385",84.75716,108.49793
"3386",81.900665,108.51127
"3387",79.15648,108.524605
"3388",76.60761,108.53794
"3389",74.36149,108.55128
"3390",72.552376,108.56461
"3391",71.32189,108.57795
"3392",70.78722,108.591286
"3393",70.98741,108.60462
"3394",71.868774,108.61796
"3395",73.26528,108.631294
"3396",74.94499,108.64463
"3397",76.663765,108.65797
"3398",78.2092,108.6713
"3399",79.45434,108.68464
"3400",80.34547,108.697975
"3401",80.89235,108.71131
"3402",81.126724,108.72465
"3403",81.09987,108.73798
"3404",80.85573,108.75132
"3405",80.4358,108.764656
"3406",79.87671,108.77799
"3407",79.21263,108.79133
"3408",78.470436,108.804665
"3409",77.68917,108.818
"3410",76.90547,108.83134
"3411",76.155945,108.84467
"3412",75.45525,108.85801
"3413",74.810715,108.871346
"3414",74.21988,108.88468
"3415",73.673,108.89802
"3416",73.16762,108.911354
"3417",72.7013,108.92469
"3418",72.28138,108.93803
"3419",71.89563,108.95136
"3420",71.551384,108.9647
"3421",71.24864,108.978035
"3422",70.994736,108.99137
"3423",70.79942,109.00471
"3424",70.68467,109.01804
"3425",70.65049,109.03138
"3426",70.68223,109.044716
"3427",70.75304,109.05805
"3428",70.84093,109.07139
"3429",70.923935,109.084724
"3430",71.011826,109.09806
"3431",71.16075,109.1114
"3432",71.536736,109.12473
"3433",72.447395,109.13807
"3434",74.249176,109.151405
"3435",77.19356,109.16474
"3436",81.24635,109.17808
"3437",86.065765,109.191414
"3438",91.073166,109.20475
"3439",95.621574,109.21809
"3440",99.19096,109.23142
"3441",101.53231,109.24476
"3442",102.640724,109.258095
"3443",102.643166,109.27143
"3444",101.71053,109.28477
"3445",100.01373,109.2981
"3446",97.73342,109.31144
"3447",95.03075,109.324776
"3448",92.04974,109.33811
"3449",88.90517,109.35145
"3450",85.68734,109.364784
"3451",82.48905,109.37812
"3452",79.412834,109.39146
"3453",76.578316,109.40479
"3454",74.11246,109.41813
"3455",72.147095,109.431465
"3456",70.80919,109.4448
"3457",70.19638,109.45814
"3458",70.347755,109.47147
"3459",71.22423,109.48481
"3460",72.69886,109.498146
"3461",74.56168,109.51148
"3462",76.5539,109.52482
"3463",78.42161,109.538155
"3464",79.974365,109.55149
"3465",81.11452,109.56483
"3466",81.82742,109.57816
"3467",82.15213,109.5915
"3468",82.15701,109.604836
"3469",81.9202,109.61817
"3470",81.50027,109.63151
"3471",80.938736,109.644844
"3472",80.26734,109.65818
"3473",79.51049,109.67152
"3474",78.69749,109.68485
"3475",77.857635,109.69819
"3476",77.01289,109.711525
"3477",76.18524,109.72486
"3478",75.40887,109.7382
"3479",74.703285,109.75153
"3480",74.09537,109.76487
"3481",73.59731,109.778206
"3482",73.21889,109.79154
"3483",72.952774,109.80488
"3484",72.79408,109.818214
"3485",72.71351,109.83155
"3486",72.68665,109.84489
"3487",72.689095,109.85822
"3488",72.70374,109.87156
"3489",72.73548,109.884895
"3490",72.798965,109.89823
"3491",72.95033,109.91157
"3492",73.321434,109.924904
"3493",74.16861,109.93824
"3494",75.81903,109.95158
"3495",78.53147,109.96491
"3496",82.32548,109.97825
"3497",86.9276,109.991585
"3498",91.81781,110.00492
"3499",96.37354,110.01826
"3500",100.05524,110.03159
"3501",102.5626,110.04493
"3502",103.834595,110.058266
"3503",103.96399,110.0716
"3504",103.10216,110.08494
"3505",101.42733,110.098274
"3506",99.12749,110.11161
"3507",96.37354,110.12495
"3508",93.33395,110.13828
"3509",90.13565,110.15162
"3510",86.88365,110.164955
"3511",83.67559,110.17829
"3512",80.62623,110.19163
"3513",77.86008,110.20496
"3514",75.50652,110.2183
"3515",73.71694,110.231636
"3516",72.61585,110.24497
"3517",72.28138,110.25831
"3518",72.70374,110.271645
"3519",73.77554,110.28498
"3520",75.30389,110.29832
"3521",77.032425,110.31165
"3522",78.709694,110.32499
"3523",80.14038,110.338326
"3524",81.22926,110.35166
"3525",81.94705,110.365
"3526",82.32792,110.378334
"3527",82.42069,110.39167
"3528",82.27421,110.40501
"3529",81.9324,110.41834
"3530",81.42947,110.43168
"3531",80.80446,110.445015
"3532",80.096436,110.45835
"3533",79.33959,110.47169
"3534",78.57053,110.48502
"3535",77.81369,110.49836
"3536",77.08858,110.511696
"3537",76.4123,110.52503
"3538",75.79706,110.53837
"3539",75.245285,110.551704
"3540",74.75212,110.56504
"3541",74.31022,110.57838
"3542",73.917145,110.59171
"3543",73.5729,110.60505
"3544",73.27993,110.618385
"3545",73.03822,110.63172
"3546",72.84779,110.64506
"3547",72.69398,110.658394
"3548",72.57191,110.67173
"3549",72.532845,110.68507
"3550",72.742805,110.6984
"3551",73.52163,110.71174
"3552",75.27947,110.725075
"3553",78.30442,110.73841
"3554",82.581825,110.75175
"3555",87.75037,110.76508
"3556",93.19722,110.77842
"3557",98.21683,110.791756
"3558",102.233,110.80509
"3559",104.95033,110.81843
"3560",106.34196,110.831764
"3561",106.512856,110.8451
"3562",105.636375,110.85844
"3563",103.89563,110.87177
"3564",101.49081,110.88511
"3565",98.617226,110.898445
"3566",95.450676,110.91178
"3567",92.13031,110.92512
"3568",88.76601,110.93845
"3569",85.4432,110.95179
"3570",82.262,110.965126
"3571",79.3225,110.97846
"3572",76.76631,110.9918
"3573",74.76677,111.005135
"3574",73.4728,111.01847
"3575",72.97963,111.03181
"3576",73.29458,111.04514
"3577",74.302895,111.05848
"3578",75.79706,111.071815
"3579",77.52071,111.08515
"3580",79.2224,111.09849
"3581",80.69459,111.111824
"3582",81.81766,111.12516
"3583",82.530556,111.1385
"3584",82.847946,111.15183
"3585",82.80888,111.16517
"3586",82.476845,111.178505
"3587",81.917755,111.19184
"3588",81.17799,111.20518
"3589",80.308846,111.21851
"3590",79.35424,111.23185
"3591",78.35569,111.245186
"3592",77.347374,111.25852
"3593",76.36103,111.27186
"3594",75.43084,111.285194
"3595",74.56657,111.29853
"3596",73.78775,111.31187
"3597",73.09926,111.3252
"3598",72.515755,111.33854
"3599",72.042114,111.351875
"3600",71.67834,111.36521
"3601",71.414665,111.37855
"3602",71.24376,111.391884
"3603",71.14122,111.40522
"3604",71.09239,111.41856
"3605",71.11192,111.43189
"3606",71.27306,111.44523
"3607",71.783325,111.458565
"3608",72.99184,111.4719
"3609",75.26238,111.48524
"3610",78.76097,111.49857
"3611",83.36797,111.51191
"3612",88.66346,111.525246
"3613",94.02487,111.53858
"3614",98.80278,111.55192
"3615",102.51377,111.565254
"3616",104.938126,111.57859
"3617",106.056305,111.59193
"3618",105.96109,111.60526
"3619",104.816055,111.6186
"3620",102.81651,111.631935
"3621",100.18463,111.64527
"3622",97.13039,111.65861
"3623",93.839325,111.67194
"3624",90.4506,111.68528
"3625",87.078964,111.698616
"3626",83.80011,111.71195
"3627",80.709236,111.72529
"3628",77.925995,111.738625
"3629",75.5993,111.75196
"3630",73.88785,111.7653
"3631",72.9308,111.77863
"3632",72.781876,111.79197
"3633",73.375145,111.805305
"3634",74.54948,111.81864
"3635",76.07538,111.83198
"3636",77.69894,111.845314
"3637",79.200424,111.85865
"3638",80.42115,111.87199
"3639",81.26833,111.88532
"3640",81.722435,111.89866
"3641",81.80057,111.911995
"3642",81.549095,111.92533
"3643",81.02907,111.93867
"3644",80.308846,111.952
"3645",79.44213,111.96534
"3646",78.487526,111.978676
"3647",77.49874,111.99201
"3648",76.51484,112.00535
"3649",75.560234,112.018684
"3650",74.63737,112.03202
"3651",73.7438,112.04536
"3652",72.86977,112.05869
"3653",72.027466,112.07203
"3654",71.23888,112.085365
"3655",70.54795,112.0987
"3656",69.98886,112.11204
"3657",69.58846,112.125374
"3658",69.34676,112.13871
"3659",69.23445,112.15205
"3660",69.207596,112.16538
"3661",69.24666,112.17872
"3662",69.39071,112.192055
"3663",69.81796,112.20539
"3664",70.855576,112.21873
"3665",72.86,112.23206
"3666",76.03876,112.2454
"3667",80.33326,112.258736
"3668",85.38705,112.27207
"3669",90.63126,112.28541
"3670",95.4287,112.298744
"3671",99.27642,112.31208
"3672",101.89609,112.32542
"3673",103.22423,112.33875
"3674",103.326775,112.35209
"3675",102.3502,112.365425
"3676",100.509346,112.37876
"3677",98.02884,112.3921
"3678",95.13573,112.40543
"3679",92.02289,112.41877
"3680",88.851456,112.432106
"3681",85.72396,112.44544
"3682",82.72343,112.45878
"3683",79.94263,112.472115
"3684",77.48409,112.48545
"3685",75.48455,112.49879
"3686",74.06363,112.51212
"3687",73.31411,112.52546
"3688",73.25063,112.538795
"3689",73.78775,112.55213
"3690",74.77409,112.56547
"3691",76.00702,112.578804
"3692",77.29122,112.59214
"3693",78.44358,112.60548
"3694",79.33715,112.61881
"3695",79.89868,112.63215
"3696",80.1062,112.645485
"3697",79.96948,112.65882
"3698",79.52514,112.67216
"3699",78.839096,112.68549
"3700",77.97482,112.69883
"3701",76.99092,112.712166
"3702",75.948425,112.7255
"3703",74.90105,112.73884
"3704",73.89761,112.752174
"3705",72.96498,112.76551
"3706",72.12512,112.77885
"3707",71.39025,112.79218
"3708",70.76524,112.80552
"3709",70.2501,112.818855
"3710",69.837494,112.83219
"3711",69.30282,112.858864
"3712",69.16609,112.8722
"3713",69.09773,112.88554
"3714",69.0782,112.89887
"3715",69.09773,112.91221
"3716",69.15144,112.925545
"3717",69.25887,112.93888
"3718",69.52499,112.95222
"3719",70.1622,112.96555
"3720",71.483025,112.97889
"3721",73.763336,112.992226
"3722",77.10567,113.00556
"3723",81.35378,113.0189
"3724",86.10239,113.032234
"3725",90.79729,113.04557
"3726",94.87938,113.05891
"3727",97.94583,113.07224
"3728",99.80377,113.08558
"3729",100.438545,113.098915
"3730",99.9527,113.11225
"3731",98.51469,113.12559
"3732",96.35157,113.13892
"3733",93.695274,113.15226
"3734",90.758224,113.165596
"3735",87.69909,113.17893
"3736",84.63752,113.19227
"3737",81.65652,113.205605
"3738",78.84886,113.21894
"3739",76.334175,113.23228
"3740",74.268715,113.24561
"3741",72.81117,113.25895
"3742",72.07385,113.272285
"3743",72.08606,113.28562
"3744",72.75746,113.29896
"3745",73.919586,113.312294
"3746",75.34295,113.32563
"3747",76.81026,113.33897
"3748",78.13107,113.3523
"3749",79.17113,113.36564
"3750",79.84985,113.378975
"3751",80.15259,113.39231
"3752",80.10132,113.40565
"3753",79.73998,113.41898
"3754",79.132065,113.43232
"3755",78.345924,113.445656
"3756",77.44747,113.45899
"3757",76.48066,113.47233
"3758",75.4992,113.485664
"3759",74.53971,113.499
"3760",73.63149,113.51234
"3761",72.796524,113.52567
"3762",72.05676,113.53901
"3763",71.42443,113.552345
"3764",70.90196,113.56568
"3765",70.4918,113.57902
"3766",70.19394,113.592354
"3767",69.993744,113.60569
"3768",69.86923,113.619026
"3769",69.80087,113.63236
"3770",69.78134,113.6457
"3771",69.805756,113.659035
"3772",69.90341,113.67237
"3773",70.17929,113.68571
"3774",70.84825,113.69904
"3775",72.181274,113.71238
"3776",74.40543,113.725716
"3777",77.58419,113.73905
"3778",81.55154,113.75239
"3779",85.91928,113.765724
"3780",90.16983,113.77906
"3781",93.802704,113.7924
"3782",96.46632,113.80573
"3783",98.00198,113.81907
"3784",98.40482,113.832405
"3785",97.7847,113.84574
"3786",96.31495,113.85908
"3787",94.19821,113.87241
"3788",91.629814,113.88575
"3789",88.780655,113.899086
"3790",85.787445,113.91242
"3791",82.75273,113.92576
"3792",79.79126,113.939095
"3793",77.04219,113.95243
"3794",74.683754,113.96577
"3795",72.89906,113.9791
"3796",71.84192,113.99244
"3797",71.5758,114.005775
"3798",72.05432,114.01911
"3799",73.128555,114.03245
"3800",74.581215,114.045784
"3801",76.16571,114.05912
"3802",77.67452,114.07246
"3803",78.94652,114.08579
"3804",79.88403,114.09913
"3805",80.4358,114.112465
"3806",80.61402,114.1258
"3807",80.448006,114.13914
"3808",79.99634,114.15247
"3809",79.32006,114.16581
"3810",78.4802,114.179146
"3811",77.5378,114.19248
"3812",76.5539,114.20582
"3813",75.57244,114.219154
"3814",74.63737,114.23249
"3815",73.777985,114.24583
"3816",73.02113,114.25916
"3817",72.38148,114.2725
"3818",71.86389,114.285835
"3819",71.46349,114.29917
"3820",71.17784,114.31251
"3821",70.992294,114.32584
"3822",70.88243,114.33918
"3823",70.836044,114.352516
"3824",70.84093,114.36585
"3825",70.9044,114.37919
"3826",71.06554,114.392525
"3827",71.465935,114.40586
"3828",72.3473,114.4192
"3829",73.98306,114.43253
"3830",76.57343,114.44587
"3831",80.12085,114.459206
"3832",84.37873,114.47254
"3833",88.902725,114.48588
"3834",93.155716,114.499214
"3835",96.65919,114.51255
"3836",99.107956,114.52589
"3837",100.38972,114.53922
"3838",100.53132,114.55256
"3839",99.65972,114.565895
"3840",97.96536,114.57923
"3841",95.66064,114.59257
"3842",92.9482,114.6059
"3843",89.99161,114.61924
"3844",86.925156,114.632576
"3845",83.85626,114.64591
"3846",80.907,114.65925
"3847",78.21408,114.672585
"3848",75.95087,114.68592
"3849",74.29069,114.69926
"3850",73.3605,114.71259
"3851",73.196915,114.72593
"3852",73.72915,114.739265
"3853",74.79851,114.7526
"3854",76.18036,114.76594
"3855",77.65499,114.779274
"3856",79.0222,114.79261
"3857",80.130615,114.80595
"3858",80.88991,114.81928
"3859",81.26833,114.83262
"3860",81.27322,114.845955
"3861",80.938736,114.85929
"3862",80.33082,114.87263
"3863",79.520256,114.88596
"3864",78.5803,114.8993
"3865",77.57931,114.912636
"3866",76.57343,114.92597
"3867",75.60662,114.93931
"3868",74.70817,114.952644
"3869",73.900055,114.96598
"3870",73.19203,114.97932
"3871",72.603645,114.99265
"3872",72.13977,115.00599
"3873",71.79065,115.019325
"3874",71.5465,115.03266
"3875",71.395134,115.046
"3876",71.309685,115.05933
"3877",71.275505,115.07267
"3878",71.28771,115.086006
"3879",71.35363,115.09934
"3880",71.53185,115.11268
"3881",71.96399,115.126015
"3882",72.921036,115.13935
"3883",74.70573,115.15269
"3884",77.51095,115.16602
"3885",81.31716,115.17936
"3886",85.85092,115.192696
"3887",90.63615,115.20603
"3888",95.096664,115.21937
"3889",98.74174,115.232704
"3890",101.2662,115.24604
"3891",102.56504,115.25938
"3892",102.67246,115.27271
"3893",101.732506,115.28605
"3894",99.95758,115.299385
"3895",97.584496,115.31272
"3896",94.85252,115.32606
"3897",91.95209,115.33939
"3898",89.01747,115.35273
"3899",86.14389,115.366066
"3900",83.4168,115.3794
"3901",80.94362,115.39274
"3902",78.85863,115.406075
"3903",77.30831,115.41941
"3904",76.40742,115.43275
"3905",76.192566,115.44608
"3906",76.592964,115.45942
"3907",77.454796,115.472755
"3908",78.56809,115.48609
"3909",79.73022,115.49943
"3910",80.75563,115.512764
"3911",81.514915,115.5261
"3912",81.92752,115.53944
"3913",81.96658,115.55277
"3914",81.654076,115.56611
"3915",81.03639,115.579445
"3916",80.177,115.59278
"3917",79.151596,115.60612
"3918",78.04074,115.61945
"3919",76.90791,115.63279
"3920",75.81171,115.646126
"3921",74.79851,115.65946
"3922",73.90494,115.672806
"3923",73.14809,115.68614
"3924",72.52796,115.69948
"3925",72.042114,115.712814
"3926",71.68322,115.72615
"3927",71.43664,115.73949
"3928",71.28283,115.75282
"3929",71.20958,115.76616
"3930",71.18761,115.779495
"3931",71.199814,115.79283
"3932",71.22667,115.80617
"3933",71.25353,115.8195
"3934",71.292595,115.83284
"3935",71.40002,115.846176
"3936",71.7467,115.85951
"3937",72.601204,115.87285
"3938",74.27116,115.886185
"3939",76.944534,115.89952
"3940",80.601814,115.91286
"3941",84.972,115.92619
"3942",89.57412,115.93953
"3943",93.84177,115.952866
"3944",97.29641,115.9662
"3945",99.64507,115.97954
"3946",100.78279,115.992874
"3947",100.76326,116.00621
"3948",99.754944,116.01955
"3949",97.98245,116.03288
"3950",95.70458,116.04622
"3951",93.16548,116.059555
"3952",90.5507,116.07289
"3953",87.9823,116.08623
"3954",85.521324,116.09956
"3955",83.19951,116.1129
"3956",81.05104,116.126236
"3957",79.151596,116.13957
"3958",77.60128,116.15291
"3959",76.50507,116.166245
"3960",75.92645,116.17958
"3961",75.85321,116.19292
"3962",76.18768,116.20625
"3963",76.7834,116.21959
"3964",77.467,116.232925
"3965",78.09201,116.24626
"3966",78.52903,116.2596
"3967",78.709694,116.272934
"3968",78.59739,116.28627
"3969",78.20676,116.29961
"3970",77.56954,116.31294
"3971",76.74677,116.32628
"3972",75.80438,116.339615
"3973",74.80339,116.35295
"3974",73.80484,116.36629
"3975",72.85756,116.37962
"3976",71.9884,116.39296
"3977",71.219345,116.406296
"3978",70.56992,116.41963
"3979",70.030365,116.43297
"3980",69.60067,116.446304
"3981",69.280846,116.45964
"3982",69.06355,116.47298
"3983",68.93904,116.48631
"3984",68.90242,116.49965
"3985",68.9366,116.512985
"3986",69.02937,116.52632
"3987",69.16121,116.53966
"3988",69.32235,116.55299
"3989",69.49081,116.56633
"3990",69.65194,116.579666
"3991",69.79355,116.593
"3992",69.91562,116.60634
"3993",70.00107,116.619675
"3994",70.047455,116.63301
"3995",70.05966,116.64635
"3996",70.05722,116.65968
"3997",70.11093,116.67302
"3998",70.39414,116.686356
"3999",71.18028,116.69969
"4000",72.75502,116.71303
"4001",75.29168,116.726364
"4002",78.74387,116.7397
"4003",82.845505,116.75304
"4004",87.12535,116.76637
"4005",91.06584,116.77971
"4006",94.23483,116.793045
"4007",96.395515,116.80638
"4008",97.48196,116.81972
"4009",97.55764,116.83305
"4010",96.78371,116.84639
"4011",95.360344,116.859726
"4012",93.507286,116.87306
"4013",91.42962,116.8864
"4014",89.2958,116.899734
"4015",87.21568,116.91307
"4016",85.24788,116.92641
"4017",83.40948,116.93974
"4018",81.70779,116.95308
"4019",80.181885,116.966415
"4020",78.887924,116.97975
"4021",77.8967,116.99309
"4022",77.26681,117.006424
"4023",77.01045,117.01976
"4024",77.07637,117.0331
"4025",77.36935,117.04643
"4026",77.76242,117.05977
"4027",78.14084,117.073105
"4028",78.40452,117.08644
"4029",78.487526,117.09978
"4030",78.363014,117.11311
"4031",78.028534,117.12645
"4032",77.50851,117.139786
"4033",76.839554,117.15312
"4034",76.07294,117.16646
"4035",75.25506,117.179794
"4036",74.43473,117.19313
"4037",73.64858,117.20647
"4038",72.92348,117.2198
"4039",72.274055,117.23314
"4040",71.71252,117.246475
"4041",71.24376,117.25981
"4042",70.86534,117.27315
"4043",70.57481,117.28648
"4044",70.364845,117.29982
"4045",70.22812,117.313156
"4046",70.15732,117.32649
"4047",70.14511,117.33983
"4048",70.18417,117.353165
"4049",70.26719,117.3665
"4050",70.37705,117.37984
"4051",70.51377,117.39317
"4052",70.657814,117.40651
"4053",70.804306,117.419846
"4054",70.95079,117.43318
"4055",71.1046,117.44652
"4056",71.25353,117.459854
"4057",71.395134,117.47319
"4058",71.52453,117.48653
"4059",71.63683,117.49986
"4060",71.71984,117.5132
"4061",71.776,117.526535
"4062",71.80286,117.53987
"4063",71.8053,117.55321
"4064",71.783325,117.56654
"4065",71.744255,117.57988
"4066",71.70519,117.593216
"4067",71.69543,117.60655
"4068",71.78577,117.61989
"4069",72.149536,117.633224
"4070",73.05043,117.64656
"4071",74.720375,117.6599
"4072",77.24483,117.67323
"4073",80.50416,117.68657
"4074",84.173645,117.699905
"4075",87.784546,117.71324
"4076",90.88518,117.72658
"4077",93.16792,117.739914
"4078",94.520485,117.75325
"4079",94.97948,117.76659
"4080",94.66209,117.77992
"4081",93.73434,117.79326
"4082",92.37934,117.806595
"4083",90.777756,117.81993
"4084",89.08339,117.83327
"4085",87.40612,117.8466
"4086",85.81674,117.85994
"4087",84.33723,117.873276
"4088",82.98711,117.88661
"4089",81.778595,117.89995
"4090",80.76784,117.913284
"4091",80.01099,117.92662
"4092",79.569084,117.93996
"4093",79.45678,117.95329
"4094",79.64721,117.96663
"4095",80.05493,117.979965
"4096",80.56519,117.9933
"4097",81.06813,118.00664
"4098",81.46853,118.01997
"4099",81.69802,118.03331
"4100",81.72488,118.046646
"4101",81.54665,118.05998
"4102",81.18288,118.07332
"4103",80.66529,118.086655
"4104",80.04761,118.09999
"4105",79.361565,118.11333
"4106",78.64866,118.12666
"4107",77.94797,118.14
"4108",77.28634,118.153336
"4109",76.68818,118.16667
"4110",76.16815,118.18001
"4111",75.736015,118.193344
"4112",75.39422,118.20668
"4113",75.13298,118.22002
"4114",74.94255,118.23335
"4115",74.810715,118.24669
"4116",74.7277,118.260025
"4117",74.68864,118.27336
"4118",74.68131,118.2867
"4119",74.70084,118.30003
"4120",74.74967,118.31337
"4121",74.82048,118.326706
"4122",74.90349,118.34004
"4123",74.98894,118.35338
"4124",75.0695,118.366714
"4125",75.14519,118.38005
"4126",75.208664,118.39339
"4127",75.26238,118.40672
"4128",75.30877,118.42006
"4129",75.34783,118.433395
"4130",75.37713,118.44673
"4131",75.39666,118.46007
"4132",75.40154,118.473404
"4133",75.39422,118.48674
"4134",75.372246,118.50008
"4135",75.338066,118.51341
"4136",75.29168,118.52675
"4137",75.23308,118.540085
"4138",75.16228,118.55342
"4139",75.08171,118.56676
"4140",75.003586,118.58009
"4141",74.95964,118.59343
"4142",75.035324,118.606766
"4143",75.406425,118.6201
"4144",76.3122,118.63344
"4145",77.93088,118.646774
"4146",80.2942,118.66011
"4147",83.228806,118.67345
"4148",86.39536,118.68678
"4149",89.36172,118.70012
"4150",91.74212,118.713455
"4151",93.314415,118.72679
"4152",94.032196,118.74013
"4153",93.978485,118.75346
"4154",93.28756,118.7668
"4155",92.13031,118.780136
"4156",90.667885,118.79347
"4157",89.04921,118.80681
"4158",87.38171,118.820145
"4159",85.750824,118.83348
"4160",84.210266,118.84682
"4161",82.78691,118.86015
"4162",81.51736,118.87349
"4163",80.462654,118.886826
"4164",79.67895,118.90016
"4165",79.22972,118.9135
"4166",79.151596,118.926834
"4167",79.4226,118.94017
"4168",79.95972,118.95351
"4169",80.65064,118.96684
"4170",81.36599,118.98018
"4171",81.99588,118.993515
"4172",82.45243,119.00685
"4173",82.69657,119.02019
"4174",82.7161,119.03352
"4175",82.52323,119.04686
"4176",82.144806,119.060196
"4177",81.636986,119.07353
"4178",81.041275,119.08687
"4179",80.39918,119.100204
"4180",79.742424,119.11354
"4181",79.10765,119.12688
"4182",78.50706,119.14021
"4183",77.962616,119.15355
"4184",77.486534,119.166885
"4185",77.09346,119.18022
"4186",76.77608,119.19356
"4187",76.53437,119.206894
"4188",76.35615,119.22023
"4189",76.23651,119.23357
"4190",76.16083,119.2469
"4191",76.12665,119.26024
"4192",76.12421,119.273575
"4193",76.14618,119.28691
"4194",76.192566,119.30025
"4195",76.25117,119.31358
"4196",76.31953,119.32692
"4197",76.39521,119.340256
"4198",76.470894,119.35359
"4199",76.541695,119.36693
"4200",76.60517,119.380264
"4201",76.663765,119.3936
"4202",76.70771,119.40694
"4203",76.74433,119.42027
"4204",76.756546,119.43361
"4205",76.749214,119.446945
"4206",76.715034,119.46028
"4207",76.66621,119.47362
"4208",76.60517,119.48695
"4209",76.53193,119.50029
"4210",76.44892,119.513626
"4211",76.34882,119.52696
"4212",76.23895,119.5403
"4213",76.121765,119.553635
"4214",76.019226,119.56697
"4215",75.9704,119.58031
"4216",76.0827,119.59364
"4217",76.54902,119.60698
"4218",77.58419,119.620316
"4219",79.30297,119.63365
"4220",81.66384,119.64699
"4221",84.439766,119.660324
"4222",87.259636,119.67366
"4223",89.71328,119.687
"4224",91.50286,119.70033
"4225",92.49409,119.71367
"4226",92.71381,119.727005
"4227",92.264595,119.74034
"4228",91.30511,119.75368
"4229",89.98428,119.76701
"4230",88.448616,119.78035
"4231",86.80797,119.793686
"4232",85.152664,119.80702
"4233",83.54131,119.82036
"4234",82.01785,119.833694
"4235",80.63111,119.84703
"4236",79.44213,119.86037
"4237",78.52659,119.8737
"4238",77.960175,119.88704
"4239",77.79416,119.900375
"4240",78.02609,119.91371
"4241",78.59739,119.92705
"4242",79.38842,119.940384
"4243",80.26978,119.95372
"4244",81.109634,119.96706
"4245",81.80545,119.98039
"4246",82.286415,119.99373
"4247",82.52567,120.007065
"4248",82.530556,120.0204
"4249",82.320595,120.03374
"4250",81.93973,120.04707
"4251",81.43679,120.06041
"4252",80.85817,120.073746
"4253",80.24048,120.08708
"4254",79.62035,120.10042
"4255",79.0222,120.113754
"4256",78.467995,120.12709
"4257",77.97482,120.14043
"4258",77.54513,120.15376
"4259",77.18379,120.1671
"4260",76.88594,120.180435
"4261",76.64423,120.19377
"4262",76.453804,120.20711
"4263",76.30976,120.22044
"4264",76.209656,120.23378
"4265",76.14374,120.247116
"4266",76.10956,120.26045
"4267",76.09979,120.27379
"4268",76.11444,120.287125
"4269",76.14618,120.30046
"4270",76.18524,120.3138
"4271",76.23407,120.32713
"4272",76.29023,120.34047
"4273",76.34882,120.353806
"4274",76.39765,120.36714
"4275",76.436714,120.38048
"4276",76.456245,120.393814
"4277",76.456245,120.40715
"4278",76.42939,120.42049
"4279",76.37812,120.43382
"4280",76.30488,120.44716
"4281",76.209656,120.460495
"4282",76.09247,120.47383
"4283",75.95331,120.48717
"4284",75.80438,120.5005
"4285",75.648125,120.51384
"4286",75.50164,120.527176
"4287",75.39666,120.54051
"4288",75.40887,120.55385
"4289",75.70672,120.567184
"4290",76.50507,120.58052
"4291",77.96994,120.59386
"4292",80.11597,120.60719
"4293",82.7625,120.62053
"4294",85.57992,120.633865
"4295",88.162964,120.6472
"4296",90.162506,120.66054
"4297",91.39056,120.673874
"4298",91.83246,120.68721
"4299",91.58587,120.70055
"4300",90.78752,120.71388
"4301",89.58877,120.72722
"4302",88.12634,120.740555
"4303",86.505226,120.75389
"4304",84.808426,120.76723
"4305",83.09697,120.78056
"4306",81.41726,120.7939
"4307",79.83765,120.807236
"4308",78.44358,120.82057
"4309",77.330284,120.83391
"4310",76.5832,120.847244
"4311",76.27314,120.86058
"4312",76.422066,120.87392
"4313",76.99092,120.88725
"4314",77.88937,120.90059
"4315",78.98558,120.913925
"4316",80.130615,120.92726
"4317",81.18776,120.9406
"4318",82.04471,120.95393
"4319",82.64042,120.96727
"4320",82.95537,120.980606
"4321",83.01152,120.99394
"4322",82.85039,121.00728
"4323",82.51591,121.020615
"4324",82.056915,121.03395
"4325",81.514915,121.04729
"4326",80.92653,121.06062
"4327",80.323494,121.07396
"4328",79.7351,121.087296
"4329",79.18089,121.10063
"4330",78.66819,121.11397
"4331",78.21164,121.127304
"4332",77.81613,121.14064
"4333",77.486534,121.15398
"4334",77.22041,121.16731
"4335",77.0251,121.18065
"4336",76.89082,121.193985
"4337",76.81514,121.20732
"4338",76.78584,121.22066
"4339",76.81026,121.23399
"4340",76.87129,121.24733
"4341",76.97139,121.260666
"4342",77.100784,121.274
"4343",77.24727,121.28734
"4344",77.39864,121.300674
"4345",77.54757,121.31401
"4346",77.67452,121.32735
"4347",77.77219,121.34068
"4348",77.83078,121.35402
"4349",77.84787,121.367355
"4350",77.82834,121.38069
"4351",77.77951,121.39403
"4352",77.72091,121.407364
"4353",77.70382,121.4207
"4354",77.840546,121.43404
"4355",78.28245,121.44737
"4356",79.202866,121.46071
"4357",80.69459,121.474045
"4358",82.70878,121.48738
"4359",85.04524,121.50072
"4360",87.39147,121.51405
"4361",89.42519,121.52739
"4362",90.89006,121.540726
"4363",91.68841,121.55406
"4364",91.827576,121.5674
"4365",91.39788,121.580734
"4366",90.51652,121.59407
"4367",89.305565,121.60741
"4368",87.87244,121.62074
"4369",86.29771,121.63408
"4370",84.65217,121.647415
"4371",82.97734,121.66075
"4372",81.34402,121.67409
"4373",79.82544,121.68742
"4374",78.519264,121.70076
"4375",77.52804,121.714096
"4376",76.94209,121.72743
"4377",76.805374,121.74077
"4378",77.10811,121.754105
"4379",77.786835,121.76744
"4380",78.72434,121.78078
"4381",79.783936,121.79411
"4382",80.831314,121.80745
"4383",81.74685,121.820786
"4384",82.45243,121.83412
"4385",82.90898,121.84746
"4386",83.11162,121.860794
"4387",83.089645,121.87413
"4388",82.879684,121.88747
"4389",82.52567,121.9008
"4390",82.07156,121.91414
"4391",81.55398,121.927475
"4392",81.00221,121.94081
"4393",80.4358,121.95415
"4394",79.86694,121.96748
"4395",79.31762,121.98082
"4396",78.79271,121.994156
"4397",78.311745,122.00749
"4398",77.87717,122.02083
"4399",77.50118,122.034164
"4400",77.17647,122.0475
"4401",76.912796,122.06084
"4402",76.70527,122.07417
"4403",76.561226,122.08751
"4404",76.47822,122.100845
"4405",76.46357,122.11418
"4406",76.50263,122.12752
"4407",76.59052,122.140854
"4408",76.70527,122.15419
"4409",76.839554,122.16753
"4410",76.97383,122.18086
"4411",77.09102,122.1942
"4412",77.18379,122.207535
"4413",77.24971,122.22087
"4414",77.27169,122.23421
"4415",77.2546,122.24754
"4416",77.26681,122.26088
"4417",77.48165,122.274216
"4418",78.153046,122.28755
"4419",79.52758,122.30089
"4420",81.71023,122.314224
"4421",84.60822,122.32756
"4422",87.923706,122.3409
"4423",91.23186,122.35423
"4424",94.117645,122.36757
"4425",96.29786,122.380905
"4426",97.64309,122.39424
"4427",98.14603,122.40758
"4428",97.89212,122.42091
"4429",96.99855,122.43425
"4430",95.60937,122.447586
"4431",93.875946,122.46092
"4432",91.93988,122.47426
"4433",89.91104,122.487595
"4434",87.87488,122.50093
"4435",85.88754,122.51427
"4436",84.00275,122.5276
"4437",82.28153,122.54094
"4438",80.797134,122.554276
"4439",79.64965,122.56761
"4440",78.92699,122.58095
"4441",78.68528,122.594284
"4442",78.91966,122.60762
"4443",79.551994,122.62096
"4444",80.45289,122.63429
"4445",81.46609,122.64763
"4446",82.4329,122.660965
"4447",83.228806,122.6743
"4448",83.773254,122.68764
"4449",84.02716,122.70097
"4450",83.99786,122.71431
"4451",83.71221,122.727646
"4452",83.21904,122.74098
"4453",82.57206,122.75432
"4454",81.8201,122.767654
"4455",81.007095,122.78099
"4456",80.15991,122.79433
"4457",79.310295,122.80766
"4458",78.485085,122.821
"4459",77.70626,122.834335
"4460",76.99092,122.84767
"4461",76.36347,122.86101
"4462",75.81903,122.874344
"4463",75.36492,122.88768
"4464",74.986496,122.90102
"4465",74.686195,122.91435
"4466",74.4567,122.92769
"4467",74.302895,122.941025
"4468",74.21744,122.95436
"4469",74.20035,122.9677
"4470",74.24185,122.98103
"4471",74.34196,122.99437
"4472",74.48112,123.007706
"4473",74.63981,123.02104
"4474",74.80095,123.03438
"4475",74.94499,123.047714
"4476",75.054855,123.06105
"4477",75.11833,123.07439
"4478",75.142746,123.08772
"4479",75.159836,123.10106
"4480",75.27703,123.114395
"4481",75.70916,123.12773
"4482",76.73945,123.14107
"4483",78.59251,123.1544
"4484",81.322044,123.16774
"4485",84.77913,123.181076
"4486",88.61707,123.19441
"4487",92.386665,123.20775
"4488",95.66064,123.221085
"4489",98.15335,123.23442
"4490",99.72564,123.24776
"4491",100.367744,123.26109
"4492",100.13336,123.27443
"4493",99.1519,123.287766
"4494",97.59426,123.3011
"4495",95.641106,123.31444
"4496",93.46334,123.327774
"4497",91.212326,123.34111
"4498",88.988174,123.35445
"4499",86.85924,123.36778
"4500",84.857254,123.38112
"4501",83.02617,123.394455
"4502",81.41726,123.40779
"4503",80.1062,123.42113
"4504",79.17357,123.43446
"4505",78.67307,123.4478
"4506",78.61448,123.461136
"4507",78.93675,123.47447
"4508",79.52758,123.48781
"4509",80.24536,123.501144
"4510",80.95094,123.51448
"4511",81.52224,123.52782
"4512",81.88846,123.54115
"4513",82.003204,123.55449
"4514",81.85916,123.567825
"4515",81.48318,123.58116
"4516",80.907,123.5945
"4517",80.17212,123.607834
"4518",79.32006,123.62117
"4519",78.40696,123.63451
"4520",77.47433,123.64784
"4521",76.561226,123.66118
"4522",75.699394,123.674515
"4523",74.91325,123.68785
"4524",74.215,123.70119
"4525",73.60464,123.71452
"4526",73.08217,123.72786
"4527",72.64271,123.741196
"4528",72.291145,123.75453
"4529",72.01526,123.76787
