"","ppg","time"
"1",78.030975,309.16745
"2",79.0515,309.1808
"3",79.957275,309.19412
"4",80.6482,309.20746
"5",81.08522,309.2208
"6",81.27322,309.23413
"7",81.23659,309.24747
"8",81.01686,309.2608
"9",80.65797,309.27414
"10",80.201416,309.28748
"11",79.68627,309.3008
"12",79.14183,309.31415
"13",78.59739,309.32748
"14",78.07248,309.34082
"15",77.576866,309.35416
"16",77.120316,309.3675
"17",76.700386,309.38083
"18",76.317085,309.39417
"19",75.9704,309.4075
"20",75.66033,309.42084
"21",75.389336,309.43417
"22",75.159836,309.4475
"23",74.98161,309.46085
"24",74.87419,309.47418
"25",74.92058,309.48752
"26",75.284355,309.50085
"27",76.18768,309.5142
"28",77.79904,309.52753
"29",80.113525,309.54086
"30",82.933395,309.5542
"31",85.91196,309.56754
"32",88.636604,309.58087
"33",90.74845,309.5942
"34",92.05951,309.60754
"35",92.56489,309.62088
"36",92.35493,309.63422
"37",91.56878,309.64755
"38",90.35783,309.6609
"39",88.86122,309.67422
"40",87.19371,309.68756
"41",85.43099,309.7009
"42",83.631645,309.71423
"43",81.85916,309.72757
"44",80.184326,309.7409
"45",78.70725,309.75424
"46",77.52804,309.76758
"47",76.74433,309.7809
"48",76.4123,309.79425
"49",76.53925,309.8076
"50",77.06172,309.82092
"51",77.86008,309.83426
"52",78.79271,309.8476
"53",79.70336,309.86093
"54",80.47486,309.87427
"55",81.02907,309.8876
"56",81.33425,309.90094
"57",81.40017,309.91428
"58",81.26101,309.9276
"59",80.96071,309.94095
"60",80.54322,309.95428
"61",80.05737,309.96762
"62",79.537346,309.98096
"63",79.00267,309.9943
"64",78.485085,310.00763
"65",77.994354,310.02097
"66",77.53292,310.0343
"67",77.11543,310.04764
"68",76.74433,310.06097
"69",76.41474,310.0743
"70",76.12665,310.08765
"71",75.877625,310.10098
"72",75.66277,310.11432
"73",75.47723,310.12766
"74",75.32586,310.141
"75",75.21599,310.15433
"76",75.17937,310.16766
"77",75.30877,310.181
"78",75.77753,310.19434
"79",76.788284,310.20767
"80",78.470436,310.221
"81",80.78737,310.23434
"82",83.51934,310.24768
"83",86.30747,310.26102
"84",88.763565,310.27435
"85",90.579994,310.2877
"86",91.612724,310.30103
"87",91.88617,310.31436
"88",91.50042,310.3277
"89",90.59464,310.34103
"90",89.31289,310.35437
"91",87.77478,310.3677
"92",86.08774,310.38104
"93",84.32258,310.39438
"94",82.545204,310.4077
"95",80.816666,310.42105
"96",79.22972,310.4344
"97",77.874725,310.44772
"98",76.86397,310.46106
"99",76.27314,310.4744
"100",76.14374,310.48773
"101",76.44648,310.50107
"102",77.0959,310.5144
"103",77.962616,310.52774
"104",78.89525,310.54108
"105",79.75952,310.5544
"106",80.45289,310.56775
"107",80.91676,310.5811
"108",81.13893,310.59442
"109",81.13405,310.60776
"110",80.936295,310.6211
"111",80.59449,310.63443
"112",80.15259,310.64777
"113",79.64477,310.6611
"114",79.11009,310.67444
"115",78.57542,310.68777
"116",78.05539,310.7011
"117",77.57198,310.71445
"118",77.13008,310.72778
"119",76.73945,310.74112
"120",76.39521,310.75446
"121",76.102234,310.7678
"122",75.860535,310.78113
"123",75.667656,310.79446
"124",75.511406,310.8078
"125",75.389336,310.82114
"126",75.29656,310.83447
"127",75.22331,310.8478
"128",75.174484,310.86115
"129",75.157394,310.87448
"130",75.22087,310.88782
"131",75.474785,310.90115
"132",76.09735,310.9145
"133",77.27169,310.92783
"134",79.080795,310.94116
"135",81.43923,310.9545
"136",84.1004,310.96783
"137",86.70298,310.98117
"138",88.87831,310.9945
"139",90.374916,311.00784
"140",91.104904,311.02118
"141",91.121994,311.03452
"142",90.53849,311.04785
"143",89.50088,311.0612
"144",88.145874,311.07452
"145",86.590675,311.08786
"146",84.910965,311.1012
"147",83.177536,311.11453
"148",81.45388,311.12787
"149",79.81323,311.1412
"150",78.348366,311.15454
"151",77.17403,311.16788
"152",76.39033,311.1812
"153",76.06561,311.19455
"154",76.209656,311.2079
"155",76.76631,311.22122
"156",77.608604,311.23456
"157",78.590065,311.2479
"158",79.56176,311.26123
"159",80.396736,311.27457
"160",81.01686,311.2879
"161",81.38796,311.30124
"162",81.51736,311.31458
"163",81.42947,311.3279
"164",81.17067,311.34125
"165",80.780045,311.35458
"166",80.30152,311.36792
"167",79.77905,311.38126
"168",79.24193,311.3946
"169",78.71458,311.40793
"170",78.20676,311.42126
"171",77.738,311.4346
"172",77.30831,311.44794
"173",76.925,311.46127
"174",76.59785,311.4746
"175",76.32197,311.48795
"176",76.09735,311.50128
"177",75.914246,311.51462
"178",75.772644,311.52795
"179",75.66277,311.5413
"180",75.58465,311.55463
"181",75.53338,311.56796
"182",75.50652,311.5813
"183",75.4992,311.59464
"184",75.53826,311.60797
"185",75.699394,311.6213
"186",76.138855,311.63464
"187",77.04219,311.64798
"188",78.54368,311.66132
"189",80.638435,311.67465
"190",83.15312,311.688
"191",85.785,311.70132
"192",88.18005,311.71466
"193",90.03555,311.728
"194",91.19035,311.74133
"195",91.629814,311.75467
"196",91.41497,311.768
"197",90.66056,311.78134
"198",89.495995,311.79468
"199",88.043335,311.808
"200",86.41001,311.82135
"201",84.68391,311.8347
"202",82.930954,311.84802
"203",81.22438,311.86136
"204",79.65453,311.8747
"205",78.32639,311.88803
"206",77.3547,311.90137
"207",76.824905,311.9147
"208",76.77852,311.92804
"209",77.188675,311.94138
"210",77.95041,311.9547
"211",78.91478,311.96805
"212",79.92554,311.98138
"213",80.84108,311.99472
"214",81.55886,312.00806
"215",82.022736,312.0214
"216",82.22293,312.03473
"217",82.18387,312.04807
"218",81.934845,312.0614
"219",81.52224,312.07474
"220",80.99489,312.08807
"221",80.40406,312.1014
"222",79.77661,312.11475
"223",79.15404,312.12808
"224",78.56077,312.14142
"225",78.02121,312.15475
"226",77.53536,312.1681
"227",77.11055,312.18143
"228",76.749214,312.19476
"229",76.45136,312.2081
"230",76.19989,312.22144
"231",75.99481,312.23477
"232",75.83124,312.2481
"233",75.70672,312.26144
"234",75.60418,312.27478
"235",75.52361,312.28812
"236",75.4699,312.30145
"237",75.44549,312.3148
"238",75.48699,312.32812
"239",75.7116,312.34146
"240",76.30488,312.3548
"241",77.46212,312.36813
"242",79.290764,312.38147
"243",81.73464,312.3948
"244",84.576485,312.40814
"245",87.47692,312.42148
"246",90.06729,312.4348
"247",92.069275,312.44815
"248",93.33639,312.4615
"249",93.856415,312.47482
"250",93.695274,312.48816
"251",92.95552,312.5015
"252",91.76898,312.51483
"253",90.269936,312.52817
"254",88.57801,312.5415
"255",86.78111,312.55484
"256",84.95979,312.56818
"257",83.18974,312.5815
"258",81.55154,312.59485
"259",80.14038,312.6082
"260",79.05638,312.62152
"261",78.38743,312.63486
"262",78.17746,312.6482
"263",78.39475,312.66153
"264",78.94896,312.67487
"265",79.70336,312.6882
"266",80.51392,312.70154
"267",81.24391,312.71487
"268",81.80057,312.7282
"269",82.12283,312.74155
"270",82.19852,312.75488
"271",82.037384,312.76822
"272",81.671165,312.78156
"273",81.14137,312.7949
"274",80.49683,312.80823
"275",79.783936,312.82156
"276",79.04173,312.8349
"277",78.3093,312.84824
"278",77.62325,312.86157
"279",77.00557,312.8749
"280",76.45869,312.88824
"281",75.98993,312.90158
"282",75.5993,312.91492
"283",75.27215,312.92825
"284",75.01091,312.9416
"285",74.810715,312.95493
"286",74.666664,312.96826
"287",74.55924,312.9816
"288",74.476234,312.99493
"289",74.40055,313.00827
"290",74.33219,313.0216
"291",74.27116,313.03494
"292",74.23941,313.04828
"293",74.31266,313.0616
"294",74.64225,313.07495
"295",75.440605,313.0883
"296",76.895706,313.10162
"297",79.07591,313.11496
"298",81.85916,313.1283
"299",84.95979,313.14163
"300",87.98474,313.15497
"301",90.545815,313.1683
"302",92.37934,313.18164
"303",93.385216,313.19498
"304",93.592735,313.2083
"305",93.102005,313.22165
"306",92.06439,313.235
"307",90.64103,313.24832
"308",88.98573,313.26166
"309",87.235214,313.275
"310",85.4847,313.28833
"311",83.79523,313.30167
"312",82.2034,313.315
"313",80.74586,313.32834
"314",79.47387,313.34167
"315",78.46067,313.355
"316",77.7673,313.36835
"317",77.435265,313.38168
"318",77.45968,313.39502
"319",77.7673,313.40836
"320",78.24826,313.4217
"321",78.785385,313.43503
"322",79.256584,313.44836
"323",79.58129,313.4617
"324",79.7058,313.47504
"325",79.61791,313.48837
"326",79.3225,313.5017
"327",78.853745,313.51505
"328",78.260475,313.52838
"329",77.58663,313.54172
"330",76.87129,313.55505
"331",76.16083,313.5684
"332",75.48455,313.58173
"333",74.86931,313.59506
"334",74.32975,313.6084
"335",73.8732,313.62173
"336",73.49966,313.63507
"337",73.199356,313.6484
"338",72.969864,313.66174
"339",72.80385,313.67508
"340",72.69642,313.68842
"341",72.64027,313.70175
"342",72.62562,313.7151
"343",72.637825,313.72842
"344",72.66712,313.74176
"345",72.7013,313.7551
"346",72.73548,313.76843
"347",72.7599,313.78177
"348",72.76967,313.7951
"349",72.76723,313.80844
"350",72.7599,313.82178
"351",72.80385,313.8351
"352",73.01625,313.84845
"353",73.59731,313.8618
"354",74.74967,313.87512
"355",76.59052,313.88846
"356",79.06615,313.9018
"357",81.94949,313.91513
"358",84.87923,313.92847
"359",87.45983,313.9418
"360",89.391014,313.95514
"361",90.53849,313.96848
"362",90.914474,313.9818
"363",90.62882,313.99515
"364",89.8378,314.00848
"365",88.70985,314.02182
"366",87.40124,314.03516
"367",86.03403,314.0485
"368",84.69123,314.06183
"369",83.4168,314.07516
"370",82.22293,314.0885
"371",81.11696,314.10184
"372",80.1062,314.11517
"373",79.21507,314.1285
"374",78.49729,314.14185
"375",78.009,314.15518
"376",77.77219,314.16852
"377",77.786835,314.18185
"378",77.996796,314.1952
"379",78.31907,314.20853
"380",78.6511,314.22186
"381",78.91478,314.2352
"382",79.0515,314.24854
"383",79.029526,314.26187
"384",78.84886,314.2752
"385",78.52415,314.28854
"386",78.08957,314.30188
"387",77.58175,314.31522
"388",77.04219,314.32855
"389",76.50507,314.3419
"390",75.99725,314.35522
"391",75.5407,314.36856
"392",75.13542,314.3819
"393",74.78142,314.39523
"394",74.48356,314.40857
"395",74.23697,314.4219
"396",74.04166,314.43524
"397",73.88785,314.44858
"398",73.780426,314.4619
"399",73.70962,314.47525
"400",73.67544,314.4886
"401",73.670555,314.50192
"402",73.69497,314.51526
"403",73.741356,314.5286
"404",73.812164,314.54193
"405",73.89029,314.55527
"406",73.97574,314.5686
"407",74.06119,314.58194
"408",74.141754,314.59528
"409",74.20767,314.6086
"410",74.25407,314.62195
"411",74.27604,314.63528
"412",74.27116,314.64862
"413",74.23941,314.66196
"414",74.18814,314.6753
"415",74.127106,314.68863
"416",74.08072,314.70197
"417",74.08804,314.7153
"418",74.268715,314.72864
"419",74.8156,314.74197
"420",75.9411,314.7553
"421",77.7551,314.76865
"422",80.20386,314.78198
"423",83.05791,314.79532
"424",85.93393,314.80865
"425",88.429085,314.822
"426",90.247955,314.83533
"427",91.27825,314.84866
"428",91.55413,314.862
"429",91.20012,314.87534
"430",90.3798,314.88867
"431",89.26162,314.902
"432",87.99695,314.91534
"433",86.70298,314.92868
"434",85.470055,314.94202
"435",84.34211,314.95535
"436",83.32647,314.9687
"437",82.4036,314.98203
"438",81.56374,314.99536
"439",80.816666,315.0087
"440",80.198975,315.02203
"441",79.74975,315.03537
"442",79.51049,315.0487
"443",79.47875,315.06204
"444",79.62524,315.07538
"445",79.87671,315.0887
"446",80.15747,315.10205
"447",80.38697,315.1154
"448",80.50904,315.12872
"449",80.48951,315.14206
"450",80.325935,315.1554
"451",80.0354,315.16873
"452",79.64233,315.18207
"453",79.17845,315.1954
"454",78.68528,315.20874
"455",78.18967,315.22208
"456",77.72335,315.2354
"457",77.296104,315.24875
"458",76.910355,315.2621
"459",76.578316,315.27542
"460",76.29511,315.28876
"461",76.053406,315.3021
"462",75.85809,315.31543
"463",75.70672,315.32877
"464",75.59441,315.3421
"465",75.51385,315.35544
"466",75.46014,315.36877
"467",75.43328,315.3821
"468",75.42596,315.39545
"469",75.43572,315.40878
"470",75.45037,315.42212
"471",75.4699,315.43546
"472",75.48943,315.4488
"473",75.50652,315.46213
"474",75.51629,315.47546
"475",75.526054,315.4888
"476",75.53582,315.50214
"477",75.5407,315.51547
"478",75.51629,315.5288
"479",75.440605,315.54214
"480",75.299,315.55548
"481",75.0988,315.56882
"482",74.861984,315.58215
"483",74.617836,315.5955
"484",74.39567,315.60883
"485",74.20767,315.62216
"486",74.04898,315.6355
"487",73.917145,315.64883
"488",73.81949,315.66217
"489",73.78531,315.6755
"490",73.9147,315.68884
"491",74.41764,315.70218
"492",75.526054,315.7155
"493",77.36202,315.72885
"494",79.88159,315.7422
"495",82.83818,315.75552
"496",85.83383,315.76886
"497",88.431526,315.7822
"498",90.32365,315.79553
"499",91.39544,315.80887
"500",91.69329,315.8222
"501",91.351494,315.83554
"502",90.531166,315.84888
"503",89.391014,315.8622
"504",88.08972,315.87555
"505",86.76158,315.8889
"506",85.50179,315.90222
"507",84.37141,315.91556
"508",83.3753,315.9289
"509",82.48661,315.94223
"510",81.68093,315.95557
"511",80.94606,315.9689
"512",80.308846,315.98224
"513",79.81079,315.99557
"514",79.49828,316.0089
"515",79.395744,316.02225
"516",79.47875,316.03558
"517",79.693596,316.04892
"518",79.974365,316.06226
"519",80.24292,316.0756
"520",80.41871,316.08893
"521",80.46754,316.10226
"522",80.37232,316.1156
"523",80.14038,316.12894
"524",79.78882,316.14227
"525",79.34692,316.1556
"526",78.84886,316.16895
"527",78.32395,316.18228
"528",77.81125,316.19562
"529",77.34249,316.20895
"530",76.961624,316.2223
"531",76.69306,316.23563
"532",76.541695,316.24896
"533",76.51484,316.2623
"534",76.60761,316.27563
"535",76.77852,316.28897
"536",76.97383,316.3023
"537",77.12764,316.31564
"538",77.19844,316.32898
"539",77.1667,316.34232
"540",77.05928,316.35565
"541",76.93233,316.369
"542",76.84444,316.38232
"543",76.839554,316.39566
"544",76.929886,316.409
"545",77.08858,316.42233
"546",77.28878,316.43567
"547",77.4963,316.449
"548",77.679405,316.46234
"549",77.81613,316.47568
"550",77.8967,316.489
"551",77.91379,316.50235
"552",77.87961,316.5157
"553",77.821014,316.52902
"554",77.75021,316.54236
"555",77.69161,316.5557
"556",77.65743,316.56903
"557",77.65011,316.58237
"558",77.659874,316.5957
"559",77.68185,316.60904
"560",77.68429,316.62238
"561",77.642784,316.6357
"562",77.5378,316.64905
"563",77.39864,316.66238
"564",77.26681,316.67572
"565",77.222855,316.68906
"566",77.43282,316.7024
"567",78.11154,316.71573
"568",79.43481,316.72906
"569",81.43923,316.7424
"570",84.02228,316.75574
"571",86.90318,316.76907
"572",89.69131,316.7824
"573",92.01312,316.79575
"574",93.61471,316.80908
"575",94.42039,316.82242
"576",94.49119,316.83575
"577",93.94919,316.8491
"578",92.95308,316.86243
"579",91.66155,316.87576
"580",90.21622,316.8891
"581",88.72694,316.90244
"582",87.276726,316.91577
"583",85.90463,316.9291
"584",84.63752,316.94244
"585",83.49737,316.95578
"586",82.513466,316.96912
"587",81.722435,316.98245
"588",81.18776,316.9958
"589",80.94362,317.00912
"590",80.99977,317.02246
"591",81.31472,317.0358
"592",81.80545,317.04913
"593",82.36698,317.06247
"594",82.899216,317.0758
"595",83.30694,317.08914
"596",83.53643,317.10248
"597",83.563286,317.1158
"598",83.39971,317.12915
"599",83.06035,317.1425
"600",82.58427,317.15582
"601",82.01541,317.16916
"602",81.39529,317.1825
"603",80.765396,317.19583
"604",80.15747,317.20917
"605",79.59594,317.2225
"606",79.093,317.23584
"607",78.6511,317.24918
"608",78.27024,317.2625
"609",77.945526,317.27585
"610",77.6672,317.28918
"611",77.435265,317.30252
"612",77.242386,317.31586
"613",77.08858,317.3292
"614",76.978714,317.34253
"615",76.912796,317.35587
"616",76.88106,317.3692
"617",76.876175,317.38254
"618",76.88838,317.39587
"619",76.910355,317.4092
"620",76.94209,317.42255
"621",76.97627,317.43588
"622",77.01289,317.44922
"623",77.051956,317.46255
"624",77.08125,317.4759
"625",77.100784,317.48923
"626",77.100784,317.50256
"627",77.08125,317.5159
"628",77.04219,317.52924
"629",76.9836,317.54257
"630",76.90303,317.5559
"631",76.80293,317.56924
"632",76.6955,317.58258
"633",76.58076,317.59592
"634",76.45869,317.60925
"635",76.351265,317.6226
"636",76.30244,317.63593
"637",76.43183,317.64926
"638",76.91768,317.6626
"639",77.96506,317.67593
"640",79.67895,317.68927
"641",82.00809,317.7026
"642",84.73762,317.71594
"643",87.53307,317.72928
"644",90.023346,317.7426
"645",91.92767,317.75595
"646",93.10445,317.7693
"647",93.54391,317.78262
"648",93.3193,317.79596
"649",92.55756,317.8093
"650",91.40276,317.82263
"651",90.00137,317.83597
"652",88.48524,317.8493
"653",86.939804,317.86264
"654",85.42855,317.87598
"655",83.983215,317.8893
"656",82.6453,317.90265
"657",81.463646,317.916
"658",80.51148,317.92932
"659",79.85962,317.94266
"660",79.56176,317.956
"661",79.62524,317.96933
"662",80.00366,317.98267
"663",80.59693,317.996
"664",81.28542,318.00934
"665",81.94705,318.02267
"666",82.47929,318.036
"667",82.81377,318.04935
"668",82.92363,318.06268
"669",82.811325,318.07602
"670",82.496376,318.08936
"671",82.01785,318.1027
"672",81.42458,318.11603
"673",80.76784,318.12936
"674",80.08911,318.1427
"675",79.42504,318.15604
"676",78.80003,318.16937
"677",78.23361,318.1827
"678",77.72335,318.19604
"679",77.279015,318.20938
"680",76.90059,318.22272
"681",76.58564,318.23605
"682",76.32685,318.2494
"683",76.11688,318.26273
"684",75.95087,318.27606
"685",75.83124,318.2894
"686",75.75311,318.30273
"687",75.718925,318.31607
"688",75.72137,318.3294
"689",75.75067,318.34274
"690",75.80682,318.35608
"691",75.86786,318.36942
"692",75.931335,318.38275
"693",75.98993,318.3961
"694",76.036316,318.40942
"695",76.06073,318.42276
"696",76.070496,318.4361
"697",76.053406,318.44943
"698",76.00946,318.46277
"699",75.93378,318.4761
"700",75.826355,318.48944
"701",75.69451,318.50278
"702",75.54803,318.5161
"703",75.3991,318.52945
"704",75.28191,318.5428
"705",75.27703,318.55612
"706",75.53338,318.56946
"707",76.27802,318.5828
"708",77.713585,318.59613
"709",79.91333,318.60947
"710",82.77959,318.6228
"711",86.046234,318.63614
"712",89.32754,318.64948
"713",92.23529,318.6628
"714",94.47654,318.67615
"715",95.91211,318.68948
"716",96.52003,318.70282
"717",96.36622,318.71616
"718",95.57275,318.7295
"719",94.30564,318.74283
"720",92.72358,318.75616
"721",90.97795,318.7695
"722",89.18349,318.78284
"723",87.42321,318.79617
"724",85.73861,318.8095
"725",84.16388,318.82285
"726",82.73319,318.83618
"727",81.495384,318.84952
"728",80.51881,318.86285
"729",79.86694,318.8762
"730",79.58373,318.88953
"731",79.64721,318.90286
"732",79.98901,318.9162
"733",80.50416,318.92953
"734",81.06813,318.94287
"735",81.566185,318.9562
"736",81.91287,318.96954
"737",82.06424,318.98288
"738",81.99588,318.99622
"739",81.71267,319.00955
"740",81.24147,319.0229
"741",80.62867,319.03622
"742",79.91333,319.04956
"743",79.14427,319.0629
"744",78.37034,319.07623
"745",77.62081,319.08957
"746",76.927444,319.1029
"747",76.297554,319.11624
"748",75.74334,319.12958
"749",75.2575,319.1429
"750",74.84001,319.15625
"751",74.486,319.1696
"752",74.19302,319.18292
"753",73.96353,319.19626
"754",73.79019,319.2096
"755",73.670555,319.22293
"756",73.59731,319.23627
"757",73.56069,319.2496
"758",73.565575,319.26294
"759",73.599754,319.27628
"760",73.66323,319.2896
"761",73.74624,319.30295
"762",73.846344,319.31628
"763",73.951324,319.32962
"764",74.05386,319.34296
"765",74.14908,319.3563
"766",74.21744,319.36963
"767",74.26383,319.38297
"768",74.285805,319.3963
"769",74.27604,319.40964
"770",74.23697,319.42297
"771",74.175934,319.4363
"772",74.092926,319.44965
"773",73.99283,319.46298
"774",73.89761,319.47632
"775",73.85611,319.48965
"776",73.987946,319.503
"777",74.510414,319.51633
"778",75.68963,319.52966
"779",77.71114,319.543
"780",80.58961,319.55634
"781",84.13214,319.56967
"782",87.97009,319.583
"783",91.63714,319.59634
"784",94.72312,319.60968
"785",96.96681,319.62302
"786",98.26322,319.63635
"787",98.6392,319.6497
"788",98.194855,319.66302
"789",97.09865,319.67636
"790",95.536125,319.6897
"791",93.68795,319.70303
"792",91.71038,319.71637
"793",89.71572,319.7297
"794",87.7699,319.74304
"795",85.907074,319.75638
"796",84.14435,319.7697
"797",82.52323,319.78305
"798",81.10475,319.7964
"799",79.957275,319.80972
"800",79.15648,319.82306
"801",78.73655,319.8364
"802",78.6804,319.84973
"803",78.924545,319.86307
"804",79.36889,319.8764
"805",79.8938,319.88974
"806",80.39185,319.90308
"807",80.77272,319.9164
"808",80.96559,319.92975
"809",80.94118,319.94308
"810",80.69947,319.95642
"811",80.26246,319.96976
"812",79.67162,319.9831
"813",78.975815,319.99643
"814",78.21652,320.00977
"815",77.44015,320.0231
"816",76.67353,320.03644
"817",75.94354,320.04977
"818",75.27215,320.0631
"819",74.669106,320.07645
"820",74.144196,320.08978
"821",73.69741,320.10312
"822",73.321434,320.11646
"823",73.01381,320.1298
"824",72.76723,320.14313
"825",72.58167,320.15646
"826",72.45228,320.1698
"827",72.376595,320.18314
"828",72.34974,320.19647
"829",72.361946,320.2098
"830",72.40589,320.22314
"831",72.47669,320.23648
"832",72.57435,320.24982
"833",72.69398,320.26315
"834",72.82826,320.2765
"835",72.972305,320.28983
"836",73.11879,320.30316
"837",73.255516,320.3165
"838",73.375145,320.32983
"839",73.47036,320.34317
"840",73.531395,320.3565
"841",73.565575,320.36984
"842",73.565575,320.38318
"843",73.54116,320.3965
"844",73.48989,320.40985
"845",73.42153,320.4232
"846",73.33608,320.43652
"847",73.26284,320.44986
"848",73.270164,320.4632
"849",73.51919,320.47653
"850",74.25651,320.48987
"851",75.75067,320.5032
"852",78.14328,320.51654
"853",81.38064,320.52988
"854",85.19173,320.5432
"855",89.14931,320.55655
"856",92.772415,320.5699
"857",95.6704,320.58322
"858",97.63332,320.59656
"859",98.600136,320.6099
"860",98.631874,320.62323
"861",97.86038,320.63657
"862",96.45899,320.6499
"863",94.62791,320.66324
"864",92.55024,320.67657
"865",90.36515,320.6899
"866",88.18005,320.70325
"867",86.056,320.71658
"868",84.03693,320.72992
"869",82.16434,320.74326
"870",80.49683,320.7566
"871",79.11986,320.76993
"872",78.11154,320.78326
"873",77.53292,320.7966
"874",77.39132,320.80994
"875",77.6379,320.82327
"876",78.17746,320.8366
"877",78.88548,320.84995
"878",79.62035,320.86328
"879",80.274666,320.87662
"880",80.75319,320.88995
"881",81.007095,320.9033
"882",81.02174,320.91663
"883",80.814224,320.92996
"884",80.40894,320.9433
"885",79.84985,320.95663
"886",79.17601,320.96997
"887",78.43137,320.9833
"888",77.66476,320.99664
"889",76.90547,321.00998
"890",76.190125,321.02332
"891",75.53582,321.03665
"892",74.949875,321.05
"893",74.43229,321.06332
"894",73.97818,321.07666
"895",73.58999,321.09
"896",73.26284,321.10333
"897",72.99428,321.11667
"898",72.79164,321.13
"899",72.654915,321.14334
"900",72.584114,321.15668
"901",72.58167,321.17
"902",72.64027,321.18335
"903",72.74769,321.1967
"904",72.89418,321.21002
"905",73.06996,321.22336
"906",73.2604,321.2367
"907",73.45327,321.25003
"908",73.64126,321.26337
"909",73.81949,321.2767
"910",73.97818,321.29004
"911",74.110016,321.30338
"912",74.21011,321.3167
"913",74.26627,321.33005
"914",74.2736,321.34338
"915",74.23941,321.35672
"916",74.17105,321.37006
"917",74.10025,321.3834
"918",74.10025,321.39673
"919",74.339516,321.41006
"920",75.06706,321.4234
"921",76.52949,321.43674
"922",78.84886,321.45007
"923",81.94217,321.4634
"924",85.52621,321.47675
"925",89.17128,321.49008
"926",92.42817,321.50342
"927",94.940414,321.51675
"928",96.53712,321.5301
"929",97.198746,321.54343
"930",96.988785,321.55676
"931",96.03418,321.5701
"932",94.51072,321.58344
"933",92.58686,321.59677
"934",90.41886,321.6101
"935",88.13367,321.62344
"936",85.824066,321.63678
"937",83.563286,321.65012
"938",81.42214,321.66345
"939",79.47875,321.6768
"940",77.82834,321.69012
"941",76.58076,321.70346
"942",75.82391,321.7168
"943",75.60418,321.73013
"944",75.89227,321.74347
"945",76.595406,321.7568
"946",77.56222,321.77014
"947",78.63157,321.78348
"948",79.65453,321.7968
"949",80.51148,321.81015
"950",81.13405,321.8235
"951",81.48562,321.83682
"952",81.57839,321.85016
"953",81.43435,321.8635
"954",81.092545,321.87683
"955",80.59205,321.89017
"956",79.97925,321.9035
"957",79.29809,321.91684
"958",78.58274,321.93018
"959",77.86252,321.9435
"960",77.16426,321.95685
"961",76.50996,321.97018
"962",75.90448,321.98352
"963",75.3576,321.99686
"964",74.87663,322.0102
"965",74.459145,322.02353
"966",74.1149,322.03687
"967",73.846344,322.0502
"968",73.65591,322.06354
"969",73.54604,322.07687
"970",73.514305,322.0902
"971",73.548485,322.10355
"972",73.63882,322.11688
"973",73.77066,322.13022
"974",73.93912,322.14355
"975",74.124664,322.1569
"976",74.319984,322.17023
"977",74.512856,322.18356
"978",74.69596,322.1969
"979",74.847336,322.21024
"980",74.95476,322.22357
"981",75.01335,322.2369
"982",75.020676,322.25024
"983",75.003586,322.26358
"984",75.04753,322.27692
"985",75.318535,322.29025
"986",76.053406,322.3036
"987",77.48165,322.31693
"988",79.708244,322.33026
"989",82.6453,322.3436
"990",86.012054,322.35693
"991",89.40566,322.37027
"992",92.4062,322.3836
"993",94.69138,322.39694
"994",96.10742,322.41028
"995",96.63233,322.4236
"996",96.33448,322.43695
"997",95.33349,322.4503
"998",93.788055,322.46362
"999",91.859314,322.47696
"1000",89.69375,322.4903
"1001",87.39391,322.50363
"1002",85.04768,322.51697
"1003",82.720985,322.5303
"1004",80.499275,322.54364
"1005",78.487526,322.55698
"1006",76.80049,322.5703
"1007",75.562675,322.58365
"1008",74.87419,322.597
"1009",74.77898,322.61032
"1010",75.23308,322.62366
"1011",76.138855,322.637
"1012",77.330284,322.65033
"1013",78.61936,322.66367
"1014",79.83276,322.677
"1015",80.84596,322.69034
"1016",81.5906,322.70367
"1017",82.04959,322.717
"1018",82.22781,322.73035
"1019",82.159454,322.74368
"1020",81.87625,322.75702
"1021",81.42214,322.77036
"1022",80.84108,322.7837
"1023",80.17456,322.79703
"1024",79.4641,322.81036
"1025",78.74143,322.8237
"1026",78.03342,322.83704
"1027",77.35714,322.85037
"1028",76.7248,322.8637
"1029",76.1535,322.87704
"1030",75.65789,322.89038
"1031",75.24284,322.90372
"1032",74.91081,322.91705
"1033",74.66422,322.9304
"1034",74.495766,322.94373
"1035",74.39323,322.95706
"1036",74.356606,322.9704
"1037",74.36881,322.98373
"1038",74.41764,322.99707
"1039",74.49088,323.0104
"1040",74.56901,323.02374
"1041",74.63981,323.03708
"1042",74.70817,323.0504
"1043",74.80339,323.06375
"1044",75.01335,323.0771
"1045",75.51385,323.09042
"1046",76.5539,323.10376
"1047",78.34348,323.1171
"1048",80.94606,323.13043
"1049",84.227356,323.14377
"1050",87.87244,323.1571
"1051",91.44915,323.17044
"1052",94.53513,323.18378
"1053",96.832535,323.1971
"1054",98.211945,323.21045
"1055",98.66117,323.2238
"1056",98.246124,323.23712
"1057",97.10109,323.25046
"1058",95.38476,323.2638
"1059",93.27535,323.27713
"1060",90.92668,323.29047
"1061",88.463264,323.3038
"1062",85.977875,323.31714
"1063",83.54131,323.33047
"1064",81.231705,323.3438
"1065",79.151596,323.35715
"1066",77.435265,323.37048
"1067",76.209656,323.38382
"1068",75.57,323.39716
"1069",75.543144,323.4105
"1070",76.070496,323.42383
"1071",77.01778,323.43716
"1072",78.204315,323.4505
"1073",79.43969,323.46384
"1074",80.567635,323.47717
"1075",81.47585,323.4905
"1076",82.10086,323.50385
"1077",82.43046,323.51718
"1078",82.46708,323.53052
"1079",82.24002,323.54385
"1080",81.79813,323.5572
"1081",81.1902,323.57053
"1082",80.462654,323.58386
"1083",79.67162,323.5972
"1084",78.86107,323.61053
"1085",78.06271,323.62387
"1086",77.296104,323.6372
"1087",76.5832,323.65054
"1088",75.93378,323.66388
"1089",75.352715,323.67722
"1090",74.847336,323.69055
"1091",74.424965,323.7039
"1092",74.08316,323.71722
"1093",73.82437,323.73056
"1094",73.6437,323.7439
"1095",73.531395,323.75723
"1096",73.4728,323.77057
"1097",73.45327,323.7839
"1098",73.463036,323.79724
"1099",73.49233,323.81058
"1100",73.53628,323.8239
"1101",73.6144,323.83725
"1102",73.78775,323.8506
"1103",74.21011,323.86392
"1104",75.13542,323.87726
"1105",76.83223,323.8906
"1106",79.43969,323.90393
"1107",82.9041,323.91727
"1108",86.94957,323.9306
"1109",91.12688,323.94394
"1110",94.93553,323.95728
"1111",97.967804,323.9706
"1112",99.98932,323.98395
"1113",100.9366,323.99728
"1114",100.86336,324.01062
"1115",99.90631,324.02396
"1116",98.2559,324.0373
"1117",96.12695,324.05063
"1118",93.712364,324.06396
"1119",91.17326,324.0773
"1120",88.62684,324.09064
"1121",86.14633,324.10397
"1122",83.77814,324.1173
"1123",81.5906,324.13065
"1124",79.67162,324.14398
"1125",78.14328,324.15732
"1126",77.10811,324.17065
"1127",76.64179,324.184
"1128",76.72968,324.19733
"1129",77.27413,324.21066
"1130",78.12131,324.224
"1131",79.08568,324.23734
"1132",79.99878,324.25067
"1133",80.73121,324.264
"1134",81.20485,324.27734
"1135",81.38796,324.29068
"1136",81.28298,324.30402
"1137",80.92653,324.31735
"1138",80.365,324.3307
"1139",79.64721,324.34402
"1140",78.82689,324.35736
"1141",77.95285,324.3707
"1142",77.069046,324.38403
"1143",76.21698,324.39737
"1144",75.41863,324.4107
"1145",74.703285,324.42404
"1146",74.07828,324.43738
"1147",73.55093,324.4507
"1148",73.10658,324.46405
"1149",72.742805,324.4774
"1150",72.45716,324.49072
"1151",72.24231,324.50406
"1152",72.09827,324.5174
"1153",72.02258,324.53073
"1154",72.007935,324.54407
"1155",72.03967,324.5574
"1156",72.09827,324.57074
"1157",72.164185,324.58408
"1158",72.22766,324.5974
"1159",72.28138,324.61075
"1160",72.33753,324.62408
"1161",72.44007,324.63742
"1162",72.71107,324.65076
"1163",73.35561,324.6641
"1164",74.62028,324.67743
"1165",76.67353,324.69077
"1166",79.51293,324.7041
"1167",82.948044,324.71744
"1168",86.61021,324.73077
"1169",90.05264,324.7441
"1170",92.88228,324.75745
"1171",94.85252,324.77078
"1172",95.88281,324.78412
"1173",96.009766,324.79745
"1174",95.362785,324.8108
"1175",94.115204,324.82413
"1176",92.46235,324.83746
"1177",90.58732,324.8508
"1178",88.63416,324.86414
"1179",86.70786,324.87747
"1180",84.86458,324.8908
"1181",83.12871,324.90414
"1182",81.52468,324.91748
"1183",80.08423,324.93082
"1184",78.86595,324.94415
"1185",77.9382,324.9575
"1186",77.35958,324.97083
"1187",77.152054,324.98416
"1188",77.279015,324.9975
"1189",77.65011,325.01083
"1190",78.15549,325.02417
"1191",78.6804,325.0375
"1192",79.11986,325.05084
"1193",79.40795,325.06418
"1194",79.49584,325.0775
"1195",79.37377,325.09085
"1196",79.05394,325.1042
"1197",78.56565,325.11752
"1198",77.95041,325.13086
"1199",77.25948,325.1442
"1200",76.53925,325.15753
"1201",75.826355,325.17087
"1202",75.14763,325.1842
"1203",74.529945,325.19754
"1204",73.987946,325.21088
"1205",73.52407,325.2242
"1206",73.14076,325.23755
"1207",72.83559,325.2509
"1208",72.59876,325.26422
"1209",72.42054,325.27756
"1210",72.30579,325.2909
"1211",72.24719,325.30423
"1212",72.232544,325.31757
"1213",72.254524,325.3309
"1214",72.30579,325.34424
"1215",72.36927,325.35757
"1216",72.444954,325.3709
"1217",72.515755,325.38425
"1218",72.58167,325.39758
"1219",72.637825,325.41092
"1220",72.68177,325.42426
"1221",72.723274,325.4376
"1222",72.796524,325.45093
"1223",73.0016,325.46426
"1224",73.51186,325.4776
"1225",74.53239,325.49094
"1226",76.2121,325.50427
"1227",78.56565,325.5176
"1228",81.43191,325.53094
"1229",84.49592,325.54428
"1230",87.3695,325.55762
"1231",89.720604,325.57095
"1232",91.33929,325.5843
"1233",92.16937,325.59763
"1234",92.25727,325.61096
"1235",91.720146,325.6243
"1236",90.70939,325.63763
"1237",89.38857,325.65097
"1238",87.90906,325.6643
"1239",86.38804,325.67764
"1240",84.90364,325.69098
"1241",83.49737,325.7043
"1242",82.18143,325.71765
"1243",80.96315,325.731
"1244",79.871826,325.74432
"1245",78.96849,325.75766
"1246",78.30686,325.771
"1247",77.9382,325.78433
"1248",77.872284,325.79767
"1249",78.07736,325.811
"1250",78.47532,325.82434
"1251",78.96849,325.83768
"1252",79.45434,325.851
"1253",79.84497,325.86435
"1254",80.079346,325.8777
"1255",80.128174,325.89102
"1256",79.98657,325.90436
"1257",79.676506,325.9177
"1258",79.23216,325.93103
"1259",78.692604,325.94437
"1260",78.099335,325.9577
"1261",77.49142,325.97104
"1262",76.90059,325.98438
"1263",76.35859,325.9977
"1264",75.88251,326.01105
"1265",75.47234,326.02438
"1266",75.13298,326.03772
"1267",74.85954,326.05106
"1268",74.63981,326.0644
"1269",74.47379,326.07773
"1270",74.354164,326.09106
"1271",74.2736,326.1044
"1272",74.23453,326.11774
"1273",74.23453,326.13107
"1274",74.26627,326.1444
"1275",74.32487,326.15775
"1276",74.407875,326.17108
"1277",74.49821,326.18442
"1278",74.59098,326.19775
"1279",74.67155,326.2111
"1280",74.737465,326.22443
"1281",74.7863,326.23776
"1282",74.80583,326.2511
"1283",74.79607,326.26443
"1284",74.76189,326.27777
"1285",74.71793,326.2911
"1286",74.67155,326.30444
"1287",74.67155,326.31778
"1288",74.813156,326.33112
"1289",75.26238,326.34445
"1290",76.21698,326.3578
"1291",77.80881,326.37112
"1292",80.028076,326.38446
"1293",82.703896,326.3978
"1294",85.51644,326.41113
"1295",88.097046,326.42447
"1296",90.12833,326.4378
"1297",91.43206,326.45114
"1298",91.981384,326.46448
"1299",91.8349,326.4778
"1300",91.12688,326.49115
"1301",90.01358,326.5045
"1302",88.65125,326.51782
"1303",87.17662,326.53116
"1304",85.68246,326.5445
"1305",84.224915,326.55783
"1306",82.83818,326.57117
"1307",81.549095,326.5845
"1308",80.396736,326.59784
"1309",79.43969,326.61118
"1310",78.746315,326.6245
"1311",78.37522,326.63785
"1312",78.34104,326.65118
"1313",78.607155,326.66452
"1314",79.097885,326.67786
"1315",79.7058,326.6912
"1316",80.32105,326.70453
"1317",80.84596,326.71786
"1318",81.20973,326.7312
"1319",81.375755,326.74454
"1320",81.33669,326.75787
"1321",81.112076,326.7712
"1322",80.73121,326.78455
"1323",80.233154,326.79788
"1324",79.66674,326.81122
"1325",79.06859,326.82455
"1326",78.47532,326.8379
"1327",77.91623,326.85123
"1328",77.418175,326.86456
"1329",76.98604,326.8779
"1330",76.61982,326.89124
"1331",76.31953,326.90457
"1332",76.07782,326.9179
"1333",75.89227,326.93124
"1334",75.755554,326.94458
"1335",75.665215,326.95792
"1336",75.613945,326.97125
"1337",75.60418,326.9846
"1338",75.62127,326.99792
"1339",75.6701,327.01126
"1340",75.74334,327.0246
"1341",75.83612,327.03793
"1342",75.92645,327.05127
"1343",76.00946,327.0646
"1344",76.07782,327.07794
"1345",76.121765,327.09128
"1346",76.14374,327.1046
"1347",76.138855,327.11795
"1348",76.10956,327.1313
"1349",76.053406,327.14462
"1350",75.97284,327.15796
"1351",75.877625,327.1713
"1352",75.792175,327.18463
"1353",75.79706,327.19797
"1354",76.02655,327.2113
"1355",76.66132,327.22464
"1356",77.857635,327.23798
"1357",79.6643,327.2513
"1358",81.97635,327.26465
"1359",84.53986,327.27798
"1360",87.01549,327.29132
"1361",89.08095,327.30466
"1362",90.51896,327.318
"1363",91.244064,327.33133
"1364",91.28802,327.34467
"1365",90.75334,327.358
"1366",89.77188,327.37134
"1367",88.48524,327.38467
"1368",87.02281,327.398
"1369",85.48226,327.41135
"1370",83.929504,327.42468
"1371",82.41825,327.43802
"1372",80.99733,327.45135
"1373",79.73266,327.4647
"1374",78.70237,327.47803
"1375",77.98703,327.49136
"1376",77.65499,327.5047
"1377",77.72579,327.51804
"1378",78.153046,327.53137
"1379",78.84886,327.5447
"1380",79.68383,327.55804
"1381",80.52369,327.57138
"1382",81.24635,327.58472
"1383",81.77615,327.59805
"1384",82.06668,327.6114
"1385",82.11551,327.62473
"1386",81.94217,327.63806
"1387",81.58816,327.6514
"1388",81.09987,327.66473
"1389",80.52613,327.67807
"1390",79.91089,327.6914
"1391",79.290764,327.70474
"1392",78.69749,327.71808
"1393",78.14816,327.7314
"1394",77.65255,327.74475
"1395",77.22041,327.7581
"1396",76.859085,327.77142
"1397",76.56611,327.78476
"1398",76.3415,327.7981
"1399",76.18036,327.81143
"1400",76.08026,327.82477
"1401",76.03143,327.8381
"1402",76.02411,327.85144
"1403",76.05585,327.86478
"1404",76.11932,327.8781
"1405",76.209656,327.89145
"1406",76.30976,327.9048
"1407",76.4123,327.91812
"1408",76.49775,327.93146
"1409",76.55146,327.9448
"1410",76.575874,327.95813
"1411",76.56611,327.97147
"1412",76.53925,327.9848
"1413",76.507515,327.99814
"1414",76.50507,328.01147
"1415",76.629585,328.0248
"1416",77.02998,328.03815
"1417",77.87717,328.05148
"1418",79.293205,328.06482
"1419",81.28054,328.07816
"1420",83.69024,328.0915
"1421",86.24399,328.10483
"1422",88.61707,328.11816
"1423",90.52384,328.1315
"1424",91.78607,328.14484
"1425",92.350044,328.15817
"1426",92.25971,328.1715
"1427",91.612724,328.18484
"1428",90.548256,328.19818
"1429",89.2079,328.21152
"1430",87.711296,328.22485
"1431",86.1561,328.2382
"1432",84.596016,328.25153
"1433",83.07744,328.26486
"1434",81.654076,328.2782
"1435",80.396736,328.29153
"1436",79.38598,328.30487
"1437",78.71458,328.3182
"1438",78.43626,328.33154
"1439",78.553444,328.34488
"1440",79.012436,328.35822
"1441",79.710686,328.37155
"1442",80.51392,328.3849
"1443",81.28542,328.39822
"1444",81.917755,328.41156
"1445",82.33036,328.4249
"1446",82.496376,328.43823
"1447",82.41825,328.45157
"1448",82.1326,328.4649
"1449",81.688255,328.47824
"1450",81.13161,328.49158
"1451",80.50416,328.5049
"1452",79.84741,328.51825
"1453",79.200424,328.5316
"1454",78.58762,328.54492
"1455",78.01877,328.55826
"1456",77.50851,328.5716
"1457",77.069046,328.58493
"1458",76.700386,328.59827
"1459",76.404976,328.6116
"1460",76.175476,328.62494
"1461",76.019226,328.63828
"1462",75.92645,328.6516
"1463",75.88495,328.66495
"1464",75.880066,328.67828
"1465",75.90936,328.69162
"1466",75.95087,328.70496
"1467",75.99237,328.7183
"1468",76.033875,328.73163
"1469",76.06317,328.74496
"1470",76.08026,328.7583
"1471",76.07782,328.77164
"1472",76.05829,328.78497
"1473",76.03143,328.7983
"1474",76.03143,328.81165
"1475",76.16327,328.82498
"1476",76.59785,328.83832
"1477",77.53536,328.85165
"1478",79.11253,328.865
"1479",81.3489,328.87833
"1480",84.088196,328.89166
"1481",87.04967,328.905
"1482",89.86221,328.91833
"1483",92.20111,328.93167
"1484",93.84909,328.945
"1485",94.72556,328.95834
"1486",94.84276,328.97168
"1487",94.3032,328.98502
"1488",93.25338,328.99835
"1489",91.84955,329.0117
"1490",90.24307,329.02502
"1491",88.56092,329.03836
"1492",86.87877,329.0517
"1493",85.243,329.06503
"1494",83.69024,329.07837
"1495",82.266884,329.0917
"1496",81.03883,329.10504
"1497",80.08423,329.11838
"1498",79.47143,329.1317
"1499",79.24925,329.14505
"1500",79.395744,329.1584
"1501",79.83032,329.17172
"1502",80.4358,329.18506
"1503",81.08766,329.1984
"1504",81.66628,329.21173
"1505",82.08133,329.22507
"1506",82.28397,329.2384
"1507",82.2449,329.25174
"1508",81.97879,329.26508
"1509",81.50027,329.2784
"1510",80.86061,329.29175
"1511",80.11597,329.30508
"1512",79.3225,329.31842
"1513",78.52415,329.33176
"1514",77.76486,329.3451
"1515",77.06416,329.35843
"1516",76.43427,329.37177
"1517",75.88495,329.3851
"1518",75.41619,329.39844
"1519",75.02312,329.41177
"1520",74.71061,329.4251
"1521",74.46647,329.43845
"1522",74.28336,329.45178
"1523",74.15152,329.46512
"1524",74.06851,329.47845
"1525",74.02945,329.4918
"1526",74.02701,329.50513
"1527",74.05142,329.51846
"1528",74.10025,329.5318
"1529",74.14908,329.54514
"1530",74.18814,329.55847
"1531",74.20523,329.5718
"1532",74.20035,329.58514
"1533",74.16617,329.59848
"1534",74.110016,329.61182
"1535",74.056305,329.62515
"1536",74.07095,329.6385
"1537",74.30778,329.65182
"1538",74.97917,329.66516
"1539",76.29267,329.6785
"1540",78.35325,329.69183
"1541",81.092545,329.70517
"1542",84.26154,329.7185
"1543",87.481804,329.73184
"1544",90.355385,329.74518
"1545",92.57465,329.7585
"1546",93.9736,329.77185
"1547",94.52537,329.7852
"1548",94.30808,329.79852
"1549",93.46334,329.81186
"1550",92.15961,329.8252
"1551",90.57755,329.83853
"1552",88.868546,329.85187
"1553",87.15465,329.8652
"1554",85.49935,329.87854
"1555",83.94171,329.89188
"1556",82.49149,329.9052
"1557",81.17311,329.91855
"1558",80.02319,329.9319
"1559",79.10277,329.94522
"1560",78.47776,329.95856
"1561",78.184784,329.9719
"1562",78.21408,329.98523
"1563",78.49973,329.99857
"1564",78.93431,330.0119
"1565",79.40795,330.02524
"1566",79.81323,330.03857
"1567",80.06958,330.0519
"1568",80.130615,330.06525
"1569",79.98413,330.07858
"1570",79.64721,330.09192
"1571",79.14427,330.10526
"1572",78.52415,330.1186
"1573",77.83322,330.13193
"1574",77.11543,330.14526
"1575",76.40986,330.1586
"1576",75.74578,330.17194
"1577",75.142746,330.18527
"1578",74.61295,330.1986
"1579",74.158844,330.21194
"1580",73.7731,330.22528
"1581",73.45815,330.23862
"1582",73.2018,330.25195
"1583",73.00404,330.2653
"1584",72.86,330.27863
"1585",72.764786,330.29196
"1586",72.71595,330.3053
"1587",72.706184,330.31863
"1588",72.73792,330.33197
"1589",72.796524,330.3453
"1590",72.886856,330.35864
"1591",72.99184,330.37198
"1592",73.109024,330.3853
"1593",73.22865,330.39865
"1594",73.340965,330.412
"1595",73.44106,330.42532
"1596",73.514305,330.43866
"1597",73.55825,330.452
"1598",73.58022,330.46533
"1599",73.57778,330.47867
"1600",73.55581,330.492
"1601",73.51919,330.50534
"1602",73.46792,330.51868
"1603",73.40688,330.532
"1604",73.37026,330.54535
"1605",73.43374,330.5587
"1606",73.77066,330.57202
"1607",74.61295,330.58536
"1608",76.16571,330.5987
"1609",78.487526,330.61203
"1610",81.45632,330.62537
"1611",84.7596,330.6387
"1612",87.989624,330.65204
"1613",90.74845,330.66537
"1614",92.76509,330.6787
"1615",93.941864,330.69205
"1616",94.30076,330.70538
"1617",93.95407,330.71872
"1618",93.0605,330.73206
"1619",91.790955,330.7454
"1620",90.31876,330.75873
"1621",88.78554,330.77206
"1622",87.2987,330.7854
"1623",85.91684,330.79874
"1624",84.65705,330.81207
"1625",83.50713,330.8254
"1626",82.459755,330.83875
"1627",81.5198,330.85208
"1628",80.72877,330.86542
"1629",80.13306,330.87875
"1630",79.77905,330.8921
"1631",79.66918,330.90543
"1632",79.77173,330.91876
"1633",80.01587,330.9321
"1634",80.306404,330.94543
"1635",80.56275,330.95877
"1636",80.719,330.9721
"1637",80.73121,330.98544
"1638",80.57984,330.99878
"1639",80.26734,331.01212
"1640",79.82056,331.02545
"1641",79.276115,331.0388
"1642",78.67307,331.05212
"1643",78.04562,331.06546
"1644",77.4255,331.0788
"1645",76.83467,331.09213
"1646",76.29023,331.10547
"1647",75.7995,331.1188
"1648",75.37469,331.13214
"1649",75.01579,331.14548
"1650",74.73258,331.1588
"1651",74.512856,331.17215
"1652",74.356606,331.1855
"1653",74.24429,331.19882
"1654",74.175934,331.21216
"1655",74.13443,331.2255
"1656",74.11246,331.23883
"1657",74.11246,331.25217
"1658",74.13687,331.2655
"1659",74.18326,331.27884
"1660",74.24185,331.29218
"1661",74.3151,331.3055
"1662",74.390785,331.31885
"1663",74.46403,331.33218
"1664",74.53239,331.34552
"1665",74.59586,331.35886
"1666",74.65446,331.3722
"1667",74.70573,331.38553
"1668",74.75212,331.39886
"1669",74.7863,331.4122
"1670",74.813156,331.42554
"1671",74.82292,331.43887
"1672",74.813156,331.4522
"1673",74.78142,331.46555
"1674",74.7277,331.47888
"1675",74.6569,331.49222
"1676",74.5861,331.50555
"1677",74.52506,331.5189
"1678",74.495766,331.53223
"1679",74.55924,331.54556
"1680",74.87175,331.5589
"1681",75.65789,331.57224
"1682",77.1252,331.58557
"1683",79.361565,331.5989
"1684",82.262,331.61224
"1685",85.53353,331.62558
"1686",88.75624,331.63892
"1687",91.51995,331.65225
"1688",93.54635,331.6656
"1689",94.72556,331.67892
"1690",95.09178,331.69226
"1691",94.76219,331.7056
"1692",93.89792,331.71893
"1693",92.67231,331.73227
"1694",91.25628,331.7456
"1695",89.78897,331.75894
"1696",88.36805,331.77228
"1697",87.05211,331.7856
"1698",85.855804,331.79895
"1699",84.7596,331.8123
"1700",83.74639,331.82562
"1701",82.81621,331.83896
"1702",81.99832,331.8523
"1703",81.339134,331.86563
"1704",80.88747,331.87897
"1705",80.67017,331.8923
"1706",80.67506,331.90564
"1707",80.850845,331.91898
"1708",81.11452,331.9323
"1709",81.3904,331.94565
"1710",81.602806,331.95898
"1711",81.688255,331.97232
"1712",81.619896,331.98566
"1713",81.38796,331.999
"1714",81.01198,332.01233
"1715",80.51392,332.02567
"1716",79.93286,332.039
"1717",79.310295,332.05234
"1718",78.68528,332.06567
"1719",78.0798,332.079
"1720",77.52071,332.09235
"1721",77.01778,332.10568
"1722",76.575874,332.11902
"1723",76.192566,332.13235
"1724",75.87274,332.1457
"1725",75.60906,332.15903
"1726",75.3991,332.17236
"1727",75.2404,332.1857
"1728",75.12077,332.19904
"1729",75.035324,332.21237
"1730",74.98161,332.2257
"1731",74.95232,332.23904
"1732",74.949875,332.25238
"1733",74.96452,332.26572
"1734",74.99382,332.27905
"1735",75.03044,332.2924
"1736",75.07683,332.30573
"1737",75.125656,332.31906
"1738",75.17937,332.3324
"1739",75.23552,332.34573
"1740",75.2868,332.35907
"1741",75.32586,332.3724
"1742",75.355156,332.38574
"1743",75.372246,332.39908
"1744",75.38445,332.4124
"1745",75.386894,332.42575
"1746",75.37713,332.4391
"1747",75.34783,332.45242
"1748",75.301445,332.46576
"1749",75.2404,332.4791
"1750",75.16228,332.49243
"1751",75.08171,332.50577
"1752",75.01091,332.5191
"1753",74.9572,332.53244
"1754",74.95964,332.54578
"1755",75.10857,332.5591
"1756",75.596855,332.57245
"1757",76.654,332.5858
"1758",78.44602,332.59912
"1759",80.972916,332.61246
"1760",84.04669,332.6258
"1761",87.33044,332.63913
"1762",90.38468,332.65247
"1763",92.85054,332.6658
"1764",94.520485,332.67914
"1765",95.35546,332.69247
"1766",95.40917,332.7058
"1767",94.8159,332.71915
"1768",93.73434,332.73248
"1769",92.34028,332.74582
"1770",90.78508,332.75916
"1771",89.19325,332.7725
"1772",87.657585,332.78583
"1773",86.219574,332.79916
"1774",84.89143,332.8125
"1775",83.67803,332.82584
"1776",82.58915,332.83917
"1777",81.654076,332.8525
"1778",80.92897,332.86584
"1779",80.46021,332.87918
"1780",80.27955,332.89252
"1781",80.37232,332.90585
"1782",80.68238,332.9192
"1783",81.11452,332.93253
"1784",81.57595,332.94586
"1785",81.969025,332.9592
"1786",82.22537,332.97253
"1787",82.30106,332.98587
"1788",82.18387,332.9992
"1789",81.883575,333.01254
"1790",81.43191,333.02588
"1791",80.87282,333.0392
"1792",80.24536,333.05255
"1793",79.588615,333.0659
"1794",78.93431,333.07922
"1795",78.30442,333.09256
"1796",77.713585,333.1059
"1797",77.18623,333.11923
"1798",76.7248,333.13257
"1799",76.32929,333.1459
"1800",75.999695,333.15924
"1801",75.72381,333.17258
"1802",75.4992,333.1859
"1803",75.31609,333.19925
"1804",75.18181,333.2126
"1805",75.089035,333.22592
"1806",75.035324,333.23926
"1807",75.00847,333.2526
"1808",75.00847,333.26593
"1809",75.02556,333.27927
"1810",75.05974,333.2926
"1811",75.11101,333.30594
"1812",75.174484,333.31927
"1813",75.24773,333.3326
"1814",75.32098,333.34595
"1815",75.386894,333.35928
"1816",75.43816,333.37262
"1817",75.474785,333.38596
"1818",75.494316,333.3993
"1819",75.49676,333.41263
"1820",75.48211,333.42596
"1821",75.44549,333.4393
"1822",75.39422,333.45264
"1823",75.32342,333.46597
"1824",75.23796,333.4793
"1825",75.13786,333.49265
"1826",75.03288,333.50598
"1827",74.9279,333.51932
"1828",74.84245,333.53265
"1829",74.80339,333.546
"1830",74.90837,333.55933
"1831",75.34051,333.57266
"1832",76.33662,333.586
"1833",78.06027,333.59933
"1834",80.53101,333.61267
"1835",83.56817,333.626
"1836",86.8275,333.63934
"1837",89.881744,333.65268
"1838",92.37202,333.66602
"1839",94.083466,333.67935
"1840",94.957504,333.6927
"1841",95.04784,333.70602
"1842",94.469215,333.71936
"1843",93.368126,333.7327
"1844",91.895935,333.74603
"1845",90.20401,333.75937
"1846",88.41688,333.7727
"1847",86.61997,333.78604
"1848",84.874344,333.79938
"1849",83.22392,333.8127
"1850",81.71267,333.82605
"1851",80.396736,333.8394
"1852",79.3518,333.85272
"1853",78.65598,333.86606
"1854",78.35569,333.8794
"1855",78.45823,333.89273
"1856",78.907455,333.90607
"1857",79.60082,333.9194
"1858",80.411385,333.93274
"1859",81.20973,333.94608
"1860",81.881134,333.9594
"1861",82.35233,333.97275
"1862",82.58671,333.98608
"1863",82.579384,333.99942
"1864",82.35233,334.01276
"1865",81.94949,334.0261
"1866",81.41726,334.03943
"1867",80.79469,334.05276
"1868",80.11841,334.0661
"1869",79.4226,334.07944
"1870",78.74143,334.09277
"1871",78.09445,334.1061
"1872",77.49874,334.11945
"1873",76.96651,334.13278
"1874",76.50507,334.14612
"1875",76.10956,334.15945
"1876",75.7702,334.1728
"1877",75.494316,334.18613
"1878",75.27215,334.19946
"1879",75.10857,334.2128
"1880",74.99626,334.22614
"1881",74.93767,334.23947
"1882",74.9279,334.2528
"1883",74.966965,334.26614
"1884",75.04753,334.27948
"1885",75.157394,334.29282
"1886",75.2868,334.30615
"1887",75.421074,334.3195
"1888",75.55047,334.33282
"1889",75.66033,334.34616
"1890",75.74334,334.3595
"1891",75.80194,334.37283
"1892",75.83124,334.38617
"1893",75.82391,334.3995
"1894",75.78241,334.41284
"1895",75.7116,334.42618
"1896",75.61883,334.4395
"1897",75.53094,334.45285
"1898",75.508965,334.4662
"1899",75.682304,334.47952
"1900",76.25361,334.49286
"1901",77.42306,334.5062
"1902",79.27856,334.51953
"1903",81.75662,334.53287
"1904",84.62531,334.5462
"1905",87.53063,334.55954
"1906",90.10147,334.57288
"1907",92.06439,334.5862
"1908",93.277794,334.59955
"1909",93.729454,334.61288
"1910",93.487755,334.62622
"1911",92.66743,334.63956
"1912",91.41253,334.6529
"1913",89.85977,334.66623
"1914",88.12146,334.67957
"1915",86.29038,334.6929
"1916",84.43,334.70624
"1917",82.60136,334.71957
"1918",80.86305,334.7329
"1919",79.30297,334.74625
"1920",78.01633,334.75958
"1921",77.10811,334.77292
"1922",76.64179,334.78625
"1923",76.64179,334.7996
"1924",77.07393,334.81293
"1925",77.83566,334.82626
"1926",78.78783,334.8396
"1927",79.781494,334.85294
"1928",80.689705,334.86627
"1929",81.41238,334.8796
"1930",81.898224,334.89294
"1931",82.13016,334.90628
"1932",82.11551,334.91962
"1933",81.88602,334.93295
"1934",81.478294,334.9463
"1935",80.94118,334.95963
"1936",80.31617,334.97296
"1937",79.64233,334.9863
"1938",78.9514,334.99963
"1939",78.2678,335.01297
"1940",77.611046,335.0263
"1941",77.00313,335.03964
"1942",76.453804,335.05298
"1943",75.97772,335.0663
"1944",75.57244,335.07965
"1945",75.24773,335.093
"1946",74.9987,335.10632
"1947",74.82292,335.11966
"1948",74.71549,335.133
"1949",74.67643,335.14633
"1950",74.69596,335.15967
"1951",74.757,335.173
"1952",74.847336,335.18634
"1953",74.95476,335.19968
"1954",75.054855,335.213
"1955",75.140305,335.22635
"1956",75.20378,335.2397
"1957",75.250175,335.25302
"1958",75.29412,335.26636
"1959",75.39666,335.2797
"1960",75.68719,335.29303
"1961",76.37324,335.30637
"1962",77.65011,335.3197
"1963",79.61791,335.33304
"1964",82.22049,335.34637
"1965",85.240555,335.3597
"1966",88.32899,335.37305
"1967",91.11711,335.38638
"1968",93.30221,335.39972
"1969",94.730446,335.41306
"1970",95.35302,335.4264
"1971",95.21385,335.43973
"1972",94.42527,335.45306
"1973",93.13374,335.4664
"1974",91.48577,335.47974
"1975",89.618065,335.49307
"1976",87.638054,335.5064
"1977",85.62386,335.51974
"1978",83.631645,335.53308
"1979",81.71999,335.54642
"1980",79.971924,335.55975
"1981",78.47532,335.5731
"1982",77.33517,335.58643
"1983",76.64179,335.59976
"1984",76.44404,335.6131
"1985",76.71992,335.62643
"1986",77.383995,335.63977
"1987",78.30198,335.6531
"1988",79.32006,335.66644
"1989",80.28443,335.67978
"1990",81.077896,335.6931
"1991",81.6321,335.70645
"1992",81.91287,335.7198
"1993",81.92996,335.73312
"1994",81.71511,335.74646
"1995",81.30984,335.7598
"1996",80.76051,335.77313
"1997",80.11841,335.78647
"1998",79.42504,335.7998
"1999",78.712135,335.81314
"2000",78.009,335.82648
"2001",77.33517,335.8398
"2002",76.70527,335.85315
"2003",76.12665,335.8665
"2004",75.6115,335.87982
"2005",75.176926,335.89316
"2006",74.82536,335.9065
"2007",74.55436,335.91983
"2008",74.36393,335.93317
"2009",74.246735,335.9465
"2010",74.19302,335.95984
"2011",74.18814,335.97318
"2012",74.2272,335.9865
"2013",74.29069,335.99985
"2014",74.36393,336.01318
"2015",74.442055,336.02652
"2016",74.51774,336.03986
"2017",74.617836,336.0532
"2018",74.82048,336.06653
"2019",75.29412,336.07986
"2020",76.27558,336.0932
"2021",77.97482,336.10654
"2022",80.465096,336.11987
"2023",83.64141,336.1332
"2024",87.218124,336.14655
"2025",90.78752,336.15988
"2026",93.9321,336.17322
"2027",96.35157,336.18655
"2028",97.882355,336.1999
"2029",98.492714,336.21323
"2030",98.246124,336.22656
"2031",97.271996,336.2399
"2032",95.7412,336.25323
"2033",93.83444,336.26657
"2034",91.71038,336.2799
"2035",89.51064,336.29324
"2036",87.31823,336.30658
"2037",85.19661,336.31992
"2038",83.194626,336.33325
"2039",81.373314,336.3466
"2040",79.80835,336.35992
"2041",78.59495,336.37326
"2042",77.80881,336.3866
"2043",77.4963,336.39993
"2044",77.63546,336.41327
"2045",78.14084,336.4266
"2046",78.887924,336.43994
"2047",79.7351,336.45328
"2048",80.54322,336.4666
"2049",81.19997,336.47995
"2050",81.6321,336.4933
"2051",81.80301,336.50662
"2052",81.705345,336.51996
"2053",81.36599,336.5333
"2054",80.82643,336.54663
"2055",80.13794,336.55997
"2056",79.34692,336.5733
"2057",78.51194,336.58664
"2058",77.67208,336.59998
"2059",76.86641,336.6133
"2060",76.11444,336.62665
"2061",75.43816,336.63998
"2062",74.847336,336.65332
"2063",74.34196,336.66666
"2064",73.92203,336.68
"2065",73.585106,336.69333
"2066",73.321434,336.70667
"2067",73.128555,336.72
"2068",73.0016,336.73334
"2069",72.938126,336.74667
"2070",72.93324,336.76
"2071",72.969864,336.77335
"2072",73.03822,336.78668
"2073",73.11635,336.80002
"2074",73.18471,336.81335
"2075",73.24086,336.8267
"2076",73.29946,336.84003
"2077",73.40444,336.85336
"2078",73.69009,336.8667
"2079",74.39567,336.88004
"2080",75.775085,336.89337
"2081",77.994354,336.9067
"2082",81.041275,336.92004
"2083",84.70832,336.93338
"2084",88.61219,336.94672
"2085",92.28901,336.96005
"2086",95.33105,336.9734
"2087",97.49416,336.98672
"2088",98.668495,337.00006
"2089",98.8687,337.0134
"2090",98.2095,337.02673
"2091",96.86427,337.04007
"2092",95.03319,337.0534
"2093",92.91646,337.06674
"2094",90.687416,337.08008
"2095",88.465706,337.0934
"2096",86.327,337.10675
"2097",84.30549,337.1201
"2098",82.43534,337.13342
"2099",80.75563,337.14676
"2100",79.33471,337.1601
"2101",78.25803,337.17343
"2102",77.5964,337.18677
"2103",77.36446,337.2001
"2104",77.53292,337.21344
"2105",78.00656,337.22678
"2106",78.64866,337.2401
"2107",79.33227,337.25345
"2108",79.923096,337.26678
"2109",80.33082,337.28012
"2110",80.499275,337.29346
"2111",80.40894,337.3068
"2112",80.07446,337.32013
"2113",79.53002,337.33347
"2114",78.83177,337.3468
"2115",78.03342,337.36014
"2116",77.18623,337.37347
"2117",76.33662,337.3868
"2118",75.52361,337.40015
"2119",74.77165,337.41348
"2120",74.090485,337.42682
"2121",73.494774,337.44016
"2122",72.98695,337.4535
"2123",72.569466,337.46683
"2124",72.23743,337.48016
"2125",71.98596,337.4935
"2126",71.80774,337.50684
"2127",71.70031,337.52017
"2128",71.656364,337.5335
"2129",71.67101,337.54684
"2130",71.73449,337.56018
"2131",71.834595,337.57352
"2132",71.96155,337.58685
"2133",72.09338,337.6002
"2134",72.215454,337.61353
"2135",72.32288,337.62686
"2136",72.40101,337.6402
"2137",72.45472,337.65353
"2138",72.49378,337.66687
"2139",72.54261,337.6802
"2140",72.689095,337.69354
"2141",73.12367,337.70688
"2142",74.10513,337.7202
"2143",75.860535,337.73355
"2144",78.487526,337.7469
"2145",81.87869,337.76022
"2146",85.72152,337.77356
"2147",89.56191,337.7869
"2148",92.95064,337.80023
"2149",95.54101,337.81357
"2150",97.162125,337.8269
"2151",97.78714,337.84024
"2152",97.49905,337.85358
"2153",96.45899,337.8669
"2154",94.86717,337.88025
"2155",92.928665,337.8936
"2156",90.83147,337.90692
"2157",88.71717,337.92026
"2158",86.68345,337.9336
"2159",84.77913,337.94693
"2160",83.018845,337.96027
"2161",81.41726,337.9736
"2162",80.01099,337.98694
"2163",78.85863,338.00027
"2164",78.02365,338.0136
"2165",77.55978,338.02695
"2166",77.46456,338.04028
"2167",77.68673,338.05362
"2168",78.133514,338.06696
"2169",78.677956,338.0803
"2170",79.202866,338.09363
"2171",79.605705,338.10696
"2172",79.81323,338.1203
"2173",79.78638,338.13364
"2174",79.53002,338.14697
"2175",79.06615,338.1603
"2176",78.42893,338.17365
"2177",77.66476,338.18698
"2178",76.82979,338.20032
"2179",75.97284,338.21365
"2180",75.1281,338.227
"2181",74.337074,338.24033
"2182",73.62905,338.25366
"2183",73.00404,338.267
"2184",72.464485,338.28033
"2185",72.0177,338.29367
"2186",71.66369,338.307
"2187",71.395134,338.32034
"2188",71.219345,338.33368
"2189",71.12413,338.34702
"2190",71.10948,338.36035
"2191",71.15587,338.3737
"2192",71.26574,338.38702
"2193",71.42199,338.40036
"2194",71.61486,338.4137
"2195",71.82971,338.42703
"2196",72.05676,338.44037
"2197",72.28382,338.4537
"2198",72.49134,338.46704
"2199",72.67933,338.48038
"2200",72.82582,338.4937
"2201",72.935684,338.50705
"2202",72.99916,338.5204
"2203",73.01381,338.53372
"2204",72.99428,338.54706
"2205",72.95033,338.5604
"2206",72.92836,338.57373
"2207",73.03822,338.58707
"2208",73.48501,338.6004
"2209",74.529945,338.61374
"2210",76.383,338.62708
"2211",79.08568,338.6404
"2212",82.476845,338.65375
"2213",86.222015,338.66708
"2214",89.85733,338.68042
"2215",92.95552,338.69376
"2216",95.22362,338.7071
"2217",96.53956,338.72043
"2218",96.917984,338.73376
"2219",96.46143,338.7471
"2220",95.33837,338.76044
"2221",93.748985,338.77377
"2222",91.878845,338.7871
"2223",89.8793,338.80045
"2224",87.86511,338.81378
"2225",85.9144,338.82712
"2226",84.06134,338.84045
"2227",82.34257,338.8538
"2228",80.80446,338.86713
"2229",79.51537,338.88046
"2230",78.55833,338.8938
"2231",77.996796,338.90714
"2232",77.85275,338.92047
"2233",78.08713,338.9338
"2234",78.607155,338.94714
"2235",79.28832,338.96048
"2236",79.991455,338.97382
"2237",80.601814,338.98715
"2238",81.03151,339.0005
"2239",81.231705,339.01382
"2240",81.180435,339.02716
"2241",80.89479,339.0405
"2242",80.413826,339.05383
"2243",79.781494,339.06717
"2244",79.044174,339.0805
"2245",78.26536,339.09384
"2246",77.486534,339.10718
"2247",76.73945,339.1205
"2248",76.05829,339.13385
"2249",75.45281,339.1472
"2250",74.9279,339.16052
"2251",74.48356,339.17386
"2252",74.11978,339.1872
"2253",73.829254,339.20053
"2254",73.616844,339.21387
"2255",73.4728,339.2272
"2256",73.38979,339.24054
"2257",73.36538,339.25388
"2258",73.392235,339.2672
"2259",73.460594,339.28055
"2260",73.57046,339.29388
"2261",73.70718,339.30722
"2262",73.863434,339.32056
"2263",74.019684,339.3339
"2264",74.16861,339.34723
"2265",74.30045,339.36057
"2266",74.41032,339.3739
"2267",74.493324,339.38724
"2268",74.54948,339.40057
"2269",74.56901,339.4139
"2270",74.5568,339.42725
"2271",74.512856,339.44058
"2272",74.44938,339.45392
"2273",74.41276,339.46725
"2274",74.512856,339.4806
"2275",74.95964,339.49393
"2276",76.00214,339.50726
"2277",77.840546,339.5206
"2278",80.51392,339.53394
"2279",83.86603,339.54727
"2280",87.56237,339.5606
"2281",91.15617,339.57394
"2282",94.22995,339.58728
"2283",96.49317,339.60062
"2284",97.811554,339.61395
"2285",98.18509,339.6273
"2286",97.70901,339.64062
"2287",96.551765,339.65396
"2288",94.90379,339.6673
"2289",92.95796,339.68063
"2290",90.88274,339.69397
"2291",88.800186,339.7073
"2292",86.783554,339.72064
"2293",84.876785,339.73398
"2294",83.123825,339.7473
"2295",81.57107,339.76065
"2296",80.289314,339.774
"2297",79.3518,339.78732
"2298",78.819565,339.80066
"2299",78.70237,339.814
"2300",78.9514,339.82733
"2301",79.46166,339.84067
"2302",80.10132,339.854
"2303",80.75563,339.86734
"2304",81.304955,339.88068
"2305",81.66384,339.894
"2306",81.78592,339.90735
"2307",81.671165,339.9207
"2308",81.322044,339.93402
"2309",80.782486,339.94736
"2310",80.10376,339.9607
"2311",79.33715,339.97403
"2312",78.52415,339.98737
"2313",77.71114,340.0007
"2314",76.929886,340.01404
"2315",76.207214,340.02737
"2316",75.56512,340.0407
"2317",75.01579,340.05405
"2318",74.5568,340.06738
"2319",74.1857,340.08072
"2320",73.89273,340.09406
"2321",73.673,340.1074
"2322",73.51675,340.12073
"2323",73.41909,340.13406
"2324",73.375145,340.1474
"2325",73.38247,340.16074
"2326",73.4313,340.17407
"2327",73.51919,340.1874
"2328",73.63882,340.20074
"2329",73.78531,340.21408
"2330",73.951324,340.22742
"2331",74.11978,340.24075
"2332",74.288246,340.2541
"2333",74.442055,340.26743
"2334",74.56657,340.28076
"2335",74.65934,340.2941
"2336",74.720375,340.30743
"2337",74.73502,340.32077
"2338",74.71549,340.3341
"2339",74.66178,340.34744
"2340",74.5861,340.36078
"2341",74.493324,340.3741
"2342",74.40543,340.38745
"2343",74.37858,340.4008
"2344",74.55192,340.41412
"2345",75.16472,340.42746
"2346",76.490425,340.4408
"2347",78.71458,340.45413
"2348",81.83719,340.46747
"2349",85.645836,340.4808
"2350",89.74258,340.49414
"2351",93.6318,340.50748
"2352",96.883804,340.5208
"2353",99.21782,340.53415
"2354",100.51179,340.5475
"2355",100.77791,340.56082
"2356",100.14313,340.57416
"2357",98.7979,340.5875
"2358",96.95949,340.60083
"2359",94.85252,340.61417
"2360",92.6601,340.6275
"2361",90.511635,340.64084
"2362",88.480354,340.65417
"2363",86.590675,340.6675
"2364",84.84749,340.68085
"2365",83.27764,340.69418
"2366",81.92752,340.70752
"2367",80.867935,340.72086
"2368",80.15747,340.7342
"2369",79.82544,340.74753
"2370",79.84253,340.76086
"2371",80.128174,340.7742
"2372",80.56519,340.78754
"2373",81.03883,340.80087
"2374",81.43923,340.8142
"2375",81.67849,340.82755
"2376",81.70779,340.84088
"2377",81.51003,340.85422
"2378",81.0901,340.86755
"2379",80.48707,340.8809
"2380",79.74731,340.89423
"2381",78.91966,340.90756
"2382",78.05539,340.9209
"2383",77.20088,340.93423
"2384",76.387886,340.94757
"2385",75.6408,340.9609
"2386",74.97429,340.97424
"2387",74.390785,340.98758
"2388",73.89517,341.00092
"2389",73.48745,341.01425
"2390",73.15785,341.0276
"2391",72.89174,341.04092
"2392",72.691536,341.05426
"2393",72.55482,341.0676
"2394",72.47181,341.08093
"2395",72.444954,341.09427
"2396",72.47181,341.1076
"2397",72.54017,341.12094
"2398",72.64271,341.13428
"2399",72.76967,341.1476
"2400",72.91615,341.16095
"2401",73.0724,341.1743
"2402",73.22865,341.18762
"2403",73.3727,341.20096
"2404",73.497215,341.2143
"2405",73.599754,341.22763
"2406",73.66323,341.24097
"2407",73.687645,341.2543
"2408",73.670555,341.26764
"2409",73.60952,341.28098
"2410",73.50942,341.2943
"2411",73.38979,341.30765
"2412",73.27749,341.32098
"2413",73.22377,341.33432
"2414",73.34585,341.34766
"2415",73.865875,341.361
"2416",75.06218,341.37433
"2417",77.14229,341.38766
"2418",80.14526,341.401
"2419",83.90997,341.41434
"2420",88.06531,341.42767
"2421",92.1181,341.441
"2422",95.604485,341.45435
"2423",98.194855,341.46768
"2424",99.73785,341.48102
"2425",100.226135,341.49435
"2426",99.75983,341.5077
"2427",98.52445,341.52103
"2428",96.742195,341.53436
"2429",94.62791,341.5477
"2430",92.3769,341.56104
"2431",90.12833,341.57437
"2432",87.96277,341.5877
"2433",85.91928,341.60104
"2434",84.02228,341.61438
"2435",82.303505,341.62772
"2436",80.814224,341.64105
"2437",79.63256,341.6544
"2438",78.82689,341.66772
"2439",78.42893,341.68106
"2440",78.416725,341.6944
"2441",78.712135,341.70773
"2442",79.202866,341.72107
"2443",79.76196,341.7344
"2444",80.26978,341.74774
"2445",80.62867,341.76108
"2446",80.780045,341.7744
"2447",80.69459,341.78775
"2448",80.37232,341.8011
"2449",79.852295,341.81442
"2450",79.17845,341.82776
"2451",78.40452,341.8411
"2452",77.58175,341.85443
"2453",76.749214,341.86777
"2454",75.94354,341.8811
"2455",75.18913,341.89444
"2456",74.50065,341.90778
"2457",73.89029,341.9211
"2458",73.36538,341.93445
"2459",72.92592,341.94778
"2460",72.569466,341.96112
"2461",72.29359,341.97446
"2462",72.08362,341.9878
"2463",71.93469,342.00113
"2464",71.83948,342.01447
"2465",71.79553,342.0278
"2466",71.80286,342.04114
"2467",71.85901,342.05447
"2468",71.95911,342.0678
"2469",72.0885,342.08115
"2470",72.24475,342.09448
"2471",72.40589,342.10782
"2472",72.56458,342.12115
"2473",72.71595,342.1345
"2474",72.85756,342.14783
"2475",72.97719,342.16116
"2476",73.0724,342.1745
"2477",73.14076,342.18784
"2478",73.1725,342.20117
"2479",73.16762,342.2145
"2480",73.12123,342.22784
"2481",73.04799,342.24118
"2482",72.972305,342.25452
"2483",72.91615,342.26785
"2484",72.94545,342.2812
"2485",73.21156,342.29453
"2486",73.95621,342.30786
"2487",75.421074,342.3212
"2488",77.76242,342.33453
"2489",80.936295,342.34787
"2490",84.69123,342.3612
"2491",88.60975,342.37454
"2492",92.21088,342.38788
"2493",95.10155,342.4012
"2494",97.04738,342.41455
"2495",97.97757,342.4279
"2496",97.94095,342.44122
"2497",97.091324,342.45456
"2498",95.61425,342.4679
"2499",93.72213,342.48123
"2500",91.60052,342.49457
"2501",89.393456,342.5079
"2502",87.203476,342.52124
"2503",85.09163,342.53458
"2504",83.09697,342.5479
"2505",81.28054,342.56125
"2506",79.7058,342.5746
"2507",78.46067,342.58792
"2508",77.62325,342.60126
"2509",77.2375,342.6146
"2510",77.296104,342.62793
"2511",77.71847,342.64127
"2512",78.38987,342.6546
"2513",79.168686,342.66794
"2514",79.920654,342.68127
"2515",80.52857,342.6946
"2516",80.919205,342.70795
"2517",81.06081,342.72128
"2518",80.95094,342.73462
"2519",80.60914,342.74796
"2520",80.08911,342.7613
"2521",79.43481,342.77463
"2522",78.695045,342.78796
"2523",77.92355,342.8013
"2524",77.1667,342.81464
"2525",76.44404,342.82797
"2526",75.775085,342.8413
"2527",75.1696,342.85464
"2528",74.63981,342.86798
"2529",74.18326,342.88132
"2530",73.80728,342.89465
"2531",73.50454,342.908
"2532",73.270164,342.92133
"2533",73.09926,342.93466
"2534",72.99184,342.948
"2535",72.938126,342.96133
"2536",72.94789,342.97467
"2537",73.01137,342.988
"2538",73.12123,343.00134
"2539",73.26772,343.01468
"2540",73.43862,343.028
"2541",73.62173,343.04135
"2542",73.80728,343.0547
"2543",73.99039,343.06802
"2544",74.15152,343.08136
"2545",74.29801,343.0947
"2546",74.4152,343.10803
"2547",74.49821,343.12137
"2548",74.53971,343.1347
"2549",74.54459,343.14804
"2550",74.510414,343.16138
"2551",74.444496,343.1747
"2552",74.356606,343.18805
"2553",74.26139,343.2014
"2554",74.20523,343.21472
"2555",74.29313,343.22806
"2556",74.72526,343.2414
"2557",75.75067,343.25473
"2558",77.55489,343.26807
"2559",80.164795,343.2814
"2560",83.407036,343.29474
"2561",86.93004,343.30807
"2562",90.284584,343.3214
"2563",93.067825,343.33475
"2564",95.02342,343.34808
"2565",96.061035,343.36142
"2566",96.2124,343.37476
"2567",95.59472,343.3881
"2568",94.35691,343.40143
"2569",92.67719,343.41476
"2570",90.71671,343.4281
"2571",88.604866,343.44144
"2572",86.43931,343.45477
"2573",84.300606,343.4681
"2574",82.25712,343.48145
"2575",80.37965,343.49478
"2576",78.765854,343.50812
"2577",77.53292,343.52145
"2578",76.773636,343.5348
"2579",76.53437,343.54813
"2580",76.79805,343.56146
"2581",77.47433,343.5748
"2582",78.41917,343.58813
"2583",79.45922,343.60147
"2584",80.445564,343.6148
"2585",81.26345,343.62814
"2586",81.84207,343.64148
"2587",82.14969,343.65482
"2588",82.19852,343.66815
"2589",82.00809,343.6815
"2590",81.61501,343.69482
"2591",81.06569,343.70816
"2592",80.40894,343.7215
"2593",79.68383,343.73483
"2594",78.94408,343.74817
"2595",78.21652,343.7615
"2596",77.53292,343.77484
"2597",76.90791,343.78818
"2598",76.35371,343.8015
"2599",75.877625,343.81485
"2600",75.47723,343.8282
"2601",75.15251,343.84152
"2602",74.896164,343.85486
"2603",74.71549,343.8682
"2604",74.600746,343.88153
"2605",74.56168,343.89487
"2606",74.59586,343.9082
"2607",74.69352,343.92154
"2608",74.84001,343.93488
"2609",75.018234,343.9482
"2610",75.208664,343.96155
"2611",75.40154,343.97488
"2612",75.58221,343.98822
"2613",75.74334,344.00156
"2614",75.87274,344.0149
"2615",75.965515,344.02823
"2616",76.00702,344.04156
"2617",75.99725,344.0549
"2618",75.94354,344.06824
"2619",75.880066,344.08157
"2620",75.88739,344.0949
"2621",76.12909,344.10825
"2622",76.83467,344.12158
"2623",78.20187,344.13492
"2624",80.31617,344.14825
"2625",83.08476,344.1616
"2626",86.236664,344.17493
"2627",89.38369,344.18826
"2628",92.137634,344.2016
"2629",94.205536,344.21494
"2630",95.45312,344.22827
"2631",95.85596,344.2416
"2632",95.48974,344.25494
"2633",94.48142,344.26828
"2634",92.979935,344.28162
"2635",91.141525,344.29495
"2636",89.10048,344.3083
"2637",86.96178,344.32162
"2638",84.80354,344.33496
"2639",82.69657,344.3483
"2640",80.726326,344.36163
"2641",78.99046,344.37497
"2642",77.60372,344.3883
"2643",76.680855,344.40164
"2644",76.29267,344.41498
"2645",76.43427,344.4283
"2646",77.03731,344.44165
"2647",77.9675,344.455
"2648",79.05394,344.46832
"2649",80.130615,344.48166
"2650",81.06569,344.495
"2651",81.77615,344.50833
"2652",82.20584,344.52167
"2653",82.354774,344.535
"2654",82.24246,344.54834
"2655",81.91043,344.56168
"2656",81.40017,344.575
"2657",80.76784,344.58835
"2658",80.062256,344.60168
"2659",79.32494,344.61502
"2660",78.590065,344.62836
"2661",77.88205,344.6417
"2662",77.21797,344.65503
"2663",76.60517,344.66837
"2664",76.06073,344.6817
"2665",75.58709,344.69504
"2666",75.18669,344.70837
"2667",74.87175,344.7217
"2668",74.634926,344.73505
"2669",74.46647,344.74838
"2670",74.36881,344.76172
"2671",74.339516,344.77505
"2672",74.36393,344.7884
"2673",74.43717,344.80173
"2674",74.55192,344.81506
"2675",74.6984,344.8284
"2676",74.8571,344.84174
"2677",75.018234,344.85507
"2678",75.157394,344.8684
"2679",75.26971,344.88174
"2680",75.34783,344.89508
"2681",75.40154,344.90842
"2682",75.48211,344.92175
"2683",75.72137,344.9351
"2684",76.3415,344.94843
"2685",77.60372,344.96176
"2686",79.68383,344.9751
"2687",82.58671,344.98843
"2688",86.10971,345.00177
"2689",89.87442,345.0151
"2690",93.42428,345.02844
"2691",96.35401,345.04178
"2692",98.41703,345.0551
"2693",99.52056,345.06845
"2694",99.684135,345.0818
"2695",99.01274,345.09512
"2696",97.66506,345.10846
"2697",95.82178,345.1218
"2698",93.67086,345.13513
"2699",91.36126,345.14847
"2700",89.01259,345.1618
"2701",86.70054,345.17514
"2702",84.488594,345.18848
"2703",82.4329,345.2018
"2704",80.6067,345.21515
"2705",79.10033,345.2285
"2706",78.02121,345.24182
"2707",77.435265,345.25516
"2708",77.37179,345.2685
"2709",77.77219,345.28183
"2710",78.53391,345.29517
"2711",79.49584,345.3085
"2712",80.48951,345.32184
"2713",81.37087,345.33517
"2714",82.02762,345.3485
"2715",82.39872,345.36185
"2716",82.46952,345.37518
"2717",82.252235,345.38852
"2718",81.79324,345.40186
"2719",81.15114,345.4152
"2720",80.38209,345.42853
"2721",79.53979,345.44186
"2722",78.67063,345.4552
"2723",77.81125,345.46854
"2724",76.99336,345.48187
"2725",76.23895,345.4952
"2726",75.562675,345.50854
"2727",74.969406,345.52188
"2728",74.46403,345.53522
"2729",74.039215,345.54855
"2730",73.69009,345.5619
"2731",73.42153,345.57523
"2732",73.231094,345.58856
"2733",73.11879,345.6019
"2734",73.077286,345.61523
"2735",73.10658,345.62857
"2736",73.18959,345.6419
"2737",73.31655,345.65524
"2738",73.47524,345.66858
"2739",73.65591,345.68192
"2740",73.8439,345.69525
"2741",74.02701,345.7086
"2742",74.195465,345.72192
"2743",74.32975,345.73526
"2744",74.41764,345.7486
"2745",74.4567,345.76193
"2746",74.44694,345.77527
"2747",74.40543,345.7886
"2748",74.40055,345.80194
"2749",74.56901,345.81528
"2750",75.1696,345.8286
"2751",76.49287,345.84195
"2752",78.74143,345.8553
"2753",81.92752,345.86862
"2754",85.83139,345.88196
"2755",90.04532,345.8953
"2756",94.06149,345.90863
"2757",97.42092,345.92197
"2758",99.83551,345.9353
"2759",101.188065,345.94864
"2760",101.49325,345.96198
"2761",100.85359,345.9753
"2762",99.44976,345.98865
"2763",97.49905,346.00198
"2764",95.21141,346.01532
"2765",92.76509,346.02866
"2766",90.304115,346.042
"2767",87.91394,346.05533
"2768",85.63851,346.06866
"2769",83.52178,346.082
"2770",81.61257,346.09534
"2771",79.991455,346.10867
"2772",78.74387,346.122
"2773",77.95773,346.13535
"2774",77.67208,346.14868
"2775",77.855194,346.16202
"2776",78.40696,346.17535
"2777",79.19066,346.1887
"2778",80.04028,346.20203
"2779",80.80934,346.21536
"2780",81.3904,346.2287
"2781",81.705345,346.24203
"2782",81.722435,346.25537
"2783",81.45632,346.2687
"2784",80.94118,346.28204
"2785",80.23071,346.29538
"2786",79.38598,346.30872
"2787",78.47288,346.32205
"2788",77.53292,346.3354
"2789",76.612495,346.34872
"2790",75.736015,346.36206
"2791",74.93523,346.3754
"2792",74.21744,346.38873
"2793",73.58999,346.40207
"2794",73.05287,346.4154
"2795",72.60853,346.42874
"2796",72.25208,346.44208
"2797",71.9762,346.4554
"2798",71.783325,346.46875
"2799",71.66857,346.4821
"2800",71.62707,346.49542
"2801",71.65148,346.50876
"2802",71.73449,346.5221
"2803",71.868774,346.53543
"2804",72.03967,346.54877
"2805",72.234985,346.5621
"2806",72.43763,346.57544
"2807",72.64027,346.58878
"2808",72.82826,346.6021
"2809",72.99184,346.61545
"2810",73.12123,346.62878
"2811",73.216446,346.64212
"2812",73.26528,346.65546
"2813",73.26284,346.6688
"2814",73.22133,346.68213
"2815",73.15297,346.69547
"2816",73.11391,346.7088
"2817",73.233536,346.72214
"2818",73.760895,346.73547
"2819",75.003586,346.7488
"2820",77.19356,346.76215
"2821",80.37476,346.77548
"2822",84.35432,346.78882
"2823",88.72694,346.80215
"2824",92.962845,346.8155
"2825",96.568855,346.82883
"2826",99.21782,346.84216
"2827",100.773026,346.8555
"2828",101.23201,346.86884
"2829",100.70222,346.88217
"2830",99.35943,346.8955
"2831",97.42336,346.90884
"2832",95.10887,346.92218
"2833",92.60639,346.93552
"2834",90.06729,346.94885
"2835",87.589226,346.9622
"2836",85.22102,346.97552
"2837",83.00664,346.98886
"2838",81.00954,347.0022
"2839",79.31518,347.01553
"2840",78.01633,347.02887
"2841",77.19844,347.0422
"2842",76.90059,347.05554
"2843",77.086136,347.06888
"2844",77.65011,347.0822
"2845",78.450905,347.09555
"2846",79.32983,347.1089
"2847",80.13306,347.12222
"2848",80.75319,347.13556
"2849",81.109634,347.1489
"2850",81.17799,347.16223
"2851",80.96315,347.17557
"2852",80.49683,347.1889
"2853",79.835205,347.20224
"2854",79.029526,347.21558
"2855",78.1384,347.2289
"2856",77.21065,347.24225
"2857",76.30244,347.25558
"2858",75.44305,347.26892
"2859",74.65934,347.28226
"2860",73.95865,347.2956
"2861",73.35073,347.30893
"2862",72.83559,347.32227
"2863",72.410774,347.3356
"2864",72.07385,347.34894
"2865",71.82971,347.36227
"2866",71.66857,347.3756
"2867",71.588005,347.38895
"2868",71.5758,347.40228
"2869",71.622185,347.41562
"2870",71.72228,347.42896
"2871",71.86145,347.4423
"2872",72.03723,347.45563
"2873",72.24475,347.46896
"2874",72.46937,347.4823
"2875",72.69642,347.49564
"2876",72.91371,347.50897
"2877",73.10414,347.5223
"2878",73.26528,347.53564
"2879",73.38979,347.54898
"2880",73.477684,347.56232
"2881",73.51675,347.57565
"2882",73.50698,347.589
"2883",73.445946,347.60233
"2884",73.35317,347.61566
"2885",73.2604,347.629
"2886",73.272606,347.64233
"2887",73.599754,347.65567
"2888",74.53239,347.669
"2889",76.351265,347.68234
"2890",79.17601,347.69568
"2891",82.89433,347.709
"2892",87.16197,347.72235
"2893",91.46868,347.7357
"2894",95.28954,347.74902
"2895",98.231476,347.76236
"2896",100.09186,347.7757
"2897",100.82918,347.78903
"2898",100.526436,347.80237
"2899",99.34722,347.8157
"2900",97.49416,347.82904
"2901",95.184555,347.84238
"2902",92.62104,347.8557
"2903",89.95499,347.86905
"2904",87.30114,347.8824
"2905",84.73029,347.89572
"2906",82.32548,347.90906
"2907",80.16724,347.9224
"2908",78.37278,347.93573
"2909",77.05684,347.94907
"2910",76.3122,347.9624
"2911",76.173035,347.97574
"2912",76.58564,347.98907
"2913",77.41573,348.0024
"2914",78.487526,348.01575
"2915",79.62035,348.02908
"2916",80.64088,348.04242
"2917",81.43679,348.05576
"2918",81.9324,348.0691
"2919",82.10086,348.08243
"2920",81.951935,348.09576
"2921",81.529564,348.1091
"2922",80.88991,348.12244
"2923",80.096436,348.13577
"2924",79.21019,348.1491
"2925",78.28245,348.16245
"2926",77.35714,348.17578
"2927",76.470894,348.18912
"2928",75.64568,348.20245
"2929",74.90349,348.2158
"2930",74.251625,348.22913
"2931",73.69985,348.24246
"2932",73.24574,348.2558
"2933",72.886856,348.26913
"2934",72.61585,348.28247
"2935",72.43763,348.2958
"2936",72.34974,348.30914
"2937",72.342415,348.32248
"2938",72.41566,348.33582
"2939",72.56214,348.34915
"2940",72.75502,348.3625
"2941",72.98207,348.37582
"2942",73.22865,348.38916
"2943",73.480125,348.4025
"2944",73.71694,348.41583
"2945",73.93179,348.42917
"2946",74.11734,348.4425
"2947",74.25895,348.45584
"2948",74.34684,348.46918
"2949",74.373695,348.4825
"2950",74.34196,348.49585
"2951",74.26383,348.5092
"2952",74.175934,348.52252
"2953",74.19791,348.53586
"2954",74.527504,348.5492
"2955",75.45037,348.56253
"2956",77.208206,348.57587
"2957",79.89136,348.5892
"2958",83.36797,348.60254
"2959",87.30602,348.61588
"2960",91.229416,348.6292
"2961",94.65476,348.64255
"2962",97.22804,348.65588
"2963",98.77348,348.66922
"2964",99.26421,348.68256
"2965",98.793015,348.6959
"2966",97.513695,348.70923
"2967",95.63134,348.72256
"2968",93.34615,348.7359
"2969",90.83147,348.74924
"2970",88.21912,348.76257
"2971",85.60189,348.7759
"2972",83.06767,348.78925
"2973",80.69947,348.80258
"2974",78.624245,348.81592
"2975",76.98604,348.82925
"2976",75.90936,348.8426
"2977",75.46746,348.85593
"2978",75.66033,348.86926
"2979",76.39277,348.8826
"2980",77.49386,348.89594
"2981",78.768295,348.90927
"2982",80.025635,348.9226
"2983",81.10719,348.93594
"2984",81.90799,348.94928
"2985",82.374306,348.96262
"2986",82.48905,348.97595
"2987",82.28397,348.9893
"2988",81.80057,349.00262
"2989",81.10231,349.01596
"2990",80.25025,349.0293
"2991",79.310295,349.04263
"2992",78.34104,349.05597
"2993",77.39132,349.0693
"2994",76.49287,349.08264
"2995",75.67254,349.09598
"2996",74.94743,349.1093
"2997",74.31754,349.12265
"2998",73.79263,349.136
"2999",73.36538,349.14932
"3000",73.043106,349.16266
"3001",72.8185,349.176
"3002",72.68665,349.18933
"3003",72.64759,349.20267
"3004",72.69886,349.216
"3005",72.82826,349.22934
"3006",73.02113,349.24268
"3007",73.253075,349.256
"3008",73.49233,349.26935
"3009",73.71206,349.28268
"3010",73.900055,349.29602
"3011",74.04166,349.30936
"3012",74.13931,349.3227
"3013",74.19302,349.33603
"3014",74.22476,349.34937
"3015",74.288246,349.3627
"3016",74.52506,349.37604
"3017",75.174484,349.38937
"3018",76.51484,349.4027
"3019",78.73899,349.41605
"3020",81.85916,349.42938
"3021",85.66781,349.44272
"3022",89.759674,349.45605
"3023",93.63912,349.4694
"3024",96.86183,349.48273
"3025",99.13481,349.49606
"3026",100.33845,349.5094
"3027",100.4947,349.52274
"3028",99.718315,349.53607
"3029",98.18997,349.5494
"3030",96.11719,349.56274
"3031",93.70016,349.57608
"3032",91.10979,349.58942
"3033",88.47059,349.60275
"3034",85.86313,349.6161
"3035",83.36309,349.62943
"3036",81.0486,349.64276
"3037",79.03685,349.6561
"3038",77.454796,349.66943
"3039",76.42451,349.68277
"3040",76.01434,349.6961
"3041",76.21698,349.70944
"3042",76.92256,349.72278
"3043",77.95773,349.7361
"3044",79.132065,349.74945
"3045",80.257576,349.7628
"3046",81.18776,349.77612
"3047",81.81766,349.78946
"3048",82.10086,349.8028
"3049",82.03494,349.81613
"3050",81.65652,349.82947
"3051",81.01686,349.8428
"3052",80.19165,349.85614
"3053",79.2517,349.86948
"3054",78.26292,349.8828
"3055",77.279015,349.89615
"3056",76.3415,349.9095
"3057",75.47967,349.92282
"3058",74.71549,349.93616
"3059",74.05142,349.9495
"3060",73.48745,349.96283
"3061",73.02602,349.97617
"3062",72.6598,349.9895
"3063",72.379036,350.00284
"3064",72.181274,350.01617
"3065",72.06409,350.0295
"3066",72.027466,350.04285
"3067",72.06897,350.05618
"3068",72.181274,350.06952
"3069",72.35218,350.08286
"3070",72.569466,350.0962
"3071",72.8185,350.10953
"3072",73.08217,350.12286
"3073",73.34341,350.1362
"3074",73.58755,350.14954
"3075",73.79263,350.16287
"3076",73.93912,350.1762
"3077",74.01724,350.18954
"3078",74.02945,350.20288
"3079",73.985504,350.21622
"3080",73.92935,350.22955
"3081",73.96597,350.2429
"3082",74.302895,350.25623
"3083",75.250175,350.26956
"3084",77.09346,350.2829
"3085",79.974365,350.29623
"3086",83.79767,350.30957
"3087",88.233765,350.3229
"3088",92.76753,350.33624
"3089",96.85939,350.34958
"3090",100.07233,350.3629
"3091",102.17441,350.37625
"3092",103.09972,350.3896
"3093",102.92638,350.40292
"3094",101.81064,350.41626
"3095",99.981995,350.4296
"3096",97.67483,350.44293
"3097",95.11864,350.45627
"3098",92.48676,350.4696
"3099",89.915924,350.48294
"3100",87.47204,350.49628
"3101",85.19173,350.5096
"3102",83.10918,350.52295
"3103",81.28054,350.5363
"3104",79.78882,350.54962
"3105",78.72434,350.56296
"3106",78.14328,350.5763
"3107",78.04562,350.58963
"3108",78.36057,350.60297
"3109",78.958725,350.6163
"3110",79.68627,350.62964
"3111",80.38941,350.64297
"3112",80.94362,350.6563
"3113",81.253685,350.66965
"3114",81.270775,350.68298
"3115",80.99733,350.69632
"3116",80.46021,350.70966
"3117",79.71557,350.723
"3118",78.819565,350.73633
"3119",77.840546,350.74966
"3120",76.83711,350.763
"3121",75.85321,350.77634
"3122",74.93034,350.78967
"3123",74.092926,350.803
"3124",73.35561,350.81635
"3125",72.71839,350.82968
"3126",72.183716,350.84302
"3127",71.74914,350.85635
"3128",71.40734,350.8697
"3129",71.150986,350.88303
"3130",70.977646,350.89636
"3131",70.88487,350.9097
"3132",70.86046,350.92303
"3133",70.90196,350.93637
"3134",71.00206,350.9497
"3135",71.148544,350.96304
"3136",71.329216,350.97638
"3137",71.53185,350.98972
"3138",71.75159,351.00305
"3139",71.96887,351.0164
"3140",72.17883,351.02972
"3141",72.36683,351.04306
"3142",72.5304,351.0564
"3143",72.654915,351.06973
"3144",72.73548,351.08307
"3145",72.764786,351.0964
"3146",72.742805,351.10974
"3147",72.66712,351.12308
"3148",72.552376,351.1364
"3149",72.43275,351.14975
"3150",72.37171,351.1631
"3151",72.52552,351.17642
"3152",73.1725,351.18976
"3153",74.6276,351.2031
"3154",77.100784,351.21643
"3155",80.6067,351.22977
"3156",84.9012,351.2431
"3157",89.52285,351.25644
"3158",93.907684,351.26978
"3159",97.56008,351.2831
"3160",100.16266,351.29645
"3161",101.60067,351.30978
"3162",101.90097,351.32312
"3163",101.19783,351.33646
"3164",99.701225,351.3498
"3165",97.64553,351.36313
"3166",95.26269,351.37646
"3167",92.74799,351.3898
"3168",90.245514,351.40314
"3169",87.84314,351.41647
"3170",85.5848,351.4298
"3171",83.4876,351.44315
"3172",81.60769,351.45648
"3173",80.01099,351.46982
"3174",78.79515,351.48315
"3175",78.028534,351.4965
"3176",77.75021,351.50983
"3177",77.908905,351.52316
"3178",78.40452,351.5365
"3179",79.08812,351.54984
"3180",79.80835,351.56317
"3181",80.430916,351.5765
"3182",80.850845,351.58984
"3183",81.01198,351.60318
"3184",80.88991,351.61652
"3185",80.499275,351.62985
"3186",79.886475,351.6432
"3187",79.10033,351.65652
"3188",78.19699,351.66986
"3189",77.2375,351.6832
"3190",76.27802,351.69653
"3191",75.36248,351.70987
"3192",74.52262,351.7232
"3193",73.780426,351.73654
"3194",73.1432,351.74988
"3195",72.60853,351.7632
"3196",72.16907,351.77655
"3197",71.81995,351.7899
"3198",71.55871,351.80322
"3199",71.3756,351.81656
"3200",71.2633,351.8299
"3201",71.219345,351.84323
"3202",71.236435,351.85657
"3203",71.30724,351.8699
"3204",71.42199,351.88324
"3205",71.5758,351.89658
"3206",71.75891,351.9099
"3207",71.96155,351.92325
"3208",72.17639,351.93658
"3209",72.396126,351.94992
"3210",72.60853,351.96326
"3211",72.796524,351.9766
"3212",72.9601,351.98993
"3213",73.094376,352.00327
"3214",73.19203,352.0166
"3215",73.248184,352.02994
"3216",73.26284,352.04327
"3217",73.23598,352.0566
"3218",73.16518,352.06995
"3219",73.06264,352.08328
"3220",72.94057,352.09662
"3221",72.82338,352.10995
"3222",72.76723,352.1233
"3223",72.903946,352.13663
"3224",73.497215,352.14996
"3225",74.84978,352.1633
"3226",77.18623,352.17664
"3227",80.516365,352.18997
"3228",84.610664,352.2033
"3229",89.01747,352.21664
"3230",93.189896,352.22998
"3231",96.639656,352.24332
"3232",99.07866,352.25665
"3233",100.40681,352.27
"3234",100.665596,352.28333
"3235",99.981995,352.29666
"3236",98.55375,352.31
"3237",96.5835,352.32333
"3238",94.2739,352.33667
"3239",91.790955,352.35
"3240",89.26406,352.36334
"3241",86.77867,352.37668
"3242",84.39338,352.39
"3243",82.18143,352.40335
"3244",80.23804,352.4167
"3245",78.677956,352.43002
"3246",77.61349,352.44336
"3247",77.11299,352.4567
"3248",77.18135,352.47003
"3249",77.730675,352.48337
"3250",78.61692,352.4967
"3251",79.65942,352.51004
"3252",80.68238,352.52338
"3253",81.54665,352.5367
"3254",82.14969,352.55005
"3255",82.44022,352.5634
"3256",82.41825,352.57672
"3257",82.1033,352.59006
"3258",81.549095,352.6034
"3259",80.814224,352.61673
"3260",79.96704,352.63007
"3261",79.061264,352.6434
"3262",78.14328,352.65674
"3263",77.242386,352.67007
"3264",76.38056,352.6834
"3265",75.58221,352.69675
"3266",74.85466,352.71008
"3267",74.21988,352.72342
"3268",73.687645,352.73676
"3269",73.270164,352.7501
"3270",72.9601,352.76343
"3271",72.75014,352.77676
"3272",72.6305,352.7901
"3273",72.59144,352.80344
"3274",72.62562,352.81677
"3275",72.71595,352.8301
"3276",72.85756,352.84344
"3277",73.03822,352.85678
"3278",73.25063,352.87012
"3279",73.477684,352.88345
"3280",73.70962,352.8968
"3281",73.93912,352.91013
"3282",74.14908,352.92346
"3283",74.33463,352.9368
"3284",74.48356,352.95013
"3285",74.58366,352.96347
"3286",74.63737,352.9768
"3287",74.634926,352.99014
"3288",74.57389,353.00348
"3289",74.461586,353.0168
"3290",74.31022,353.03015
"3291",74.141754,353.0435
"3292",74.01236,353.05682
"3293",74.04654,353.07016
"3294",74.46647,353.0835
"3295",75.560234,353.09683
"3296",77.54269,353.11017
"3297",80.462654,353.1235
"3298",84.13214,353.13684
"3299",88.162964,353.15018
"3300",92.06195,353.1635
"3301",95.36767,353.17685
"3302",97.77005,353.1902
"3303",99.139694,353.20352
"3304",99.491264,353.21686
"3305",98.92241,353.2302
"3306",97.584496,353.24353
"3307",95.67773,353.25687
"3308",93.3901,353.2702
"3309",90.88518,353.28354
"3310",88.292366,353.29688
"3311",85.70687,353.3102
"3312",83.209274,353.32355
"3313",80.89479,353.33688
"3314",78.8806,353.35022
"3315",77.30831,353.36356
"3316",76.29023,353.3769
"3317",75.8996,353.39023
"3318",76.13153,353.40356
"3319",76.87373,353.4169
"3320",77.960175,353.43024
"3321",79.1931,353.44357
"3322",80.377205,353.4569
"3323",81.36111,353.47025
"3324",82.04715,353.48358
"3325",82.391396,353.49692
"3326",82.39872,353.51025
"3327",82.10086,353.5236
"3328",81.549095,353.53693
"3329",80.8069,353.55026
"3330",79.93286,353.5636
"3331",78.99046,353.57693
"3332",78.028534,353.59027
"3333",77.09102,353.6036
"3334",76.2121,353.61694
"3335",75.41863,353.63028
"3336",74.71549,353.64362
"3337",74.1149,353.65695
"3338",73.61196,353.6703
"3339",73.214005,353.68362
"3340",72.91615,353.69696
"3341",72.71839,353.7103
"3342",72.61341,353.72363
"3343",72.59876,353.73697
"3344",72.66224,353.7503
"3345",72.7892,353.76364
"3346",72.96498,353.77698
"3347",73.179825,353.7903
"3348",73.42397,353.80365
"3349",73.68032,353.817
"3350",73.944,353.83032
"3351",74.19302,353.84366
"3352",74.4152,353.857
"3353",74.58854,353.87033
"3354",74.703285,353.88367
"3355",74.74723,353.897
"3356",74.720375,353.91034
"3357",74.63737,353.92368
"3358",74.51774,353.937
"3359",74.40543,353.95035
"3360",74.4152,353.96368
"3361",74.76921,353.97702
"3362",75.757996,353.99036
"3363",77.645226,354.0037
"3364",80.533455,354.01703
"3365",84.28596,354.03036
"3366",88.54871,354.0437
"3367",92.80904,354.05704
"3368",96.566414,354.07037
"3369",99.44732,354.0837
"3370",101.27108,354.09705
"3371",102.01083,354.11038
"3372",101.73983,354.12372
"3373",100.60944,354.13705
"3374",98.810104,354.1504
"3375",96.549324,354.16373
"3376",94.01511,354.17706
"3377",91.36858,354.1904
"3378",88.71473,354.20374
"3379",86.12924,354.21707
"3380",83.67803,354.2304
"3381",81.43435,354.24374
"3382",79.51049,354.25708
"3383",78.028534,354.27042
"3384",77.09834,354.28375
"3385",76.76631,354.2971
"3386",76.995804,354.31042
"3387",77.67452,354.32376
"3388",78.624245,354.3371
"3389",79.66674,354.35043
"3390",80.62867,354.36377
"3391",81.392845,354.3771
"3392",81.881134,354.39044
"3393",82.06424,354.40378
"3394",81.94461,354.4171
"3395",81.55154,354.43045
"3396",80.93141,354.4438
"3397",80.14038,354.45712
"3398",79.22728,354.47046
"3399",78.25315,354.4838
"3400",77.26681,354.49713
"3401",76.30488,354.51047
"3402",75.40154,354.5238
"3403",74.5861,354.53714
"3404",73.863434,354.55048
"3405",73.248184,354.5638
"3406",72.742805,354.57715
"3407",72.34486,354.59048
"3408",72.05188,354.60382
"3409",71.86389,354.61716
"3410",71.77356,354.6305
"3411",71.77844,354.64383
"3412",71.868774,354.65717
"3413",72.03235,354.6705
"3414",72.254524,354.68384
"3415",72.515755,354.69717
"3416",72.798965,354.7105
"3417",73.08949,354.72385
"3418",73.37026,354.73718
"3419",73.62905,354.75052
"3420",73.85123,354.76385
"3421",74.022125,354.7772
"3422",74.12955,354.79053
"3423",74.175934,354.80386
"3424",74.15152,354.8172
"3425",74.06851,354.83054
"3426",73.94644,354.84387
"3427",73.829254,354.8572
"3428",73.83414,354.87054
"3429",74.18326,354.88388
"3430",75.18425,354.89722
"3431",77.11299,354.91055
"3432",80.08179,354.9239
"3433",83.95636,354.93723
"3434",88.37293,354.95056
"3435",92.80904,354.9639
"3436",96.742195,354.97723
"3437",99.7818,354.99057
"3438",101.732506,355.0039
"3439",102.555275,355.01724
"3440",102.328224,355.03058
"3441",101.20271,355.0439
"3442",99.38384,355.05725
"3443",97.08156,355.0706
"3444",94.49851,355.08392
"3445",91.79828,355.09726
"3446",89.09804,355.1106
"3447",86.46616,355.12393
"3448",83.966125,355.13727
"3449",81.671165,355.1506
"3450",79.676506,355.16394
"3451",78.099335,355.17728
"3452",77.049515,355.1906
"3453",76.58076,355.20395
"3454",76.67841,355.2173
"3455",77.2375,355.23062
"3456",78.101776,355.24396
"3457",79.093,355.2573
"3458",80.04028,355.27063
"3459",80.80446,355.28397
"3460",81.30251,355.2973
"3461",81.48562,355.31064
"3462",81.356224,355.32397
"3463",80.94606,355.3373
"3464",80.30152,355.35065
"3465",79.48119,355.36398
"3466",78.54612,355.37732
"3467",77.55245,355.39066
"3468",76.558784,355.404
"3469",75.60418,355.41733
"3470",74.71793,355.43066
"3471",73.92447,355.444
"3472",73.22621,355.45734
"3473",72.63294,355.47067
"3474",72.13733,355.484
"3475",71.744255,355.49734
"3476",71.45129,355.51068
"3477",71.26086,355.52402
"3478",71.17296,355.53735
"3479",71.1754,355.5507
"3480",71.25109,355.56403
"3481",71.378044,355.57736
"3482",71.536736,355.5907
"3483",71.7174,355.60403
"3484",71.90784,355.61737
"3485",72.10071,355.6307
"3486",72.291145,355.64404
"3487",72.46937,355.65738
"3488",72.62318,355.67072
"3489",72.75258,355.68405
"3490",72.84291,355.6974
"3491",72.89662,355.71072
"3492",72.90883,355.72406
"3493",72.88197,355.7374
"3494",72.8307,355.75073
"3495",72.816055,355.76407
"3496",72.97963,355.7774
"3497",73.57778,355.79074
"3498",74.93523,355.80408
"3499",77.279015,355.8174
"3500",80.638435,355.83075
"3501",84.78157,355.8441
"3502",89.26406,355.85742
"3503",93.52682,355.87076
"3504",97.076675,355.8841
"3505",99.60357,355.89743
"3506",100.99275,355.91077
"3507",101.27596,355.9241
"3508",100.575264,355.93744
"3509",99.06401,355.95078
"3510",96.954605,355.9641
"3511",94.452126,355.97745
"3512",91.734795,355.99078
"3513",88.94667,356.00412
"3514",86.187836,356.01746
"3515",83.529106,356.0308
"3516",81.058365,356.04413
"3517",78.86839,356.05746
"3518",77.07637,356.0708
"3519",75.81171,356.08414
"3520",75.157394,356.09747
"3521",75.13054,356.1108
"3522",75.66277,356.12415
"3523",76.612495,356.13748
"3524",77.78195,356.15082
"3525",78.9807,356.16415
"3526",80.04028,356.1775
"3527",80.848404,356.19083
"3528",81.34646,356.20416
"3529",81.52224,356.2175
"3530",81.3904,356.23083
"3531",80.9778,356.24417
"3532",80.3357,356.2575
"3533",79.520256,356.27084
"3534",78.58274,356.28418
"3535",77.58175,356.29752
"3536",76.58076,356.31085
"3537",75.62127,356.3242
"3538",74.73014,356.33752
"3539",73.93179,356.35086
"3540",73.2433,356.3642
"3541",72.66224,356.37753
"3542",72.183716,356.39087
"3543",71.8053,356.4042
"3544",71.53185,356.41754
"3545",71.37316,356.43088
"3546",71.326775,356.4442
"3547",71.39025,356.45755
"3548",71.55627,356.4709
"3549",71.80774,356.48422
"3550",72.11536,356.49756
"3551",72.4596,356.5109
"3552",72.82338,356.52423
"3553",73.18715,356.53757
"3554",73.52895,356.5509
"3555",73.81949,356.56424
"3556",74.04166,356.57758
"3557",74.178375,356.5909
"3558",74.2272,356.60425
"3559",74.19791,356.61758
"3560",74.11734,356.63092
"3561",74.039215,356.64426
"3562",74.07828,356.6576
"3563",74.45426,356.67093
"3564",75.44549,356.68427
"3565",77.30099,356.6976
"3566",80.09888,356.71094
"3567",83.6878,356.72427
"3568",87.691765,356.7376
"3569",91.612724,356.75095
"3570",94.97215,356.76428
"3571",97.43801,356.77762
"3572",98.861374,356.79095
"3573",99.24956,356.8043
"3574",98.70512,356.81763
"3575",97.374535,356.83096
"3576",95.450676,356.8443
"3577",93.11421,356.85764
"3578",90.53361,356.87097
"3579",87.82849,356.8843
"3580",85.09651,356.89764
"3581",82.41825,356.91098
"3582",79.90112,356.92432
"3583",77.67696,356.93765
"3584",75.90936,356.951
"3585",74.75212,356.96432
"3586",74.31022,356.97766
"3587",74.57633,356.991
"3588",75.457695,357.00433
"3589",76.771194,357.01767
"3590",78.28977,357.031
"3591",79.7937,357.04434
"3592",81.10475,357.05768
"3593",82.1033,357.071
"3594",82.73075,357.08435
"3595",82.98222,357.0977
"3596",82.88701,357.11102
"3597",82.49882,357.12436
"3598",81.883575,357.1377
"3599",81.10719,357.15103
"3600",80.233154,357.16437
"3601",79.327385,357.1777
"3602",78.43626,357.19104
"3603",77.58663,357.20438
"3604",76.79805,357.2177
"3605",76.07538,357.23105
"3606",75.421074,357.2444
"3607",74.844894,357.25772
"3608",74.354164,357.27106
"3609",73.95865,357.2844
"3610",73.66079,357.29773
"3611",73.46548,357.31107
"3612",73.375145,357.3244
"3613",73.38979,357.33774
"3614",73.497215,357.35107
"3615",73.687645,357.3644
"3616",73.92691,357.37775
"3617",74.17349,357.39108
"3618",74.39567,357.40442
"3619",74.564125,357.41776
"3620",74.67887,357.4311
"3621",74.77898,357.44443
"3622",74.95232,357.45776
"3623",75.38445,357.4711
"3624",76.33906,357.48444
"3625",78.05539,357.49777
"3626",80.63111,357.5111
"3627",83.963684,357.52444
"3628",87.745476,357.53778
"3629",91.52239,357.55112
"3630",94.82567,357.56445
"3631",97.30862,357.5778
"3632",98.7979,357.59113
"3633",99.26421,357.60446
"3634",98.78569,357.6178
"3635",97.50881,357.63113
"3636",95.62646,357.64447
"3637",93.33883,357.6578
"3638",90.82414,357.67114
"3639",88.22888,357.68448
"3640",85.645836,357.6978
"3641",83.15556,357.71115
"3642",80.83864,357.7245
"3643",78.80492,357.73782
"3644",77.18379,357.75116
"3645",76.102234,357.7645
"3646",75.64568,357.77783
"3647",75.81171,357.79117
"3648",76.5124,357.8045
"3649",77.58663,357.81784
"3650",78.839096,357.83118
"3651",80.0647,357.8445
"3652",81.10231,357.85785
"3653",81.84451,357.8712
"3654",82.24002,357.88452
"3655",82.29862,357.89786
"3656",82.056915,357.9112
"3657",81.57351,357.92453
"3658",80.89723,357.93787
"3659",80.079346,357.9512
"3660",79.17845,357.96454
"3661",78.25315,357.97787
"3662",77.3547,357.9912
"3663",76.52949,358.00455
"3664",75.79462,358.01788
"3665",75.16716,358.03122
"3666",74.63981,358.04456
"3667",74.20767,358.0579
"3668",73.863434,358.07123
"3669",73.616844,358.08456
"3670",73.463036,358.0979
"3671",73.38247,358.11124
"3672",73.34829,358.12457
"3673",73.35561,358.1379
"3674",73.38491,358.15125
"3675",73.41909,358.16458
"3676",73.45327,358.17792
"3677",73.46792,358.19125
"3678",73.45083,358.2046
"3679",73.38979,358.21793
"3680",73.323875,358.23126
"3681",73.38735,358.2446
"3682",73.812164,358.25793
"3683",74.90837,358.27127
"3684",76.91524,358.2846
"3685",79.89868,358.29794
"3686",83.685356,358.31128
"3687",87.87732,358.32462
"3688",91.97406,358.33795
"3689",95.47997,358.3513
"3690",98.0679,358.36462
"3691",99.58648,358.37796
"3692",100.04059,358.3913
"3693",99.544975,358.40463
"3694",98.28031,358.41797
"3695",96.45167,358.4313
"3696",94.26902,358.44464
"3697",91.91058,358.45798
"3698",89.50332,358.4713
"3699",87.11803,358.48465
"3700",84.81331,358.498
"3701",82.64774,358.51132
"3702",80.69215,358.52466
"3703",79.046616,358.538
"3704",77.80881,358.55133
"3705",77.049515,358.56467
"3706",76.78096,358.578
"3707",76.9543,358.59134
"3708",77.45968,358.60468
"3709",78.16525,358.618
"3710",78.91478,358.63135
"3711",79.57397,358.64468
"3712",80.03296,358.65802
"3713",80.23804,358.67136
"3714",80.164795,358.6847
"3715",79.835205,358.69803
"3716",79.29809,358.71136
"3717",78.607155,358.7247
"3718",77.81369,358.73804
"3719",76.96651,358.75137
"3720",76.112,358.7647
"3721",75.27947,358.77805
"3722",74.50797,358.79138
"3723",73.814606,358.80472
"3724",73.20912,358.81805
"3725",72.69642,358.8314
"3726",72.2765,358.84473
"3727",71.93713,358.85806
"3728",71.690544,358.8714
"3729",71.534294,358.88474
"3730",71.468376,358.89807
"3731",71.49035,358.9114
"3732",71.57824,358.92474
"3733",71.7174,358.93808
"3734",71.89075,358.95142
"3735",72.08118,358.96475
"3736",72.26673,358.9781
"3737",72.43763,358.99142
"3738",72.58167,359.00476
"3739",72.70374,359.0181
"3740",72.85756,359.03143
"3741",73.18471,359.04477
"3742",73.92935,359.0581
"3743",75.386894,359.07144
"3744",77.75998,359.08478
"3745",81.075455,359.0981
"3746",85.12337,359.11145
"3747",89.49355,359.1248
"3748",93.67574,359.13812
"3749",97.198746,359.15146
"3750",99.74761,359.1648
"3751",101.19539,359.17813
"3752",101.556725,359.19147
"3753",100.9659,359.2048
"3754",99.615776,359.21814
"3755",97.73586,359.23148
"3756",95.54345,359.2448
"3757",93.224075,359.25815
"3758",90.899826,359.27148
"3759",88.62928,359.28482
"3760",86.451515,359.29816
"3761",84.38117,359.3115
"3762",82.46952,359.32483
"3763",80.797134,359.33817
"3764",79.45922,359.3515
"3765",78.54368,359.36484
"3766",78.08957,359.37817
"3767",78.05295,359.3915
"3768",78.34348,359.40485
"3769",78.82445,359.41818
"3770",79.37133,359.43152
"3771",79.86694,359.44485
"3772",80.22827,359.4582
"3773",80.40406,359.47153
"3774",80.36744,359.48486
"3775",80.1062,359.4982
"3776",79.63256,359.51154
"3777",78.97826,359.52487
"3778",78.19211,359.5382
"3779",77.330284,359.55154
"3780",76.4416,359.56488
"3781",75.56512,359.57822
"3782",74.72526,359.59155
"3783",73.936676,359.6049
"3784",73.20912,359.61823
"3785",72.54749,359.63156
"3786",71.96155,359.6449
"3787",71.45617,359.65823
"3788",71.04112,359.67157
"3789",70.72129,359.6849
"3790",70.501564,359.69824
"3791",70.37217,359.71158
"3792",70.33799,359.7249
"3793",70.38682,359.73825
"3794",70.50645,359.7516
"3795",70.68955,359.76492
"3796",70.92149,359.77826
"3797",71.182724,359.7916
"3798",71.45129,359.80493
"3799",71.70031,359.81827
"3800",71.9176,359.8316
"3801",72.11047,359.84494
"3802",72.33265,359.85828
"3803",72.71595,359.8716
"3804",73.497215,359.88495
"3805",74.9572,359.8983
"3806",77.279015,359.91162
"3807",80.48463,359.92496
"3808",84.368965,359.9383
"3809",88.531624,359.95163
"3810",92.474556,359.96497
"3811",95.746086,359.9783
"3812",98.06058,359.99164
"3813",99.30572,360.00497
"3814",99.510796,360.0183
"3815",98.80522,360.03165
"3816",97.394066,360.04498
"3817",95.48974,360.05832
"3818",93.30465,360.07166
"3819",91.01213,360.085
"3820",88.7367,360.09833
"3821",86.54185,360.11166
"3822",84.44465,360.125
"3823",82.48173,360.13834
"3824",80.709236,360.15167
"3825",79.21507,360.165
"3826",78.09689,360.17834
"3827",77.437706,360.19168
"3828",77.24971,360.20502
"3829",77.47921,360.21835
"3830",78.009,360.2317
"3831",78.692604,360.24503
"3832",79.38842,360.25836
"3833",79.971924,360.2717
"3834",80.35279,360.28503
"3835",80.4773,360.29837
"3836",80.325935,360.3117
"3837",79.90845,360.32504
"3838",79.27123,360.33838
"3839",78.467995,360.3517
"3840",77.56954,360.36505
"3841",76.63691,360.3784
"3842",75.72381,360.39172
"3843",74.861984,360.40506
"3844",74.075836,360.4184
"3845",73.3727,360.43173
"3846",72.7599,360.44507
"3847",72.24963,360.4584
"3848",71.8468,360.47174
"3849",71.55627,360.48508
"3850",71.37072,360.4984
"3851",71.27795,360.51175
"3852",71.25353,360.5251
"3853",71.28283,360.53842
"3854",71.35119,360.55176
"3855",71.45373,360.5651
"3856",71.57824,360.57843
"3857",71.7174,360.59177
"3858",71.86389,360.6051
"3859",72.00061,360.61844
"3860",72.10559,360.63177
"3861",72.181274,360.6451
"3862",72.2301,360.65845
"3863",72.26429,360.67178
"3864",72.31068,360.68512
"3865",72.45228,360.69846
"3866",72.85756,360.7118
"3867",73.77554,360.72513
"3868",75.457695,360.73846
"3869",78.02365,360.7518
"3870",81.40017,360.76514
"3871",85.29916,360.77847
"3872",89.27383,360.7918
"3873",92.83345,360.80515
"3874",95.606926,360.81848
"3875",97.3843,360.83182
"3876",98.11673,360.84515
"3877",97.87747,360.8585
"3878",96.82521,360.87183
"3879",95.15526,360.88516
"3880",93.0898,360.8985
"3881",90.8217,360.91183
"3882",88.482796,360.92517
"3883",86.15854,360.9385
"3884",83.895325,360.95184
"3885",81.74685,360.96518
"3886",79.79126,360.97852
"3887",78.14328,360.99185
"3888",76.93721,361.0052
"3889",76.26093,361.01852
"3890",76.14374,361.03186
"3891",76.524605,361.0452
"3892",77.26925,361.05853
"3893",78.19943,361.07187
"3894",79.14183,361.0852
"3895",79.94507,361.09854
"3896",80.499275,361.11188
"3897",80.74586,361.1252
"3898",80.67506,361.13855
"3899",80.308846,361.1519
"3900",79.7058,361.16522
"3901",78.93919,361.17856
"3902",78.07492,361.1919
"3903",77.18135,361.20523
"3904",76.30488,361.21857
"3905",75.48211,361.2319
"3906",74.737465,361.24524
"3907",74.090485,361.25858
"3908",73.55093,361.2719
"3909",73.128555,361.28525
"3910",72.813614,361.29858
"3911",72.603645,361.31192
"3912",72.48402,361.32526
"3913",72.44984,361.3386
"3914",72.4889,361.35193
"3915",72.59388,361.36526
"3916",72.742805,361.3786
"3917",72.921036,361.39194
"3918",73.11391,361.40527
"3919",73.304344,361.4186
"3920",73.477684,361.43195
"3921",73.62661,361.44528
"3922",73.738914,361.45862
"3923",73.80728,361.47195
"3924",73.82681,361.4853
"3925",73.80972,361.49863
"3926",73.80484,361.51196
"3927",73.934235,361.5253
"3928",74.407875,361.53864
"3929",75.50652,361.55197
"3930",77.44259,361.5653
"3931",80.27711,361.57864
"3932",83.84894,361.59198
"3933",87.799194,361.60532
"3934",91.646904,361.61865
"3935",94.93797,361.632
"3936",97.34524,361.64532
"3937",98.71488,361.65866
"3938",99.04448,361.672
"3939",98.44877,361.68533
"3940",97.10841,361.69867
"3941",95.24071,361.712
"3942",93.05562,361.72534
"3943",90.72404,361.73868
"3944",88.35096,361.752
"3945",85.99985,361.76535
"3946",83.72198,361.7787
"3947",81.59304,361.79202
"3948",79.71801,361.80536
"3949",78.23361,361.8187
"3950",77.25704,361.83203
"3951",76.84688,361.84537
"3952",76.97627,361.8587
"3953",77.540245,361.87204
"3954",78.37278,361.88538
"3955",79.29565,361.8987
"3956",80.15015,361.91205
"3957",80.81178,361.92538
"3958",81.19997,361.93872
"3959",81.2781,361.95206
"3960",81.05592,361.9654
"3961",80.56519,361.97873
"3962",79.8645,361.99207
"3963",79.01976,362.0054
"3964",78.09201,362.01874
"3965",77.14229,362.03207
"3966",76.22919,362.0454
"3967",75.38201,362.05875
"3968",74.6276,362.07208
"3969",73.98062,362.08542
"3970",73.445946,362.09875
"3971",73.01381,362.1121
"3972",72.67689,362.12543
"3973",72.430305,362.13876
"3974",72.26917,362.1521
"3975",72.17883,362.16544
"3976",72.15442,362.17877
"3977",72.19348,362.1921
"3978",72.29603,362.20544
"3979",72.447395,362.21878
"3980",72.63294,362.23212
"3981",72.83803,362.24545
"3982",73.03822,362.2588
"3983",73.21889,362.27213
"3984",73.375145,362.28546
"3985",73.497215,362.2988
"3986",73.582664,362.31213
"3987",73.62905,362.32547
"3988",73.64126,362.3388
"3989",73.62661,362.35214
"3990",73.651024,362.36548
"3991",73.87076,362.3788
"3992",74.54948,362.39215
"3993",75.97284,362.4055
"3994",78.348366,362.41882
"3995",81.67605,362.43216
"3996",85.71908,362.4455
"3997",90.03555,362.45883
"3998",94.103,362.47217
"3999",97.45754,362.4855
"4000",99.8111,362.49884
"4001",101.048904,362.51218
"4002",101.207596,362.5255
"4003",100.4239,362.53885
"4004",98.90044,362.5522
"4005",96.852066,362.56552
"4006",94.49851,362.57886
"4007",92.02289,362.5922
"4008",89.5375,362.60553
"4009",87.10582,362.61887
"4010",84.77913,362.6322
"4011",82.6038,362.64554
"4012",80.66041,362.65887
"4013",79.06859,362.6722
"4014",77.943085,362.68555
"4015",77.347374,362.69888
"4016",77.2839,362.71222
"4017",77.6672,362.72556
"4018",78.35569,362.7389
"4019",79.183334,362.75223
"4020",79.9939,362.76556
"4021",80.65797,362.7789
"4022",81.08034,362.79224
"4023",81.20729,362.80557
"4024",81.03151,362.8189
"4025",80.57496,362.83224
"4026",79.89136,362.84558
"4027",79.046616,362.85892
"4028",78.10666,362.87225
"4029",77.12764,362.8856
"4030",76.16083,362.89893
"4031",75.24773,362.91226
"4032",74.4152,362.9256
"4033",73.68276,362.93893
"4034",73.06264,362.95227
"4035",72.56214,362.9656
"4036",72.166626,362.97894
"4037",71.86633,362.99228
"4038",71.65148,363.0056
"4039",71.52209,363.01895
"4040",71.468376,363.0323
"4041",71.49279,363.04562
"4042",71.59045,363.05896
"4043",71.74914,363.0723
"4044",71.95178,363.08563
"4045",72.17639,363.09897
"4046",72.40345,363.1123
"4047",72.62318,363.12564
"4048",72.82826,363.13898
"4049",73.006485,363.1523
"4050",73.15297,363.16565
"4051",73.26528,363.179
"4052",73.33608,363.19232
"4053",73.36294,363.20566
"4054",73.34829,363.219
"4055",73.304344,363.23233
"4056",73.270164,363.24567
"4057",73.34341,363.259
"4058",73.7438,363.27234
"4059",74.78874,363.28568
"4060",76.76631,363.299
"4061",79.798584,363.31235
"4062",83.76349,363.32568
"4063",88.30213,363.33902
"4064",92.88228,363.35236
"4065",96.95216,363.3657
"4066",100.10651,363.37903
"4067",102.13779,363.39236
"4068",103.009384,363.4057
"4069",102.79942,363.41904
"4070",101.678795,363.43237
"4071",99.86725,363.4457
"4072",97.599144,363.45905
"4073",95.099106,363.47238
"4074",92.542915,363.48572
"4075",90.04776,363.49905
"4076",87.66003,363.5124
"4077",85.41634,363.52573
"4078",83.346,363.53906
"4079",81.512474,363.5524
"4080",80.01343,363.56573
"4081",78.94896,363.57907
"4082",78.37522,363.5924
"4083",78.28245,363.60574
"4084",78.58274,363.61908
"4085",79.13939,363.63242
"4086",79.79614,363.64575
"4087",80.4065,363.6591
"4088",80.85573,363.67242
"4089",81.07301,363.68576
"4090",81.02174,363.6991
"4091",80.69703,363.71243
"4092",80.128174,363.72577
"4093",79.361565,363.7391
"4094",78.45823,363.75244
"4095",77.47677,363.76578
"4096",76.473335,363.7791
"4097",75.4992,363.79245
"4098",74.59586,363.8058
"4099",73.777985,363.81912
"4100",73.060196,363.83246
"4101",72.44251,363.8458
"4102",71.922485,363.85913
"4103",71.500114,363.87247
"4104",71.17052,363.8858
"4105",70.93126,363.89914
"4106",70.78233,363.91248
"4107",70.71885,363.9258
"4108",70.73106,363.93915
"4109",70.81651,363.95248
"4110",70.963,363.96582
"4111",71.15343,363.97916
"4112",71.3756,363.9925
"4113",71.60265,364.00583
"4114",71.81995,364.01917
"4115",72.01526,364.0325
"4116",72.17151,364.04584
"4117",72.28626,364.05917
"4118",72.36439,364.0725
"4119",72.39857,364.08585
"4120",72.38636,364.09918
"4121",72.33997,364.11252
"4122",72.27894,364.12585
"4123",72.26185,364.1392
"4124",72.44007,364.15253
"4125",73.077286,364.16586
"4126",74.495766,364.1792
"4127",76.92012,364.19254
"4128",80.38697,364.20587
"4129",84.6717,364.2192
"4130",89.339745,364.23254
"4131",93.839325,364.24588
"4132",97.652855,364.25922
"4133",100.44343,364.27255
"4134",102.07187,364.2859
"4135",102.54063,364.29922
"4136",101.97421,364.31256
"4137",100.5655,364.3259
"4138",98.54887,364.33923
"4139",96.148926,364.35257
"4140",93.57076,364.3659
"4141",90.965744,364.37924
"4142",88.41932,364.39258
"4143",85.980316,364.4059
"4144",83.6878,364.41925
"4145",81.5906,364.4326
"4146",79.77905,364.44592
"4147",78.35813,364.45926
"4148",77.41573,364.4726
"4149",76.99336,364.48593
"4150",77.051956,364.49927
"4151",77.486534,364.5126
"4152",78.150604,364.52594
"4153",78.890366,364.53928
"4154",79.55932,364.5526
"4155",80.05005,364.56595
"4156",80.289314,364.57928
"4157",80.25025,364.59262
"4158",79.92798,364.60596
"4159",79.361565,364.6193
"4160",78.60227,364.63263
"4161",77.70626,364.64597
"4162",76.74189,364.6593
"4163",75.76288,364.67264
"4164",74.81804,364.68597
"4165",73.92935,364.6993
"4166",73.126114,364.71265
"4167",72.413216,364.72598
"4168",71.79797,364.73932
"4169",71.28771,364.75266
"4170",70.88243,364.766
"4171",70.57725,364.77933
"4172",70.36973,364.79266
"4173",70.25498,364.806
"4174",70.23056,364.81934
"4175",70.28184,364.83267
"4176",70.40147,364.846
"4177",70.58213,364.85934
"4178",70.801865,364.87268
"4179",71.046005,364.88602
"4180",71.30236,364.89935
"4181",71.551384,364.9127
"4182",71.783325,364.92603
"4183",71.98596,364.93936
"4184",72.149536,364.9527
"4185",72.26673,364.96603
"4186",72.33753,364.97937
"4187",72.35462,364.9927
"4188",72.32288,365.00604
"4189",72.256966,365.01938
"4190",72.16907,365.0327
"4191",72.12756,365.04605
"4192",72.288704,365.0594
"4193",72.91371,365.07272
"4194",74.32487,365.08606
"4195",76.74677,365.0994
"4196",80.18677,365.11273
"4197",84.4007,365.12607
"4198",88.92714,365.1394
"4199",93.204544,365.15274
"4200",96.74708,365.16608
"4201",99.24956,365.1794
"4202",100.60944,365.19275
"4203",100.8658,365.2061
"4204",100.14313,365.21942
"4205",98.62211,365.23276
"4206",96.5127,365.2461
"4207",94.01511,365.25943
"4208",91.302666,365.27277
"4209",88.50721,365.2861
"4210",85.72396,365.29944
"4211",83.03349,365.31277
"4212",80.52857,365.3261
"4213",78.33616,365.33945
"4214",76.59785,365.35278
"4215",75.43328,365.36612
"4216",74.92302,365.37946
"4217",75.04997,365.3928
"4218",75.7116,365.40613
"4219",76.73945,365.41946
"4220",77.93332,365.4328
"4221",79.10277,365.44614
"4222",80.10132,365.45947
"4223",80.816666,365.4728
"4224",81.19997,365.48615
"4225",81.24635,365.49948
"4226",80.98512,365.51282
"4227",80.465096,365.52615
"4228",79.73998,365.5395
"4229",78.87816,365.55283
"4230",77.9382,365.56616
"4231",76.964066,365.5795
"4232",75.999695,365.59283
"4233",75.07927,365.60617
"4234",74.22476,365.6195
"4235",73.45815,365.63284
"4236",72.796524,365.64618
"4237",72.24719,365.65952
"4238",71.817505,365.67285
"4239",71.50744,365.6862
"4240",71.309685,365.69952
"4241",71.21446,365.71286
"4242",71.2169,365.7262
"4243",71.3048,365.73953
"4244",71.46349,365.75287
"4245",71.675896,365.7662
"4246",71.93225,365.77954
"4247",72.21301,365.79288
"4248",72.50843,365.8062
"4249",72.80141,365.81955
"4250",73.08461,365.8329
"4251",73.33608,365.84622
"4252",73.53872,365.85956
"4253",73.67544,365.8729
"4254",73.74624,365.88623
"4255",73.74868,365.89957
"4256",73.71206,365.9129
"4257",73.7145,365.92624
"4258",73.92447,365.93958
"4259",74.61295,365.9529
"4260",76.07294,365.96625
"4261",78.48264,365.97958
"4262",81.80057,365.99292
"4263",85.73617,366.00626
"4264",89.83292,366.0196
"4265",93.57809,366.03293
"4266",96.54688,366.04626
"4267",98.51469,366.0596
"4268",99.42535,366.07294
"4269",99.34722,366.08627
"4270",98.409706,366.0996
"4271",96.778824,366.11295
"4272",94.62791,366.12628
"4273",92.12787,366.13962
"4274",89.40566,366.15295
"4275",86.56138,366.1663
"4276",83.70489,366.17963
"4277",80.94362,366.19296
"4278",78.41184,366.2063
"4279",76.27558,366.21964
"4280",74.71061,366.23297
"4281",73.84146,366.2463
"4282",73.72671,366.25964
"4283",74.31022,366.27298
"4284",75.44793,366.28632
"4285",76.925,366.29965
"4286",78.504616,366.313
"4287",79.974365,366.32632
"4288",81.17799,366.33966
"4289",82.02518,366.353
"4290",82.48417,366.36633
"4291",82.57206,366.37967
"4292",82.33036,366.393
"4293",81.81766,366.40634
"4294",81.092545,366.41968
"4295",80.218506,366.433
"4296",79.256584,366.44635
"4297",78.25803,366.4597
"4298",77.27169,366.47302
"4299",76.334175,366.48636
"4300",75.47234,366.4997
"4301",74.70573,366.51303
"4302",74.0441,366.52637
"4303",73.494774,366.5397
"4304",73.06264,366.55304
"4305",72.74769,366.56638
"4306",72.55482,366.5797
"4307",72.47669,366.59305
"4308",72.498665,366.60638
"4309",72.60609,366.61972
"4310",72.76967,366.63306
"4311",72.955215,366.6464
"4312",73.14809,366.65973
"4313",73.32876,366.67307
"4314",73.494774,366.6864
"4315",73.66323,366.69974
"4316",73.88052,366.71307
"4317",74.27116,366.7264
"4318",75.05974,366.73975
"4319",76.51728,366.75308
"4320",78.83177,366.76642
"4321",82.022736,366.77975
"4322",85.86801,366.7931
"4323",89.969635,366.80643
"4324",93.83688,366.81976
"4325",97.040054,366.8331
"4326",99.300835,366.84644
"4327",100.526436,366.85977
"4328",100.73884,366.8731
"4329",100.04547,366.88644
"4330",98.59037,366.89978
"4331",96.54688,366.91312
"4332",94.083466,366.92645
"4333",91.34173,366.9398
"4334",88.44373,366.95312
"4335",85.4847,366.96646
"4336",82.56962,366.9798
"4337",79.83276,366.99313
"4338",77.43038,367.00647
"4339",75.53826,367.0198
"4340",74.31266,367.03314
"4341",73.85123,367.04648
"4342",74.14908,367.0598
"4343",75.0988,367.07315
"4344",76.49775,367.0865
"4345",78.1091,367.09982
"4346",79.70092,367.11316
"4347",81.07301,367.1265
"4348",82.09842,367.13983
"4349",82.72831,367.15317
"4350",82.97002,367.1665
"4351",82.845505,367.17984
"4352",82.41581,367.19318
"4353",81.74685,367.2065
"4354",80.902115,367.21985
"4355",79.937744,367.2332
"4356",78.91234,367.24652
"4357",77.874725,367.25986
"4358",76.86885,367.2732
"4359",75.928894,367.28653
"4360",75.07927,367.29987
"4361",74.339516,367.3132
"4362",73.71694,367.32654
"4363",73.214005,367.33987
"4364",72.833145,367.3532
"4365",72.569466,367.36655
"4366",72.4181,367.37988
"4367",72.36683,367.39322
"4368",72.393684,367.40656
"4369",72.47913,367.4199
"4370",72.59632,367.43323
"4371",72.725716,367.44656
"4372",72.867325,367.4599
"4373",73.043106,367.47324
"4374",73.340965,367.48657
"4375",73.9733,367.4999
"4376",75.2404,367.51324
"4377",77.420616,367.52658
"4378",80.61646,367.53992
"4379",84.67902,367.55325
"4380",89.22499,367.5666
"4381",93.72213,367.57993
"4382",97.63332,367.59326
"4383",100.58747,367.6066
"4384",102.40879,367.61993
"4385",103.09483,367.63327
"4386",102.7335,367.6466
"4387",101.471275,367.65994
"4388",99.49615,367.67328
"4389",97.01076,367.6866
"4390",94.20065,367.69995
"4391",91.21721,367.7133
"4392",88.18005,367.72662
"4393",85.17952,367.73996
"4394",82.30106,367.7533
"4395",79.66186,367.76663
"4396",77.401085,367.77997
"4397",75.68719,367.7933
"4398",74.6569,367.80664
"4399",74.371254,367.81998
"4400",74.78874,367.8333
"4401",75.76776,367.84665
"4402",77.083694,367.86
"4403",78.504616,367.87332
"4404",79.818115,367.88666
"4405",80.87038,367.9
"4406",81.5613,367.91333
"4407",81.87137,367.92667
"4408",81.8201,367.94
"4409",81.444115,367.95334
"4410",80.81178,367.96667
"4411",79.97925,367.98
"4412",79.01488,367.99335
"4413",77.96994,368.00668
"4414",76.90791,368.02002
"4415",75.87518,368.03336
"4416",74.91081,368.0467
"4417",74.0441,368.06003
"4418",73.29214,368.07336
"4419",72.66712,368.0867
"4420",72.164185,368.10004
"4421",71.78088,368.11337
"4422",71.51232,368.1267
"4423",71.35363,368.14005
"4424",71.292595,368.15338
"4425",71.31457,368.16672
"4426",71.40246,368.18005
"4427",71.53185,368.1934
"4428",71.68566,368.20673
"4429",71.84192,368.22006
"4430",71.990845,368.2334
"4431",72.13489,368.24673
"4432",72.288704,368.26007
"4433",72.518196,368.2734
"4434",73.01137,368.28674
"4435",74.08316,368.30008
"4436",76.06317,368.31342
"4437",79.14427,368.32675
"4438",83.250786,368.3401
"4439",88.043335,368.35342
"4440",92.98726,368.36676
"4441",97.49172,368.3801
"4442",101.09773,368.39343
"4443",103.553825,368.40677
"4444",104.798965,368.4201
"4445",104.89662,368.43344
"4446",103.9762,368.44678
"4447",102.233,368.4601
"4448",99.89166,368.47345
"4449",97.17433,368.4868
"4450",94.278786,368.50012
"4451",91.35882,368.51346
"4452",88.50721,368.5268
"4453",85.79233,368.54013
"4454",83.265434,368.55347
"4455",80.99977,368.5668
"4456",79.10521,368.58014
"4457",77.68429,368.59348
"4458",76.83467,368.6068
"4459",76.58076,368.62015
"4460",76.86641,368.63348
"4461",77.55001,368.64682
"4462",78.45335,368.66016
"4463",79.398186,368.6735
"4464",80.22339,368.68683
"4465",80.80934,368.70016
"4466",81.092545,368.7135
"4467",81.05348,368.72684
"4468",80.70435,368.74017
"4469",80.08423,368.7535
"4470",79.25414,368.76685
"4471",78.28001,368.78018
"4472",77.222855,368.79352
"4473",76.13641,368.80685
"4474",75.08171,368.8202
"4475",74.092926,368.83353
"4476",73.19447,368.84686
"4477",72.40589,368.8602
"4478",71.73937,368.87354
"4479",71.19005,368.88687
"4480",70.76036,368.9002
"4481",70.44297,368.91354
"4482",70.23056,368.92688
"4483",70.115814,368.94022
"4484",70.08896,368.95355
"4485",70.14267,368.9669
"4486",70.259865,368.98022
"4487",70.42832,368.99356
"4488",70.62119,369.0069
"4489",70.81651,369.02023
"4490",70.994736,369.03357
"4491",71.14366,369.0469
"4492",71.2633,369.06024
"4493",71.37316,369.07358
"4494",71.55627,369.0869
"4495",71.993286,369.10025
"4496",72.99428,369.1136
"4497",74.88884,369.12692
"4498",77.86252,369.14026
"4499",81.87137,369.1536
"4500",86.598,369.16693
"4501",91.51751,369.18027
"4502",96.05127,369.1936
"4503",99.71587,369.20694
"4504",102.240326,369.22028
"4505",103.54162,369.2336
"4506",103.673454,369.24695
"4507",102.77501,369.26028
"4508",101.05623,369.27362
"4509",98.74662,369.28696
"4510",96.08545,369.3003
"4511",93.27535,369.31363
"4512",90.46769,369.32697
