"","ppg","time"
"1",78.47532,29.064148
"2",78.86107,29.077454
"3",79.42016,29.09082
"4",80.12329,29.104126
"5",80.90456,29.117493
"6",81.668724,29.130798
"7",82.30595,29.144165
"8",82.73319,29.15747
"9",82.92607,29.170837
"10",82.9041,29.184143
"11",82.71366,29.197449
"12",82.42069,29.210815
"13",82.07889,29.224121
"14",81.7322,29.237488
"15",81.40505,29.250793
"16",81.09987,29.26416
"17",80.81911,29.277466
"18",80.56519,29.290833
"19",80.35279,29.304138
"20",80.19409,29.317505
"21",80.096436,29.33081
"22",80.0647,29.344177
"23",80.08667,29.357483
"24",80.1355,29.37085
"25",80.18921,29.384155
"26",80.23071,29.397522
"27",80.24536,29.410828
"28",80.22827,29.424133
"29",80.17944,29.4375
"30",80.10132,29.450806
"31",80.00122,29.464172
"32",79.87671,29.477478
"33",79.73266,29.490845
"34",79.57885,29.50415
"35",79.4226,29.517517
"36",79.26147,29.530823
"37",79.10765,29.54419
"38",78.96849,29.557495
"39",78.836655,29.570862
"40",78.712135,29.584167
"41",78.59251,29.597534
"42",78.487526,29.61084
"43",78.40696,29.624207
"44",78.35325,29.637512
"45",78.33372,29.650818
"46",78.35081,29.664185
"47",78.38499,29.67749
"48",78.416725,29.690857
"49",78.433815,29.704163
"50",78.41917,29.71753
"51",78.37034,29.730835
"52",78.30442,29.744202
"53",78.24338,29.757507
"54",78.21408,29.770874
"55",78.23605,29.78418
"56",78.345924,29.797546
"57",78.58762,29.810852
"58",78.98558,29.824219
"59",79.54711,29.837524
"60",80.23804,29.85083
"61",80.990005,29.864197
"62",81.7029,29.877502
"63",82.269325,29.89087
"64",82.62577,29.904175
"65",82.757614,29.917542
"66",82.68925,29.930847
"67",82.4622,29.944214
"68",82.13504,29.95752
"69",81.75906,29.970886
"70",81.36843,29.984192
"71",80.99733,29.997559
"72",80.65308,30.010864
"73",80.35523,30.024231
"74",80.11841,30.037537
"75",79.94507,30.050842
"76",79.84009,30.064209
"77",79.80835,30.077515
"78",79.84253,30.090881
"79",79.920654,30.104187
"80",80.01587,30.117554
"81",80.09888,30.13086
"82",80.15503,30.144226
"83",80.16968,30.157532
"84",80.14038,30.170898
"85",80.07446,30.184204
"86",79.98169,30.19757
"87",79.86694,30.210876
"88",79.73754,30.224243
"89",79.603264,30.237549
"90",79.466545,30.250916
"91",79.33227,30.264221
"92",79.20775,30.277527
"93",79.093,30.290894
"94",78.992905,30.3042
"95",78.9099,30.317566
"96",78.84398,30.330872
"97",78.79759,30.344238
"98",78.77806,30.357544
"99",78.77562,30.37091
"100",78.79027,30.384216
"101",78.819565,30.397583
"102",78.84642,30.410889
"103",78.86107,30.424255
"104",78.85863,30.437561
"105",78.83177,30.450928
"106",78.77806,30.464233
"107",78.709694,30.4776
"108",78.65354,30.490906
"109",78.63645,30.504211
"110",78.69993,30.517578
"111",78.89281,30.530884
"112",79.24925,30.54425
"113",79.77661,30.557556
"114",80.43824,30.570923
"115",81.163345,30.584229
"116",81.864044,30.597595
"117",82.44511,30.6109
"118",82.83818,30.624268
"119",83.0164,30.637573
"120",82.98955,30.65094
"121",82.804,30.664246
"122",82.511024,30.677612
"123",82.16922,30.690918
"124",81.8201,30.704224
"125",81.497826,30.71759
"126",81.214615,30.730896
"127",80.972916,30.744263
"128",80.77028,30.757568
"129",80.6067,30.770935
"130",80.48463,30.78424
"131",80.411385,30.797607
"132",80.38941,30.810913
"133",80.42603,30.82428
"134",80.50904,30.837585
"135",80.61646,30.850952
"136",80.71656,30.864258
"137",80.78493,30.877625
"138",80.814224,30.89093
"139",80.797134,30.904236
"140",80.73365,30.917603
"141",80.62867,30.930908
"142",80.49439,30.944275
"143",80.33082,30.95758
"144",80.14282,30.970947
"145",79.940186,30.984253
"146",79.73754,30.99762
"147",79.53979,31.010925
"148",79.35912,31.024292
"149",79.202866,31.037598
"150",79.08324,31.050964
"151",79.00267,31.06427
"152",78.96361,31.077637
"153",78.958725,31.090942
"154",78.98558,31.10431
"155",79.03197,31.117615
"156",79.08568,31.13092
"157",79.12718,31.144287
"158",79.15404,31.157593
"159",79.149155,31.17096
"160",79.11009,31.184265
"161",79.03197,31.197632
"162",78.91722,31.210938
"163",78.78294,31.224304
"164",78.64866,31.23761
"165",78.553444,31.250977
"166",78.555885,31.264282
"167",78.71458,31.277649
"168",79.063705,31.290955
"169",79.60082,31.304321
"170",80.26978,31.317627
"171",80.98024,31.330994
"172",81.62478,31.3443
"173",82.11551,31.357605
"174",82.40116,31.370972
"175",82.48417,31.384277
"176",82.38651,31.397644
"177",82.15457,31.41095
"178",81.84451,31.424316
"179",81.4905,31.437622
"180",81.13893,31.450989
"181",80.816666,31.464294
"182",80.53834,31.477661
"183",80.31617,31.490967
"184",80.15747,31.504333
"185",80.05493,31.51764
"186",80.0061,31.531006
"187",80.00122,31.544312
"188",80.0354,31.557617
"189",80.10132,31.570984
"190",80.18677,31.58429
"191",80.274666,31.597656
"192",80.35523,31.610962
"193",80.39918,31.624329
"194",80.38453,31.637634
"195",80.29908,31.651001
"196",80.147705,31.664307
"197",79.94507,31.677673
"198",79.71557,31.690979
"199",79.49096,31.704346
"200",79.28832,31.717651
"201",79.114975,31.731018
"202",78.96605,31.744324
"203",78.82445,31.75763
"204",78.6804,31.770996
"205",78.52903,31.784302
"206",78.37766,31.797668
"207",78.23605,31.810974
"208",78.12863,31.82434
"209",78.05783,31.837646
"210",78.02609,31.851013
"211",78.02365,31.864319
"212",78.0383,31.877686
"213",78.05295,31.890991
"214",78.0676,31.904358
"215",78.08713,31.917664
"216",78.11398,31.93103
"217",78.150604,31.944336
"218",78.19943,31.957703
"219",78.26292,31.971008
"220",78.3386,31.984314
"221",78.42649,31.99768
"222",78.54856,32.010986
"223",78.74143,32.024353
"224",79.03685,32.03766
"225",79.45922,32.051025
"226",80.00366,32.06433
"227",80.62623,32.077698
"228",81.253685,32.091003
"229",81.79813,32.10437
"230",82.193634,32.117676
"231",82.41337,32.131042
"232",82.46708,32.14435
"233",82.38163,32.157715
"234",82.2034,32.17102
"235",81.96658,32.184387
"236",81.69802,32.197693
"237",81.41482,32.211
"238",81.12428,32.224365
"239",80.8362,32.23767
"240",80.570076,32.251038
"241",80.34058,32.264343
"242",80.184326,32.27771
"243",80.11597,32.291016
"244",80.14526,32.304382
"245",80.27711,32.317688
"246",80.48707,32.331055
"247",80.72144,32.34436
"248",80.936295,32.357727
"249",81.08278,32.371033
"250",81.143814,32.3844
"251",81.12428,32.397705
"252",81.04372,32.41101
"253",80.936295,32.424377
"254",80.82399,32.437683
"255",80.706795,32.45105
"256",80.57984,32.464355
"257",80.43824,32.477722
"258",80.289314,32.491028
"259",80.15015,32.504395
"260",80.01343,32.5177
"261",79.871826,32.531067
"262",79.71313,32.544373
"263",79.5227,32.55774
"264",79.30541,32.571045
"265",79.08568,32.58441
"266",78.89281,32.597717
"267",78.76097,32.611023
"268",78.695045,32.62439
"269",78.68528,32.637695
"270",78.70481,32.651062
"271",78.73411,32.664368
"272",78.75853,32.677734
"273",78.78294,32.69104
"274",78.81224,32.704407
"275",78.870834,32.717712
"276",78.992905,32.73108
"277",79.2224,32.744385
"278",79.5935,32.75775
"279",80.111084,32.771057
"280",80.740974,32.784424
"281",81.40017,32.79773
"282",81.99344,32.811096
"283",82.42069,32.8244
"284",82.62577,32.837708
"285",82.60624,32.851074
"286",82.40116,32.86438
"287",82.0618,32.877747
"288",81.651634,32.891052
"289",81.2195,32.90442
"290",80.80934,32.917725
"291",80.45045,32.93109
"292",80.17456,32.944397
"293",79.991455,32.957764
"294",79.91089,32.97107
"295",79.91821,32.984436
"296",79.9939,32.99774
"297",80.12085,33.01111
"298",80.274666,33.024414
"299",80.44068,33.03778
"300",80.59205,33.051086
"301",80.71168,33.064392
"302",80.77028,33.07776
"303",80.77272,33.091064
"304",80.706795,33.10443
"305",80.587166,33.117737
"306",80.42603,33.131104
"307",80.24292,33.14441
"308",80.045166,33.157776
"309",79.84741,33.17108
"310",79.65942,33.18445
"311",79.48608,33.197754
"312",79.33227,33.21112
"313",79.1931,33.224426
"314",79.07347,33.237793
"315",78.96605,33.2511
"316",78.86595,33.264404
"317",78.76341,33.27777
"318",78.660866,33.291077
"319",78.56321,33.304443
"320",78.47776,33.31775
"321",78.41184,33.331116
"322",78.38499,33.34442
"323",78.40208,33.357788
"324",78.46311,33.371094
"325",78.551,33.38446
"326",78.6511,33.397766
"327",78.751205,33.411133
"328",78.870834,33.42444
"329",79.0515,33.437805
"330",79.33959,33.45111
"331",79.76196,33.464417
"332",80.29908,33.477783
"333",80.88014,33.49109
"334",81.409935,33.504456
"335",81.778595,33.51776
"336",81.92508,33.531128
"337",81.85672,33.544434
"338",81.617455,33.5578
"339",81.2781,33.571106
"340",80.919205,33.584473
"341",80.587166,33.59778
"342",80.2942,33.611145
"343",80.01831,33.62445
"344",79.75464,33.637817
"345",79.50561,33.651123
"346",79.28832,33.66449
"347",79.12962,33.677795
"348",79.05882,33.6911
"349",79.07591,33.704468
"350",79.166245,33.717773
"351",79.31762,33.73114
"352",79.51293,33.744446
"353",79.73022,33.757812
"354",79.94751,33.77112
"355",80.13794,33.784485
"356",80.26734,33.79779
"357",80.325935,33.811157
"358",80.30396,33.824463
"359",80.2063,33.83783
"360",80.05737,33.851135
"361",79.87915,33.864502
"362",79.68871,33.877808
"363",79.49096,33.891174
"364",79.30297,33.90448
"365",79.13451,33.917786
"366",78.992905,33.931152
"367",78.88548,33.944458
"368",78.81468,33.957825
"369",78.77806,33.97113
"370",78.76097,33.984497
"371",78.75853,33.997803
"372",78.76341,34.01117
"373",78.77318,34.024475
"374",78.78294,34.03784
"375",78.78783,34.051147
"376",78.79515,34.064514
"377",78.79515,34.07782
"378",78.79271,34.091187
"379",78.79515,34.104492
"380",78.8098,34.117798
"381",78.84642,34.131165
"382",78.91234,34.14447
"383",79.046616,34.157837
"384",79.28588,34.171143
"385",79.66186,34.18451
"386",80.17944,34.197815
"387",80.814224,34.21118
"388",81.48562,34.224487
"389",82.1033,34.237854
"390",82.58671,34.25116
"391",82.89433,34.264526
"392",83.02617,34.277832
"393",83.001755,34.2912
"394",82.86015,34.304504
"395",82.63798,34.31781
"396",82.374306,34.331177
"397",82.08865,34.344482
"398",81.80545,34.35785
"399",81.53445,34.371155
"400",81.27322,34.38452
"401",81.01686,34.397827
"402",80.77028,34.411194
"403",80.54322,34.4245
"404",80.360115,34.437866
"405",80.2478,34.45117
"406",80.21118,34.46454
"407",80.24292,34.477844
"408",80.33082,34.49121
"409",80.445564,34.504517
"410",80.55543,34.517883
"411",80.62623,34.53119
"412",80.64332,34.544495
"413",80.604256,34.55786
"414",80.51148,34.571167
"415",80.37232,34.584534
"416",80.21118,34.59784
"417",80.028076,34.611206
"418",79.83276,34.62451
"419",79.63744,34.63788
"420",79.44457,34.651184
"421",79.26391,34.66455
"422",79.09544,34.677856
"423",78.922104,34.691223
"424",78.74143,34.70453
"425",78.56077,34.717896
"426",78.397194,34.7312
"427",78.27024,34.744568
"428",78.2092,34.757874
"429",78.221405,34.77118
"430",78.28489,34.784546
"431",78.3679,34.79785
"432",78.44358,34.81122
"433",78.487526,34.824524
"434",78.487526,34.83789
"435",78.44602,34.851196
"436",78.37034,34.864563
"437",78.26292,34.87787
"438",78.12619,34.891235
"439",77.98703,34.90454
"440",77.891815,34.917908
"441",77.91379,34.931213
"442",78.12619,34.94458
"443",78.56565,34.957886
"444",79.21019,34.97119
"445",79.97925,34.98456
"446",80.75075,34.997864
"447",81.40261,35.01123
"448",81.85428,35.024536
"449",82.07156,35.037903
"450",82.07889,35.05121
"451",81.9202,35.064575
"452",81.65652,35.07788
"453",81.34402,35.091248
"454",81.04616,35.104553
"455",80.78981,35.11792
"456",80.584724,35.131226
"457",80.42115,35.144592
"458",80.29908,35.157898
"459",80.21362,35.171204
"460",80.16968,35.18457
"461",80.16968,35.197876
"462",80.20874,35.211243
"463",80.274666,35.22455
"464",80.36256,35.237915
"465",80.45777,35.25122
"466",80.550545,35.264587
"467",80.62379,35.277893
"468",80.66041,35.29126
"469",80.64332,35.304565
"470",80.56275,35.317932
"471",80.43336,35.331238
"472",80.274666,35.344604
"473",80.10864,35.35791
"474",79.96948,35.371277
"475",79.869385,35.384583
"476",79.815674,35.39789
"477",79.798584,35.411255
"478",79.801025,35.42456
"479",79.78638,35.437927
"480",79.744865,35.451233
"481",79.68383,35.4646
"482",79.62524,35.477905
"483",79.57885,35.491272
"484",79.53979,35.504578
"485",79.49828,35.517944
"486",79.43969,35.53125
"487",79.36889,35.544617
"488",79.3225,35.557922
"489",79.33227,35.57129
"490",79.40063,35.584595
"491",79.50805,35.59796
"492",79.63256,35.611267
"493",79.798584,35.624573
"494",80.059814,35.63794
"495",80.482185,35.651245
"496",81.08034,35.66461
"497",81.81033,35.677917
"498",82.55009,35.691284
"499",83.15312,35.70459
"500",83.52178,35.717957
"501",83.64629,35.731262
"502",83.5584,35.74463
"503",83.32159,35.757935
"504",83.004196,35.7713
"505",82.65751,35.784607
"506",82.31815,35.797974
"507",82.01053,35.81128
"508",81.74929,35.824585
"509",81.54665,35.83795
"510",81.40505,35.851257
"511",81.30007,35.864624
"512",81.21706,35.87793
"513",81.15114,35.891296
"514",81.109634,35.904602
"515",81.08278,35.91797
"516",81.058365,35.931274
"517",81.02663,35.94464
"518",80.970474,35.957947
"519",80.86305,35.971313
"520",80.69215,35.98462
"521",80.465096,35.997986
"522",80.19165,36.01129
"523",79.89136,36.024597
"524",79.588615,36.037964
"525",79.29565,36.05127
"526",79.01488,36.064636
"527",78.73899,36.07794
"528",78.45335,36.09131
"529",78.167694,36.104614
"530",77.89426,36.11798
"531",77.66476,36.131287
"532",77.49874,36.144653
"533",77.40841,36.15796
"534",77.38644,36.171326
"535",77.41085,36.18463
"536",77.46212,36.197998
"537",77.52071,36.211304
"538",77.591515,36.22467
"539",77.68673,36.237976
"540",77.85031,36.25128
"541",78.1384,36.26465
"542",78.59495,36.277954
"543",79.22728,36.29132
"544",79.991455,36.304626
"545",80.79225,36.317993
"546",81.5198,36.3313
"547",82.07156,36.344666
"548",82.391396,36.35797
"549",82.4622,36.371338
"550",82.320595,36.384644
"551",82.02762,36.39801
"552",81.64431,36.411316
"553",81.23659,36.424683
"554",80.85329,36.43799
"555",80.51392,36.451355
"556",80.22583,36.46466
"557",79.9939,36.477966
"558",79.81323,36.491333
"559",79.691154,36.50464
"560",79.639885,36.518005
"561",79.656975,36.53131
"562",79.7351,36.544678
"563",79.86206,36.557983
"564",80.02319,36.57135
"565",80.19409,36.584656
"566",80.35035,36.598022
"567",80.46998,36.61133
"568",80.52613,36.624695
"569",80.5066,36.638
"570",80.411385,36.651367
"571",80.25269,36.664673
"572",80.05737,36.67798
"573",79.84741,36.691345
"574",79.635,36.70465
"575",79.429924,36.718018
"576",79.237045,36.731323
"577",79.063705,36.74469
"578",78.90257,36.757996
"579",78.75609,36.771362
"580",78.626686,36.784668
"581",78.504616,36.798035
"582",78.38499,36.81134
"583",78.277565,36.824707
"584",78.19211,36.838013
"585",78.14572,36.85138
"586",78.17502,36.864685
"587",78.34348,36.87799
"588",78.692604,36.891357
"589",79.234604,36.904663
"590",79.920654,36.91803
"591",80.672615,36.931335
"592",81.38064,36.944702
"593",81.93729,36.958008
"594",82.27909,36.971375
"595",82.39872,36.98468
"596",82.31815,36.998047
"597",82.091095,37.011353
"598",81.76883,37.02472
"599",81.409935,37.038025
"600",81.058365,37.05139
"601",80.740974,37.064697
"602",80.46021,37.078064
"603",80.21362,37.09137
"604",79.99634,37.104675
"605",79.80835,37.118042
"606",79.65453,37.131348
"607",79.54955,37.144714
"608",79.4934,37.15802
"609",79.49584,37.171387
"610",79.53246,37.184692
"611",79.59106,37.19806
"612",79.64477,37.211365
"613",79.67895,37.22473
"614",79.67895,37.238037
"615",79.64477,37.251404
"616",79.57397,37.26471
"617",79.46166,37.278076
"618",79.32006,37.29138
"619",79.1638,37.30475
"620",79.00511,37.318054
"621",78.86351,37.33136
"622",78.74387,37.344727
"623",78.64622,37.358032
"624",78.56321,37.3714
"625",78.49729,37.384705
"626",78.44114,37.39807
"627",78.40452,37.411377
"628",78.382545,37.424744
"629",78.37278,37.43805
"630",78.363014,37.451416
"631",78.35325,37.46472
"632",78.348366,37.47809
"633",78.35081,37.491394
"634",78.363014,37.50476
"635",78.40208,37.518066
"636",78.487526,37.531372
"637",78.67063,37.54474
"638",79.009995,37.558044
"639",79.54467,37.57141
"640",80.25025,37.584717
"641",81.0486,37.598083
"642",81.82742,37.61139
"643",82.47196,37.624756
"644",82.90654,37.63806
"645",83.09941,37.65143
"646",83.087204,37.664734
"647",82.90654,37.6781
"648",82.61112,37.691406
"649",82.252235,37.704773
"650",81.87137,37.71808
"651",81.50027,37.731384
"652",81.160904,37.74475
"653",80.86061,37.758057
"654",80.59937,37.771423
"655",80.37965,37.78473
"656",80.20386,37.798096
"657",80.076904,37.8114
"658",79.99878,37.824768
"659",79.971924,37.838074
"660",79.991455,37.85144
"661",80.05005,37.864746
"662",80.12329,37.878113
"663",80.18921,37.89142
"664",80.22339,37.904785
"665",80.216064,37.91809
"666",80.15015,37.931458
"667",80.0354,37.944763
"668",79.886475,37.95807
"669",79.72045,37.971436
"670",79.54467,37.98474
"671",79.36889,37.998108
"672",79.19554,38.011414
"673",79.027084,38.02478
"674",78.86107,38.038086
"675",78.70481,38.051453
"676",78.56321,38.06476
"677",78.44358,38.078125
"678",78.34348,38.09143
"679",78.27024,38.104797
"680",78.221405,38.118103
"681",78.19943,38.13147
"682",78.20187,38.144775
"683",78.22873,38.158142
"684",78.26536,38.171448
"685",78.30686,38.184753
"686",78.33372,38.19812
"687",78.348366,38.211426
"688",78.34348,38.224792
"689",78.328835,38.2381
"690",78.32151,38.251465
"691",78.34104,38.26477
"692",78.42405,38.278137
"693",78.63157,38.291443
"694",79.0222,38.30481
"695",79.61547,38.318115
"696",80.38697,38.331482
"697",81.24391,38.344788
"698",82.06668,38.358154
"699",82.735634,38.37146
"700",83.16533,38.384766
"701",83.33379,38.398132
"702",83.2752,38.411438
"703",83.035934,38.424805
"704",82.67704,38.43811
"705",82.262,38.451477
"706",81.83963,38.464783
"707",81.43923,38.47815
"708",81.08278,38.491455
"709",80.77272,38.50482
"710",80.5066,38.518127
"711",80.27955,38.531494
"712",80.09888,38.5448
"713",79.96948,38.558167
"714",79.89624,38.571472
"715",79.88403,38.584778
"716",79.92554,38.598145
"717",80.00122,38.61145
"718",80.08179,38.624817
"719",80.14526,38.638123
"720",80.177,38.65149
"721",80.16968,38.664795
"722",80.11597,38.67816
"723",80.028076,38.691467
"724",79.91089,38.704834
"725",79.764404,38.71814
"726",79.59838,38.731506
"727",79.42016,38.744812
"728",79.23949,38.75818
"729",79.061264,38.771484
"730",78.89281,38.78485
"731",78.74143,38.798157
"732",78.61692,38.811462
"733",78.51438,38.82483
"734",78.43626,38.838135
"735",78.380104,38.8515
"736",78.34104,38.864807
"737",78.314186,38.878174
"738",78.30686,38.89148
"739",78.3093,38.904846
"740",78.328835,38.91815
"741",78.35813,38.93152
"742",78.39475,38.944824
"743",78.42405,38.95819
"744",78.43137,38.971497
"745",78.40696,38.984863
"746",78.35813,38.99817
"747",78.30198,39.011536
"748",78.27024,39.02484
"749",78.30442,39.038147
"750",78.47532,39.051514
"751",78.84154,39.06482
"752",79.4226,39.078186
"753",80.19165,39.09149
"754",81.06325,39.10486
"755",81.91531,39.118164
"756",82.62089,39.13153
"757",83.09697,39.144836
"758",83.31426,39.158203
"759",83.29717,39.17151
"760",83.09453,39.184875
"761",82.774704,39.19818
"762",82.38407,39.211548
"763",81.971466,39.224854
"764",81.56374,39.23816
"765",81.18532,39.251526
"766",80.8362,39.26483
"767",80.52369,39.2782
"768",80.24292,39.291504
"769",80.008545,39.30487
"770",79.83032,39.318176
"771",79.71801,39.331543
"772",79.676506,39.34485
"773",79.7058,39.358215
"774",79.77905,39.37152
"775",79.87427,39.384888
"776",79.96216,39.398193
"777",80.02075,39.41156
"778",80.042725,39.424866
"779",80.01831,39.43817
"780",79.954834,39.451538
"781",79.85474,39.464844
"782",79.72045,39.47821
"783",79.55932,39.491516
"784",79.38598,39.504883
"785",79.21019,39.51819
"786",79.03929,39.531555
"787",78.870834,39.54486
"788",78.71458,39.558228
"789",78.57542,39.571533
"790",78.46067,39.5849
"791",78.37278,39.598206
"792",78.314186,39.611572
"793",78.28245,39.624878
"794",78.27024,39.638245
"795",78.27512,39.65155
"796",78.30198,39.664856
"797",78.34348,39.678223
"798",78.397194,39.69153
"799",78.45823,39.704895
"800",78.5095,39.7182
"801",78.54124,39.731567
"802",78.56077,39.744873
"803",78.58274,39.75824
"804",78.60471,39.771545
"805",78.63645,39.784912
"806",78.70725,39.798218
"807",78.86351,39.811584
"808",79.168686,39.82489
"809",79.67895,39.838257
"810",80.38697,39.851562
"811",81.22682,39.86493
"812",82.08865,39.878235
"813",82.83574,39.89154
"814",83.35577,39.904907
"815",83.61944,39.918213
"816",83.648735,39.93158
"817",83.492485,39.944885
"818",83.21416,39.958252
"819",82.865036,39.971558
"820",82.48417,39.984924
"821",82.09598,39.99823
"822",81.71511,40.011597
"823",81.3489,40.024902
"824",81.00221,40.03827
"825",80.68482,40.051575
"826",80.411385,40.06494
"827",80.201416,40.078247
"828",80.07446,40.091553
"829",80.03784,40.10492
"830",80.08179,40.118225
"831",80.18921,40.13159
"832",80.325935,40.144897
"833",80.45533,40.158264
"834",80.56275,40.17157
"835",80.62379,40.184937
"836",80.635994,40.198242
"837",80.59693,40.21161
"838",80.51148,40.224915
"839",80.38453,40.23828
"840",80.22583,40.251587
"841",80.04761,40.264954
"842",79.86206,40.27826
"843",79.674065,40.291565
"844",79.49828,40.30493
"845",79.33715,40.318237
"846",79.202866,40.331604
"847",79.09544,40.34491
"848",79.01488,40.358276
"849",78.95628,40.371582
"850",78.9099,40.38495
"851",78.873276,40.398254
"852",78.84642,40.41162
"853",78.82445,40.424927
"854",78.81468,40.438293
"855",78.819565,40.4516
"856",78.82689,40.464966
"857",78.82933,40.47827
"858",78.81224,40.49164
"859",78.77074,40.504944
"860",78.709694,40.51825
"861",78.641335,40.531616
"862",78.59495,40.54492
"863",78.61204,40.55829
"864",78.75609,40.571594
"865",79.097885,40.58496
"866",79.66674,40.598267
"867",80.44068,40.611633
"868",81.34402,40.62494
"869",82.25468,40.638306
"870",83.03349,40.65161
"871",83.58282,40.664978
"872",83.86603,40.678284
"873",83.90021,40.69165
"874",83.74395,40.704956
"875",83.46075,40.718323
"876",83.10918,40.73163
"877",82.73075,40.744934
"878",82.34989,40.7583
"879",81.98123,40.771606
"880",81.62966,40.784973
"881",81.29519,40.79828
"882",80.98024,40.811646
"883",80.706795,40.82495
"884",80.48707,40.838318
"885",80.34058,40.851624
"886",80.27955,40.86499
"887",80.31373,40.878296
"888",80.413826,40.891663
"889",80.5481,40.90497
"890",80.689705,40.918335
"891",80.797134,40.93164
"892",80.850845,40.944946
"893",80.83864,40.958313
"894",80.76784,40.97162
"895",80.64088,40.984985
"896",80.47486,40.99829
"897",80.272224,41.011658
"898",80.05737,41.024963
"899",79.83765,41.03833
"900",79.62768,41.051636
"901",79.43725,41.065002
"902",79.27123,41.07831
"903",79.13695,41.091675
"904",79.02464,41.10498
"905",78.93675,41.118347
"906",78.873276,41.131653
"907",78.82933,41.14496
"908",78.79515,41.158325
"909",78.77562,41.17163
"910",78.75609,41.184998
"911",78.74143,41.198303
"912",78.72434,41.21167
"913",78.712135,41.224976
"914",78.68772,41.238342
"915",78.64866,41.251648
"916",78.59251,41.265015
"917",78.53147,41.27832
"918",78.47776,41.291687
"919",78.46067,41.304993
"920",78.53147,41.31836
"921",78.75609,41.331665
"922",79.1931,41.34503
"923",79.85474,41.358337
"924",80.69459,41.371643
"925",81.61257,41.38501
"926",82.476845,41.398315
"927",83.16777,41.411682
"928",83.60723,41.424988
"929",83.792786,41.438354
"930",83.76105,41.45166
"931",83.56817,41.465027
"932",83.267876,41.478333
"933",82.90654,41.4917
"934",82.52079,41.505005
"935",82.125275,41.51837
"936",81.73708,41.531677
"937",81.36111,41.545044
"938",81.00221,41.55835
"939",80.68482,41.571716
"940",80.428474,41.585022
"941",80.257576,41.598328
"942",80.18677,41.611694
"943",80.21362,41.625
"944",80.31617,41.638367
"945",80.46021,41.651672
"946",80.604256,41.66504
"947",80.71412,41.678345
"948",80.77028,41.69171
"949",80.76051,41.705017
"950",80.69215,41.718384
"951",80.570076,41.73169
"952",80.40894,41.745056
"953",80.22339,41.75836
"954",80.02075,41.77173
"955",79.81323,41.785034
"956",79.605705,41.79834
"957",79.41039,41.811707
"958",79.23216,41.825012
"959",79.07591,41.83838
"960",78.93919,41.851685
"961",78.82445,41.86505
"962",78.73411,41.878357
"963",78.66819,41.891724
"964",78.624245,41.90503
"965",78.60471,41.918396
"966",78.60471,41.9317
"967",78.61936,41.94507
"968",78.63401,41.958374
"969",78.643776,41.97174
"970",78.63645,41.985046
"971",78.607155,41.998352
"972",78.551,42.01172
"973",78.4802,42.025024
"974",78.41917,42.03839
"975",78.38743,42.051697
"976",78.433815,42.065063
"977",78.624245,42.07837
"978",79.01976,42.091736
"979",79.64233,42.10504
"980",80.46021,42.11841
"981",81.38796,42.131714
"982",82.30839,42.14508
"983",83.089645,42.158386
"984",83.64385,42.171753
"985",83.94415,42.18506
"986",84.00519,42.198425
"987",83.86847,42.21173
"988",83.58526,42.225037
"989",83.20195,42.238403
"990",82.76494,42.25171
"991",82.30839,42.265076
"992",81.864044,42.27838
"993",81.44167,42.291748
"994",81.058365,42.305054
"995",80.726326,42.31842
"996",80.462654,42.331726
"997",80.27955,42.345093
"998",80.18921,42.3584
"999",80.18921,42.371765
"1000",80.26002,42.38507
"1001",80.36744,42.398438
"1002",80.47486,42.411743
"1003",80.550545,42.42511
"1004",80.5774,42.438416
"1005",80.54566,42.45172
"1006",80.45045,42.465088
"1007",80.30152,42.478394
"1008",80.113525,42.49176
"1009",79.90112,42.505066
"1010",79.67162,42.518433
"1011",79.44213,42.53174
"1012",79.2224,42.545105
"1013",79.0222,42.55841
"1014",78.84398,42.571777
"1015",78.692604,42.585083
"1016",78.58274,42.59845
"1017",78.50706,42.611755
"1018",78.46067,42.625122
"1019",78.4387,42.638428
"1020",78.42893,42.651733
"1021",78.42161,42.6651
"1022",78.4094,42.678406
"1023",78.38499,42.691772
"1024",78.3386,42.70508
"1025",78.277565,42.718445
"1026",78.204315,42.73175
"1027",78.14328,42.745117
"1028",78.12619,42.758423
"1029",78.184784,42.77179
"1030",78.37522,42.785095
"1031",78.74143,42.798462
"1032",79.293205,42.811768
"1033",80.00366,42.825134
"1034",80.797134,42.83844
"1035",81.57107,42.851746
"1036",82.21561,42.865112
"1037",82.65751,42.878418
"1038",82.865036,42.891785
"1039",82.86015,42.90509
"1040",82.684364,42.918457
"1041",82.38407,42.931763
"1042",82.005646,42.94513
"1043",81.58083,42.958435
"1044",81.14137,42.9718
"1045",80.71168,42.985107
"1046",80.306404,42.998474
"1047",79.94263,43.01178
"1048",79.63744,43.025085
"1049",79.41039,43.038452
"1050",79.276115,43.051758
"1051",79.24681,43.065125
"1052",79.31274,43.07843
"1053",79.447014,43.091797
"1054",79.60815,43.105103
"1055",79.74975,43.11847
"1056",79.84009,43.131775
"1057",79.86206,43.14508
"1058",79.81323,43.158447
"1059",79.70336,43.171753
"1060",79.54711,43.18512
"1061",79.3518,43.198425
"1062",79.132065,43.211792
"1063",78.90257,43.225098
"1064",78.67307,43.238403
"1065",78.45823,43.25177
"1066",78.2678,43.265076
"1067",78.10422,43.278442
"1068",77.97238,43.291748
"1069",77.874725,43.305115
"1070",77.81125,43.31842
"1071",77.77707,43.331726
"1072",77.769745,43.345093
"1073",77.786835,43.3584
"1074",77.81369,43.371765
"1075",77.838104,43.38507
"1076",77.84787,43.398438
"1077",77.83566,43.411743
"1078",77.806366,43.42511
"1079",77.769745,43.438416
"1080",77.7551,43.45172
"1081",77.806366,43.465088
"1082",77.97238,43.478394
"1083",78.3093,43.49176
"1084",78.84886,43.505066
"1085",79.569084,43.518433
"1086",80.4065,43.53174
"1087",81.26101,43.545105
"1088",82.01785,43.55841
"1089",82.581825,43.571716
"1090",82.913864,43.585083
"1091",83.018845,43.59839
"1092",82.94072,43.611755
"1093",82.72587,43.62506
"1094",82.423134,43.638428
"1095",82.074005,43.651733
"1096",81.70779,43.66504
"1097",81.339134,43.678406
"1098",80.987564,43.69171
"1099",80.66773,43.70508
"1100",80.39185,43.718384
"1101",80.17456,43.73175
"1102",80.03052,43.745056
"1103",79.97681,43.75836
"1104",80.0061,43.77173
"1105",80.10864,43.785034
"1106",80.25269,43.7984
"1107",80.394295,43.811707
"1108",80.49683,43.825073
"1109",80.5359,43.83838
"1110",80.50904,43.851746
"1111",80.41871,43.86505
"1112",80.27955,43.878357
"1113",80.11597,43.891724
"1114",79.9353,43.90503
"1115",79.74975,43.918396
"1116",79.5642,43.9317
"1117",79.38354,43.94507
"1118",79.21019,43.958374
"1119",79.05394,43.97174
"1120",78.922104,43.985046
"1121",78.819565,43.998352
"1122",78.74876,44.01172
"1123",78.71458,44.025024
"1124",78.71458,44.03839
"1125",78.74387,44.051697
"1126",78.78783,44.065063
"1127",78.82933,44.07837
"1128",78.8513,44.091675
"1129",78.839096,44.10504
"1130",78.78294,44.118347
"1131",78.695045,44.131714
"1132",78.59739,44.14502
"1133",78.52415,44.158386
"1134",78.504616,44.17169
"1135",78.58762,44.184998
"1136",78.83177,44.198364
"1137",79.26635,44.21167
"1138",79.886475,44.225037
"1139",80.64332,44.238342
"1140",81.45144,44.25171
"1141",82.18875,44.265015
"1142",82.760056,44.27838
"1143",83.10185,44.291687
"1144",83.20683,44.304993
"1145",83.1165,44.31836
"1146",82.88945,44.331665
"1147",82.581825,44.34503
"1148",82.24246,44.358337
"1149",81.88846,44.371704
"1150",81.532005,44.38501
"1151",81.17555,44.398376
"1152",80.82887,44.411682
"1153",80.51148,44.424988
"1154",80.25269,44.438354
"1155",80.076904,44.45166
"1156",79.9939,44.465027
"1157",79.9939,44.478333
"1158",80.05493,44.4917
"1159",80.14526,44.505005
"1160",80.22583,44.51831
"1161",80.26978,44.531677
"1162",80.2649,44.544983
"1163",80.20874,44.55835
"1164",80.10132,44.571655
"1165",79.95972,44.585022
"1166",79.798584,44.598328
"1167",79.63256,44.611633
"1168",79.47387,44.625
"1169",79.3225,44.638306
"1170",79.17113,44.651672
"1171",79.027084,44.664978
"1172",78.8806,44.678345
"1173",78.74387,44.69165
"1174",78.624245,44.705017
"1175",78.53147,44.718323
"1176",78.46067,44.73163
"1177",78.41428,44.744995
"1178",78.38743,44.7583
"1179",78.380104,44.771667
"1180",78.382545,44.784973
"1181",78.38987,44.79834
"1182",78.39475,44.811646
"1183",78.38499,44.825012
"1184",78.36057,44.838318
"1185",78.31663,44.851624
"1186",78.25071,44.86499
"1187",78.15793,44.878296
"1188",78.05539,44.891663
"1189",77.95529,44.90497
"1190",77.8967,44.918335
"1191",77.93088,44.93164
"1192",78.12131,44.944946
"1193",78.519264,44.958313
"1194",79.12962,44.97162
"1195",79.906006,44.984985
"1196",80.75563,44.99829
"1197",81.56863,45.011658
"1198",82.22781,45.024963
"1199",82.65995,45.03827
"1200",82.85039,45.051636
"1201",82.82597,45.06494
"1202",82.63554,45.07831
"1203",82.34745,45.091614
"1204",82.01297,45.10498
"1205",81.67849,45.118286
"1206",81.36843,45.131653
"1207",81.092545,45.14496
"1208",80.84352,45.158264
"1209",80.621346,45.17163
"1210",80.42603,45.184937
"1211",80.272224,45.198303
"1212",80.17212,45.21161
"1213",80.14282,45.224976
"1214",80.18677,45.23828
"1215",80.2942,45.251648
"1216",80.430916,45.264954
"1217",80.56031,45.27826
"1218",80.655525,45.291626
"1219",80.689705,45.30493
"1220",80.65797,45.3183
"1221",80.56519,45.331604
"1222",80.42359,45.34497
"1223",80.25269,45.358276
"1224",80.06958,45.371582
"1225",79.88403,45.38495
"1226",79.70336,45.398254
"1227",79.537346,45.41162
"1228",79.381096,45.424927
"1229",79.234604,45.438293
"1230",79.09544,45.4516
"1231",78.96849,45.464905
"1232",78.85863,45.47827
"1233",78.76097,45.491577
"1234",78.677956,45.504944
"1235",78.6096,45.51825
"1236",78.555885,45.531616
"1237",78.5095,45.54492
"1238",78.4802,45.55829
"1239",78.47532,45.571594
"1240",78.49241,45.5849
"1241",78.521706,45.598267
"1242",78.538795,45.611572
"1243",78.538795,45.62494
"1244",78.502174,45.638245
"1245",78.41917,45.65161
"1246",78.30442,45.664917
"1247",78.184784,45.678284
"1248",78.0798,45.69159
"1249",78.02609,45.704895
"1250",78.0676,45.71826
"1251",78.26292,45.731567
"1252",78.65598,45.744934
"1253",79.25414,45.75824
"1254",80.01831,45.771606
"1255",80.86061,45.784912
"1256",81.66384,45.798218
"1257",82.30839,45.811584
"1258",82.73075,45.82489
"1259",82.9041,45.838257
"1260",82.85771,45.851562
"1261",82.64286,45.86493
"1262",82.32792,45.878235
"1263",81.969025,45.89154
"1264",81.61013,45.904907
"1265",81.27322,45.918213
"1266",80.96559,45.93158
"1267",80.69703,45.944885
"1268",80.462654,45.958252
"1269",80.274666,45.971558
"1270",80.13794,45.984924
"1271",80.05737,45.99823
"1272",80.03296,46.011536
"1273",80.0647,46.024902
"1274",80.130615,46.038208
"1275",80.216064,46.051575
"1276",80.29908,46.06488
"1277",80.36256,46.078247
"1278",80.37965,46.091553
"1279",80.34547,46.10492
"1280",80.26002,46.118225
"1281",80.128174,46.13153
"1282",79.96948,46.144897
"1283",79.79614,46.158203
"1284",79.62524,46.17157
"1285",79.45922,46.184875
"1286",79.30541,46.198242
"1287",79.168686,46.211548
"1288",79.05638,46.224854
"1289",78.97093,46.23822
"1290",78.9099,46.251526
"1291",78.873276,46.264893
"1292",78.853745,46.2782
"1293",78.84642,46.291565
"1294",78.84154,46.30487
"1295",78.839096,46.318176
"1296",78.836655,46.331543
"1297",78.83177,46.34485
"1298",78.82689,46.358215
"1299",78.82201,46.37152
"1300",78.81468,46.384888
"1301",78.8098,46.398193
"1302",78.80003,46.41156
"1303",78.78783,46.424866
"1304",78.77074,46.43817
"1305",78.74143,46.451538
"1306",78.69993,46.464844
"1307",78.641335,46.47821
"1308",78.5803,46.491516
"1309",78.519264,46.504883
"1310",78.47288,46.51819
"1311",78.46311,46.531555
"1312",78.52903,46.54486
"1313",78.7219,46.558167
"1314",79.10033,46.571533
"1315",79.691154,46.58484
"1316",80.45045,46.598206
"1317",81.290306,46.61151
"1318",82.08133,46.624878
"1319",82.70634,46.638184
"1320",83.089645,46.65149
"1321",83.228806,46.664856
"1322",83.15068,46.67816
"1323",82.92119,46.69153
"1324",82.598915,46.704834
"1325",82.23758,46.7182
"1326",81.866486,46.731506
"1327",81.51003,46.744812
"1328",81.18532,46.75818
"1329",80.89967,46.771484
"1330",80.65797,46.78485
"1331",80.46754,46.798157
"1332",80.343025,46.811523
"1333",80.289314,46.82483
"1334",80.306404,46.838196
"1335",80.38453,46.8515
"1336",80.50416,46.864807
"1337",80.63111,46.878174
"1338",80.72877,46.89148
"1339",80.76784,46.904846
"1340",80.740974,46.91815
"1341",80.64332,46.93152
"1342",80.49439,46.944824
"1343",80.31129,46.95819
"1344",80.11597,46.971497
"1345",79.91821,46.984802
"1346",79.72289,46.99817
"1347",79.534904,47.011475
"1348",79.361565,47.02484
"1349",79.202866,47.038147
"1350",79.06615,47.051514
"1351",78.96117,47.06482
"1352",78.88548,47.078125
"1353",78.83177,47.09149
"1354",78.78783,47.104797
"1355",78.751205,47.118164
"1356",78.70725,47.13147
"1357",78.658424,47.144836
"1358",78.6096,47.158142
"1359",78.56809,47.171448
"1360",78.536354,47.184814
"1361",78.52659,47.19812
"1362",78.53391,47.211487
"1363",78.555885,47.224792
"1364",78.57786,47.23816
"1365",78.58762,47.251465
"1366",78.572975,47.26483
"1367",78.53391,47.278137
"1368",78.485085,47.291443
"1369",78.43626,47.30481
"1370",78.40696,47.318115
"1371",78.42405,47.331482
"1372",78.521706,47.344788
"1373",78.746315,47.358154
"1374",79.14671,47.37146
"1375",79.73266,47.384827
"1376",80.462654,47.398132
"1377",81.25124,47.411438
"1378",81.986115,47.424805
"1379",82.562294,47.43811
"1380",82.91142,47.451477
"1381",83.02617,47.464783
"1382",82.94072,47.47815
"1383",82.71122,47.491455
"1384",82.39872,47.50476
"1385",82.04959,47.518127
"1386",81.7029,47.531433
"1387",81.373314,47.5448
"1388",81.07057,47.558105
"1389",80.799576,47.571472
"1390",80.56031,47.584778
"1391",80.36744,47.598083
"1392",80.23071,47.61145
"1393",80.15503,47.624756
"1394",80.14282,47.638123
"1395",80.184326,47.65143
"1396",80.26002,47.664795
"1397",80.343025,47.6781
"1398",80.40162,47.691467
"1399",80.413826,47.704773
"1400",80.36988,47.71808
"1401",80.28199,47.731445
"1402",80.15503,47.74475
"1403",80.008545,47.758118
"1404",79.85718,47.771423
"1405",79.710686,47.78479
"1406",79.56664,47.798096
"1407",79.43481,47.811462
"1408",79.310295,47.824768
"1409",79.1931,47.838074
"1410",79.08324,47.85144
"1411",78.98314,47.864746
"1412",78.887924,47.878113
"1413",78.79759,47.89142
"1414",78.71946,47.904785
"1415",78.65354,47.91809
"1416",78.60227,47.931396
"1417",78.56321,47.944763
"1418",78.536354,47.95807
"1419",78.519264,47.971436
"1420",78.51438,47.98474
"1421",78.52415,47.998108
"1422",78.553444,48.011414
"1423",78.60227,48.02472
"1424",78.65354,48.038086
"1425",78.69749,48.05139
"1426",78.71702,48.06476
"1427",78.69993,48.078064
"1428",78.63889,48.09143
"1429",78.54612,48.104736
"1430",78.44602,48.118103
"1431",78.3679,48.13141
"1432",78.35569,48.144714
"1433",78.450905,48.15808
"1434",78.709694,48.171387
"1435",79.168686,48.184753
"1436",79.82056,48.19806
"1437",80.621346,48.211426
"1438",81.47097,48.22473
"1439",82.24979,48.2381
"1440",82.845505,48.251404
"1441",83.194626,48.26471
"1442",83.29717,48.278076
"1443",83.19707,48.29138
"1444",82.95537,48.30475
"1445",82.63798,48.318054
"1446",82.30106,48.33142
"1447",81.97391,48.344727
"1448",81.6614,48.358032
"1449",81.36599,48.3714
"1450",81.077896,48.384705
"1451",80.797134,48.39807
"1452",80.53834,48.411377
"1453",80.325935,48.424744
"1454",80.177,48.43805
"1455",80.111084,48.451355
"1456",80.128174,48.46472
"1457",80.20386,48.478027
"1458",80.308846,48.491394
"1459",80.4065,48.5047
"1460",80.45777,48.518066
"1461",80.45289,48.531372
"1462",80.377205,48.54474
"1463",80.24536,48.558044
"1464",80.079346,48.57135
"1465",79.90112,48.584717
"1466",79.71801,48.598022
"1467",79.54711,48.61139
"1468",79.38842,48.624695
"1469",79.234604,48.63806
"1470",79.08568,48.651367
"1471",78.94408,48.664734
"1472",78.80492,48.67804
"1473",78.677956,48.691345
"1474",78.56077,48.704712
"1475",78.467995,48.718018
"1476",78.40696,48.731384
"1477",78.382545,48.74469
"1478",78.39231,48.758057
"1479",78.42405,48.771362
"1480",78.467995,48.784668
"1481",78.51438,48.798035
"1482",78.553444,48.81134
"1483",78.5803,48.824707
"1484",78.60227,48.838013
"1485",78.61448,48.85138
"1486",78.61692,48.864685
"1487",78.607155,48.87799
"1488",78.590065,48.891357
"1489",78.56077,48.904663
"1490",78.53147,48.91803
"1491",78.50706,48.931335
"1492",78.49485,48.944702
"1493",78.502174,48.958008
"1494",78.54612,48.971375
"1495",78.660866,48.98468
"1496",78.905014,48.997986
"1497",79.32983,49.011353
"1498",79.94995,49.02466
"1499",80.723885,49.038025
"1500",81.55886,49.05133
"1501",82.337685,49.064697
"1502",82.94072,49.078003
"1503",83.302055,49.09137
"1504",83.407036,49.104675
"1505",83.28985,49.11798
"1506",83.0164,49.131348
"1507",82.652626,49.144653
"1508",82.25956,49.15802
"1509",81.87625,49.171326
"1510",81.52712,49.184692
"1511",81.2195,49.197998
"1512",80.95094,49.211304
"1513",80.71656,49.22467
"1514",80.52125,49.237976
"1515",80.36988,49.251343
"1516",80.26978,49.26465
"1517",80.22827,49.278015
"1518",80.2478,49.29132
"1519",80.31373,49.304626
"1520",80.40406,49.317993
"1521",80.48707,49.3313
"1522",80.5359,49.344666
"1523",80.54078,49.35797
"1524",80.49439,49.371338
"1525",80.39918,49.384644
"1526",80.274666,49.39801
"1527",80.12573,49.411316
"1528",79.957275,49.42462
"1529",79.77905,49.43799
"1530",79.59106,49.451294
"1531",79.41039,49.46466
"1532",79.23949,49.477966
"1533",79.09056,49.491333
"1534",78.96361,49.50464
"1535",78.86351,49.518005
"1536",78.785385,49.53131
"1537",78.729225,49.544617
"1538",78.68772,49.557983
"1539",78.660866,49.57129
"1540",78.643776,49.584656
"1541",78.641335,49.59796
"1542",78.64866,49.61133
"1543",78.66575,49.624634
"1544",78.692604,49.63794
"1545",78.72678,49.651306
"1546",78.76341,49.66461
"1547",78.79759,49.67798
"1548",78.82201,49.691284
"1549",78.83177,49.70465
"1550",78.81468,49.717957
"1551",78.765854,49.731262
"1552",78.69749,49.74463
"1553",78.6218,49.757935
"1554",78.56321,49.7713
"1555",78.52903,49.784607
"1556",78.54612,49.797974
"1557",78.643776,49.81128
"1558",78.86595,49.824646
"1559",79.26147,49.83795
"1560",79.84985,49.851257
"1561",80.59937,49.864624
"1562",81.4197,49.87793
"1563",82.19119,49.891296
"1564",82.804,49.904602
"1565",83.18242,49.91797
"1566",83.3167,49.931274
"1567",83.245895,49.94464
"1568",83.02617,49.957947
"1569",82.718544,49.971252
"1570",82.36942,49.98462
"1571",82.01785,49.997925
"1572",81.685814,50.01129
"1573",81.38064,50.024597
"1574",81.10719,50.037964
"1575",80.87038,50.05127
"1576",80.672615,50.064575
"1577",80.51881,50.07794
"1578",80.42359,50.091248
"1579",80.38697,50.104614
"1580",80.40894,50.11792
"1581",80.47486,50.131287
"1582",80.56275,50.144592
"1583",80.6482,50.157898
"1584",80.706795,50.171265
"1585",80.72144,50.18457
"1586",80.68726,50.197937
"1587",80.60914,50.211243
"1588",80.48707,50.22461
"1589",80.3357,50.237915
"1590",80.16968,50.25128
"1591",80.00122,50.264587
"1592",79.835205,50.277893
"1593",79.676506,50.29126
"1594",79.53246,50.304565
"1595",79.398186,50.317932
"1596",79.27856,50.331238
"1597",79.17601,50.344604
"1598",79.093,50.35791
"1599",79.01976,50.371277
"1600",78.96361,50.384583
"1601",78.91722,50.39789
"1602",78.8806,50.411255
"1603",78.84886,50.42456
"1604",78.82689,50.437927
"1605",78.80736,50.451233
"1606",78.79027,50.4646
"1607",78.77318,50.477905
"1608",78.75853,50.49121
"1609",78.751205,50.504578
"1610",78.751205,50.517883
"1611",78.75365,50.53125
"1612",78.751205,50.544556
"1613",78.729225,50.557922
"1614",78.67307,50.571228
"1615",78.58274,50.584534
"1616",78.467995,50.5979
"1617",78.345924,50.611206
"1618",78.25315,50.624573
"1619",78.23117,50.63788
"1620",78.328835,50.651245
"1621",78.6096,50.66455
"1622",79.10277,50.677917
"1623",79.79614,50.691223
"1624",80.62623,50.70453
"1625",81.47585,50.717896
"1626",82.22049,50.7312
"1627",82.75517,50.744568
"1628",83.03105,50.757874
"1629",83.06035,50.77124
"1630",82.90166,50.784546
"1631",82.62089,50.797913
"1632",82.27909,50.81122
"1633",81.9324,50.824524
"1634",81.61501,50.83789
"1635",81.34646,50.851196
"1636",81.11696,50.864563
"1637",80.91676,50.87787
"1638",80.73853,50.891235
"1639",80.57252,50.90454
"1640",80.42359,50.917847
"1641",80.30396,50.931213
"1642",80.24048,50.94452
"1643",80.24292,50.957886
"1644",80.30152,50.97119
"1645",80.39918,50.98456
"1646",80.51148,50.997864
"1647",80.604256,51.01117
"1648",80.6482,51.024536
"1649",80.635994,51.03784
"1650",80.56519,51.05121
"1651",80.44068,51.064514
"1652",80.28443,51.07788
"1653",80.111084,51.091187
"1654",79.937744,51.104553
"1655",79.76929,51.11786
"1656",79.61303,51.131165
"1657",79.47387,51.14453
"1658",79.34936,51.157837
"1659",79.23949,51.171204
"1660",79.14427,51.18451
"1661",79.063705,51.197876
"1662",78.98558,51.21118
"1663",78.91234,51.22455
"1664",78.84154,51.237854
"1665",78.78294,51.25116
"1666",78.73899,51.264526
"1667",78.71946,51.277832
"1668",78.72678,51.2912
"1669",78.75365,51.304504
"1670",78.79515,51.31787
"1671",78.839096,51.331177
"1672",78.8806,51.344482
"1673",78.90257,51.35785
"1674",78.89769,51.371155
"1675",78.86351,51.38452
"1676",78.80492,51.397827
"1677",78.73411,51.411194
"1678",78.65598,51.4245
"1679",78.572975,51.437805
"1680",78.4802,51.45117
"1681",78.37766,51.464478
"1682",78.27024,51.477844
"1683",78.17746,51.49115
"1684",78.12619,51.504517
"1685",78.16037,51.517822
"1686",78.3386,51.53119
"1687",78.712135,51.544495
"1688",79.30053,51.5578
"1689",80.07446,51.571167
"1690",80.953384,51.584473
"1691",81.8201,51.59784
"1692",82.54276,51.611145
"1693",83.02373,51.62451
"1694",83.23857,51.637817
"1695",83.20439,51.651184
"1696",82.97978,51.66449
"1697",82.62821,51.677795
"1698",82.213165,51.691162
"1699",81.78348,51.704468
"1700",81.36599,51.717834
"1701",80.98512,51.73114
"1702",80.6482,51.744507
"1703",80.360115,51.757812
"1704",80.11841,51.77112
"1705",79.937744,51.784485
"1706",79.818115,51.79779
"1707",79.76929,51.811157
"1708",79.78638,51.824463
"1709",79.85962,51.83783
"1710",79.96948,51.851135
"1711",80.09155,51.86444
"1712",80.198975,51.877808
"1713",80.27955,51.891113
"1714",80.31373,51.90448
"1715",80.29908,51.917786
"1716",80.235596,51.931152
"1717",80.1355,51.944458
"1718",80.01587,51.957825
"1719",79.88403,51.97113
"1720",79.74975,51.984436
"1721",79.605705,51.997803
"1722",79.4519,52.01111
"1723",79.290764,52.024475
"1724",79.13695,52.03778
"1725",79.00755,52.051147
"1726",78.91478,52.064453
"1727",78.86107,52.07782
"1728",78.836655,52.091125
"1729",78.83421,52.10443
"1730",78.84154,52.117798
"1731",78.8513,52.131104
"1732",78.853745,52.14447
"1733",78.8513,52.157776
"1734",78.84398,52.171143
"1735",78.82933,52.18445
"1736",78.81224,52.197754
"1737",78.802475,52.21112
"1738",78.79515,52.224426
"1739",78.79271,52.237793
"1740",78.79027,52.2511
"1741",78.785385,52.264465
"1742",78.768295,52.27777
"1743",78.746315,52.291077
"1744",78.71458,52.304443
"1745",78.67307,52.31775
"1746",78.624245,52.331116
"1747",78.57786,52.34442
"1748",78.54856,52.357788
"1749",78.56321,52.371094
"1750",78.66575,52.38446
"1751",78.922104,52.397766
"1752",79.37621,52.41107
"1753",80.025635,52.42444
"1754",80.816666,52.437744
"1755",81.64919,52.45111
"1756",82.40116,52.464417
"1757",82.96513,52.477783
"1758",83.29473,52.49109
"1759",83.389946,52.504456
"1760",83.29717,52.51776
"1761",83.06767,52.531067
"1762",82.75273,52.544434
"1763",82.39628,52.55774
"1764",82.03006,52.571106
"1765",81.67361,52.58441
"1766",81.33425,52.59778
"1767",81.02174,52.611084
"1768",80.74586,52.62439
"1769",80.51392,52.637756
"1770",80.34791,52.651062
"1771",80.255135,52.66443
"1772",80.2478,52.677734
"1773",80.31617,52.6911
"1774",80.43824,52.704407
"1775",80.57252,52.717712
"1776",80.68726,52.73108
"1777",80.75563,52.744385
"1778",80.76784,52.75775
"1779",80.72877,52.771057
"1780",80.635994,52.784424
"1781",80.51148,52.79773
"1782",80.35767,52.811096
"1783",80.17944,52.8244
"1784",79.991455,52.837708
"1785",79.801025,52.851074
"1786",79.61547,52.86438
"1787",79.449455,52.877747
"1788",79.310295,52.891052
"1789",79.20531,52.90442
"1790",79.13695,52.917725
"1791",79.10033,52.93109
"1792",79.08812,52.944397
"1793",79.08812,52.957703
"1794",79.08568,52.97107
"1795",79.08568,52.984375
"1796",79.08812,52.99774
"1797",79.093,53.011047
"1798",79.10765,53.024414
"1799",79.13451,53.03772
"1800",79.168686,53.051025
"1801",79.20531,53.064392
"1802",79.23216,53.077698
"1803",79.237045,53.091064
"1804",79.202866,53.10437
"1805",79.12962,53.117737
"1806",79.03197,53.131042
"1807",78.93675,53.14435
"1808",78.86595,53.157715
"1809",78.85863,53.17102
"1810",78.95384,53.184387
"1811",79.21019,53.197693
"1812",79.64965,53.21106
"1813",80.26734,53.224365
"1814",81.01442,53.237732
"1815",81.79813,53.251038
"1816",82.5037,53.264343
"1817",83.03349,53.27771
"1818",83.33868,53.291016
"1819",83.421684,53.304382
"1820",83.32159,53.317688
"1821",83.08476,53.331055
"1822",82.7625,53.34436
"1823",82.4036,53.357727
"1824",82.039825,53.371033
"1825",81.685814,53.38434
"1826",81.36111,53.397705
"1827",81.06569,53.41101
"1828",80.80934,53.424377
"1829",80.604256,53.437683
"1830",80.465096,53.45105
"1831",80.4065,53.464355
"1832",80.430916,53.47766
"1833",80.52857,53.491028
"1834",80.66773,53.504333
"1835",80.81178,53.5177
"1836",80.92409,53.531006
"1837",80.98024,53.544373
"1838",80.972916,53.55768
"1839",80.90456,53.570984
"1840",80.78981,53.58435
"1841",80.638435,53.597656
"1842",80.465096,53.611023
"1843",80.27955,53.62433
"1844",80.08911,53.637695
"1845",79.89868,53.651
"1846",79.71313,53.664368
"1847",79.54467,53.677673
"1848",79.38598,53.69098
"1849",79.24681,53.704346
"1850",79.12962,53.71765
"1851",79.03685,53.731018
"1852",78.96605,53.744324
"1853",78.922104,53.75769
"1854",78.89525,53.770996
"1855",78.890366,53.784363
"1856",78.89281,53.79767
"1857",78.90013,53.810974
"1858",78.9099,53.82434
"1859",78.91234,53.837646
"1860",78.89769,53.851013
"1861",78.856186,53.86432
"1862",78.79271,53.877686
"1863",78.709694,53.89099
"1864",78.626686,53.904297
"1865",78.555885,53.917664
"1866",78.538795,53.93097
"1867",78.61448,53.944336
"1868",78.84154,53.95764
"1869",79.26147,53.97101
"1870",79.87671,53.984314
"1871",80.64088,53.99762
"1872",81.45388,54.010986
"1873",82.20096,54.024292
"1874",82.777145,54.03766
"1875",83.12138,54.050964
"1876",83.23369,54.06433
"1877",83.15312,54.077637
"1878",82.933395,54.091003
"1879",82.63065,54.10431
"1880",82.29374,54.117615
"1881",81.95438,54.13098
"1882",81.6321,54.144287
"1883",81.33669,54.157654
"1884",81.06813,54.17096
"1885",80.8362,54.184326
"1886",80.65308,54.19763
"1887",80.52857,54.211
"1888",80.479744,54.224304
"1889",80.50416,54.23761
"1890",80.59693,54.250977
"1891",80.726326,54.264282
"1892",80.85817,54.27765
"1893",80.955826,54.290955
"1894",81.00221,54.30432
"1895",80.987564,54.317627
"1896",80.91432,54.330933
"1897",80.797134,54.3443
"1898",80.64332,54.357605
"1899",80.46754,54.37097
"1900",80.26978,54.384277
"1901",80.0647,54.397644
"1902",79.85718,54.41095
"1903",79.65453,54.424255
"1904",79.45922,54.437622
"1905",79.28344,54.450928
"1906",79.12718,54.464294
"1907",79.00023,54.4776
"1908",78.907455,54.490967
"1909",78.84886,54.504272
"1910",78.819565,54.51764
"1911",78.81224,54.530945
"1912",78.81712,54.54425
"1913",78.83177,54.557617
"1914",78.853745,54.570923
"1915",78.87572,54.58429
"1916",78.89281,54.597595
"1917",78.89769,54.610962
"1918",78.87816,54.624268
"1919",78.82445,54.637634
"1920",78.751205,54.65094
"1921",78.66331,54.664246
"1922",78.57786,54.677612
"1923",78.51682,54.690918
"1924",78.51682,54.704285
"1925",78.624245,54.71759
"1926",78.90257,54.730957
"1927",79.381096,54.744263
"1928",80.05005,54.75757
"1929",80.83864,54.770935
"1930",81.64675,54.78424
"1931",82.354774,54.797607
"1932",82.865036,54.810913
"1933",83.13603,54.82428
"1934",83.18486,54.837585
"1935",83.05791,54.85089
"1936",82.80888,54.864258
"1937",82.5037,54.877563
"1938",82.18631,54.89093
"1939",81.87869,54.904236
"1940",81.58816,54.917603
"1941",81.31472,54.93091
"1942",81.058365,54.944275
"1943",80.833755,54.95758
"1944",80.65308,54.970886
"1945",80.5359,54.984253
"1946",80.49195,54.99756
"1947",80.516365,55.010925
"1948",80.58961,55.02423
"1949",80.67994,55.037598
"1950",80.76051,55.050903
"1951",80.799576,55.06427
"1952",80.78493,55.077576
"1953",80.71656,55.09088
"1954",80.59937,55.104248
"1955",80.45289,55.117554
"1956",80.27955,55.13092
"1957",80.096436,55.144226
"1958",79.90845,55.157593
"1959",79.71557,55.1709
"1960",79.5227,55.184204
"1961",79.33227,55.19757
"1962",79.15404,55.210876
"1963",78.992905,55.224243
"1964",78.86107,55.23755
"1965",78.76097,55.250916
"1966",78.69749,55.26422
"1967",78.66331,55.277527
"1968",78.65598,55.290894
"1969",78.66575,55.3042
"1970",78.68284,55.317566
"1971",78.70237,55.33087
"1972",78.71946,55.34424
"1973",78.72434,55.357544
"1974",78.70237,55.37091
"1975",78.64866,55.384216
"1976",78.553444,55.397522
"1977",78.42405,55.41089
"1978",78.28489,55.424194
"1979",78.16037,55.43756
"1980",78.07492,55.450867
"1981",78.07004,55.464233
"1982",78.187225,55.47754
"1983",78.47532,55.490906
"1984",78.941635,55.50421
"1985",79.57885,55.517517
"1986",80.32105,55.530884
"1987",81.07057,55.54419
"1988",81.71511,55.557556
"1989",82.178986,55.57086
"1990",82.423134,55.58423
"1991",82.4622,55.597534
"1992",82.340126,55.61084
"1993",82.11551,55.624207
"1994",81.83719,55.637512
"1995",81.54665,55.65088
"1996",81.26833,55.664185
"1997",81.007095,55.67755
"1998",80.75807,55.690857
"1999",80.52857,55.704163
"2000",80.32105,55.71753
"2001",80.15503,55.730835
"2002",80.045166,55.7442
"2003",80.00366,55.757507
"2004",80.03296,55.770874
"2005",80.11597,55.78418
"2006",80.21362,55.797546
"2007",80.29908,55.810852
"2008",80.34058,55.824158
"2009",80.325935,55.837524
"2010",80.26002,55.85083
"2011",80.15015,55.864197
"2012",80.01587,55.877502
"2013",79.871826,55.89087
"2014",79.725334,55.904175
"2015",79.58129,55.91754
"2016",79.44213,55.930847
"2017",79.30541,55.944153
"2018",79.17601,55.95752
"2019",79.0515,55.970825
"2020",78.93675,55.98419
"2021",78.83421,55.997498
"2022",78.74876,56.010864
"2023",78.68284,56.02417
"2024",78.63889,56.037476
"2025",78.6096,56.050842
"2026",78.59251,56.064148
"2027",78.58274,56.077515
"2028",78.5803,56.09082
"2029",78.5803,56.104187
"2030",78.58762,56.117493
"2031",78.59495,56.1308
"2032",78.59495,56.144165
"2033",78.58274,56.15747
"2034",78.54856,56.170837
"2035",78.485085,56.184143
"2036",78.38743,56.19751
"2037",78.2678,56.210815
"2038",78.1384,56.224182
"2039",78.028534,56.237488
"2040",77.96506,56.250793
"2041",77.98947,56.26416
"2042",78.15549,56.277466
"2043",78.5095,56.290833
"2044",79.06859,56.30414
"2045",79.79614,56.317505
"2046",80.62867,56.33081
"2047",81.45632,56.344177
"2048",82.16434,56.357483
"2049",82.667274,56.37079
"2050",82.92607,56.384155
"2051",82.96269,56.39746
"2052",82.81865,56.410828
"2053",82.55253,56.424133
"2054",82.22537,56.4375
"2055",81.88602,56.450806
"2056",81.566185,56.46411
"2057",81.27322,56.477478
"2058",81.00954,56.490784
"2059",80.7776,56.50415
"2060",80.58228,56.517456
"2061",80.42603,56.530823
"2062",80.31861,56.54413
"2063",80.2649,56.557434
"2064",80.274666,56.5708
"2065",80.32838,56.584106
"2066",80.39918,56.597473
"2067",80.462654,56.61078
"2068",80.48707,56.624146
"2069",80.45777,56.63745
"2070",80.36988,56.650818
"2071",80.235596,56.664124
"2072",80.07202,56.67743
"2073",79.89624,56.690796
"2074",79.72045,56.7041
"2075",79.54711,56.71747
"2076",79.381096,56.730774
"2077",79.217514,56.74414
"2078",79.05882,56.757446
"2079",78.91478,56.770813
"2080",78.79271,56.78412
"2081",78.692604,56.797424
"2082",78.6218,56.81079
"2083",78.57053,56.824097
"2084",78.53391,56.837463
"2085",78.504616,56.85077
"2086",78.47776,56.864136
"2087",78.45335,56.87744
"2088",78.42893,56.890747
"2089",78.40452,56.904114
"2090",78.38743,56.91742
"2091",78.37034,56.930786
"2092",78.35813,56.94409
"2093",78.345924,56.95746
"2094",78.3386,56.970764
"2095",78.33616,56.98407
"2096",78.34104,56.997437
"2097",78.35569,57.010742
"2098",78.37522,57.02411
"2099",78.382545,57.037415
"2100",78.363014,57.05078
"2101",78.30198,57.064087
"2102",78.20187,57.077454
"2103",78.082245,57.09076
"2104",77.9675,57.104065
"2105",77.89426,57.11743
"2106",77.91867,57.130737
"2107",78.10422,57.144104
"2108",78.49729,57.15741
"2109",79.114975,57.170776
"2110",79.91577,57.184082
"2111",80.80934,57.19745
"2112",81.6614,57.210754
"2113",82.35966,57.22406
"2114",82.81865,57.237427
"2115",83.018845,57.250732
"2116",82.98955,57.2641
"2117",82.794235,57.277405
"2118",82.49882,57.29077
"2119",82.16922,57.304077
"2120",81.84451,57.317383
"2121",81.55642,57.33075
"2122",81.304955,57.344055
"2123",81.08522,57.35742
"2124",80.89235,57.370728
"2125",80.726326,57.384094
"2126",80.584724,57.3974
"2127",80.48707,57.410706
"2128",80.44068,57.424072
"2129",80.448006,57.437378
"2130",80.50416,57.450745
"2131",80.58961,57.46405
"2132",80.66773,57.477417
"2133",80.709236,57.490723
"2134",80.689705,57.50409
"2135",80.60914,57.517395
"2136",80.479744,57.5307
"2137",80.31861,57.544067
"2138",80.15015,57.557373
"2139",79.991455,57.57074
"2140",79.84741,57.584045
"2141",79.71557,57.597412
"2142",79.59106,57.610718
"2143",79.46899,57.624084
"2144",79.34692,57.63739
"2145",79.22484,57.650696
"2146",79.11009,57.664062
"2147",79.00755,57.67737
"2148",78.924545,57.690735
"2149",78.86351,57.70404
"2150",78.81712,57.717407
"2151",78.785385,57.730713
"2152",78.768295,57.74402
"2153",78.76097,57.757385
"2154",78.76097,57.77069
"2155",78.765854,57.784058
"2156",78.7805,57.797363
"2157",78.80003,57.81073
"2158",78.81468,57.824036
"2159",78.82445,57.83734
"2160",78.82689,57.850708
"2161",78.8098,57.864014
"2162",78.77074,57.87738
"2163",78.70237,57.890686
"2164",78.61204,57.904053
"2165",78.502174,57.91736
"2166",78.39231,57.930725
"2167",78.30198,57.94403
"2168",78.25803,57.957336
"2169",78.294655,57.970703
"2170",78.45823,57.98401
"2171",78.80492,57.997375
"2172",79.34936,58.01068
"2173",80.07202,58.024048
"2174",80.89967,58.037354
"2175",81.72488,58.05072
"2176",82.4329,58.064026
"2177",82.93828,58.07733
"2178",83.211716,58.0907
"2179",83.27032,58.104004
"2180",83.16289,58.11737
"2181",82.950485,58.130676
"2182",82.67948,58.144043
"2183",82.388954,58.15735
"2184",82.09842,58.170654
"2185",81.81766,58.18402
"2186",81.54421,58.197327
"2187",81.290306,58.210693
"2188",81.07057,58.224
"2189",80.89723,58.237366
"2190",80.78737,58.25067
"2191",80.75319,58.263977
"2192",80.78737,58.277344
"2193",80.8777,58.29065
"2194",80.99489,58.304016
"2195",81.10475,58.31732
"2196",81.17799,58.33069
"2197",81.19508,58.343994
"2198",81.1487,58.35736
"2199",81.05104,58.370667
"2200",80.90456,58.383972
"2201",80.73609,58.39734
"2202",80.552986,58.410645
"2203",80.36744,58.42401
"2204",80.17944,58.437317
"2205",80.00122,58.450684
"2206",79.83032,58.46399
"2207",79.674065,58.477356
"2208",79.53246,58.49066
"2209",79.412834,58.503967
"2210",79.31274,58.517334
"2211",79.23216,58.53064
"2212",79.166245,58.544006
"2213",79.114975,58.557312
"2214",79.078354,58.57068
"2215",79.0515,58.583984
"2216",79.03685,58.59729
"2217",79.03197,58.610657
"2218",79.029526,58.623962
"2219",79.03441,58.63733
"2220",79.03685,58.650635
"2221",79.029526,58.664
"2222",79.012436,58.677307
"2223",78.97093,58.690613
"2224",78.90013,58.70398
"2225",78.79515,58.717285
"2226",78.66575,58.73065
"2227",78.52903,58.743958
"2228",78.41184,58.757324
"2229",78.345924,58.77063
"2230",78.37278,58.783997
"2231",78.54856,58.797302
"2232",78.91966,58.810608
"2233",79.49828,58.823975
"2234",80.25025,58.83728
"2235",81.09987,58.850647
"2236",81.92996,58.863953
"2237",82.62333,58.87732
"2238",83.104294,58.890625
"2239",83.34356,58.90399
"2240",83.36309,58.917297
"2241",83.209274,58.930603
"2242",82.94072,58.94397
"2243",82.61356,58.957275
"2244",82.27665,58.970642
"2245",81.95438,58.983948
"2246",81.66628,58.997314
"2247",81.409935,59.01062
"2248",81.18288,59.023926
"2249",80.987564,59.037292
"2250",80.831314,59.0506
"2251",80.72877,59.063965
"2252",80.68238,59.07727
"2253",80.69947,59.090637
"2254",80.75563,59.103943
"2255",80.831314,59.11725
"2256",80.902115,59.130615
"2257",80.94606,59.14392
"2258",80.94362,59.157288
"2259",80.88991,59.170593
"2260",80.78493,59.18396
"2261",80.63355,59.197266
"2262",80.45045,59.210632
"2263",80.2478,59.223938
"2264",80.0354,59.237244
"2265",79.815674,59.25061
"2266",79.59838,59.263916
"2267",79.39086,59.277283
"2268",79.19798,59.29059
"2269",79.02464,59.303955
"2270",78.88304,59.31726
"2271",78.765854,59.330627
"2272",78.67063,59.343933
"2273",78.590065,59.35724
"2274",78.521706,59.370605
"2275",78.46311,59.38391
"2276",78.41184,59.397278
"2277",78.365456,59.410583
"2278",78.32639,59.42395
"2279",78.294655,59.437256
"2280",78.2678,59.45056
"2281",78.24338,59.46393
"2282",78.22385,59.477234
"2283",78.20676,59.4906
"2284",78.19699,59.503906
"2285",78.19211,59.517273
"2286",78.18967,59.53058
"2287",78.17746,59.543884
"2288",78.14328,59.55725
"2289",78.0798,59.570557
"2290",77.98215,59.583923
"2291",77.8674,59.59723
"2292",77.7551,59.610596
"2293",77.67452,59.6239
"2294",77.66476,59.637268
"2295",77.7673,59.650574
"2296",78.0383,59.66388
"2297",78.53147,59.677246
"2298",79.24437,59.69055
"2299",80.13794,59.70392
"2300",81.112076,59.717224
"2301",82.039825,59.73059
"2302",82.791794,59.743896
"2303",83.28741,59.757263
"2304",83.5169,59.77057
"2305",83.52178,59.783875
"2306",83.36065,59.79724
"2307",83.10185,59.810547
"2308",82.80156,59.823914
"2309",82.49882,59.83722
"2310",82.210724,59.850586
"2311",81.94217,59.86389
"2312",81.688255,59.877197
"2313",81.45144,59.890564
"2314",81.231705,59.90387
"2315",81.041275,59.917236
"2316",80.902115,59.930542
"2317",80.82887,59.94391
"2318",80.831314,59.957214
"2319",80.88991,59.97052
"2320",80.98268,59.983887
"2321",81.07057,59.997192
"2322",81.126724,60.01056
"2323",81.13161,60.023865
"2324",81.075455,60.03723
"2325",80.96071,60.050537
"2326",80.80202,60.063904
"2327",80.61158,60.07721
"2328",80.40162,60.090515
"2329",80.181885,60.10388
"2330",79.95972,60.117188
"2331",79.73266,60.130554
"2332",79.51293,60.14386
"2333",79.29565,60.157227
"2334",79.093,60.170532
"2335",78.91234,60.1839
"2336",78.76341,60.197205
"2337",78.643776,60.21051
"2338",78.555885,60.223877
"2339",78.48997,60.237183
"2340",78.44602,60.25055
"2341",78.41428,60.263855
"2342",78.399635,60.27722
"2343",78.39475,60.290527
"2344",78.399635,60.303833
"2345",78.40452,60.3172
"2346",78.4094,60.330505
"2347",78.4094,60.343872
"2348",78.40208,60.357178
"2349",78.382545,60.370544
"2350",78.3386,60.38385
"2351",78.260475,60.397156
"2352",78.14816,60.410522
"2353",78.011444,60.42383
"2354",77.87717,60.437195
"2355",77.77463,60.4505
"2356",77.73556,60.463867
"2357",77.7966,60.477173
"2358",78.013885,60.49054
"2359",78.43137,60.503845
"2360",79.06615,60.51715
"2361",79.87427,60.530518
"2362",80.76784,60.543823
"2363",81.6321,60.55719
"2364",82.34257,60.570496
"2365",82.82109,60.583862
"2366",83.0457,60.597168
"2367",83.0457,60.610535
"2368",82.87236,60.62384
"2369",82.58671,60.637146
"2370",82.23514,60.650513
"2371",81.866486,60.66382
"2372",81.50271,60.677185
"2373",81.163345,60.69049
"2374",80.850845,60.703857
"2375",80.570076,60.717163
"2376",80.33082,60.73047
"2377",80.14038,60.743835
"2378",80.01343,60.75714
"2379",79.95239,60.770508
"2380",79.9646,60.783813
"2381",80.03052,60.79718
"2382",80.12573,60.810486
"2383",80.216064,60.82379
"2384",80.28199,60.83716
"2385",80.30152,60.850464
"2386",80.2649,60.86383
"2387",80.17456,60.877136
"2388",80.042725,60.890503
"2389",79.87915,60.90381
"2390",79.693596,60.917175
"2391",79.49584,60.93048
"2392",79.30053,60.943787
"2393",79.10521,60.957153
"2394",78.9099,60.97046
"2395",78.72434,60.983826
"2396",78.555885,60.99713
"2397",78.40696,61.010498
"2398",78.28245,61.023804
"2399",78.18234,61.03717
"2400",78.10422,61.050476
"2401",78.04318,61.06378
"2402",78.00412,61.07715
"2403",77.98459,61.090454
"2404",77.98459,61.10382
"2405",78.011444,61.117126
"2406",78.05539,61.130493
"2407",78.099335,61.1438
"2408",78.13107,61.157104
"2409",78.1384,61.17047
"2410",78.1091,61.183777
"2411",78.03586,61.197144
"2412",77.93088,61.21045
"2413",77.81125,61.223816
"2414",77.70138,61.23712
"2415",77.628136,61.250427
"2416",77.61593,61.263794
"2417",77.7087,61.2771
"2418",77.95529,61.290466
"2419",78.40452,61.303772
"2420",79.05882,61.31714
"2421",79.871826,61.330444
"2422",80.75319,61.34381
"2423",81.58572,61.357117
"2424",82.247345,61.370422
"2425",82.67948,61.38379
"2426",82.865036,61.397095
"2427",82.84306,61.41046
"2428",82.66239,61.423767
"2429",82.38163,61.437134
"2430",82.054474,61.45044
"2431",81.71755,61.463806
"2432",81.40261,61.47711
"2433",81.12428,61.490417
"2434",80.89479,61.503784
"2435",80.709236,61.51709
"2436",80.56275,61.530457
"2437",80.45777,61.543762
"2438",80.396736,61.55713
"2439",80.38453,61.570435
"2440",80.42115,61.58374
"2441",80.49683,61.597107
"2442",80.57984,61.610413
"2443",80.64088,61.62378
"2444",80.66285,61.637085
"2445",80.63111,61.65045
"2446",80.54322,61.663757
"2447",80.413826,61.677063
"2448",80.25269,61.69043
"2449",80.059814,61.703735
"2450",79.84741,61.717102
"2451",79.622795,61.730408
"2452",79.395744,61.743774
"2453",79.17357,61.75708
"2454",78.96605,61.770447
"2455",78.77806,61.783752
"2456",78.61448,61.79706
"2457",78.4802,61.810425
"2458",78.37278,61.82373
"2459",78.28977,61.837097
"2460",78.22385,61.850403
"2461",78.17746,61.86377
"2462",78.14084,61.877075
"2463",78.12131,61.89044
"2464",78.118866,61.903748
"2465",78.13107,61.917053
"2466",78.14572,61.93042
"2467",78.15793,61.943726
"2468",78.16037,61.957092
"2469",78.15793,61.970398
"2470",78.153046,61.983765
"2471",78.153046,61.99707
"2472",78.153046,62.010376
"2473",78.14328,62.023743
"2474",78.12131,62.03705
"2475",78.08469,62.050415
"2476",78.048065,62.06372
"2477",78.02609,62.077087
"2478",78.030975,62.090393
"2479",78.08713,62.1037
"2480",78.23361,62.117065
"2481",78.521706,62.13037
"2482",79.00511,62.143738
"2483",79.69604,62.157043
"2484",80.552986,62.17041
"2485",81.478294,62.183716
"2486",82.34257,62.197083
"2487",83.02373,62.21039
"2488",83.455864,62.223694
"2489",83.63409,62.23706
"2490",83.597466,62.250366
"2491",83.404594,62.263733
"2492",83.11894,62.27704
"2493",82.77959,62.290405
"2494",82.41825,62.30371
"2495",82.05936,62.317078
"2496",81.71267,62.330383
"2497",81.38308,62.34369
"2498",81.08522,62.357056
"2499",80.833755,62.37036
"2500",80.64576,62.383728
"2501",80.5359,62.397034
"2502",80.51881,62.4104
"2503",80.584724,62.423706
"2504",80.71412,62.43701
"2505",80.867935,62.45038
"2506",81.007095,62.463684
"2507",81.09987,62.47705
"2508",81.126724,62.490356
"2509",81.08278,62.503723
"2510",80.97536,62.51703
"2511",80.81911,62.530334
"2512",80.63355,62.5437
"2513",80.42603,62.557007
"2514",80.2063,62.570374
"2515",79.98657,62.58368
"2516",79.766846,62.597046
"2517",79.551994,62.61035
"2518",79.35424,62.62372
"2519",79.17845,62.637024
"2520",79.027084,62.65033
"2521",78.905014,62.663696
"2522",78.80736,62.677002
"2523",78.73899,62.69037
"2524",78.70237,62.703674
"2525",78.69749,62.71704
"2526",78.71946,62.730347
"2527",78.765854,62.743713
"2528",78.82689,62.75702
"2529",78.88304,62.770325
"2530",78.922104,62.78369
"2531",78.92943,62.796997
"2532",78.90013,62.810364
"2533",78.839096,62.82367
"2534",78.765854,62.837036
"2535",78.70481,62.85034
"2536",78.6804,62.863647
"2537",78.712135,62.877014
"2538",78.83177,62.89032
"2539",79.08324,62.903687
"2540",79.50317,62.916992
"2541",80.10376,62.93036
"2542",80.85329,62.943665
"2543",81.66384,62.95697
"2544",82.423134,62.970337
"2545",83.03105,62.983643
"2546",83.421684,62.99701
"2547",83.58526,63.010315
"2548",83.55596,63.02368
"2549",83.389946,63.036987
"2550",83.12871,63.050354
"2551",82.81377,63.06366
"2552",82.46952,63.076965
"2553",82.11307,63.090332
"2554",81.75662,63.103638
"2555",81.41482,63.117004
"2556",81.10719,63.13031
"2557",80.85329,63.143677
"2558",80.67506,63.156982
"2559",80.587166,63.17035
"2560",80.59205,63.183655
"2561",80.67506,63.19696
"2562",80.80934,63.210327
"2563",80.94606,63.223633
"2564",81.05348,63.237
"2565",81.10719,63.250305
"2566",81.08522,63.26367
"2567",80.99489,63.276978
"2568",80.850845,63.290283
"2569",80.66529,63.30365
"2570",80.45533,63.316956
"2571",80.23804,63.330322
"2572",80.01587,63.343628
"2573",79.798584,63.356995
"2574",79.586174,63.3703
"2575",79.38354,63.383606
"2576",79.202866,63.396973
"2577",79.05394,63.41028
"2578",78.941635,63.423645
"2579",78.86595,63.43695
"2580",78.81468,63.450317
"2581",78.78783,63.463623
"2582",78.765854,63.47699
"2583",78.76097,63.490295
"2584",78.768295,63.5036
"2585",78.78783,63.516968
"2586",78.81712,63.530273
"2587",78.84642,63.54364
"2588",78.856186,63.556946
"2589",78.836655,63.570312
"2590",78.77562,63.58362
"2591",78.68528,63.596985
"2592",78.57542,63.61029
"2593",78.4802,63.623596
"2594",78.44114,63.636963
"2595",78.49973,63.65027
"2596",78.70725,63.663635
"2597",79.11253,63.67694
"2598",79.72045,63.690308
"2599",80.479744,63.703613
"2600",81.304955,63.71692
"2601",82.08377,63.730286
"2602",82.70634,63.74359
"2603",83.09941,63.756958
"2604",83.25323,63.770264
"2605",83.20439,63.78363
"2606",83.00664,63.796936
"2607",82.718544,63.81024
"2608",82.391396,63.82361
"2609",82.054474,63.836914
"2610",81.72732,63.85028
"2611",81.409935,63.863586
"2612",81.109634,63.876953
"2613",80.831314,63.89026
"2614",80.58961,63.903625
"2615",80.396736,63.91693
"2616",80.272224,63.930237
"2617",80.22339,63.943604
"2618",80.2478,63.95691
"2619",80.323494,63.970276
"2620",80.42359,63.98358
"2621",80.51148,63.99695
"2622",80.552986,64.010254
"2623",80.54078,64.02362
"2624",80.46998,64.03693
"2625",80.35035,64.05023
"2626",80.19409,64.0636
"2627",80.008545,64.076904
"2628",79.80347,64.09027
"2629",79.57885,64.10358
"2630",79.33715,64.11694
"2631",79.09544,64.13025
"2632",78.856186,64.143555
"2633",78.626686,64.15692
"2634",78.397194,64.17023
"2635",78.170135,64.18359
"2636",77.94797,64.1969
"2637",77.75021,64.210266
"2638",77.58907,64.22357
"2639",77.486534,64.23688
"2640",77.44991,64.250244
"2641",77.467,64.26355
"2642",77.51583,64.27692
"2643",77.58663,64.29022
"2644",77.67208,64.30359
"2645",77.76242,64.316895
"2646",77.84787,64.33026
"2647",77.925995,64.34357
"2648",77.979706,64.35687
"2649",78.00168,64.37024
"2650",77.99924,64.383545
"2651",77.98459,64.39691
"2652",77.96994,64.41022
"2653",77.979706,64.423584
"2654",78.03586,64.43689
"2655",78.1799,64.45026
"2656",78.45823,64.46356
"2657",78.90257,64.47687
"2658",79.51293,64.490234
"2659",80.24292,64.50354
"2660",81.007095,64.51691
"2661",81.71755,64.53021
"2662",82.29374,64.54358
"2663",82.69169,64.556885
"2664",82.916306,64.57019
"2665",82.98222,64.58356
"2666",82.916306,64.59686
"2667",82.757614,64.61023
"2668",82.54032,64.623535
"2669",82.28153,64.6369
"2670",82.005646,64.65021
"2671",81.71999,64.66351
"2672",81.444115,64.67688
"2673",81.1902,64.690186
"2674",80.9778,64.70355
"2675",80.82643,64.71686
"2676",80.75563,64.730225
"2677",80.762955,64.74353
"2678",80.831314,64.7569
"2679",80.94118,64.7702
"2680",81.05592,64.78351
"2681",81.14137,64.796875
"2682",81.17311,64.81018
"2683",81.146255,64.82355
"2684",81.06325,64.83685
"2685",80.93385,64.85022
"2686",80.77272,64.863525
"2687",80.587166,64.87689
"2688",80.38209,64.8902
"2689",80.15747,64.9035
"2690",79.92798,64.91687
"2691",79.70336,64.930176
"2692",79.49828,64.94354
"2693",79.33471,64.95685
"2694",79.21507,64.970215
"2695",79.13451,64.98352
"2696",79.08324,64.996826
"2697",79.05394,65.01019
"2698",79.03441,65.0235
"2699",79.01732,65.036865
"2700",79.00511,65.05017
"2701",79.009995,65.06354
"2702",79.029526,65.07684
"2703",79.05394,65.09015
"2704",79.07591,65.103516
"2705",79.078354,65.11682
"2706",79.046616,65.13019
"2707",78.97093,65.14349
"2708",78.856186,65.15686
"2709",78.72678,65.170166
"2710",78.61204,65.18353
"2711",78.56077,65.19684
"2712",78.6218,65.210144
"2713",78.85863,65.22351
"2714",79.30297,65.23682
"2715",79.94751,65.25018
"2716",80.726326,65.26349
"2717",81.54665,65.276855
"2718",82.29862,65.29016
"2719",82.882126,65.30353
"2720",83.23613,65.31683
"2721",83.35821,65.33014
"2722",83.282524,65.343506
"2723",83.055466,65.35681
"2724",82.735634,65.37018
"2725",82.374306,65.383484
"2726",82.005646,65.39685
"2727",81.651634,65.41016
"2728",81.32693,65.42346
"2729",81.03395,65.43683
"2730",80.7776,65.450134
"2731",80.56519,65.4635
"2732",80.394295,65.47681
"2733",80.272224,65.49017
"2734",80.2063,65.50348
"2735",80.18921,65.516785
"2736",80.20874,65.53015
"2737",80.24536,65.54346
"2738",80.27955,65.55682
"2739",80.28687,65.57013
"2740",80.257576,65.583496
"2741",80.18677,65.5968
"2742",80.08423,65.61017
"2743",79.94995,65.623474
"2744",79.78882,65.63678
"2745",79.60815,65.65015
"2746",79.41772,65.66345
"2747",79.22484,65.67682
"2748",79.03929,65.690125
"2749",78.86839,65.70349
"2750",78.7219,65.7168
"2751",78.6096,65.73016
"2752",78.52659,65.74347
"2753",78.47288,65.756775
"2754",78.4387,65.77014
"2755",78.42161,65.78345
"2756",78.41428,65.796814
"2757",78.42649,65.81012
"2758",78.45335,65.82349
"2759",78.49241,65.83679
"2760",78.538795,65.8501
"2761",78.572975,65.863464
"2762",78.58762,65.87677
"2763",78.56321,65.89014
"2764",78.504616,65.90344
"2765",78.42161,65.91681
"2766",78.331276,65.930115
"2767",78.25071,65.94342
"2768",78.21896,65.95679
"2769",78.277565,65.97009
"2770",78.4802,65.98346
"2771",78.873276,65.996765
"2772",79.4641,66.01013
"2773",80.22095,66.02344
"2774",81.06813,66.036804
"2775",81.8909,66.05011
"2776",82.58427,66.063416
"2777",83.070114,66.07678
"2778",83.32159,66.09009
"2779",83.35577,66.103455
"2780",83.22148,66.11676
"2781",82.9749,66.13013
"2782",82.66483,66.14343
"2783",82.33036,66.1568
"2784",81.99832,66.170105
"2785",81.685814,66.18341
"2786",81.40505,66.19678
"2787",81.163345,66.21008
"2788",80.972916,66.22345
"2789",80.833755,66.236755
"2790",80.740974,66.25012
"2791",80.69703,66.26343
"2792",80.69459,66.27673
"2793",80.723885,66.2901
"2794",80.765396,66.303406
"2795",80.80446,66.31677
"2796",80.82155,66.33008
"2797",80.80202,66.343445
"2798",80.73365,66.35675
"2799",80.621346,66.370056
"2800",80.46998,66.38342
"2801",80.291756,66.39673
"2802",80.10132,66.410095
"2803",79.906006,66.4234
"2804",79.708244,66.43677
"2805",79.517815,66.45007
"2806",79.34692,66.46344
"2807",79.20531,66.476746
"2808",79.10277,66.49005
"2809",79.03441,66.50342
"2810",78.99779,66.51672
"2811",78.975815,66.53009
"2812",78.94408,66.543396
"2813",78.89525,66.55676
"2814",78.82201,66.57007
"2815",78.73411,66.583435
"2816",78.641335,66.59674
"2817",78.55833,66.61005
"2818",78.485085,66.62341
"2819",78.42649,66.63672
"2820",78.37522,66.650085
"2821",78.30686,66.66339
"2822",78.21652,66.67676
"2823",78.09689,66.69006
"2824",77.95529,66.70337
"2825",77.80881,66.716736
"2826",77.67696,66.73004
"2827",77.574425,66.74341
"2828",77.52071,66.756714
"2829",77.55245,66.77008
"2830",77.72091,66.78339
"2831",78.08957,66.79669
"2832",78.69749,66.81006
"2833",79.52514,66.823364
"2834",80.49683,66.83673
"2835",81.495384,66.85004
"2836",82.388954,66.8634
"2837",83.070114,66.87671
"2838",83.4876,66.890076
"2839",83.648735,66.90338
"2840",83.58526,66.91669
"2841",83.36065,66.93005
"2842",83.04326,66.94336
"2843",82.69169,66.956726
"2844",82.35233,66.97003
"2845",82.04471,66.9834
"2846",81.778595,66.996704
"2847",81.54665,67.01007
"2848",81.339134,67.02338
"2849",81.15846,67.03668
"2850",81.007095,67.05005
"2851",80.89479,67.063354
"2852",80.831314,67.07672
"2853",80.81911,67.09003
"2854",80.833755,67.10339
"2855",80.85329,67.1167
"2856",80.84596,67.130005
"2857",80.79225,67.14337
"2858",80.68238,67.15668
"2859",80.51392,67.170044
"2860",80.30396,67.18335
"2861",80.076904,67.19672
"2862",79.84497,67.21002
"2863",79.61791,67.22333
"2864",79.40307,67.236694
"2865",79.21263,67.25
"2866",79.03685,67.26337
"2867",78.873276,67.27667
"2868",78.729225,67.29004
"2869",78.6096,67.303345
"2870",78.51438,67.31671
"2871",78.44846,67.33002
"2872",78.40696,67.34332
"2873",78.38743,67.35669
"2874",78.380104,67.369995
"2875",78.380104,67.38336
"2876",78.37766,67.39667
"2877",78.380104,67.410034
"2878",78.37766,67.42334
"2879",78.37034,67.43671
"2880",78.35569,67.45001
"2881",78.34104,67.46332
"2882",78.32151,67.476685
"2883",78.28733,67.48999
"2884",78.23605,67.50336
"2885",78.16037,67.51666
"2886",78.05295,67.53003
"2887",77.92111,67.543335
"2888",77.77463,67.55664
"2889",77.63546,67.57001
"2890",77.53048,67.58331
"2891",77.486534,67.59668
"2892",77.55978,67.609985
"2893",77.81857,67.62335
"2894",78.30442,67.63666
"2895",79.03441,67.64996
"2896",79.94995,67.66333
"2897",80.95094,67.676636
"2898",81.90555,67.69
"2899",82.68925,67.70331
"2900",83.22392,67.716675
"2901",83.49737,67.72998
"2902",83.53643,67.74335
"2903",83.39239,67.75665
"2904",83.12138,67.76996
"2905",82.77959,67.783325
"2906",82.41825,67.79663
"2907",82.0618,67.81
"2908",81.72732,67.8233
"2909",81.41482,67.83667
"2910",81.13161,67.849976
"2911",80.88014,67.86334
"2912",80.67017,67.87665
"2913",80.51392,67.88995
"2914",80.42359,67.90332
"2915",80.4065,67.916626
"2916",80.448006,67.92999
"2917",80.52125,67.9433
"2918",80.59693,67.956665
"2919",80.6482,67.96997
"2920",80.6482,67.98328
"2921",80.58961,67.99664
"2922",80.46998,68.00995
"2923",80.29908,68.023315
"2924",80.08911,68.03662
"2925",79.84985,68.04999
"2926",79.59838,68.06329
"2927",79.35424,68.0766
"2928",79.12718,68.089966
"2929",78.92699,68.10327
"2930",78.765854,68.11664
"2931",78.63645,68.129944
"2932",78.53147,68.14331
"2933",78.45335,68.15662
"2934",78.40208,68.16998
"2935",78.37278,68.18329
"2936",78.3679,68.196594
"2937",78.380104,68.20996
"2938",78.40208,68.22327
"2939",78.43137,68.23663
"2940",78.470436,68.24994
"2941",78.519264,68.263306
"2942",78.56565,68.27661
"2943",78.59495,68.28998
"2944",78.590065,68.30328
"2945",78.538795,68.31659
"2946",78.450905,68.329956
"2947",78.348366,68.34326
"2948",78.24826,68.35663
"2949",78.16281,68.369934
"2950",78.101776,68.3833
"2951",78.07248,68.39661
"2952",78.11398,68.40991
"2953",78.28245,68.42328
"2954",78.64622,68.436584
"2955",79.23949,68.44995
"2956",80.0354,68.46326
"2957",80.94362,68.47662
"2958",81.846954,68.48993
"2959",82.62089,68.503235
"2960",83.17021,68.5166
"2961",83.46807,68.52991
"2962",83.526665,68.543274
"2963",83.39727,68.55658
"2964",83.13359,68.56995
"2965",82.78935,68.58325
"2966",82.42069,68.59662
"2967",82.05203,68.609924
"2968",81.69314,68.62323
"2969",81.35378,68.6366
"2970",81.03639,68.6499
"2971",80.762955,68.66327
"2972",80.5481,68.676575
"2973",80.42115,68.68994
"2974",80.39918,68.70325
"2975",80.46754,68.71661
"2976",80.59693,68.72992
"2977",80.7483,68.743225
"2978",80.88258,68.75659
"2979",80.96071,68.7699
"2980",80.97536,68.783264
"2981",80.91676,68.79657
"2982",80.78493,68.80994
"2983",80.59449,68.82324
"2984",80.360115,68.83655
"2985",80.10376,68.849915
"2986",79.83765,68.86322
"2987",79.57641,68.87659
"2988",79.32983,68.88989
"2989",79.10277,68.90326
"2990",78.907455,68.916565
"2991",78.74876,68.92987
"2992",78.62913,68.94324
"2993",78.54612,68.95654
"2994",78.504616,68.96991
"2995",78.49729,68.983215
"2996",78.51194,68.99658
"2997",78.536354,69.00989
"2998",78.553444,69.023254
"2999",78.551,69.03656
"3000",78.521706,69.049866
"3001",78.47532,69.06323
"3002",78.41917,69.07654
"3003",78.3679,69.089905
"3004",78.34348,69.10321
"3005",78.37278,69.11658
"3006",78.48997,69.12988
"3007",78.74387,69.14325
"3008",79.168686,69.156555
"3009",79.7522,69.16986
"3010",80.43336,69.18323
"3011",81.13405,69.19653
"3012",81.76883,69.2099
"3013",82.25712,69.223206
"3014",82.562294,69.23657
"3015",82.68192,69.24988
"3016",82.62821,69.26318
"3017",82.43046,69.27655
"3018",82.108185,69.289856
"3019",81.705345,69.30322
"3020",81.26833,69.31653
"3021",80.82643,69.329895
"3022",80.411385,69.3432
"3023",80.042725,69.35651
"3024",79.73754,69.36987
"3025",79.51049,69.38318
"3026",79.381096,69.396545
"3027",79.3518,69.40985
"3028",79.42504,69.42322
"3029",79.57885,69.43652
"3030",79.781494,69.44989
"3031",79.97925,69.463196
"3032",80.14526,69.4765
"3033",80.24048,69.48987
"3034",80.25269,69.503174
"3035",80.17212,69.51654
"3036",80.0061,69.52985
"3037",79.77417,69.54321
"3038",79.50561,69.55652
"3039",79.23216,69.569885
"3040",78.98314,69.58319
"3041",78.77074,69.5965
"3042",78.59983,69.60986
"3043",78.46311,69.62317
"3044",78.35813,69.636536
"3045",78.27512,69.64984
"3046",78.21652,69.66321
"3047",78.18967,69.67651
"3048",78.187225,69.68982
"3049",78.18967,69.703186
"3050",78.18967,69.71649
"3051",78.18234,69.72986
"3052",78.17502,69.743164
"3053",78.16281,69.75653
"3054",78.167694,69.76984
"3055",78.23361,69.78314
"3056",78.41428,69.79651
"3057",78.765854,69.809814
"3058",79.32006,69.82318
"3059",80.05737,69.83649
"3060",80.90456,69.84985
"3061",81.7322,69.86316
"3062",82.4329,69.876526
"3063",82.92363,69.88983
"3064",83.17265,69.90314
"3065",83.19707,69.916504
"3066",83.03105,69.92981
"3067",82.718544,69.94318
"3068",82.30839,69.95648
"3069",81.846954,69.96985
"3070",81.375755,69.983154
"3071",80.93141,69.99652
"3072",80.52613,70.00983
"3073",80.16235,70.02313
"3074",79.84985,70.0365
"3075",79.60082,70.049805
"3076",79.44213,70.06317
"3077",79.381096,70.07648
"3078",79.42748,70.08984
"3079",79.55688,70.10315
"3080",79.742424,70.116455
"3081",79.94751,70.12982
"3082",80.14282,70.14313
"3083",80.291756,70.156494
"3084",80.37476,70.1698
"3085",80.377205,70.18317
"3086",80.29664,70.19647
"3087",80.15259,70.20978
"3088",79.96704,70.223145
"3089",79.764404,70.23645
"3090",79.5642,70.24982
"3091",79.37133,70.26312
"3092",79.185776,70.27649
"3093",79.00023,70.289795
"3094",78.80736,70.30316
"3095",78.59739,70.31647
"3096",78.38499,70.32977
"3097",78.19211,70.34314
"3098",78.03586,70.356445
"3099",77.93332,70.36981
"3100",77.8967,70.38312
"3101",77.93088,70.396484
"3102",78.06271,70.40979
"3103",78.34348,70.42316
"3104",78.81224,70.43646
"3105",79.466545,70.44977
"3106",80.2478,70.463135
"3107",81.05592,70.47644
"3108",81.778595,70.48981
"3109",82.32792,70.50311
"3110",82.667274,70.51648
"3111",82.81865,70.529785
"3112",82.81377,70.54309
"3113",82.68192,70.55646
"3114",82.44999,70.56976
"3115",82.14969,70.58313
"3116",81.80545,70.596436
"3117",81.44167,70.6098
"3118",81.08278,70.62311
"3119",80.74586,70.63641
"3120",80.448006,70.64978
"3121",80.19165,70.663086
"3122",79.96948,70.67645
"3123",79.7937,70.68976
"3124",79.676506,70.703125
"3125",79.62524,70.71643
"3126",79.63256,70.7298
"3127",79.676506,70.7431
"3128",79.73266,70.75641
"3129",79.76929,70.769775
"3130",79.77173,70.78308
"3131",79.7351,70.79645
"3132",79.67895,70.80975
"3133",79.60815,70.82312
"3134",79.53002,70.836426
"3135",79.43969,70.84979
"3136",79.33471,70.8631
"3137",79.21507,70.8764
"3138",79.093,70.88977
"3139",78.96361,70.903076
"3140",78.84154,70.91644
"3141",78.73167,70.92975
"3142",78.63157,70.943115
"3143",78.54368,70.95642
"3144",78.47532,70.96973
"3145",78.43137,70.98309
"3146",78.4387,70.9964
"3147",78.54368,71.009766
"3148",78.802475,71.02307
"3149",79.24437,71.03644
"3150",79.86206,71.04974
"3151",80.601814,71.06305
"3152",81.36599,71.076416
"3153",82.04227,71.08972
"3154",82.53788,71.10309
"3155",82.804,71.116394
"3156",82.83818,71.12976
"3157",82.67704,71.14307
"3158",82.38163,71.15643
"3159",82.02762,71.16974
"3160",81.668724,71.183044
"3161",81.33669,71.19641
"3162",81.0486,71.20972
"3163",80.79469,71.22308
"3164",80.56519,71.23639
"3165",80.360115,71.249756
"3166",80.19653,71.26306
"3167",80.08423,71.27643
"3168",80.03052,71.289734
"3169",80.028076,71.30304
"3170",80.0647,71.31641
"3171",80.1062,71.32971
"3172",80.130615,71.34308
"3173",80.11597,71.356384
"3174",80.042725,71.36975
"3175",79.91333,71.38306
"3176",79.7351,71.39636
"3177",79.52514,71.40973
"3178",79.30785,71.423035
"3179",79.10521,71.4364
"3180",78.922104,71.44971
"3181",78.76097,71.46307
"3182",78.626686,71.47638
"3183",78.52415,71.489685
"3184",78.44846,71.50305
"3185",78.40452,71.51636
"3186",78.382545,71.529724
"3187",78.37522,71.54303
"3188",78.35569,71.5564
"3189",78.31663,71.5697
"3190",78.24582,71.58307
"3191",78.16037,71.596375
"3192",78.0798,71.60968
"3193",78.04318,71.62305
"3194",78.10422,71.63635
"3195",78.32395,71.64972
"3196",78.74143,71.663025
"3197",79.35668,71.67639
"3198",80.11597,71.6897
"3199",80.92897,71.703064
"3200",81.68093,71.71637
"3201",82.269325,71.729675
"3202",82.62821,71.74304
"3203",82.75029,71.75635
"3204",82.6746,71.769714
"3205",82.45487,71.78302
"3206",82.15213,71.79639
"3207",81.82742,71.80969
"3208",81.50759,71.823
"3209",81.20241,71.836365
"3210",80.91432,71.84967
"3211",80.638435,71.86304
"3212",80.38697,71.87634
"3213",80.17456,71.88971
"3214",80.02319,71.903015
"3215",79.94263,71.91632
"3216",79.94263,71.92969
"3217",80.0061,71.94299
"3218",80.113525,71.95636
"3219",80.23071,71.969666
"3220",80.32838,71.98303
"3221",80.38209,71.99634
"3222",80.377205,72.009705
"3223",80.31129,72.02301
"3224",80.19653,72.036316
"3225",80.042725,72.04968
"3226",79.85962,72.06299
"3227",79.65942,72.076355
"3228",79.449455,72.08966
"3229",79.23949,72.10303
"3230",79.03929,72.11633
"3231",78.856186,72.1297
"3232",78.70725,72.143005
"3233",78.59251,72.15631
"3234",78.51682,72.16968
"3235",78.47776,72.18298
"3236",78.467995,72.19635
"3237",78.47776,72.209656
"3238",78.49241,72.22302
"3239",78.49485,72.23633
"3240",78.47288,72.24963
"3241",78.42649,72.263
"3242",78.37034,72.276306
"3243",78.328835,72.28967
"3244",78.348366,72.30298
"3245",78.47776,72.316345
"3246",78.765854,72.32965
"3247",79.24193,72.34296
"3248",79.88403,72.35632
"3249",80.62623,72.36963
"3250",81.373314,72.382996
"3251",82.01785,72.3963
"3252",82.46708,72.40967
"3253",82.69169,72.42297
"3254",82.71122,72.43634
"3255",82.5745,72.449646
"3256",82.34745,72.46295
"3257",82.09354,72.47632
"3258",81.85672,72.489624
"3259",81.6614,72.50299
"3260",81.50027,72.5163
"3261",81.36599,72.52966
"3262",81.23659,72.54297
"3263",81.10231,72.556335
"3264",80.97536,72.56964
"3265",80.87038,72.58295
"3266",80.80446,72.59631
"3267",80.78981,72.60962
"3268",80.82155,72.622986
"3269",80.87038,72.63629
"3270",80.902115,72.64966
"3271",80.87526,72.662964
"3272",80.765396,72.67627
"3273",80.56275,72.68964
"3274",80.2942,72.70294
"3275",79.9939,72.71631
"3276",79.7058,72.729614
"3277",79.45434,72.74298
"3278",79.24437,72.75629
"3279",79.07347,72.76959
"3280",78.94408,72.78296
"3281",78.853745,72.796265
"3282",78.81712,72.80963
"3283",78.84398,72.82294
"3284",78.92699,72.8363
"3285",79.03685,72.84961
"3286",79.14427,72.862976
"3287",79.219955,72.87628
"3288",79.22972,72.88959
"3289",79.16136,72.902954
"3290",79.03685,72.91626
"3291",78.89769,72.92963
"3292",78.768295,72.94293
"3293",78.67063,72.9563
"3294",78.61448,72.969604
"3295",78.58518,72.98297
"3296",78.5803,72.99628
"3297",78.60227,73.00958
"3298",78.692604,73.02295
"3299",78.89525,73.036255
"3300",79.26147,73.04962
"3301",79.81079,73.06293
"3302",80.52125,73.076294
"3303",81.324486,73.0896
"3304",82.11795,73.102905
"3305",82.78935,73.11627
"3306",83.24101,73.12958
"3307",83.42657,73.142944
"3308",83.370415,73.15625
"3309",83.12627,73.16962
"3310",82.77226,73.18292
"3311",82.38407,73.19623
"3312",82.01297,73.209595
"3313",81.68337,73.2229
"3314",81.38064,73.23627
"3315",81.10231,73.24957
"3316",80.84596,73.26294
"3317",80.618904,73.276245
"3318",80.43824,73.28961
"3319",80.31861,73.30292
"3320",80.27711,73.31622
"3321",80.32838,73.32959
"3322",80.465096,73.342896
"3323",80.64332,73.35626
"3324",80.81911,73.36957
"3325",80.94362,73.382935
"3326",80.987564,73.39624
"3327",80.938736,73.40961
"3328",80.8069,73.42291
"3329",80.618904,73.43622
"3330",80.4065,73.449585
"3331",80.18677,73.46289
"3332",79.96704,73.47626
"3333",79.75464,73.48956
"3334",79.55688,73.50293
"3335",79.378654,73.516235
"3336",79.21507,73.52954
"3337",79.07347,73.54291
"3338",78.96117,73.55621
"3339",78.88548,73.56958
"3340",78.836655,73.582886
"3341",78.80492,73.59625
"3342",78.77806,73.60956
"3343",78.74387,73.62286
"3344",78.695045,73.63623
"3345",78.63401,73.649536
"3346",78.56321,73.6629
"3347",78.487526,73.67621
"3348",78.40208,73.689575
"3349",78.3093,73.70288
"3350",78.204315,73.71625
"3351",78.101776,73.72955
"3352",78.009,73.74286
"3353",77.93576,73.756226
"3354",77.92844,73.76953
"3355",78.0676,73.7829
"3356",78.42405,73.7962
"3357",79.009995,73.80957
"3358",79.77417,73.822876
"3359",80.601814,73.83624
"3360",81.35378,73.84955
"3361",81.898224,73.862854
"3362",82.19852,73.87622
"3363",82.28397,73.88953
"3364",82.21805,73.90289
"3365",82.056915,73.9162
"3366",81.85916,73.929565
"3367",81.65652,73.94287
"3368",81.46853,73.95618
"3369",81.29275,73.96954
"3370",81.13161,73.98285
"3371",80.96803,73.996216
"3372",80.79469,74.00952
"3373",80.59205,74.02289
"3374",80.377205,74.036194
"3375",80.184326,74.0495
"3376",80.042725,74.06287
"3377",79.96704,74.07617
"3378",79.96948,74.08954
"3379",80.028076,74.102844
"3380",80.11841,74.11621
"3381",80.201416,74.12952
"3382",80.24536,74.14288
"3383",80.218506,74.15619
"3384",80.11841,74.169495
"3385",79.940186,74.18286
"3386",79.70092,74.19617
"3387",79.432365,74.20953
"3388",79.17601,74.22284
"3389",78.96361,74.236206
"3390",78.80736,74.24951
"3391",78.70725,74.26288
"3392",78.66819,74.276184
"3393",78.69016,74.28949
"3394",78.76097,74.30286
"3395",78.84642,74.31616
"3396",78.91234,74.32953
"3397",78.922104,74.342834
"3398",78.8513,74.3562
"3399",78.70725,74.36951
"3400",78.538795,74.38281
"3401",78.399635,74.39618
"3402",78.3093,74.409485
"3403",78.27512,74.42285
"3404",78.28733,74.43616
"3405",78.32395,74.449524
"3406",78.37034,74.46283
"3407",78.46067,74.476135
"3408",78.65598,74.4895
"3409",79.009995,74.50281
"3410",79.54711,74.516174
"3411",80.22827,74.52948
"3412",80.96803,74.54285
"3413",81.65652,74.55615
"3414",82.21561,74.56952
"3415",82.60868,74.582825
"3416",82.83086,74.59613
"3417",82.88945,74.6095
"3418",82.79668,74.6228
"3419",82.5745,74.63617
"3420",82.23514,74.649475
"3421",81.80789,74.66284
"3422",81.32937,74.67615
"3423",80.83864,74.689514
"3424",80.35767,74.70282
"3425",79.91089,74.716125
"3426",79.53246,74.72949
"3427",79.256584,74.7428
"3428",79.114975,74.756165
"3429",79.11742,74.76947
"3430",79.26635,74.78284
"3431",79.52514,74.79614
"3432",79.83276,74.80945
"3433",80.11841,74.822815
"3434",80.323494,74.83612
"3435",80.40406,74.84949
"3436",80.36744,74.86279
"3437",80.235596,74.87616
"3438",80.042725,74.889465
"3439",79.82056,74.90277
"3440",79.58373,74.91614
"3441",79.34203,74.92944
"3442",79.10277,74.94281
"3443",78.88548,74.956116
"3444",78.70725,74.96948
"3445",78.58762,74.98279
"3446",78.53147,74.996155
"3447",78.51194,75.00946
"3448",78.48264,75.02283
"3449",78.399635,75.03613
"3450",78.24338,75.0495
"3451",78.04074,75.062805
"3452",77.83566,75.07617
"3453",77.67452,75.08948
"3454",77.608604,75.102844
"3455",77.68673,75.11615
"3456",77.95041,75.12952
"3457",78.43626,75.14282
"3458",79.13939,75.15619
"3459",80.008545,75.169495
"3460",80.92897,75.18286
"3461",81.75662,75.19617
"3462",82.3621,75.20953
"3463",82.67948,75.22284
"3464",82.72343,75.236206
"3465",82.562294,75.24951
"3466",82.286415,75.26288
"3467",81.97879,75.276184
"3468",81.6907,75.28955
"3469",81.42458,75.30286
"3470",81.160904,75.31622
"3471",80.88991,75.32953
"3472",80.601814,75.342896
"3473",80.2942,75.3562
"3474",79.98413,75.36957
"3475",79.71313,75.38287
"3476",79.517815,75.39624
"3477",79.42748,75.409546
"3478",79.45678,75.42291
"3479",79.586174,75.43622
"3480",79.75464,75.449585
"3481",79.8938,75.46289
"3482",79.94263,75.47626
"3483",79.89624,75.48956
"3484",79.77661,75.50293
"3485",79.62768,75.516235
"3486",79.47875,75.5296
"3487",79.33227,75.54291
"3488",79.18089,75.556274
"3489",79.00023,75.56958
"3490",78.79515,75.58295
"3491",78.5803,75.59625
"3492",78.38499,75.60962
"3493",78.22873,75.622925
"3494",78.12619,75.63629
"3495",78.0676,75.6496
"3496",78.04318,75.662964
"3497",78.0383,75.67627
"3498",78.05051,75.68964
"3499",78.09445,75.70294
"3500",78.21164,75.71631
"3501",78.47532,75.729614
"3502",78.941635,75.74298
"3503",79.62035,75.75629
"3504",80.47242,75.76965
"3505",81.40017,75.78296
"3506",82.266884,75.796326
"3507",82.96025,75.80963
"3508",83.41436,75.823
"3509",83.62676,75.8363
"3510",83.6292,75.84967
"3511",83.47051,75.862976
"3512",83.19707,75.87634
"3513",82.862595,75.88965
"3514",82.5037,75.903015
"3515",82.13992,75.91632
"3516",81.78348,75.92969
"3517",81.43435,75.94299
"3518",81.08522,75.95636
"3519",80.743416,75.969666
"3520",80.4358,75.98303
"3521",80.184326,75.99634
"3522",80.02319,76.009705
"3523",79.96704,76.02301
"3524",80.008545,76.03638
"3525",80.10376,76.04968
"3526",80.216064,76.06305
"3527",80.31617,76.076355
"3528",80.37965,76.08972
"3529",80.38697,76.10303
"3530",80.33082,76.116394
"3531",80.20874,76.1297
"3532",80.03784,76.14307
"3533",79.818115,76.15637
"3534",79.57397,76.16974
"3535",79.32006,76.183044
"3536",79.06859,76.19641
"3537",78.81712,76.20972
"3538",78.56077,76.22308
"3539",78.30686,76.23639
"3540",78.0676,76.249756
"3541",77.855194,76.26306
"3542",77.68429,76.27643
"3543",77.57931,76.289734
"3544",77.57198,76.3031
"3545",77.71603,76.31641
"3546",78.07736,76.32977
"3547",78.6804,76.34308
"3548",79.49096,76.356445
"3549",80.40894,76.36975
"3550",81.307396,76.38312
"3551",82.039825,76.39642
"3552",82.52079,76.40979
"3553",82.735634,76.423096
"3554",82.720985,76.43646
"3555",82.533,76.44977
"3556",82.23514,76.463135
"3557",81.87381,76.47644
"3558",81.48806,76.48981
"3559",81.10475,76.50311
"3560",80.73853,76.51648
"3561",80.39185,76.529785
"3562",80.07202,76.54315
"3563",79.77905,76.55646
"3564",79.52758,76.569824
"3565",79.32983,76.58313
"3566",79.20775,76.5965
"3567",79.166245,76.6098
"3568",79.20775,76.62317
"3569",79.310295,76.636475
"3570",79.45434,76.64984
"3571",79.61303,76.66315
"3572",79.75952,76.67651
"3573",79.86694,76.68982
"3574",79.91089,76.703186
"3575",79.87671,76.71649
"3576",79.75952,76.72986
"3577",79.569084,76.743164
"3578",79.33227,76.75653
"3579",79.06859,76.76984
"3580",78.81224,76.7832
"3581",78.58274,76.79651
"3582",78.38987,76.809875
"3583",78.221405,76.82318
"3584",78.0676,76.83655
"3585",77.91867,76.84985
"3586",77.77463,76.86322
"3587",77.64767,76.876526
"3588",77.55489,76.88989
"3589",77.52804,76.9032
"3590",77.628136,76.916565
"3591",77.91135,76.92987
"3592",78.41428,76.94324
"3593",79.11986,76.95654
"3594",79.96216,76.96991
"3595",80.82643,76.983215
"3596",81.57595,76.99658
"3597",82.11551,77.00989
"3598",82.39872,77.023254
"3599",82.43778,77.03656
"3600",82.27665,77.04993
"3601",81.97391,77.06323
"3602",81.58572,77.0766
"3603",81.16579,77.089905
"3604",80.75807,77.10327
"3605",80.38453,77.11658
"3606",80.04761,77.129944
"3607",79.74975,77.14325
"3608",79.4934,77.15662
"3609",79.281,77.16992
"3610",79.12718,77.18329
"3611",79.044174,77.196594
"3612",79.04173,77.20996
"3613",79.114975,77.22327
"3614",79.24193,77.23663
"3615",79.3933,77.24994
"3616",79.54223,77.263306
"3617",79.66186,77.27661
"3618",79.74731,77.28998
"3619",79.781494,77.30328
"3620",79.764404,77.31665
"3621",79.693596,77.329956
"3622",79.57641,77.34332
"3623",79.4226,77.35663
"3624",79.25414,77.369995
"3625",79.078354,77.3833
"3626",78.9099,77.39667
"3627",78.74143,77.40997
"3628",78.56565,77.42334
"3629",78.38499,77.436646
"3630",78.21408,77.45001
"3631",78.07004,77.46332
"3632",77.99924,77.476685
"3633",78.05539,77.48999
"3634",78.3093,77.50336
"3635",78.80492,77.51666
"3636",79.52514,77.53003
"3637",80.39185,77.543335
"3638",81.28298,77.5567
"3639",82.05936,77.57001
"3640",82.598915,77.583374
"3641",82.845505,77.59668
"3642",82.811325,77.61005
"3643",82.55253,77.62335
"3644",82.15213,77.63672
"3645",81.6907,77.650024
"3646",81.24391,77.66339
"3647",80.84352,77.6767
"3648",80.49683,77.69006
"3649",80.18677,77.70337
"3650",79.888916,77.716736
"3651",79.59838,77.73004
"3652",79.31762,77.74341
"3653",79.07591,77.756714
"3654",78.90257,77.77008
"3655",78.82689,77.78339
"3656",78.84398,77.79675
"3657",78.93675,77.81006
"3658",79.07103,77.823425
"3659",79.20775,77.83673
"3660",79.31762,77.8501
"3661",79.39086,77.8634
"3662",79.4226,77.87677
"3663",79.42504,77.890076
"3664",79.38842,77.90344
"3665",79.310295,77.91675
"3666",79.19554,77.930115
"3667",79.04906,77.94342
"3668",78.87816,77.95679
"3669",78.69993,77.97009
"3670",78.521706,77.98346
"3671",78.35325,77.996765
"3672",78.19943,78.01013
"3673",78.07004,78.02344
"3674",77.97238,78.036804
"3675",77.91623,78.05011
"3676",77.91623,78.06348
"3677",78.00656,78.07678
"3678",78.24826,78.09015
"3679",78.692604,78.103455
"3680",79.36889,78.11682
"3681",80.233154,78.13013
"3682",81.18532,78.14349
"3683",82.10086,78.1568
"3684",82.85283,78.170166
"3685",83.35821,78.18347
"3686",83.59991,78.19684
"3687",83.60479,78.210144
"3688",83.421684,78.22351
"3689",83.11162,78.23682
"3690",82.72587,78.25018
"3691",82.31083,78.26349
"3692",81.90311,78.276855
"3693",81.52468,78.29016
"3694",81.17799,78.30353
"3695",80.87526,78.31683
"3696",80.61402,78.3302
"3697",80.39918,78.343506
"3698",80.23071,78.35687
"3699",80.1062,78.37018
"3700",80.028076,78.383545
"3701",79.99878,78.39685
"3702",80.01587,78.41022
"3703",80.06958,78.42352
"3704",80.14038,78.43689
"3705",80.201416,78.450195
"3706",80.22095,78.46356
"3707",80.17944,78.47687
"3708",80.07446,78.490234
"3709",79.91089,78.50354
"3710",79.70092,78.51691
"3711",79.466545,78.53021
"3712",79.217514,78.54358
"3713",78.96849,78.556885
"3714",78.73167,78.57025
"3715",78.519264,78.58356
"3716",78.34348,78.596924
"3717",78.2092,78.61023
"3718",78.11398,78.6236
"3719",78.048065,78.6369
"3720",77.99924,78.65027
"3721",77.94797,78.663574
"3722",77.87717,78.67694
"3723",77.78195,78.69025
"3724",77.679405,78.70361
"3725",77.593956,78.71692
"3726",77.574425,78.730286
"3727",77.68185,78.74359
"3728",77.996796,78.75696
"3729",78.55833,78.77026
"3730",79.35912,78.78363
"3731",80.31861,78.796936
"3732",81.31472,78.8103
"3733",82.2034,78.82361
"3734",82.865036,78.836975
"3735",83.23613,78.85028
"3736",83.32647,78.86365
"3737",83.18242,78.87695
"3738",82.8748,78.89032
"3739",82.46952,78.903625
"3740",82.0325,78.91699
"3741",81.60525,78.9303
"3742",81.214615,78.943665
"3743",80.867935,78.95697
"3744",80.567635,78.97034
"3745",80.30396,78.98364
"3746",80.079346,78.99701
"3747",79.89868,79.010315
"3748",79.764404,79.02368
"3749",79.68383,79.03699
"3750",79.6643,79.050354
"3751",79.70092,79.06366
"3752",79.783936,79.07703
"3753",79.89136,79.09033
"3754",79.99878,79.1037
"3755",80.08423,79.117004
"3756",80.130615,79.13037
"3757",80.12329,79.14368
"3758",80.05493,79.15704
"3759",79.92798,79.17035
"3760",79.74975,79.183716
"3761",79.53246,79.19702
"3762",79.29809,79.21039
"3763",79.063705,79.223694
"3764",78.84642,79.23706
"3765",78.65598,79.25037
"3766",78.49973,79.26373
"3767",78.382545,79.27704
"3768",78.30198,79.290405
"3769",78.25315,79.30371
"3770",78.23117,79.31708
"3771",78.22385,79.33038
"3772",78.21164,79.34375
"3773",78.184784,79.357056
"3774",78.153046,79.37042
"3775",78.13107,79.38373
"3776",78.1384,79.397095
"3777",78.19943,79.4104
"3778",78.363014,79.42377
"3779",78.677956,79.43707
"3780",79.18822,79.45044
"3781",79.903564,79.463745
"3782",80.780045,79.47711
"3783",81.705345,79.49042
"3784",82.55253,79.503784
"3785",83.20439,79.51709
"3786",83.59258,79.53046
"3787",83.71221,79.54376
"3788",83.612114,79.55713
"3789",83.35088,79.570435
"3790",82.99687,79.5838
"3791",82.58671,79.59711
"3792",82.161896,79.61047
"3793",81.74441,79.62378
"3794",81.35134,79.637146
"3795",80.987564,79.65045
"3796",80.66041,79.66382
"3797",80.37965,79.677124
"3798",80.14526,79.69049
"3799",79.96704,79.7038
"3800",79.85474,79.71716
"3801",79.82056,79.73047
"3802",79.86694,79.743835
"3803",79.97925,79.75714
"3804",80.13306,79.77051
"3805",80.30152,79.78381
"3806",80.45045,79.79718
"3807",80.552986,79.810486
"3808",80.59449,79.82385
"3809",80.56031,79.83716
"3810",80.45289,79.850525
"3811",80.27711,79.86383
"3812",80.04761,79.8772
"3813",79.77905,79.8905
"3814",79.49828,79.90387
"3815",79.22484,79.917175
"3816",78.97826,79.93054
"3817",78.77806,79.94385
"3818",78.641335,79.957214
"3819",78.572975,79.97052
"3820",78.56321,79.98389
"3821",78.58762,79.99719
"3822",78.61936,80.01056
"3823",78.63157,80.023865
"3824",78.59251,80.03723
"3825",78.5095,80.05054
"3826",78.39475,80.0639
"3827",78.28489,80.07721
"3828",78.21652,80.090576
"3829",78.24582,80.10388
"3830",78.43626,80.11725
"3831",78.853745,80.130554
"3832",79.51293,80.14392
"3833",80.36744,80.15723
"3834",81.324486,80.17059
"3835",82.25712,80.1839
"3836",83.03105,80.197266
"3837",83.546196,80.21057
"3838",83.775696,80.22394
"3839",83.75372,80.23724
"3840",83.53155,80.25061
"3841",83.177536,80.263916
"3842",82.75273,80.27728
"3843",82.31327,80.29059
"3844",81.88602,80.303955
"3845",81.48806,80.31726
"3846",81.1194,80.33063
"3847",80.78493,80.34393
"3848",80.48463,80.3573
"3849",80.218506,80.370605
"3850",80.00366,80.38397
"3851",79.85962,80.39728
"3852",79.798584,80.410645
"3853",79.83032,80.42395
"3854",79.94263,80.43732
"3855",80.10864,80.45062
"3856",80.28443,80.46399
"3857",80.43336,80.477295
"3858",80.533455,80.49066
"3859",80.567635,80.50397
"3860",80.53101,80.517334
"3861",80.42603,80.53064
"3862",80.26246,80.54401
"3863",80.04761,80.55731
"3864",79.801025,80.57068
"3865",79.54955,80.583984
"3866",79.30053,80.59735
"3867",79.07347,80.61066
"3868",78.86839,80.62402
"3869",78.68528,80.63733
"3870",78.521706,80.650696
"3871",78.38987,80.664
"3872",78.28001,80.67737
"3873",78.19943,80.690674
"3874",78.15549,80.70404
"3875",78.153046,80.71735
"3876",78.17746,80.73071
"3877",78.23117,80.74402
"3878",78.28977,80.757385
"3879",78.3386,80.77069
"3880",78.348366,80.78406
"3881",78.311745,80.79736
"3882",78.22873,80.81073
"3883",78.1091,80.824036
"3884",77.977264,80.8374
"3885",77.872284,80.85071
"3886",77.84299,80.864075
"3887",77.9675,80.87738
"3888",78.33372,80.89075
"3889",78.98802,80.90405
"3890",79.906006,80.91742
"3891",80.99245,80.930725
"3892",82.10574,80.94409
"3893",83.08476,80.9574
"3894",83.80011,80.970764
"3895",84.21271,80.98407
"3896",84.34699,80.99744
"3897",84.2591,81.01074
"3898",84.00763,81.02411
"3899",83.65362,81.037415
"3900",83.24101,81.05078
"3901",82.80888,81.06409
"3902",82.374306,81.07745
"3903",81.94949,81.09076
"3904",81.54421,81.104126
"3905",81.16823,81.11743
"3906",80.831314,81.1308
"3907",80.5481,81.144104
"3908",80.34058,81.15747
"3909",80.22827,81.17078
"3910",80.216064,81.18414
"3911",80.28687,81.19745
"3912",80.41871,81.210815
"3913",80.57252,81.22412
"3914",80.709236,81.23749
"3915",80.797134,81.25079
"3916",80.81911,81.26416
"3917",80.77516,81.277466
"3918",80.66285,81.29083
"3919",80.48463,81.30414
"3920",80.25269,81.317505
"3921",79.97681,81.33081
"3922",79.674065,81.34418
"3923",79.37133,81.35748
"3924",79.09544,81.37085
"3925",78.86107,81.384155
"3926",78.67063,81.39752
"3927",78.519264,81.41083
"3928",78.40208,81.424194
"3929",78.30686,81.4375
"3930",78.23117,81.45087
"3931",78.17502,81.46417
"3932",78.14084,81.47754
"3933",78.12863,81.490845
"3934",78.1384,81.50421
"3935",78.167694,81.51752
"3936",78.21164,81.53088
"3937",78.25315,81.54419
"3938",78.27024,81.557556
"3939",78.25315,81.57086
"3940",78.204315,81.58423
"3941",78.135956,81.597534
"3942",78.07248,81.6109
"3943",78.04318,81.62421
"3944",78.07492,81.63757
"3945",78.20676,81.65088
"3946",78.48997,81.664246
"3947",78.98558,81.67755
"3948",79.727776,81.69092
"3949",80.68726,81.70422
"3950",81.77615,81.71759
"3951",82.86748,81.730896
"3952",83.81964,81.74426
"3953",84.5301,81.75757
"3954",84.95735,81.770935
"3955",85.11604,81.78424
"3956",85.04768,81.79761
"3957",84.81087,81.81091
"3958",84.45197,81.82428
"3959",84.02228,81.837585
"3960",83.560844,81.85095
"3961",83.09697,81.86426
"3962",82.65751,81.877625
"3963",82.24979,81.89093
"3964",81.87625,81.9043
"3965",81.53689,81.9176
"3966",81.234146,81.93097
"3967",80.987564,81.944275
"3968",80.816666,81.95764
"3969",80.73853,81.97095
"3970",80.75807,81.984314
"3971",80.84596,81.99762
"3972",80.96315,82.01099
"3973",81.07057,82.02429
"3974",81.126724,82.03766
"3975",81.112076,82.050964
"3976",81.01198,82.06433
"3977",80.8362,82.07764
"3978",80.584724,82.091
"3979",80.27955,82.10431
"3980",79.95239,82.117676
"3981",79.622795,82.13098
"3982",79.31274,82.14435
"3983",79.03685,82.15765
"3984",78.80003,82.17102
"3985",78.59739,82.184326
"3986",78.42893,82.19769
"3987",78.2971,82.211
"3988",78.2092,82.224365
"3989",78.16281,82.23767
"3990",78.16037,82.25104
"3991",78.18234,82.26434
"3992",78.20676,82.27771
"3993",78.2092,82.291016
"3994",78.16525,82.30438
"3995",78.07736,82.31769
"3996",77.96994,82.331055
"3997",77.87717,82.34436
"3998",77.840546,82.35773
"3999",77.91867,82.37103
"4000",78.17258,82.3844
"4001",78.658424,82.397705
"4002",79.381096,82.41107
"4003",80.30396,82.42438
"4004",81.33669,82.437744
"4005",82.354774,82.45105
"4006",83.23125,82.46442
"4007",83.87579,82.47772
"4008",84.25666,82.49109
"4009",84.386055,82.504395
"4010",84.30793,82.51776
"4011",84.068665,82.53107
"4012",83.717094,82.54443
"4013",83.302055,82.55774
"4014",82.86015,82.571106
"4015",82.406044,82.58441
"4016",81.95438,82.59778
"4017",81.50515,82.611084
"4018",81.075455,82.62445
"4019",80.68482,82.63776
"4020",80.36256,82.65112
"4021",80.1355,82.66443
"4022",80.025635,82.677795
"4023",80.025635,82.6911
"4024",80.10864,82.70447
"4025",80.23071,82.71777
"4026",80.35523,82.73114
"4027",80.45289,82.744446
"4028",80.49683,82.75781
"4029",80.47486,82.77112
"4030",80.38453,82.784485
"4031",80.22339,82.79779
"4032",79.99878,82.81116
"4033",79.727776,82.82446
"4034",79.43481,82.83783
"4035",79.14427,82.851135
"4036",78.873276,82.8645
"4037",78.641335,82.87781
"4038",78.44846,82.891174
"4039",78.29954,82.90448
"4040",78.184784,82.91785
"4041",78.09445,82.93115
"4042",78.01633,82.94452
"4043",77.93332,82.957825
"4044",77.83322,82.97119
"4045",77.72335,82.9845
"4046",77.608604,82.99786
"4047",77.51827,83.01117
"4048",77.47433,83.024536
"4049",77.5256,83.03784
"4050",77.73556,83.05121
"4051",78.167694,83.064514
"4052",78.84642,83.07788
"4053",79.75464,83.09119
"4054",80.80202,83.10455
"4055",81.86893,83.11786
"4056",82.811325,83.131226
"4057",83.5169,83.14453
"4058",83.929504,83.1579
"4059",84.05646,83.1712
"4060",83.93683,83.18457
"4061",83.62676,83.197876
"4062",83.20439,83.21124
"4063",82.72831,83.22455
"4064",82.24246,83.237915
"4065",81.76883,83.25122
"4066",81.322044,83.26459
"4067",80.902115,83.27789
"4068",80.516365,83.29126
"4069",80.181885,83.304565
"4070",79.923096,83.31793
"4071",79.75464,83.33124
"4072",79.68627,83.344604
"4073",79.71557,83.35791
"4074",79.823,83.37128
"4075",79.96216,83.38458
"4076",80.10132,83.39795
"4077",80.201416,83.411255
"4078",80.25025,83.42462
"4079",80.23071,83.43793
"4080",80.14282,83.451294
"4081",79.991455,83.4646
"4082",79.783936,83.47797
"4083",79.53246,83.49127
"4084",79.24681,83.50464
"4085",78.94896,83.517944
"4086",78.658424,83.53131
"4087",78.38987,83.54462
"4088",78.153046,83.55798
"4089",77.95773,83.57129
"4090",77.806366,83.584656
"4091",77.69894,83.59796
"4092",77.625694,83.61133
"4093",77.574425,83.62463
"4094",77.53048,83.638
"4095",77.47921,83.651306
"4096",77.40353,83.66467
"4097",77.30587,83.67798
"4098",77.20332,83.691345
"4099",77.1252,83.70465
"4100",77.1252,83.71802
"4101",77.28634,83.73132
"4102",77.68429,83.74469
"4103",78.35813,83.757996
"4104",79.28344,83.77136
"4105",80.38209,83.78467
"4106",81.52712,83.798035
"4107",82.56962,83.81134
"4108",83.389946,83.82471
"4109",83.929504,83.83801
"4110",84.18097,83.85138
"4111",84.18829,83.864685
"4112",84.017395,83.87805
"4113",83.72686,83.89136
"4114",83.3753,83.904724
"4115",82.99199,83.91803
"4116",82.598915,83.9314
"4117",82.20584,83.9447
"4118",81.8201,83.95807
"4119",81.45144,83.971375
"4120",81.12184,83.98474
"4121",80.84596,83.99805
"4122",80.638435,84.01141
"4123",80.516365,84.02472
"4124",80.48463,84.038086
"4125",80.52369,84.05139
"4126",80.604256,84.06476
"4127",80.689705,84.078064
"4128",80.7483,84.09143
"4129",80.76051,84.10474
"4130",80.71168,84.1181
"4131",80.59937,84.13141
"4132",80.42359,84.144775
"4133",80.184326,84.15808
"4134",79.87915,84.17145
"4135",79.534904,84.18475
"4136",79.17601,84.19812
"4137",78.82445,84.211426
"4138",78.50706,84.22479
"4139",78.24094,84.2381
"4140",78.03342,84.251465
"4141",77.88449,84.26477
"4142",77.79172,84.27814
"4143",77.74288,84.29144
"4144",77.72335,84.30481
"4145",77.70138,84.318115
"4146",77.659874,84.33148
"4147",77.58663,84.34479
"4148",77.49142,84.358154
"4149",77.39376,84.37146
"4150",77.330284,84.38483
"4151",77.34005,84.39813
"4152",77.471886,84.4115
"4153",77.78439,84.424805
"4154",78.32395,84.43817
"4155",79.11009,84.45148
"4156",80.09888,84.46484
"4157",81.20485,84.47815
"4158",82.30595,84.491516
"4159",83.27032,84.50482
"4160",83.99298,84.51819
"4161",84.43244,84.531494
"4162",84.596016,84.54486
"4163",84.525215,84.55817
"4164",84.283516,84.57153
"4165",83.93439,84.58484
"4166",83.53399,84.598206
"4167",83.11894,84.61151
"4168",82.701454,84.62488
"4169",82.28886,84.63818
"4170",81.88846,84.65155
"4171",81.51003,84.664856
"4172",81.16823,84.67822
"4173",80.88747,84.69153
"4174",80.69215,84.704895
"4175",80.59693,84.7182
"4176",80.59693,84.73157
"4177",80.66773,84.74487
"4178",80.7776,84.75824
"4179",80.88014,84.771545
"4180",80.94362,84.78491
"4181",80.94606,84.79822
"4182",80.87282,84.811584
"4183",80.723885,84.82489
"4184",80.50172,84.83826
"4185",80.21118,84.85156
"4186",79.87671,84.86493
"4187",79.51537,84.878235
"4188",79.15892,84.8916
"4189",78.83177,84.90491
"4190",78.555885,84.918274
"4191",78.345924,84.93158
"4192",78.19943,84.94495
"4193",78.1091,84.95825
"4194",78.06027,84.97162
"4195",78.03586,84.984924
"4196",78.013885,84.99829
"4197",77.979706,85.0116
"4198",77.92111,85.02496
"4199",77.83078,85.03827
"4200",77.71603,85.051636
"4201",77.593956,85.06494
"4202",77.503624,85.07831
"4203",77.49874,85.09161
"4204",77.662315,85.10498
"4205",78.06027,85.118286
"4206",78.72678,85.13165
"4207",79.64477,85.14496
"4208",80.726326,85.158325
"4209",81.85428,85.17163
"4210",82.88457,85.185
"4211",83.700005,85.1983
"4212",84.23712,85.21167
"4213",84.491035,85.224976
"4214",84.488594,85.23834
"4215",84.29572,85.25165
"4216",83.980774,85.265015
"4217",83.595024,85.27832
"4218",83.16777,85.29169
"4219",82.71366,85.30499
"4220",82.2449,85.31836
"4221",81.761505,85.331665
"4222",81.28542,85.34503
"4223",80.84352,85.35834
"4224",80.45533,85.371704
"4225",80.14282,85.38501
"4226",79.91821,85.39838
"4227",79.78882,85.41168
"4228",79.73998,85.42505
"4229",79.73998,85.438354
"4230",79.75464,85.45172
"4231",79.742424,85.46503
"4232",79.66918,85.47839
"4233",79.52758,85.4917
"4234",79.32494,85.505066
"4235",79.07591,85.51837
"4236",78.79759,85.53174
"4237",78.49973,85.545044
"4238",78.19455,85.55841
"4239",77.88449,85.57172
"4240",77.57931,85.58508
"4241",77.29122,85.59839
"4242",77.03731,85.611755
"4243",76.83467,85.62506
"4244",76.69306,85.63843
"4245",76.610054,85.65173
"4246",76.578316,85.6651
"4247",76.592964,85.678406
"4248",76.64423,85.69177
"4249",76.7248,85.70508
"4250",76.822464,85.718445
"4251",76.927444,85.73175
"4252",77.02266,85.74512
"4253",77.07637,85.75842
"4254",77.069046,85.77179
"4255",77.00069,85.785095
"4256",76.87129,85.79846
"4257",76.70771,85.81177
"4258",76.54902,85.825134
"4259",76.44648,85.83844
"4260",76.453804,85.85181
"4261",76.64423,85.86511
"4262",77.0959,85.87848
"4263",77.84299,85.891785
"4264",78.85863,85.90515
"4265",80.062256,85.91846
"4266",81.31472,85.93182
"4267",82.46708,85.94513
"4268",83.39971,85.958496
"4269",84.054016,85.9718
"4270",84.41535,85.98517
"4271",84.51301,85.998474
"4272",84.40559,86.01184
"4273",84.156555,86.02515
"4274",83.82941,86.03851
"4275",83.46075,86.05182
"4276",83.08476,86.065186
"4277",82.703896,86.07849
"4278",82.32304,86.09186
"4279",81.94705,86.10516
"4280",81.59304,86.11853
"4281",81.28054,86.131836
"4282",81.02174,86.1452
"4283",80.84108,86.15851
"4284",80.73853,86.171875
"4285",80.71168,86.18518
"4286",80.73609,86.19855
"4287",80.782486,86.21185
"4288",80.816666,86.22522
"4289",80.8069,86.238525
"4290",80.73365,86.25189
"4291",80.58961,86.2652
"4292",80.38697,86.278564
"4293",80.128174,86.29187
"4294",79.82788,86.30524
"4295",79.500725,86.31854
"4296",79.166245,86.33191
"4297",78.83421,86.345215
"4298",78.52659,86.35858
"4299",78.24582,86.37189
"4300",77.99924,86.385254
"4301",77.786835,86.39856
"4302",77.61593,86.41193
"4303",77.47677,86.42523
"4304",77.37179,86.4386
"4305",77.29122,86.451904
"4306",77.22774,86.46527
"4307",77.17403,86.47858
"4308",77.14229,86.49194
"4309",77.137405,86.50525
"4310",77.14961,86.518616
"4311",77.16426,86.53192
"4312",77.1667,86.54529
"4313",77.152054,86.55859
"4314",77.11543,86.57196
"4315",77.07149,86.585266
"4316",77.03487,86.59863
"4317",77.032425,86.61194
"4318",77.0959,86.625305
"4319",77.27657,86.63861
"4320",77.65255,86.65198
"4321",78.294655,86.66528
"4322",79.21507,86.67865
"4323",80.35523,86.691956
"4324",81.61257,86.70532
"4325",82.8333,86.71863
"4326",83.86847,86.731995
"4327",84.613106,86.7453
"4328",85.0428,86.75867
"4329",85.17464,86.77197
"4330",85.06233,86.78534
"4331",84.78645,86.798645
"4332",84.41291,86.81201
"4333",84.000305,86.82532
"4334",83.580376,86.838684
"4335",83.16533,86.85199
"4336",82.757614,86.86536
"4337",82.36454,86.87866
"4338",81.99588,86.89203
"4339",81.65652,86.905334
"4340",81.37087,86.9187
"4341",81.15846,86.93201
"4342",81.03395,86.94537
"4343",80.9778,86.95868
"4344",80.9778,86.972046
"4345",80.99977,86.98535
"4346",81.0193,86.99872
"4347",80.99977,87.012024
"4348",80.92897,87.02539
"4349",80.79225,87.0387
"4350",80.59205,87.05206
"4351",80.33082,87.06537
"4352",80.02075,87.078735
"4353",79.68383,87.09204
"4354",79.33959,87.10541
"4355",79.009995,87.11871
"4356",78.712135,87.13208
"4357",78.45335,87.145386
"4358",78.238495,87.15875
"4359",78.065155,87.17206
"4360",77.91867,87.185425
"4361",77.80148,87.19873
"4362",77.70382,87.2121
"4363",77.625694,87.2254
"4364",77.55978,87.23877
"4365",77.506065,87.252075
"4366",77.454796,87.26544
"4367",77.401085,87.27875
"4368",77.34249,87.292114
"4369",77.27657,87.30542
"4370",77.196,87.31879
"4371",77.09834,87.33209
"4372",76.978714,87.34546
"4373",76.83467,87.358765
"4374",76.67841,87.37213
"4375",76.53925,87.38544
"4376",76.44404,87.3988
"4377",76.453804,87.41211
"4378",76.64423,87.425476
"4379",77.07881,87.43878
"4380",77.78195,87.45215
"4381",78.72678,87.465454
"4382",79.82788,87.47882
"4383",80.96071,87.49213
"4384",81.986115,87.50549
"4385",82.794235,87.5188
"4386",83.32891,87.532166
"4387",83.58282,87.54547
"4388",83.58282,87.55884
"4389",83.39483,87.57214
"4390",83.087204,87.58551
"4391",82.72343,87.598816
"4392",82.34745,87.61218
"4393",81.97391,87.62549
"4394",81.602806,87.638855
"4395",81.231705,87.65216
"4396",80.87038,87.66553
"4397",80.533455,87.67883
"4398",80.24536,87.6922
"4399",80.025635,87.705505
"4400",79.886475,87.71887
"4401",79.84009,87.73218
"4402",79.869385,87.745544
"4403",79.95239,87.75885
"4404",80.062256,87.77222
"4405",80.164795,87.78552
"4406",80.22583,87.79889
"4407",80.22827,87.812195
"4408",80.15991,87.82556
"4409",80.02319,87.83887
"4410",79.82788,87.852234
"4411",79.59106,87.86554
"4412",79.32983,87.87891
"4413",79.06859,87.89221
"4414",78.82201,87.90558
"4415",78.59983,87.918884
"4416",78.4094,87.93225
"4417",78.24826,87.94556
"4418",78.116425,87.95892
"4419",78.00412,87.97223
"4420",77.908905,87.985596
"4421",77.823456,87.9989
"4422",77.74044,88.01227
"4423",77.65499,88.02557
"4424",77.57198,88.03894
"4425",77.49142,88.052246
"4426",77.41573,88.06561
"4427",77.35226,88.07892
"4428",77.30587,88.092285
"4429",77.27169,88.10559
"4430",77.25216,88.11896
"4431",77.24727,88.13226
"4432",77.239944,88.14563
"4433",77.21553,88.158936
"4434",77.16426,88.1723
"4435",77.07393,88.18561
"4436",76.95186,88.198975
"4437",76.8127,88.21228
"4438",76.69062,88.22565
"4439",76.63935,88.23895
"4440",76.72724,88.25232
"4441",77.04219,88.265625
"4442",77.65011,88.27899
"4443",78.57542,88.2923
"4444",79.7522,88.305664
"4445",81.07057,88.31897
"4446",82.371864,88.33234
"4447",83.50225,88.34564
"4448",84.34455,88.35901
"4449",84.85481,88.372314
"4450",85.0428,88.38568
"4451",84.96712,88.39899
"4452",84.70344,88.41235
"4453",84.33967,88.42566
"4454",83.94171,88.439026
"4455",83.55108,88.45233
"4456",83.17021,88.4657
"4457",82.794235,88.479004
"4458",82.41093,88.49237
"4459",82.02518,88.50568
"4460",81.651634,88.51904
"4461",81.31472,88.53235
"4462",81.041275,88.545715
"4463",80.850845,88.55902
"4464",80.74586,88.57239
"4465",80.71656,88.58569
"4466",80.72144,88.59906
"4467",80.72877,88.612366
"4468",80.70435,88.62573
"4469",80.62623,88.63904
"4470",80.48951,88.652405
"4471",80.31373,88.66571
"4472",80.10864,88.67908
"4473",79.87427,88.69238
"4474",79.61791,88.70575
"4475",79.33959,88.719055
"4476",79.04173,88.73242
"4477",78.73655,88.74573
"4478",78.44358,88.759094
"4479",78.17258,88.7724
"4480",77.94064,88.78577
"4481",77.747765,88.79907
"4482",77.5964,88.81244
"4483",77.486534,88.825745
"4484",77.40841,88.83911
"4485",77.3547,88.85242
"4486",77.31808,88.86578
"4487",77.29366,88.87909
"4488",77.27657,88.892456
"4489",77.264366,88.90576
"4490",77.2546,88.91913
"4491",77.24483,88.932434
"4492",77.23262,88.9458
"4493",77.222855,88.95911
"4494",77.21309,88.97247
"4495",77.21553,88.98578
"4496",77.22774,88.999146
"4497",77.2375,89.01245
"4498",77.23506,89.02582
"4499",77.205765,89.03912
"4500",77.134964,89.05249
"4501",77.032425,89.065796
"4502",76.93721,89.07916
"4503",76.876175,89.09247
"4504",76.88838,89.105835
"4505",77.01289,89.11914
"4506",77.30831,89.13251
"4507",77.83566,89.14581
"4508",78.63401,89.15918
"4509",79.68383,89.172485
"4510",80.92409,89.18585
"4511",82.21805,89.19916
"4512",83.41436,89.212524
"4513",84.37385,89.22583
"4514",85.02571,89.2392
"4515",85.35531,89.2525
"4516",85.40414,89.26587
"4517",85.23323,89.279175
"4518",84.91341,89.29254
"4519",84.508125,89.30585
"4520",84.06622,89.319214
"4521",83.612114,89.33252
"4522",83.17021,89.34589
"4523",82.75273,89.35919
"4524",82.36942,89.37256
"4525",82.03494,89.385864
"4526",81.75418,89.39923
"4527",81.532005,89.41254
"4528",81.37087,89.4259
"4529",81.27322,89.43921
"4530",81.23659,89.452576
"4531",81.24635,89.46588
"4532",81.28298,89.47925
"4533",81.3196,89.49255
"4534",81.33181,89.50592
"4535",81.30251,89.519226
"4536",81.21706,89.53259
"4537",81.077896,89.5459
"4538",80.88258,89.559265
"4539",80.635994,89.57257
"4540",80.34058,89.58594
"4541",80.01831,89.59924
"4542",79.67895,89.61261
"4543",79.33715,89.625916
"4544",79.00755,89.63928
"4545",78.70481,89.65259
"4546",78.433815,89.665955
"4547",78.19943,89.67926
"4548",78.009,89.69263
"4549",77.86496,89.70593
"4550",77.769745,89.7193
"4551",77.71114,89.732605
"4552",77.68429,89.74597
"4553",77.679405,89.75928
"4554",77.68673,89.772644
"4555",77.69894,89.78595
"4556",77.72091,89.79932
"4557",77.74288,89.81262
"4558",77.7673,89.82599
"4559",77.78195,89.839294
