"","ppg","time"
"1",78.133514,744.07196
"2",78.0676,744.08527
"3",78.02121,744.0986
"4",77.98459,744.1119
"5",77.94797,744.1252
"6",77.908905,744.1385
"7",77.87961,744.1518
"8",77.89914,744.1651
"9",78.05295,744.1784
"10",78.44114,744.1917
"11",79.11742,744.205
"12",80.042725,744.2183
"13",81.08766,744.2316
"14",82.06424,744.24493
"15",82.78447,744.25824
"16",83.14824,744.27155
"17",83.14824,744.28485
"18",82.862595,744.29816
"19",82.39872,744.31146
"20",81.85428,744.32477
"21",81.30007,744.3381
"22",80.780045,744.3514
"23",80.31129,744.3647
"24",79.91089,744.378
"25",79.586174,744.3913
"26",79.34692,744.4046
"27",79.20775,744.4179
"28",79.17845,744.4312
"29",79.24681,744.4445
"30",79.40307,744.4578
"31",79.61059,744.4711
"32",79.83032,744.48444
"33",80.025635,744.49774
"34",80.16724,744.51105
"35",80.23071,744.52435
"36",80.216064,744.53766
"37",80.14282,744.55096
"38",80.0354,744.5643
"39",79.91333,744.5776
"40",79.79126,744.5909
"41",79.67162,744.6042
"42",79.551994,744.6175
"43",79.432365,744.6308
"44",79.32006,744.6441
"45",79.217514,744.6574
"46",79.12962,744.6707
"47",79.05394,744.684
"48",78.99046,744.6973
"49",78.93675,744.71063
"50",78.88548,744.72394
"51",78.836655,744.73724
"52",78.79271,744.75055
"53",78.75609,744.76385
"54",78.73899,744.77716
"55",78.7805,744.79047
"56",78.96605,744.8038
"57",79.378654,744.8171
"58",80.04761,744.8304
"59",80.91676,744.8437
"60",81.87381,744.857
"61",82.7454,744.8703
"62",83.35577,744.8836
"63",83.61944,744.8969
"64",83.54864,744.9102
"65",83.2166,744.9235
"66",82.7161,744.9368
"67",82.13992,744.95013
"68",81.55886,744.96344
"69",81.01198,744.97675
"70",80.51392,744.99005
"71",80.07446,745.00336
"72",79.708244,745.01666
"73",79.432365,745.02997
"74",79.26391,745.0433
"75",79.217514,745.0566
"76",79.29565,745.0699
"77",79.47387,745.0832
"78",79.71557,745.0965
"79",79.971924,745.1098
"80",80.198975,745.1231
"81",80.36744,745.1364
"82",80.45533,745.1497
"83",80.465096,745.163
"84",80.40894,745.17633
"85",80.30396,745.18964
"86",80.16724,745.20294
"87",80.01099,745.21625
"88",79.84009,745.22955
"89",79.66186,745.24286
"90",79.48852,745.25616
"91",79.33471,745.2695
"92",79.21019,745.2828
"93",79.1223,745.2961
"94",79.061264,745.3094
"95",79.009995,745.3227
"96",78.958725,745.336
"97",78.90013,745.3493
"98",78.84642,745.3626
"99",78.81468,745.3759
"100",78.86351,745.3892
"101",79.07591,745.4025
"102",79.5227,745.41583
"103",80.218506,745.42914
"104",81.09743,745.44244
"105",82.022736,745.45575
"106",82.82109,745.46906
"107",83.346,745.48236
"108",83.53399,745.49567
"109",83.40948,745.509
"110",83.05058,745.5223
"111",82.55009,745.5356
"112",81.98367,745.5489
"113",81.392845,745.5622
"114",80.82155,745.5755
"115",80.2942,745.5888
"116",79.82544,745.6021
"117",79.43481,745.6154
"118",79.14671,745.6287
"119",78.97093,745.642
"120",78.922104,745.65533
"121",79.00267,745.66864
"122",79.19554,745.68195
"123",79.45922,745.69525
"124",79.7351,745.70856
"125",79.98657,745.72186
"126",80.15991,745.73517
"127",80.24048,745.7485
"128",80.233154,745.7618
"129",80.16724,745.7751
"130",80.06714,745.7884
"131",79.954834,745.8017
"132",79.83765,745.815
"133",79.71801,745.8283
"134",79.586174,745.8416
"135",79.449455,745.8549
"136",79.31274,745.8682
"137",79.183334,745.88153
"138",79.06615,745.89484
"139",78.96361,745.90814
"140",78.88304,745.92145
"141",78.853745,745.93475
"142",78.94652,745.94806
"143",79.24925,745.96136
"144",79.818115,745.9747
"145",80.62379,745.988
"146",81.57107,746.0013
"147",82.50126,746.0146
"148",83.24101,746.0279
"149",83.67071,746.0412
"150",83.76105,746.0545
"151",83.5584,746.0678
"152",83.15068,746.0811
"153",82.62821,746.0944
"154",82.05936,746.1077
"155",81.4905,746.12103
"156",80.9485,746.13434
"157",80.445564,746.14764
"158",80.00366,746.16095
"159",79.64477,746.17426
"160",79.38598,746.18756
"161",79.24925,746.20087
"162",79.24681,746.2142
"163",79.364006,746.2275
"164",79.57885,746.2408
"165",79.84253,746.2541
"166",80.10864,746.2674
"167",80.33082,746.2807
"168",80.47486,746.294
"169",80.5359,746.3073
"170",80.52125,746.3206
"171",80.445564,746.3339
"172",80.31861,746.3472
"173",80.15991,746.36053
"174",79.97925,746.37384
"175",79.78638,746.38715
"176",79.59838,746.40045
"177",79.42504,746.41376
"178",79.27123,746.42706
"179",79.13939,746.44037
"180",79.03441,746.4537
"181",78.97826,746.467
"182",79.029526,746.4803
"183",79.27856,746.4936
"184",79.798584,746.5069
"185",80.584724,746.5202
"186",81.54421,746.5335
"187",82.513466,746.5468
"188",83.30938,746.5601
"189",83.78546,746.5734
"190",83.895325,746.58673
"191",83.69268,746.60004
"192",83.2752,746.61334
"193",82.74296,746.62665
"194",82.176544,746.63995
"195",81.62234,746.65326
"196",81.10475,746.66656
"197",80.63111,746.6799
"198",80.201416,746.6932
"199",79.82544,746.7065
"200",79.5227,746.7198
"201",79.32006,746.7331
"202",79.237045,746.7464
"203",79.273674,746.7597
"204",79.412834,746.773
"205",79.605705,746.7863
"206",79.81079,746.7996
"207",79.98413,746.8129
"208",80.093994,746.82623
"209",80.13794,746.83954
"210",80.113525,746.85284
"211",80.03052,746.86615
"212",79.903564,746.87946
"213",79.73754,746.89276
"214",79.54223,746.90607
"215",79.32494,746.9194
"216",79.11253,746.9327
"217",78.91478,746.946
"218",78.746315,746.9593
"219",78.61448,746.9726
"220",78.52903,746.9859
"221",78.519264,746.9992
"222",78.660866,747.0125
"223",79.046616,747.0258
"224",79.727776,747.0391
"225",80.66041,747.0524
"226",81.705345,747.06573
"227",82.68192,747.07904
"228",83.40948,747.09235
"229",83.773254,747.10565
"230",83.78546,747.11896
"231",83.53155,747.13226
"232",83.11406,747.14557
"233",82.62821,747.1589
"234",82.12283,747.1722
"235",81.6321,747.1855
"236",81.163345,747.1988
"237",80.719,747.2121
"238",80.31373,747.2254
"239",79.971924,747.2387
"240",79.71313,747.252
"241",79.55688,747.2653
"242",79.51293,747.2786
"243",79.57397,747.29193
"244",79.69604,747.30524
"245",79.84009,747.31854
"246",79.9646,747.33185
"247",80.03784,747.34515
"248",80.04028,747.35846
"249",79.97681,747.37177
"250",79.85962,747.3851
"251",79.708244,747.3984
"252",79.52758,747.4117
"253",79.33227,747.425
"254",79.13451,747.4383
"255",78.93675,747.4516
"256",78.74387,747.4649
"257",78.56077,747.4782
"258",78.38743,747.4915
"259",78.238495,747.5048
"260",78.12375,747.5181
"261",78.07492,747.53143
"262",78.15793,747.54474
"263",78.470436,747.55804
"264",79.07591,747.57135
"265",79.9646,747.58466
"266",81.03395,747.59796
"267",82.12283,747.61127
"268",83.035934,747.6246
"269",83.61944,747.6379
"270",83.824524,747.6512
"271",83.700005,747.6645
"272",83.33379,747.6778
"273",82.828415,747.6911
"274",82.266884,747.7044
"275",81.705345,747.7177
"276",81.16823,747.731
"277",80.672615,747.7443
"278",80.23071,747.7576
"279",79.85474,747.77094
"280",79.55932,747.78424
"281",79.35668,747.79755
"282",79.25414,747.81085
"283",79.24925,747.82416
"284",79.32006,747.83746
"285",79.44457,747.85077
"286",79.58129,747.8641
"287",79.693596,747.8774
"288",79.75464,747.8907
"289",79.74731,747.904
"290",79.674065,747.9173
"291",79.54955,747.9306
"292",79.395744,747.9439
"293",79.22972,747.9572
"294",79.06615,747.9705
"295",78.905014,747.9838
"296",78.746315,747.99713
"297",78.590065,748.01044
"298",78.4387,748.02374
"299",78.29954,748.03705
"300",78.18234,748.05035
"301",78.0798,748.06366
"302",77.99191,748.07697
"303",77.908905,748.0903
"304",77.84299,748.1036
"305",77.838104,748.1169
"306",78.00168,748.1302
"307",78.44846,748.1435
"308",79.2224,748.1568
"309",80.26246,748.1701
"310",81.41482,748.1834
"311",82.46952,748.1967
"312",83.24101,748.21
"313",83.61944,748.2233
"314",83.63409,748.23663
"315",83.370415,748.24994
"316",82.93584,748.26324
"317",82.42069,748.27655
"318",81.881134,748.28986
"319",81.35134,748.30316
"320",80.84596,748.31647
"321",80.37965,748.3298
"322",79.95972,748.3431
"323",79.605705,748.3564
"324",79.327385,748.3697
"325",79.13695,748.383
"326",79.044174,748.3963
"327",79.046616,748.4096
"328",79.12718,748.4229
"329",79.256584,748.4362
"330",79.40063,748.4495
"331",79.51537,748.4628
"332",79.571526,748.47614
"333",79.551994,748.48944
"334",79.466545,748.50275
"335",79.32494,748.51605
"336",79.14671,748.52936
"337",78.94408,748.54266
"338",78.74387,748.55597
"339",78.553444,748.5693
"340",78.38743,748.5826
"341",78.24338,748.5959
"342",78.133514,748.6092
"343",78.05539,748.6225
"344",78.00412,748.6358
"345",77.98459,748.6491
"346",77.99191,748.6624
"347",78.009,748.6757
"348",78.01633,748.689
"349",78.00656,748.70233
"350",77.98459,748.71564
"351",77.96994,748.72894
"352",78.02609,748.74225
"353",78.25803,748.75555
"354",78.768295,748.76886
"355",79.586174,748.78217
"356",80.638435,748.7955
"357",81.77371,748.8088
"358",82.79912,748.8221
"359",83.53643,748.8354
"360",83.89044,748.8487
"361",83.88068,748.862
"362",83.580376,748.8753
"363",83.087204,748.8886
"364",82.50126,748.9019
"365",81.89334,748.9152
"366",81.31472,748.9285
"367",80.80202,748.94183
"368",80.37232,748.95514
"369",80.025635,748.96844
"370",79.75464,748.98175
"371",79.55688,748.99506
"372",79.432365,749.00836
"373",79.378654,749.02167
"374",79.3933,749.035
"375",79.4641,749.0483
"376",79.569084,749.0616
"377",79.676506,749.0749
"378",79.7522,749.0882
"379",79.76929,749.1015
"380",79.71313,749.1148
"381",79.588615,749.1281
"382",79.412834,749.1414
"383",79.20775,749.1547
"384",78.99046,749.168
"385",78.77562,749.18134
"386",78.57786,749.19464
"387",78.40208,749.20795
"388",78.25071,749.22125
"389",78.12375,749.23456
"390",78.01877,749.24786
"391",77.93576,749.26117
"392",77.872284,749.2745
"393",77.83322,749.2878
"394",77.81125,749.3011
"395",77.81369,749.3144
"396",77.83322,749.3277
"397",77.86008,749.341
"398",77.87961,749.3543
"399",77.88205,749.3676
"400",77.86984,749.3809
"401",77.855194,749.3942
"402",77.86984,749.40753
"403",77.98459,749.42084
"404",78.2971,749.43414
"405",78.8806,749.44745
"406",79.74975,749.46075
"407",80.81178,749.47406
"408",81.9202,749.48737
"409",82.88457,749.5007
"410",83.54131,749.514
"411",83.81964,749.5273
"412",83.75128,749.5406
"413",83.424126,749.5539
"414",82.933395,749.5672
"415",82.36698,749.5805
"416",81.79813,749.5938
"417",81.26345,749.6071
"418",80.780045,749.6204
"419",80.35279,749.6337
"420",79.98169,749.64703
"421",79.67162,749.66034
"422",79.42504,749.67365
"423",79.256584,749.68695
"424",79.18089,749.70026
"425",79.19798,749.71356
"426",79.290764,749.72687
"427",79.42748,749.7402
"428",79.569084,749.7535
"429",79.676506,749.7668
"430",79.72289,749.7801
"431",79.70092,749.7934
"432",79.61791,749.8067
"433",79.49096,749.82
"434",79.34203,749.8333
"435",79.18822,749.8466
"436",79.03441,749.8599
"437",78.8806,749.8732
"438",78.73167,749.88654
"439",78.58762,749.89984
"440",78.45579,749.91315
"441",78.34348,749.92645
"442",78.25559,749.93976
"443",78.19699,749.95306
"444",78.15549,749.9664
"445",78.13107,749.9797
"446",78.11154,749.993
"447",78.09445,750.0063
"448",78.07492,750.0196
"449",78.06271,750.0329
"450",78.05051,750.0462
"451",78.03586,750.0595
"452",78.01633,750.0728
"453",78.00412,750.0861
"454",78.03342,750.0994
"455",78.18234,750.11273
"456",78.56321,750.12604
"457",79.237045,750.13934
"458",80.15747,750.15265
"459",81.20485,750.16595
"460",82.20828,750.17926
"461",82.98711,750.19257
"462",83.42657,750.2059
"463",83.5169,750.2192
"464",83.32891,750.2325
"465",82.948044,750.2458
"466",82.45731,750.2591
"467",81.92752,750.2724
"468",81.40505,750.2857
"469",80.919205,750.299
"470",80.4773,750.3123
"471",80.079346,750.3256
"472",79.73266,750.3389
"473",79.447014,750.35223
"474",79.23949,750.36554
"475",79.12718,750.37885
"476",79.11253,750.39215
"477",79.185776,750.40546
"478",79.3225,750.41876
"479",79.48608,750.43207
"480",79.635,750.4454
"481",79.73998,750.4587
"482",79.783936,750.472
"483",79.76196,750.4853
"484",79.693596,750.4986
"485",79.586174,750.5119
"486",79.45678,750.5252
"487",79.31274,750.5385
"488",79.15648,750.5518
"489",78.99779,750.5651
"490",78.84398,750.5784
"491",78.70725,750.59174
"492",78.58762,750.60504
"493",78.485085,750.61835
"494",78.39475,750.63165
"495",78.314186,750.64496
"496",78.24582,750.65826
"497",78.187225,750.6716
"498",78.14572,750.6849
"499",78.12131,750.6982
"500",78.116425,750.7115
"501",78.12375,750.7248
"502",78.13107,750.7381
"503",78.135956,750.7514
"504",78.135956,750.7647
"505",78.153046,750.778
"506",78.26536,750.7913
"507",78.58274,750.8046
"508",79.17113,750.81793
"509",80.01587,750.83124
"510",81.007095,750.84454
"511",81.988556,750.85785
"512",82.7625,750.87115
"513",83.211716,750.88446
"514",83.30694,750.89777
"515",83.11162,750.9111
"516",82.720985,750.9244
"517",82.21561,750.9377
"518",81.66628,750.951
"519",81.129166,750.9643
"520",80.62623,750.9776
"521",80.164795,750.9909
"522",79.75464,751.0042
"523",79.41039,751.0175
"524",79.13939,751.0308
"525",78.958725,751.0441
"526",78.87816,751.05743
"527",78.90257,751.07074
"528",79.01732,751.08405
"529",79.18822,751.09735
"530",79.381096,751.11066
"531",79.551994,751.12396
"532",79.66918,751.13727
"533",79.72045,751.1506
"534",79.70092,751.1639
"535",79.63012,751.1772
"536",79.517815,751.1905
"537",79.378654,751.2038
"538",79.219955,751.2171
"539",79.04906,751.2304
"540",78.86595,751.2437
"541",78.68772,751.257
"542",78.52415,751.2703
"543",78.39475,751.2836
"544",78.2971,751.29694
"545",78.22385,751.31024
"546",78.16281,751.32355
"547",78.11154,751.33685
"548",78.065155,751.35016
"549",78.028534,751.36346
"550",78.00412,751.3768
"551",77.996796,751.3901
"552",77.994354,751.4034
"553",78.009,751.4167
"554",78.07736,751.43
"555",78.294655,751.4433
"556",78.746315,751.4566
"557",79.45678,751.4699
"558",80.360115,751.4832
"559",81.324486,751.4965
"560",82.178986,751.5098
"561",82.76494,751.52313
"562",83.0164,751.53644
"563",82.95537,751.54974
"564",82.65507,751.56305
"565",82.19119,751.57635
"566",81.64675,751.58966
"567",81.08522,751.60297
"568",80.5359,751.6163
"569",80.025635,751.6296
"570",79.56176,751.6429
"571",79.166245,751.6562
"572",78.84886,751.6695
"573",78.63157,751.6828
"574",78.536354,751.6961
"575",78.56321,751.7094
"576",78.68528,751.7227
"577",78.873276,751.736
"578",79.08324,751.7493
"579",79.281,751.76263
"580",79.43481,751.77594
"581",79.53002,751.78925
"582",79.5642,751.80255
"583",79.54467,751.81586
"584",79.47875,751.82916
"585",79.37621,751.84247
"586",79.25414,751.8558
"587",79.11742,751.8691
"588",78.96361,751.8824
"589",78.79271,751.8957
"590",78.61448,751.909
"591",78.43626,751.9223
"592",78.27024,751.9356
"593",78.12863,751.9489
"594",78.02365,751.9622
"595",77.95529,751.9755
"596",77.908905,751.98883
"597",77.874725,752.00214
"598",77.85275,752.01544
"599",77.857635,752.02875
"600",77.91379,752.04205
"601",78.09201,752.05536
"602",78.47288,752.06866
"603",79.11009,752.082
"604",79.96948,752.0953
"605",80.94606,752.1086
"606",81.87869,752.1219
"607",82.616005,752.1352
"608",83.04082,752.1485
"609",83.12627,752.1618
"610",82.92851,752.1751
"611",82.528114,752.1884
"612",82.00809,752.2017
"613",81.427025,752.215
"614",80.8362,752.22833
"615",80.26734,752.24164
"616",79.74975,752.25494
"617",79.29809,752.26825
"618",78.92943,752.28156
"619",78.66575,752.29486
"620",78.521706,752.30817
"621",78.51194,752.3215
"622",78.63157,752.3348
"623",78.856186,752.3481
"624",79.13695,752.3614
"625",79.4226,752.3747
"626",79.66918,752.388
"627",79.84985,752.4013
"628",79.94995,752.4146
"629",79.97681,752.4279
"630",79.94751,752.4412
"631",79.8645,752.4545
"632",79.74975,752.46783
"633",79.61303,752.48114
"634",79.47387,752.49445
"635",79.34203,752.50775
"636",79.22484,752.52106
"637",79.12962,752.53436
"638",79.0515,752.54767
"639",78.99046,752.561
"640",78.93919,752.5743
"641",78.89525,752.5876
"642",78.8513,752.6009
"643",78.82933,752.6142
"644",78.87572,752.6275
"645",79.07347,752.6408
"646",79.50317,752.6541
"647",80.17456,752.6674
"648",81.0193,752.6807
"649",81.89578,752.69403
"650",82.650185,752.70734
"651",83.140915,752.72064
"652",83.30938,752.73395
"653",83.18242,752.74725
"654",82.845505,752.76056
"655",82.374306,752.77386
"656",81.85428,752.7872
"657",81.33669,752.8005
"658",80.85329,752.8138
"659",80.41627,752.8271
"660",80.03296,752.8404
"661",79.7058,752.8537
"662",79.45678,752.867
"663",79.30297,752.8803
"664",79.259026,752.8936
"665",79.327385,752.9069
"666",79.49096,752.9202
"667",79.7058,752.93353
"668",79.93286,752.94684
"669",80.1355,752.96014
"670",80.28199,752.97345
"671",80.365,752.98676
"672",80.38209,753.00006
"673",80.34791,753.01337
"674",80.26978,753.0267
"675",80.15503,753.04
"676",80.0061,753.0533
"677",79.83032,753.0666
"678",79.63744,753.0799
"679",79.44457,753.0932
"680",79.259026,753.1065
"681",79.10033,753.1198
"682",78.975815,753.1331
"683",78.89281,753.1464
"684",78.86351,753.1597
"685",78.94408,753.17303
"686",79.20775,753.18634
"687",79.71801,753.19965
"688",80.46021,753.21295
"689",81.34646,753.22626
"690",82.22537,753.23956
"691",82.930954,753.25287
"692",83.33379,753.2662
"693",83.407036,753.2795
"694",83.211716,753.2928
"695",82.83574,753.3061
"696",82.36454,753.3194
"697",81.87137,753.3327
"698",81.38308,753.346
"699",80.91188,753.3593
"700",80.46021,753.3726
"701",80.03784,753.3859
"702",79.66674,753.39923
"703",79.39086,753.41254
"704",79.237045,753.42584
"705",79.234604,753.43915
"706",79.36889,753.45245
"707",79.60082,753.46576
"708",79.87427,753.47906
"709",80.14038,753.4924
"710",80.35523,753.5057
"711",80.499275,753.519
"712",80.570076,753.5323
"713",80.57252,753.5456
"714",80.50904,753.5589
"715",80.39185,753.5722
"716",80.22583,753.5855
"717",80.0354,753.5988
"718",79.84253,753.6121
"719",79.676506,753.6254
"720",79.54955,753.63873
"721",79.4519,753.65204
"722",79.37133,753.66534
"723",79.30297,753.67865
"724",79.2517,753.69196
"725",79.27123,753.70526
"726",79.45434,753.71857
"727",79.888916,753.7319
"728",80.5774,753.7452
"729",81.43923,753.7585
"730",82.34257,753.7718
"731",83.11894,753.7851
"732",83.631645,753.7984
"733",83.824524,753.8117
"734",83.734184,753.825
"735",83.441216,753.8383
"736",83.0164,753.8516
"737",82.52323,753.8649
"738",82.01785,753.87823
"739",81.52712,753.89154
"740",81.06325,753.90485
"741",80.64576,753.91815
"742",80.28687,753.93146
"743",80.008545,753.94476
"744",79.82056,753.95807
"745",79.73754,753.9714
"746",79.75952,753.9847
"747",79.871826,753.998
"748",80.03784,754.0113
"749",80.22095,754.0246
"750",80.37965,754.0379
"751",80.48707,754.0512
"752",80.52857,754.0645
"753",80.50904,754.0778
"754",80.4358,754.0911
"755",80.325935,754.10443
"756",80.18921,754.11774
"757",80.03052,754.13104
"758",79.85718,754.14435
"759",79.676506,754.15765
"760",79.50561,754.17096
"761",79.3518,754.18427
"762",79.2224,754.1976
"763",79.11986,754.2109
"764",79.05394,754.2242
"765",79.0515,754.2375
"766",79.19066,754.2508
"767",79.551994,754.2641
"768",80.17212,754.2774
"769",81.007095,754.2907
"770",81.93729,754.304
"771",82.79668,754.3173
"772",83.424126,754.3306
"773",83.734184,754.34393
"774",83.73174,754.35724
"775",83.47784,754.37054
"776",83.06523,754.38385
"777",82.57694,754.39716
"778",82.06912,754.41046
"779",81.57351,754.42377
"780",81.09987,754.4371
"781",80.66285,754.4504
"782",80.274666,754.4637
"783",79.95239,754.477
"784",79.72045,754.4903
"785",79.5935,754.5036
"786",79.57641,754.5169
"787",79.656975,754.5302
"788",79.80591,754.5435
"789",79.97925,754.5568
"790",80.147705,754.5701
"791",80.27711,754.58344
"792",80.35523,754.59674
"793",80.36744,754.61005
"794",80.31617,754.62335
"795",80.20386,754.63666
"796",80.045166,754.64996
"797",79.8645,754.66327
"798",79.68139,754.6766
"799",79.51049,754.6899
"800",79.35668,754.7032
"801",79.2224,754.7165
"802",79.093,754.7298
"803",78.97093,754.7431
"804",78.87572,754.7564
"805",78.85863,754.7697
"806",79.00023,754.783
"807",79.38598,754.7963
"808",80.04028,754.80963
"809",80.907,754.82294
"810",81.85428,754.83624
"811",82.720985,754.84955
"812",83.34844,754.86285
"813",83.65362,754.87616
"814",83.65362,754.88947
"815",83.41192,754.9028
"816",83.00908,754.9161
"817",82.52323,754.9294
"818",82.005646,754.9427
"819",81.50027,754.956
"820",81.01442,754.9693
"821",80.552986,754.9826
"822",80.13306,754.9959
"823",79.783936,755.0092
"824",79.53246,755.0225
"825",79.40307,755.0358
"826",79.40307,755.04913
"827",79.517815,755.06244
"828",79.70092,755.07574
"829",79.90845,755.08905
"830",80.1062,755.10236
"831",80.274666,755.11566
"832",80.39918,755.12897
"833",80.46998,755.1423
"834",80.482185,755.1556
"835",80.428474,755.1689
"836",80.31373,755.1822
"837",80.15747,755.1955
"838",79.98413,755.2088
"839",79.81323,755.2221
"840",79.65453,755.2354
"841",79.50317,755.2487
"842",79.344475,755.262
"843",79.1638,755.2753
"844",78.97337,755.28864
"845",78.802475,755.30194
"846",78.73167,755.31525
"847",78.87572,755.32855
"848",79.31518,755.34186
"849",80.05249,755.35516
"850",81.004654,755.36847
"851",82.020294,755.3818
"852",82.91142,755.3951
"853",83.53399,755.4084
"854",83.82208,755.4217
"855",83.80255,755.435
"856",83.55596,755.4483
"857",83.175095,755.4616
"858",82.72587,755.4749
"859",82.25956,755.4882
"860",81.80057,755.5015
"861",81.356224,755.51483
"862",80.936295,755.52814
"863",80.55787,755.54144
"864",80.2478,755.55475
"865",80.01831,755.56805
"866",79.886475,755.58136
"867",79.84985,755.59467
"868",79.89136,755.608
"869",79.97925,755.6213
"870",80.076904,755.6346
"871",80.15747,755.6479
"872",80.198975,755.6612
"873",80.19409,755.6745
"874",80.1355,755.6878
"875",80.03052,755.7011
"876",79.87915,755.7144
"877",79.68871,755.7277
"878",79.47143,755.741
"879",79.24681,755.75433
"880",79.03929,755.76764
"881",78.856186,755.78094
"882",78.70237,755.79425
"883",78.57053,755.80756
"884",78.44846,755.82086
"885",78.33372,755.83417
"886",78.23361,755.8475
"887",78.17746,755.8608
"888",78.23117,755.8741
"889",78.49973,755.8874
"890",79.05882,755.9007
"891",79.90845,755.914
"892",80.96559,755.9273
"893",82.07645,755.9406
"894",83.04814,755.9539
"895",83.73174,755.9672
"896",84.06622,755.9805
"897",84.07843,755.99384
"898",83.84161,756.00714
"899",83.45098,756.02045
"900",82.98955,756.03375
"901",82.50858,756.04706
"902",82.0325,756.06036
"903",81.56374,756.07367
"904",81.09987,756.087
"905",80.65797,756.1003
"906",80.272224,756.1136
"907",79.974365,756.1269
"908",79.79614,756.1402
"909",79.73754,756.1535
"910",79.77905,756.1668
"911",79.871826,756.1801
"912",79.98413,756.1934
"913",80.079346,756.2067
"914",80.14038,756.22003
"915",80.15747,756.23334
"916",80.12329,756.24664
"917",80.0354,756.25995
"918",79.88403,756.27325
"919",79.67895,756.28656
"920",79.42504,756.29987
"921",79.151596,756.3132
"922",78.890366,756.3265
"923",78.658424,756.3398
"924",78.46311,756.3531
"925",78.30686,756.3664
"926",78.17258,756.3797
"927",78.048065,756.393
"928",77.93576,756.4063
"929",77.84787,756.4196
"930",77.7966,756.4329
"931",77.83566,756.4462
"932",78.05295,756.45953
"933",78.54612,756.47284
"934",79.344475,756.48615
"935",80.394295,756.49945
"936",81.566185,756.51276
"937",82.67948,756.52606
"938",83.54864,756.53937
"939",84.071106,756.5527
"940",84.24689,756.566
"941",84.14923,756.5793
"942",83.86359,756.5926
"943",83.47051,756.6059
"944",83.02373,756.6192
"945",82.55009,756.6325
"946",82.056915,756.6458
"947",81.55886,756.6591
"948",81.07301,756.6724
"949",80.63111,756.6857
"950",80.26978,756.69904
"951",80.01343,756.71234
"952",79.86206,756.72565
"953",79.80347,756.73895
"954",79.823,756.75226
"955",79.88403,756.76556
"956",79.96216,756.7789
"957",80.0354,756.7922
"958",80.08423,756.8055
"959",80.08667,756.8188
"960",80.03052,756.8321
"961",79.91821,756.8454
"962",79.7522,756.8587
"963",79.54467,756.872
"964",79.31518,756.8853
"965",79.078354,756.8986
"966",78.84154,756.9119
"967",78.61448,756.92523
"968",78.4094,756.93854
"969",78.238495,756.95184
"970",78.10422,756.96515
"971",78.009,756.97845
"972",77.945526,756.99176
"973",77.891815,757.00507
"974",77.83322,757.0184
"975",77.75754,757.0317
"976",77.67452,757.045
"977",77.63302,757.0583
"978",77.730675,757.0716
"979",78.0676,757.0849
"980",78.70481,757.0982
"981",79.62768,757.1115
"982",80.71412,757.1248
"983",81.7908,757.1381
"984",82.67704,757.1514
"985",83.24834,757.16473
"986",83.47295,757.17804
"987",83.39239,757.19135
"988",83.09209,757.20465
"989",82.650185,757.21796
"990",82.13748,757.23126
"991",81.600365,757.24457
"992",81.06569,757.2579
"993",80.55543,757.2712
"994",80.08667,757.2845
"995",79.676506,757.2978
"996",79.33471,757.3111
"997",79.07591,757.3244
"998",78.905014,757.3377
"999",78.819565,757.351
"1000",78.81468,757.3643
"1001",78.887924,757.3776
"1002",79.00267,757.3909
"1003",79.12718,757.40424
"1004",79.2224,757.41754
"1005",79.259026,757.43085
"1006",79.21263,757.44415
"1007",79.09544,757.45746
"1008",78.924545,757.47076
"1009",78.71702,757.4841
"1010",78.485085,757.4974
"1011",78.24582,757.5107
"1012",78.00412,757.524
"1013",77.76242,757.5373
"1014",77.5378,757.5506
"1015",77.34249,757.5639
"1016",77.18379,757.5772
"1017",77.07393,757.5905
"1018",77.00801,757.6038
"1019",76.978714,757.6171
"1020",76.97627,757.63043
"1021",76.9836,757.64374
"1022",76.981155,757.65704
"1023",76.96651,757.67035
"1024",76.93721,757.68365
"1025",76.895706,757.69696
"1026",76.86885,757.71027
"1027",76.910355,757.7236
"1028",77.11543,757.7369
"1029",77.58419,757.7502
"1030",78.363014,757.7635
"1031",79.40307,757.7768
"1032",80.57252,757.7901
"1033",81.67849,757.8034
"1034",82.54032,757.8167
"1035",83.03105,757.83
"1036",83.1458,757.8433
"1037",82.950485,757.8566
"1038",82.55985,757.86993
"1039",82.06424,757.88324
"1040",81.54665,757.89655
"1041",81.058365,757.90985
"1042",80.604256,757.92316
"1043",80.17944,757.93646
"1044",79.79126,757.94977
"1045",79.44457,757.9631
"1046",79.15404,757.9764
"1047",78.94408,757.9897
"1048",78.83421,758.003
"1049",78.83177,758.0163
"1050",78.922104,758.0296
"1051",79.07103,758.0429
"1052",79.237045,758.0562
"1053",79.38354,758.0695
"1054",79.483635,758.0828
"1055",79.520256,758.0961
"1056",79.48852,758.10944
"1057",79.40307,758.12274
"1058",79.27123,758.13605
"1059",79.10765,758.14935
"1060",78.91234,758.16266
"1061",78.70237,758.17596
"1062",78.48997,758.1893
"1063",78.28001,758.2026
"1064",78.08713,758.2159
"1065",77.92111,758.2292
"1066",77.789276,758.2425
"1067",77.68673,758.2558
"1068",77.61593,758.2691
"1069",77.57198,758.2824
"1070",77.55245,758.2957
"1071",77.55001,758.309
"1072",77.54757,758.3223
"1073",77.54757,758.33563
"1074",77.540245,758.34894
"1075",77.5256,758.36224
"1076",77.503624,758.37555
"1077",77.469444,758.38885
"1078",77.418175,758.40216
"1079",77.36202,758.41547
"1080",77.330284,758.4288
"1081",77.39132,758.4421
"1082",77.65011,758.4554
"1083",78.19211,758.4687
"1084",79.03197,758.482
"1085",80.09888,758.4953
"1086",81.25124,758.5086
"1087",82.30595,758.5219
"1088",83.10185,758.5352
"1089",83.55108,758.5485
"1090",83.66094,758.5618
"1091",83.50225,758.57513
"1092",83.15312,758.58844
"1093",82.69413,758.60175
"1094",82.196075,758.61505
"1095",81.69558,758.62836
"1096",81.20973,758.64166
"1097",80.75319,758.65497
"1098",80.325935,758.6683
"1099",79.937744,758.6816
"1100",79.60082,758.6949
"1101",79.33471,758.7082
"1102",79.15404,758.7215
"1103",79.078354,758.7348
"1104",79.10521,758.7481
"1105",79.21019,758.7614
"1106",79.35668,758.7747
"1107",79.50317,758.788
"1108",79.60815,758.80133
"1109",79.64965,758.81464
"1110",79.62035,758.82794
"1111",79.537346,758.84125
"1112",79.41772,758.85455
"1113",79.273674,758.86786
"1114",79.11253,758.88116
"1115",78.94652,758.8945
"1116",78.785385,758.9078
"1117",78.62913,758.9211
"1118",78.48997,758.9344
"1119",78.363014,758.9477
"1120",78.25315,758.961
"1121",78.15793,758.9743
"1122",78.07004,758.9876
"1123",77.99191,759.0009
"1124",77.92355,759.0142
"1125",77.86984,759.0275
"1126",77.83322,759.04083
"1127",77.81125,759.05414
"1128",77.79904,759.06744
"1129",77.79904,759.08075
"1130",77.803925,759.09406
"1131",77.80148,759.10736
"1132",77.77463,759.12067
"1133",77.713585,759.134
"1134",77.625694,759.1473
"1135",77.53292,759.1606
"1136",77.488976,759.1739
"1137",77.60372,759.1872
"1138",77.98459,759.2005
"1139",78.692604,759.2138
"1140",79.67895,759.2271
"1141",80.814224,759.2404
"1142",81.92508,759.2537
"1143",82.84062,759.267
"1144",83.43145,759.28033
"1145",83.682915,759.29364
"1146",83.648735,759.30695
"1147",83.40215,759.32025
"1148",83.0164,759.33356
"1149",82.56718,759.34686
"1150",82.108185,759.36017
"1151",81.65896,759.3735
"1152",81.231705,759.3868
"1153",80.82887,759.4001
"1154",80.448006,759.4134
"1155",80.1062,759.4267
"1156",79.83765,759.44
"1157",79.66186,759.4533
"1158",79.586174,759.4666
"1159",79.605705,759.4799
"1160",79.69604,759.4932
"1161",79.82544,759.50653
"1162",79.95972,759.51984
"1163",80.076904,759.53314
"1164",80.15747,759.54645
"1165",80.184326,759.55975
"1166",80.15015,759.57306
"1167",80.0647,759.58636
"1168",79.94507,759.5997
"1169",79.80347,759.613
"1170",79.64721,759.6263
"1171",79.48852,759.6396
"1172",79.32494,759.6529
"1173",79.15892,759.6662
"1174",78.99046,759.6795
"1175",78.82689,759.6928
"1176",78.67307,759.7061
"1177",78.53147,759.7194
"1178",78.41184,759.7327
"1179",78.32395,759.74603
"1180",78.2678,759.75934
"1181",78.24094,759.77264
"1182",78.22629,759.78595
"1183",78.221405,759.79926
"1184",78.21408,759.81256
"1185",78.20187,759.82587
"1186",78.18967,759.8392
"1187",78.184784,759.8525
"1188",78.17502,759.8658
"1189",78.16037,759.8791
"1190",78.14084,759.8924
"1191",78.118866,759.9057
"1192",78.118866,759.919
"1193",78.187225,759.9323
"1194",78.416725,759.9456
"1195",78.89525,759.9589
"1196",79.64965,759.9722
"1197",80.618904,759.98553
"1198",81.668724,759.99884
"1199",82.63065,760.01215
"1200",83.35577,760.02545
"1201",83.758606,760.03876
"1202",83.85382,760.05206
"1203",83.70733,760.06537
"1204",83.39727,760.0787
"1205",82.98955,760.092
"1206",82.54032,760.1053
"1207",82.08377,760.1186
"1208",81.634544,760.1319
"1209",81.21217,760.1452
"1210",80.82155,760.1585
"1211",80.462654,760.1718
"1212",80.147705,760.1851
"1213",79.888916,760.1984
"1214",79.69604,760.21173
"1215",79.58129,760.22504
"1216",79.554436,760.23834
"1217",79.61303,760.25165
"1218",79.7351,760.26495
"1219",79.88159,760.27826
"1220",80.01343,760.29156
"1221",80.10376,760.3049
"1222",80.13306,760.3182
"1223",80.10132,760.3315
"1224",80.028076,760.3448
"1225",79.91821,760.3581
"1226",79.77417,760.3714
"1227",79.59594,760.3847
"1228",79.381096,760.398
"1229",79.13939,760.4113
"1230",78.89281,760.4246
"1231",78.66331,760.4379
"1232",78.46555,760.45123
"1233",78.3093,760.46454
"1234",78.187225,760.47784
"1235",78.09445,760.49115
"1236",78.02365,760.50446
"1237",77.977264,760.51776
"1238",77.962616,760.53107
"1239",77.979706,760.5444
"1240",78.01877,760.5577
"1241",78.065155,760.571
"1242",78.10666,760.5843
"1243",78.12863,760.5976
"1244",78.13107,760.6109
"1245",78.12619,760.6242
"1246",78.135956,760.6375
"1247",78.18234,760.6508
"1248",78.3093,760.6641
"1249",78.60227,760.6774
"1250",79.13451,760.69073
"1251",79.92554,760.70404
"1252",80.91676,760.71735
"1253",81.98367,760.73065
"1254",82.96025,760.74396
"1255",83.685356,760.75726
"1256",84.071106,760.77057
"1257",84.119934,760.7839
"1258",83.90265,760.7972
"1259",83.50469,760.8105
"1260",83.00908,760.8238
"1261",82.48173,760.8371
"1262",81.969025,760.8504
"1263",81.48318,760.8637
"1264",81.03639,760.877
"1265",80.63111,760.8903
"1266",80.27711,760.9036
"1267",79.98169,760.91693
"1268",79.75464,760.93024
"1269",79.61303,760.94354
"1270",79.569084,760.95685
"1271",79.62035,760.97015
"1272",79.75708,760.98346
"1273",79.94507,760.99677
"1274",80.14282,761.0101
"1275",80.30396,761.0234
"1276",80.40406,761.0367
"1277",80.43336,761.05
"1278",80.394295,761.0633
"1279",80.291756,761.0766
"1280",80.14526,761.0899
"1281",79.96216,761.1032
"1282",79.7522,761.1165
"1283",79.53002,761.1298
"1284",79.30297,761.1431
"1285",79.08568,761.15643
"1286",78.890366,761.16974
"1287",78.729225,761.18304
"1288",78.59739,761.19635
"1289",78.49973,761.20966
"1290",78.433815,761.22296
"1291",78.40208,761.23627
"1292",78.399635,761.2496
"1293",78.42893,761.2629
"1294",78.47288,761.2762
"1295",78.521706,761.2895
"1296",78.555885,761.3028
"1297",78.56809,761.3161
"1298",78.555885,761.3294
"1299",78.53391,761.3427
"1300",78.519264,761.356
"1301",78.56565,761.3693
"1302",78.76341,761.3826
"1303",79.21263,761.39594
"1304",79.95239,761.40924
"1305",80.93141,761.42255
"1306",82.020294,761.43585
"1307",83.038376,761.44916
"1308",83.80255,761.46246
"1309",84.21271,761.47577
"1310",84.266426,761.4891
"1311",84.03937,761.5024
"1312",83.62676,761.5157
"1313",83.12138,761.529
"1314",82.58671,761.5423
"1315",82.0618,761.5556
"1316",81.55886,761.5689
"1317",81.077896,761.5822
"1318",80.618904,761.5955
"1319",80.19653,761.6088
"1320",79.83276,761.62213
"1321",79.54955,761.63544
"1322",79.37133,761.64874
"1323",79.30785,761.66205
"1324",79.3518,761.67535
"1325",79.47875,761.68866
"1326",79.65209,761.70197
"1327",79.82788,761.7153
"1328",79.971924,761.7286
"1329",80.059814,761.7419
"1330",80.079346,761.7552
"1331",80.04028,761.7685
"1332",79.954834,761.7818
"1333",79.84253,761.7951
"1334",79.71557,761.8084
"1335",79.57885,761.8217
"1336",79.44213,761.835
"1337",79.31274,761.8483
"1338",79.1931,761.86163
"1339",79.08324,761.87494
"1340",78.98802,761.88824
"1341",78.905014,761.90155
"1342",78.83421,761.91486
"1343",78.77562,761.92816
"1344",78.71946,761.94147
"1345",78.67063,761.9548
"1346",78.626686,761.9681
"1347",78.58274,761.9814
"1348",78.54856,761.9947
"1349",78.52903,762.008
"1350",78.56077,762.0213
"1351",78.70481,762.0346
"1352",79.05882,762.0479
"1353",79.67895,762.0612
"1354",80.550545,762.0745
"1355",81.56863,762.0878
"1356",82.57694,762.10114
"1357",83.40215,762.11444
"1358",83.91974,762.12775
"1359",84.102844,762.14105
"1360",84.00275,762.15436
"1361",83.700005,762.16766
"1362",83.27276,762.18097
"1363",82.78691,762.1943
"1364",82.28397,762.2076
"1365",81.778595,762.2209
"1366",81.287865,762.2342
"1367",80.814224,762.2475
"1368",80.377205,762.2608
"1369",79.991455,762.2741
"1370",79.68383,762.2874
"1371",79.47631,762.3007
"1372",79.381096,762.314
"1373",79.40063,762.32733
"1374",79.51537,762.34064
"1375",79.7058,762.35394
"1376",79.91577,762.36725
"1377",80.113525,762.38055
"1378",80.257576,762.39386
"1379",80.31617,762.40717
"1380",80.27711,762.4205
"1381",80.15503,762.4338
"1382",79.97681,762.4471
"1383",79.77173,762.4604
"1384",79.571526,762.4737
"1385",79.3933,762.487
"1386",79.234604,762.5003
"1387",79.09544,762.5136
"1388",78.96605,762.5269
"1389",78.84642,762.5402
"1390",78.73899,762.5535
"1391",78.64622,762.56683
"1392",78.56809,762.58014
"1393",78.5095,762.59344
"1394",78.46555,762.60675
"1395",78.450905,762.62006
"1396",78.51438,762.63336
"1397",78.74143,762.64667
"1398",79.217514,762.66
"1399",79.974365,762.6733
"1400",80.9485,762.6866
"1401",81.99344,762.6999
"1402",82.93584,762.7132
"1403",83.60479,762.7265
"1404",83.92462,762.7398
"1405",83.914856,762.7531
"1406",83.65606,762.7664
"1407",83.23125,762.7797
"1408",82.718544,762.793
"1409",82.16434,762.80634
"1410",81.600365,762.81964
"1411",81.0486,762.83295
"1412",80.52125,762.84625
"1413",80.03784,762.85956
"1414",79.61303,762.87286
"1415",79.28588,762.88617
"1416",79.07591,762.8995
"1417",79.00023,762.9128
"1418",79.0515,762.9261
"1419",79.20531,762.9394
"1420",79.415276,762.9527
"1421",79.64233,762.966
"1422",79.84497,762.9793
"1423",80.00122,762.9926
"1424",80.08667,763.0059
"1425",80.093994,763.0192
"1426",80.02319,763.03253
"1427",79.88159,763.04584
"1428",79.68627,763.05914
"1429",79.46899,763.07245
"1430",79.256584,763.08575
"1431",79.061264,763.09906
"1432",78.887924,763.11237
"1433",78.73167,763.1257
"1434",78.5803,763.139
"1435",78.4387,763.1523
"1436",78.314186,763.1656
"1437",78.22629,763.1789
"1438",78.19211,763.1922
"1439",78.24582,763.2055
"1440",78.44114,763.2188
"1441",78.8513,763.2321
"1442",79.5227,763.2454
"1443",80.42603,763.2587
"1444",81.45144,763.27203
"1445",82.442665,763.28534
"1446",83.22392,763.29865
"1447",83.682915,763.31195
"1448",83.80255,763.32526
"1449",83.648735,763.33856
"1450",83.32403,763.35187
"1451",82.91142,763.3652
"1452",82.46952,763.3785
"1453",82.01297,763.3918
"1454",81.549095,763.4051
"1455",81.08278,763.4184
"1456",80.61402,763.4317
"1457",80.16235,763.445
"1458",79.764404,763.4583
"1459",79.45434,763.4716
"1460",79.26147,763.4849
"1461",79.19554,763.4982
"1462",79.2517,763.51154
"1463",79.39086,763.52484
"1464",79.57885,763.53815
"1465",79.764404,763.55145
"1466",79.91089,763.56476
"1467",79.9939,763.57806
"1468",80.00366,763.5914
"1469",79.94263,763.6047
"1470",79.82056,763.618
"1471",79.656975,763.6313
"1472",79.47631,763.6446
"1473",79.28832,763.6579
"1474",79.097885,763.6712
"1475",78.90257,763.6845
"1476",78.70481,763.6978
"1477",78.5095,763.7111
"1478",78.32395,763.7244
"1479",78.16281,763.73773
"1480",78.048065,763.75104
"1481",77.99191,763.76434
"1482",78.048065,763.77765
"1483",78.30442,763.79095
"1484",78.836655,763.80426
"1485",79.656975,763.81757
"1486",80.68238,763.8309
"1487",81.75174,763.8442
"1488",82.684364,763.8575
"1489",83.32403,763.8708
"1490",83.59991,763.8841
"1491",83.55352,763.8974
"1492",83.2752,763.9107
"1493",82.85039,763.924
"1494",82.34989,763.9373
"1495",81.8201,763.9506
"1496",81.28542,763.9639
"1497",80.765396,763.97723
"1498",80.26978,763.99054
"1499",79.818115,764.00385
"1500",79.43481,764.01715
"1501",79.13451,764.03046
"1502",78.93675,764.04376
"1503",78.853745,764.05707
"1504",78.88304,764.0704
"1505",79.009995,764.0837
"1506",79.19554,764.097
"1507",79.40307,764.1103
"1508",79.586174,764.1236
"1509",79.72045,764.1369
"1510",79.79614,764.1502
"1511",79.80835,764.1635
"1512",79.75464,764.1768
"1513",79.64721,764.1901
"1514",79.49828,764.2034
"1515",79.3225,764.21674
"1516",79.149155,764.23004
"1517",78.99779,764.24335
"1518",78.870834,764.25665
"1519",78.76097,764.26996
"1520",78.66331,764.28326
"1521",78.56809,764.2966
"1522",78.47776,764.3099
"1523",78.41184,764.3232
"1524",78.41184,764.3365
"1525",78.56321,764.3498
"1526",78.96605,764.3631
"1527",79.6643,764.3764
"1528",80.62379,764.3897
"1529",81.72732,764.403
"1530",82.79668,764.4163
"1531",83.64141,764.4296
"1532",84.14435,764.44293
"1533",84.29084,764.45624
"1534",84.14191,764.46954
"1535",83.78546,764.48285
"1536",83.30694,764.49615
"1537",82.77226,764.50946
"1538",82.21805,764.52277
"1539",81.66628,764.5361
"1540",81.13893,764.5494
"1541",80.64088,764.5627
"1542",80.19165,764.576
"1543",79.80591,764.5893
"1544",79.49584,764.6026
"1545",79.290764,764.6159
"1546",79.202866,764.6292
"1547",79.234604,764.6425
"1548",79.36645,764.6558
"1549",79.56176,764.6691
"1550",79.764404,764.68243
"1551",79.93286,764.69574
"1552",80.03296,764.70905
"1553",80.05493,764.72235
"1554",80.00366,764.73566
"1555",79.8938,764.74896
"1556",79.742424,764.76227
"1557",79.571526,764.7756
"1558",79.38842,764.7889
"1559",79.202866,764.8022
"1560",79.029526,764.8155
"1561",78.87572,764.8288
"1562",78.73167,764.8421
"1563",78.59495,764.8554
"1564",78.46311,764.8687
"1565",78.34348,764.882
"1566",78.25315,764.8953
"1567",78.24338,764.9086
"1568",78.4094,764.92194
"1569",78.84398,764.93524
"1570",79.58373,764.94855
"1571",80.570076,764.96185
"1572",81.67361,764.97516
"1573",82.69901,764.98846
"1574",83.46319,765.0018
"1575",83.86603,765.0151
"1576",83.912415,765.0284
"1577",83.682915,765.0417
"1578",83.284966,765.055
"1579",82.80888,765.0683
"1580",82.31083,765.0816
"1581",81.80301,765.0949
"1582",81.29275,765.1082
"1583",80.782486,765.1215
"1584",80.28687,765.1348
"1585",79.83276,765.14813
"1586",79.46166,765.16144
"1587",79.202866,765.17474
"1588",79.07347,765.18805
"1589",79.06859,765.20135
"1590",79.17113,765.21466
"1591",79.344475,765.22797
"1592",79.54955,765.2413
"1593",79.74731,765.2546
"1594",79.903564,765.2679
"1595",79.98901,765.2812
"1596",79.99634,765.2945
"1597",79.923096,765.3078
"1598",79.77905,765.3211
"1599",79.58373,765.3344
"1600",79.36645,765.3477
"1601",79.149155,765.361
"1602",78.94652,765.3743
"1603",78.76097,765.38763
"1604",78.590065,765.40094
"1605",78.42893,765.41425
"1606",78.27268,765.42755
"1607",78.12619,765.44086
"1608",77.99191,765.45416
"1609",77.874725,765.46747
"1610",77.786835,765.4808
"1611",77.91867,765.5074
"1612",78.33372,765.5207
"1613",79.07347,765.534
"1614",80.10376,765.5473
"1615",81.29519,765.5606
"1616",82.4622,765.5739
"1617",83.407036,765.5872
"1618",84.01007,765.6005
"1619",84.244446,765.61383
"1620",84.1712,765.62714
"1621",83.878235,765.64044
"1622",83.438774,765.65375
"1623",82.91875,765.66705
"1624",82.36454,765.68036
"1625",81.81033,765.69366
"1626",81.28542,765.707
"1627",80.80446,765.7203
"1628",80.37965,765.7336
"1629",80.03296,765.7469
"1630",79.766846,765.7602
"1631",79.59838,765.7735
"1632",79.54467,765.7868
"1633",79.61059,765.8001
"1634",79.77173,765.8134
"1635",79.98413,765.8267
"1636",80.19653,765.84
"1637",80.360115,765.85333
"1638",80.43824,765.86664
"1639",80.42359,765.87994
"1640",80.33326,765.89325
"1641",80.181885,765.90656
"1642",79.98413,765.91986
"1643",79.7522,765.93317
"1644",79.4934,765.9465
"1645",79.22484,765.9598
"1646",78.96605,765.9731
"1647",78.73655,765.9864
"1648",78.553444,765.9997
"1649",78.40208,766.013
"1650",78.27268,766.0263
"1651",78.153046,766.0396
"1652",78.03586,766.0529
"1653",77.94064,766.0662
"1654",77.91379,766.0795
"1655",78.030975,766.09283
"1656",78.38743,766.10614
"1657",79.03929,766.11945
"1658",79.97681,766.13275
"1659",81.094986,766.14606
"1660",82.23758,766.15936
"1661",83.228806,766.17267
"1662",83.92462,766.186
"1663",84.263985,766.1993
"1664",84.27375,766.2126
"1665",84.02716,766.2259
"1666",83.60967,766.2392
"1667",83.10185,766.2525
"1668",82.564735,766.2658
"1669",82.037384,766.2791
"1670",81.53933,766.2924
"1671",81.077896,766.3057
"1672",80.66285,766.31903
"1673",80.29664,766.33234
"1674",80.00366,766.34564
"1675",79.80835,766.35895
"1676",79.71313,766.37225
"1677",79.7058,766.38556
"1678",79.77173,766.39886
"1679",79.87427,766.4122
"1680",79.974365,766.4255
"1681",80.042725,766.4388
"1682",80.062256,766.4521
"1683",80.025635,766.4654
"1684",79.93042,766.4787
"1685",79.783936,766.492
"1686",79.588615,766.5053
"1687",79.35424,766.5186
"1688",79.10277,766.5319
"1689",78.8513,766.5452
"1690",78.61692,766.55853
"1691",78.41917,766.57184
"1692",78.26536,766.58514
"1693",78.14084,766.59845
"1694",78.028534,766.61176
"1695",77.91135,766.62506
"1696",77.78439,766.63837
"1697",77.659874,766.6517
"1698",77.55978,766.665
"1699",77.52071,766.6783
"1700",77.61349,766.6916
"1701",77.925995,766.7049
"1702",78.521706,766.7182
"1703",79.38598,766.7315
"1704",80.430916,766.7448
"1705",81.50271,766.7581
"1706",82.43046,766.7714
"1707",83.06523,766.7847
"1708",83.346,766.79803
"1709",83.29717,766.81134
"1710",82.99931,766.82465
"1711",82.53788,766.83795
"1712",82.00809,766.85126
"1713",81.47097,766.86456
"1714",80.96559,766.87787
"1715",80.50416,766.8912
"1716",80.079346,766.9045
"1717",79.693596,766.9178
"1718",79.361565,766.9311
"1719",79.10765,766.9444
"1720",78.9514,766.9577
"1721",78.89525,766.971
"1722",78.92943,766.9843
"1723",79.02464,766.9976
"1724",79.14671,767.0109
"1725",79.256584,767.02423
"1726",79.33715,767.03754
"1727",79.36645,767.05084
"1728",79.34203,767.06415
"1729",79.259026,767.07745
"1730",79.12962,767.09076
"1731",78.97093,767.10406
"1732",78.78783,767.1174
"1733",78.59739,767.1307
"1734",78.40696,767.144
"1735",78.22873,767.1573
"1736",78.05783,767.1706
"1737",77.90158,767.1839
"1738",77.76242,767.1972
"1739",77.65011,767.2105
"1740",77.55978,767.2238
"1741",77.4963,767.2371
"1742",77.45724,767.2504
"1743",77.43038,767.26373
"1744",77.39864,767.27704
"1745",77.366905,767.29034
"1746",77.3254,767.30365
"1747",77.30343,767.31696
"1748",77.34005,767.33026
"1749",77.51583,767.34357
"1750",77.92111,767.3569
"1751",78.61204,767.3702
"1752",79.54955,767.3835
"1753",80.62623,767.3968
"1754",81.68093,767.4101
"1755",82.55253,767.4234
"1756",83.11406,767.4367
"1757",83.33868,767.45
"1758",83.27032,767.4633
"1759",82.98711,767.4766
"1760",82.56962,767.4899
"1761",82.091095,767.50323
"1762",81.61013,767.51654
"1763",81.15114,767.52985
"1764",80.72877,767.54315
"1765",80.34058,767.55646
"1766",79.98657,767.56976
"1767",79.66918,767.58307
"1768",79.40551,767.5964
"1769",79.217514,767.6097
"1770",79.114975,767.623
"1771",79.09544,767.6363
"1772",79.15648,767.6496
"1773",79.26879,767.6629
"1774",79.398186,767.6762
"1775",79.50561,767.6895
"1776",79.571526,767.7028
"1777",79.56664,767.7161
"1778",79.500725,767.72943
"1779",79.38354,767.74274
"1780",79.23216,767.75604
"1781",79.05882,767.76935
"1782",78.87816,767.78265
"1783",78.695045,767.79596
"1784",78.51438,767.80927
"1785",78.3386,767.8226
"1786",78.170135,767.8359
"1787",78.013885,767.8492
"1788",77.86984,767.8625
"1789",77.747765,767.8758
"1790",77.65743,767.8891
"1791",77.60616,767.9024
"1792",77.591515,767.9157
"1793",77.5964,767.929
"1794",77.608604,767.9423
"1795",77.62081,767.9556
"1796",77.61837,767.96893
"1797",77.60616,767.98224
"1798",77.591515,767.99554
"1799",77.576866,768.00885
"1800",77.57931,768.02216
"1801",77.63302,768.03546
"1802",77.821014,768.04877
"1803",78.23117,768.0621
"1804",78.91722,768.0754
"1805",79.84741,768.0887
"1806",80.91188,768.102
"1807",81.94949,768.1153
"1808",82.79668,768.1286
"1809",83.35088,768.1419
"1810",83.59258,768.1552
"1811",83.57061,768.1685
"1812",83.34844,768.1818
"1813",82.99443,768.1951
"1814",82.55741,768.20844
"1815",82.08377,768.22174
"1816",81.60769,768.23505
"1817",81.15602,768.24835
"1818",80.73853,768.26166
"1819",80.36744,768.27496
"1820",80.04028,768.28827
"1821",79.77173,768.3016
"1822",79.57641,768.3149
"1823",79.45922,768.3282
"1824",79.42016,768.3415
"1825",79.449455,768.3548
"1826",79.5227,768.3681
"1827",79.60082,768.3814
"1828",79.64965,768.3947
"1829",79.64965,768.408
"1830",79.59106,768.4213
"1831",79.483635,768.43463
"1832",79.34203,768.44794
"1833",79.17601,768.46124
"1834",78.99779,768.47455
"1835",78.80736,768.48785
"1836",78.61448,768.50116
"1837",78.42405,768.51447
"1838",78.24826,768.5278
"1839",78.09201,768.5411
"1840",77.962616,768.5544
"1841",77.85275,768.5677
"1842",77.76242,768.581
"1843",77.69405,768.5943
"1844",77.64767,768.6076
"1845",77.628136,768.6209
"1846",77.642784,768.6342
"1847",77.69161,768.6475
"1848",77.769745,768.6608
"1849",77.86008,768.67413
"1850",77.95529,768.68744
"1851",78.03586,768.70074
"1852",78.099335,768.71405
"1853",78.14084,768.72736
"1854",78.1799,768.74066
"1855",78.25803,768.75397
"1856",78.467995,768.7673
"1857",78.905014,768.7806
"1858",79.62035,768.7939
"1859",80.57252,768.8072
"1860",81.64919,768.8205
"1861",82.67704,768.8338
"1862",83.48516,768.8471
"1863",83.97101,768.8604
"1864",84.11017,768.8737
"1865",83.95148,768.887
"1866",83.58526,768.9003
"1867",83.09453,768.91364
"1868",82.55985,768.92694
"1869",82.04959,768.94025
"1870",81.58816,768.95355
"1871",81.18532,768.96686
"1872",80.82643,768.98016
"1873",80.5066,768.99347
"1874",80.233154,769.0068
"1875",80.008545,769.0201
"1876",79.84985,769.0334
"1877",79.77661,769.0467
"1878",79.78882,769.06
"1879",79.871826,769.0733
"1880",79.99634,769.0866
"1881",80.12085,769.0999
"1882",80.2063,769.1132
"1883",80.22827,769.1265
"1884",80.17944,769.13983
"1885",80.06714,769.15314
"1886",79.91089,769.16644
"1887",79.71801,769.17975
"1888",79.49584,769.19305
"1889",79.2517,769.20636
"1890",78.99046,769.21967
"1891",78.74143,769.233
"1892",78.521706,769.2463
"1893",78.345924,769.2596
"1894",78.21652,769.2729
"1895",78.1384,769.2862
"1896",78.09689,769.2995
"1897",78.0798,769.3128
"1898",78.0798,769.3261
"1899",78.08713,769.3394
"1900",78.08469,769.3527
"1901",78.07004,769.366
"1902",78.030975,769.37933
"1903",77.977264,769.39264
"1904",77.91623,769.40594
"1905",77.8674,769.41925
"1906",77.86008,769.43256
"1907",77.96506,769.44586
"1908",78.26536,769.45917
"1909",78.819565,769.4725
"1910",79.61547,769.4858
"1911",80.570076,769.4991
"1912",81.53689,769.5124
"1913",82.34745,769.5257
"1914",82.882126,769.539
"1915",83.104294,769.5523
"1916",83.05058,769.5656
"1917",82.80156,769.5789
"1918",82.43534,769.5922
"1919",82.02518,769.6055
"1920",81.61501,769.61884
"1921",81.22682,769.63214
"1922",80.86549,769.64545
"1923",80.54078,769.65875
"1924",80.25269,769.67206
"1925",80.00366,769.68536
"1926",79.80591,769.69867
"1927",79.67162,769.712
"1928",79.61791,769.7253
"1929",79.64965,769.7386
"1930",79.74975,769.7519
"1931",79.886475,769.7652
"1932",80.02075,769.7785
"1933",80.12573,769.7918
"1934",80.17212,769.8051
"1935",80.16235,769.8184
"1936",80.09888,769.8317
"1937",80.00122,769.84503
"1938",79.871826,769.85834
"1939",79.71557,769.87164
"1940",79.53979,769.88495
"1941",79.364006,769.89825
"1942",79.18822,769.91156
"1943",79.01732,769.92487
"1944",78.8513,769.9382
"1945",78.695045,769.9515
"1946",78.54612,769.9648
"1947",78.40696,769.9781
"1948",78.29221,769.9914
"1949",78.19699,770.0047
"1950",78.12619,770.018
"1951",78.07492,770.0313
"1952",78.048065,770.0446
"1953",78.07736,770.0579
"1954",78.24582,770.0712
"1955",78.63157,770.08453
"1956",79.273674,770.09784
"1957",80.128174,770.11115
"1958",81.08766,770.12445
"1959",81.991,770.13776
"1960",82.67948,770.15106
"1961",83.055466,770.16437
"1962",83.10918,770.1777
"1963",82.899216,770.191
"1964",82.49882,770.2043
"1965",81.99344,770.2176
"1966",81.45144,770.2309
"1967",80.92653,770.2442
"1968",80.44068,770.2575
"1969",80.01343,770.2708
"1970",79.65209,770.2841
"1971",79.35424,770.2974
"1972",79.12718,770.3107
"1973",78.97826,770.32404
"1974",78.91966,770.33734
"1975",78.95628,770.35065
"1976",79.078354,770.36395
"1977",79.27123,770.37726
"1978",79.49584,770.39056
"1979",79.7058,770.4039
"1980",79.85962,770.4172
"1981",79.94995,770.4305
"1982",79.971924,770.4438
"1983",79.93286,770.4571
"1984",79.85718,770.4704
"1985",79.76196,770.4837
"1986",79.65942,770.497
"1987",79.554436,770.5103
"1988",79.447014,770.5236
"1989",79.33471,770.5369
"1990",79.21507,770.55023
"1991",79.08324,770.56354
"1992",78.93919,770.57684
"1993",78.79515,770.59015
"1994",78.65598,770.60345
"1995",78.54124,770.61676
"1996",78.45823,770.63007
"1997",78.433815,770.6434
"1998",78.51682,770.6567
"1999",78.78294,770.67
"2000",79.28832,770.6833
"2001",80.025635,770.6966
"2002",80.92653,770.7099
"2003",81.86893,770.7232
"2004",82.69657,770.7365
"2005",83.26299,770.7498
"2006",83.509575,770.7631
"2007",83.4461,770.7764
"2008",83.13359,770.78973
"2009",82.65507,770.80304
"2010",82.1033,770.81635
"2011",81.54177,770.82965
"2012",81.01686,770.84296
"2013",80.552986,770.85626
"2014",80.147705,770.86957
"2015",79.7937,770.8829
"2016",79.500725,770.8962
"2017",79.28344,770.9095
"2018",79.16136,770.9228
"2019",79.13939,770.9361
"2020",79.21507,770.9494
"2021",79.364006,770.9627
"2022",79.54223,770.976
"2023",79.71557,770.9893
"2024",79.852295,771.0026
"2025",79.937744,771.0159
"2026",79.971924,771.02924
"2027",79.96216,771.04254
"2028",79.903564,771.05585
"2029",79.80591,771.06915
"2030",79.67162,771.08246
"2031",79.520256,771.09576
"2032",79.36645,771.1091
"2033",79.22484,771.1224
"2034",79.10277,771.1357
"2035",79.00023,771.149
"2036",78.9099,771.1623
"2037",78.82933,771.1756
"2038",78.751205,771.1889
"2039",78.68528,771.2022
"2040",78.63645,771.2155
"2041",78.6218,771.2288
"2042",78.68284,771.2421
"2043",78.89281,771.25543
"2044",79.327385,771.26874
"2045",80.008545,771.28204
"2046",80.885025,771.29535
"2047",81.83475,771.30865
"2048",82.69901,771.32196
"2049",83.32647,771.33527
"2050",83.6292,771.3486
"2051",83.614555,771.3619
"2052",83.35088,771.3752
"2053",82.92119,771.3885
"2054",82.41093,771.4018
"2055",81.8909,771.4151
"2056",81.40749,771.4284
"2057",80.970474,771.4417
"2058",80.57984,771.455
"2059",80.22827,771.4683
"2060",79.92554,771.4816
"2061",79.68871,771.49493
"2062",79.53979,771.50824
"2063",79.50561,771.52155
"2064",79.586174,771.53485
"2065",79.7522,771.54816
"2066",79.957275,771.56146
"2067",80.15991,771.57477
"2068",80.323494,771.5881
"2069",80.430916,771.6014
"2070",80.482185,771.6147
"2071",80.479744,771.628
"2072",80.430916,771.6413
"2073",80.33326,771.6546
"2074",80.19165,771.6679
"2075",80.01099,771.6812
"2076",79.80591,771.6945
"2077",79.588615,771.7078
"2078",79.36889,771.7211
"2079",79.15648,771.73444
"2080",78.95628,771.74774
"2081",78.77074,771.76105
"2082",78.61204,771.77435
"2083",78.49729,771.78766
"2084",78.46555,771.80096
"2085",78.590065,771.8143
"2086",78.94408,771.8276
"2087",79.55688,771.8409
"2088",80.38209,771.8542
"2089",81.30251,771.8675
"2090",82.17166,771.8808
"2091",82.84062,771.8941
"2092",83.21416,771.9074
"2093",83.282524,771.9207
"2094",83.09941,771.934
"2095",82.73319,771.9473
"2096",82.25712,771.96063
"2097",81.7322,771.97394
"2098",81.19508,771.98724
"2099",80.672615,772.00055
"2100",80.184326,772.01385
"2101",79.75464,772.02716
"2102",79.398186,772.04047
"2103",79.14183,772.0538
"2104",79.00511,772.0671
"2105",78.995346,772.0804
"2106",79.10277,772.0937
"2107",79.293205,772.107
"2108",79.520256,772.1203
"2109",79.7351,772.1336
"2110",79.90112,772.1469
"2111",79.99878,772.1602
"2112",80.02075,772.1735
"2113",79.97925,772.1868
"2114",79.89624,772.20013
"2115",79.77905,772.21344
"2116",79.639885,772.22675
"2117",79.48852,772.24005
"2118",79.33959,772.25336
"2119",79.202866,772.26666
"2120",79.08324,772.27997
"2121",78.97826,772.2933
"2122",78.890366,772.3066
"2123",78.81712,772.3199
"2124",78.75853,772.3332
"2125",78.746315,772.3465
"2126",78.84154,772.3598
"2127",79.12718,772.3731
"2128",79.65942,772.3864
"2129",80.42603,772.3997
"2130",81.341576,772.413
"2131",82.252235,772.42633
"2132",83.00908,772.43964
"2133",83.49004,772.45294
"2134",83.66094,772.46625
"2135",83.563286,772.47955
"2136",83.27032,772.49286
"2137",82.86015,772.50616
"2138",82.391396,772.5195
"2139",81.90311,772.5328
"2140",81.41238,772.5461
"2141",80.93141,772.5594
"2142",80.482185,772.5727
"2143",80.079346,772.586
"2144",79.74975,772.5993
"2145",79.5227,772.6126
"2146",79.42016,772.6259
"2147",79.43481,772.6392
"2148",79.54955,772.6525
"2149",79.73266,772.66583
"2150",79.94263,772.67914
"2151",80.13794,772.69244
"2152",80.28443,772.70575
"2153",80.36988,772.71906
"2154",80.38209,772.73236
"2155",80.325935,772.74567
"2156",80.21362,772.759
"2157",80.062256,772.7723
"2158",79.886475,772.7856
"2159",79.70092,772.7989
"2160",79.50317,772.8122
"2161",79.30785,772.8255
"2162",79.1223,772.8388
"2163",78.95628,772.8521
"2164",78.81468,772.8654
"2165",78.71458,772.8787
"2166",78.66331,772.892
"2167",78.70237,772.90533
"2168",78.90257,772.91864
"2169",79.33959,772.93195
"2170",80.0354,772.94525
"2171",80.92409,772.95856
"2172",81.87381,772.97186
"2173",82.73075,772.98517
"2174",83.34356,772.9985
"2175",83.63653,773.0118
"2176",83.631645,773.0251
"2177",83.39727,773.0384
"2178",83.01152,773.0517
"2179",82.53544,773.065
"2180",82.03006,773.0783
"2181",81.52712,773.0916
"2182",81.04372,773.1049
"2183",80.58961,773.1182
"2184",80.17456,773.13153
"2185",79.815674,773.14484
"2186",79.53979,773.15814
"2187",79.37377,773.17145
"2188",79.33227,773.18475
"2189",79.40795,773.19806
"2190",79.569084,773.21136
"2191",79.77417,773.2247
"2192",79.971924,773.238
"2193",80.128174,773.2513
"2194",80.23071,773.2646
"2195",80.2649,773.2779
"2196",80.22583,773.2912
"2197",80.11841,773.3045
"2198",79.954834,773.3178
"2199",79.744865,773.3311
"2200",79.517815,773.3444
"2201",79.290764,773.3577
"2202",79.08568,773.37103
"2203",78.905014,773.38434
"2204",78.74387,773.39764
"2205",78.59739,773.41095
"2206",78.467995,773.42426
"2207",78.35813,773.43756
"2208",78.28489,773.45087
"2209",78.29954,773.4642
"2210",78.49241,773.4775
"2211",78.94408,773.4908
"2212",79.68871,773.5041
"2213",80.67506,773.5174
"2214",81.77615,773.5307
"2215",82.80888,773.544
"2216",83.60479,773.5573
"2217",84.06622,773.5706
"2218",84.19806,773.5839
"2219",84.06134,773.5972
"2220",83.74395,773.61053
"2221",83.32403,773.62384
"2222",82.85283,773.63715
"2223",82.3621,773.65045
"2224",81.86893,773.66376
"2225",81.3782,773.67706
"2226",80.91432,773.69037
"2227",80.49683,773.7037
"2228",80.16235,773.717
"2229",79.9353,773.7303
"2230",79.835205,773.7436
"2231",79.85474,773.7569
"2232",79.96704,773.7702
"2233",80.128174,773.7835
"2234",80.291756,773.7968
"2235",80.42115,773.8101
"2236",80.49195,773.8234
"2237",80.48951,773.83673
"2238",80.41871,773.85004
"2239",80.291756,773.86334
"2240",80.11597,773.87665
"2241",79.906006,773.88995
"2242",79.676506,773.90326
"2243",79.447014,773.91656
"2244",79.234604,773.9299
"2245",79.046616,773.9432
"2246",78.8806,773.9565
"2247",78.73167,773.9698
"2248",78.58274,773.9831
"2249",78.433815,773.9964
"2250",78.2971,774.0097
"2251",78.20676,774.023
"2252",78.238495,774.0363
"2253",78.487526,774.0496
"2254",79.03441,774.0629
"2255",79.87915,774.07623
"2256",80.953384,774.08954
"2257",82.09842,774.10284
"2258",83.13359,774.11615
"2259",83.897766,774.12946
"2260",84.30793,774.14276
"2261",84.37629,774.15607
"2262",84.1712,774.1694
"2263",83.78546,774.1827
"2264",83.29229,774.196
"2265",82.760056,774.2093
"2266",82.22049,774.2226
"2267",81.685814,774.2359
"2268",81.16823,774.2492
"2269",80.67994,774.2625
"2270",80.24048,774.2758
"2271",79.87427,774.2891
"2272",79.603264,774.3024
"2273",79.447014,774.31573
"2274",79.41039,774.32904
"2275",79.47387,774.34235
"2276",79.605705,774.35565
"2277",79.764404,774.36896
"2278",79.91089,774.38226
"2279",80.01343,774.39557
"2280",80.05005,774.4089
"2281",80.01587,774.4222
"2282",79.906006,774.4355
"2283",79.73022,774.4488
"2284",79.49096,774.4621
"2285",79.217514,774.4754
"2286",78.93187,774.4887
"2287",78.658424,774.502
"2288",78.416725,774.5153
"2289",78.21408,774.5286
"2290",78.04074,774.54193
"2291",77.88937,774.55524
"2292",77.747765,774.56854
"2293",77.611046,774.58185
"2294",77.488976,774.59515
"2295",77.39132,774.60846
"2296",77.34005,774.62177
"2297",77.38155,774.6351
"2298",77.60372,774.6484
"2299",78.10422,774.6617
"2300",78.922104,774.675
"2301",80.01831,774.6883
"2302",81.27322,774.7016
"2303",82.49882,774.7149
"2304",83.51202,774.7282
"2305",84.18097,774.7415
"2306",84.48127,774.7548
"2307",84.454414,774.7681
"2308",84.190735,774.78143
"2309",83.77814,774.79474
"2310",83.28985,774.80804
"2311",82.777145,774.82135
"2312",82.25956,774.83466
"2313",81.73708,774.84796
"2314",81.2195,774.86127
"2315",80.726326,774.8746
"2316",80.29664,774.8879
"2317",79.95972,774.9012
"2318",79.75464,774.9145
"2319",79.70092,774.9278
"2320",79.77661,774.9411
"2321",79.94507,774.9544
"2322",80.15503,774.9677
"2323",80.34547,774.981
"2324",80.47242,774.9943
"2325",80.5066,775.0076
"2326",80.44312,775.02094
"2327",80.291756,775.03424
"2328",80.06958,775.04755
"2329",79.78882,775.06085
"2330",79.466545,775.07416
"2331",79.12718,775.08746
"2332",78.78294,775.10077
"2333",78.45823,775.1141
"2334",78.15793,775.1274
"2335",77.89426,775.1407
"2336",77.67208,775.154
"2337",77.50118,775.1673
"2338",77.37667,775.1806
"2339",77.296104,775.1939
"2340",77.239944,775.2072
"2341",77.20088,775.2205
"2342",77.154495,775.2338
"2343",77.10811,775.24713
"2344",77.069046,775.26044
"2345",77.07393,775.27374
"2346",77.20332,775.28705
"2347",77.5671,775.30035
"2348",78.24582,775.31366
"2349",79.24681,775.32697
"2350",80.49439,775.3403
"2351",81.832306,775.3536
"2352",83.070114,775.3669
"2353",84.034485,775.3802
"2354",84.63264,775.3935
"2355",84.86702,775.4068
"2356",84.788895,775.4201
"2357",84.491035,775.4334
"2358",84.05646,775.4467
"2359",83.5584,775.46
"2360",83.04082,775.4733
"2361",82.52567,775.48663
"2362",82.01785,775.49994
"2363",81.52468,775.51324
"2364",81.06569,775.52655
"2365",80.655525,775.53986
"2366",80.323494,775.55316
"2367",80.079346,775.56647
"2368",79.94263,775.5798
"2369",79.89868,775.5931
"2370",79.923096,775.6064
"2371",79.98169,775.6197
"2372",80.0354,775.633
"2373",80.042725,775.6463
"2374",79.9939,775.6596
"2375",79.88159,775.6729
"2376",79.71313,775.6862
"2377",79.49584,775.6995
"2378",79.22728,775.7128
"2379",78.924545,775.72614
"2380",78.59983,775.73944
"2381",78.27268,775.75275
"2382",77.9675,775.76605
"2383",77.69894,775.77936
"2384",77.46212,775.79266
"2385",77.261925,775.80597
"2386",77.09346,775.8193
"2387",76.961624,775.8326
"2388",76.87862,775.8459
"2389",76.85176,775.8592
"2390",76.876175,775.8725
"2391",76.929886,775.8858
"2392",76.99092,775.8991
"2393",77.02266,775.9124
"2394",77.015335,775.9257
"2395",76.97139,775.939
"2396",76.91524,775.95233
"2397",76.88106,775.96564
"2398",76.93233,775.97894
"2399",77.1667,775.99225
"2400",77.67696,776.00555
"2401",78.51438,776.01886
"2402",79.64233,776.03217
"2403",80.9485,776.0455
"2404",82.262,776.0588
"2405",83.40215,776.0721
"2406",84.23712,776.0854
"2407",84.7132,776.0987
"2408",84.84749,776.112
"2409",84.70344,776.1253
"2410",84.35432,776.1386
"2411",83.878235,776.1519
"2412",83.34356,776.1652
"2413",82.794235,776.1785
"2414",82.25712,776.19183
"2415",81.74685,776.20514
"2416",81.27322,776.21844
"2417",80.850845,776.23175
"2418",80.50172,776.24506
"2419",80.235596,776.25836
"2420",80.06958,776.27167
"2421",79.99878,776.285
"2422",80.008545,776.2983
"2423",80.06958,776.3116
"2424",80.14526,776.3249
"2425",80.201416,776.3382
"2426",80.216064,776.3515
"2427",80.164795,776.3648
"2428",80.05005,776.3781
"2429",79.87671,776.3914
"2430",79.656975,776.4047
"2431",79.398186,776.418
"2432",79.12474,776.43134
"2433",78.84398,776.44464
"2434",78.56565,776.45795
"2435",78.29221,776.47125
"2436",78.028534,776.48456
"2437",77.77463,776.49786
"2438",77.54269,776.51117
"2439",77.34005,776.5245
"2440",77.1667,776.5378
"2441",77.01778,776.5511
"2442",76.88594,776.5644
"2443",76.76875,776.5777
"2444",76.66132,776.591
"2445",76.575874,776.6043
"2446",76.51728,776.6176
"2447",76.48066,776.6309
"2448",76.46601,776.6442
"2449",76.46357,776.65753
"2450",76.46601,776.67084
"2451",76.46601,776.68414
"2452",76.46845,776.69745
"2453",76.50263,776.71075
"2454",76.65644,776.72406
"2455",77.04463,776.73737
"2456",77.75021,776.7507
"2457",78.77562,776.764
"2458",80.04028,776.7773
"2459",81.392845,776.7906
"2460",82.650185,776.8039
"2461",83.6585,776.8172
"2462",84.34455,776.8305
"2463",84.698555,776.8438
"2464",84.75716,776.8571
"2465",84.56672,776.8704
"2466",84.19562,776.8837
"2467",83.70977,776.89703
"2468",83.17265,776.91034
"2469",82.62333,776.92365
"2470",82.08865,776.93695
"2471",81.57351,776.95026
"2472",81.08522,776.96356
"2473",80.64332,776.97687
"2474",80.26978,776.9902
"2475",79.98413,777.0035
"2476",79.80347,777.0168
"2477",79.73266,777.0301
"2478",79.744865,777.0434
"2479",79.80835,777.0567
"2480",79.88403,777.07
"2481",79.940186,777.0833
"2482",79.954834,777.0966
"2483",79.91089,777.1099
"2484",79.80347,777.1232
"2485",79.635,777.13654
"2486",79.42016,777.14984
"2487",79.168686,777.16315
"2488",78.88548,777.17645
"2489",78.590065,777.18976
"2490",78.29221,777.20306
"2491",78.00656,777.2164
"2492",77.73556,777.2297
"2493",77.49142,777.243
"2494",77.279015,777.2563
"2495",77.103226,777.2696
"2496",76.961624,777.2829
"2497",76.8542,777.2962
"2498",76.77608,777.3095
"2499",76.717476,777.3228
"2500",76.67353,777.3361
"2501",76.63447,777.3494
"2502",76.60029,777.36273
"2503",76.56855,777.37604
"2504",76.54658,777.38934
"2505",76.53437,777.40265
"2506",76.524605,777.41595
"2507",76.52216,777.42926
"2508",76.5539,777.44257
"2509",76.69306,777.4559
"2510",77.04463,777.4692
"2511",77.70382,777.4825
"2512",78.68772,777.4958
"2513",79.91577,777.5091
"2514",81.234146,777.5224
"2515",82.4622,777.5357
"2516",83.43633,777.549
"2517",84.08331,777.5623
"2518",84.40803,777.5756
"2519",84.4593,777.5889
"2520",84.30305,777.60223
"2521",84.000305,777.61554
"2522",83.595024,777.62885
"2523",83.12871,777.64215
"2524",82.62333,777.65546
"2525",82.08865,777.66876
"2526",81.55154,777.68207
"2527",81.03883,777.6954
"2528",80.584724,777.7087
"2529",80.22339,777.722
"2530",79.97925,777.7353
"2531",79.86206,777.7486
"2532",79.86206,777.7619
"2533",79.940186,777.7752
"2534",80.05737,777.7885
"2535",80.16968,777.8018
"2536",80.235596,777.8151
"2537",80.22339,777.8284
"2538",80.128174,777.84174
"2539",79.96216,777.85504
"2540",79.742424,777.86835
"2541",79.48852,777.88165
"2542",79.2224,777.89496
"2543",78.94896,777.90826
"2544",78.675514,777.9216
"2545",78.40696,777.9349
"2546",78.150604,777.9482
"2547",77.91867,777.9615
"2548",77.71847,777.9748
"2549",77.55001,777.9881
"2550",77.41329,778.0014
"2551",77.298546,778.0147
"2552",77.20332,778.028
"2553",77.1252,778.0413
"2554",77.06172,778.0546
"2555",77.02022,778.06793
"2556",76.99336,778.08124
"2557",76.97139,778.09454
"2558",76.944534,778.10785
"2559",76.91768,778.12115
"2560",76.88106,778.13446
"2561",76.84444,778.14777
"2562",76.84444,778.1611
"2563",76.95186,778.1744
"2564",77.264366,778.1877
"2565",77.86984,778.201
"2566",78.79271,778.2143
"2567",79.96704,778.2276
"2568",81.25124,778.2409
"2569",82.44999,778.2542
"2570",83.39971,778.2675
"2571",84.00275,778.2808
"2572",84.25666,778.2941
"2573",84.207825,778.30743
"2574",83.931946,778.32074
"2575",83.49737,778.33405
"2576",82.96025,778.34735
"2577",82.36698,778.36066
"2578",81.74929,778.37396
"2579",81.13405,778.38727
"2580",80.5481,778.4006
"2581",80.02319,778.4139
"2582",79.588615,778.4272
"2583",79.273674,778.4405
"2584",79.097885,778.4538
"2585",79.06615,778.4671
"2586",79.15648,778.4804
"2587",79.32494,778.4937
"2588",79.520256,778.507
"2589",79.691154,778.5203
"2590",79.801025,778.5336
"2591",79.83276,778.54694
"2592",79.78882,778.56024
"2593",79.68139,778.57355
"2594",79.52514,778.58685
"2595",79.33227,778.60016
"2596",79.114975,778.61346
"2597",78.890366,778.6268
"2598",78.658424,778.6401
"2599",78.43137,778.6534
"2600",78.21896,778.6667
"2601",78.028534,778.68
"2602",77.86252,778.6933
"2603",77.72335,778.7066
"2604",77.60616,778.7199
"2605",77.503624,778.7332
"2606",77.41329,778.7465
"2607",77.3254,778.7598
"2608",77.24483,778.77313
"2609",77.171585,778.78644
"2610",77.117874,778.79974
"2611",77.100784,778.81305
"2612",77.16426,778.82635
"2613",77.37911,778.83966
"2614",77.82834,778.85297
"2615",78.54612,778.8663
"2616",79.50317,778.8796
"2617",80.59937,778.8929
"2618",81.67605,778.9062
"2619",82.57206,778.9195
"2620",83.177536,778.9328
"2621",83.46075,778.9461
"2622",83.45342,778.9594
"2623",83.2166,778.9727
"2624",82.81621,778.986
"2625",82.31815,778.9993
"2626",81.76395,779.01263
"2627",81.18776,779.02594
"2628",80.62867,779.03925
"2629",80.10864,779.05255
"2630",79.65209,779.06586
"2631",79.28832,779.07916
"2632",79.03929,779.09247
"2633",78.91478,779.1058
"2634",78.91722,779.1191
"2635",79.027084,779.1324
"2636",79.21507,779.1457
"2637",79.43725,779.159
"2638",79.65942,779.1723
"2639",79.84009,779.1856
"2640",79.957275,779.1989
"2641",80.0061,779.2122
"2642",79.98901,779.2255
"2643",79.91333,779.23883
"2644",79.79614,779.25214
"2645",79.65453,779.26544
"2646",79.500725,779.27875
"2647",79.33959,779.29205
"2648",79.183334,779.30536
"2649",79.03441,779.31866
"2650",78.90013,779.332
"2651",78.78294,779.3453
"2652",78.67063,779.3586
"2653",78.56077,779.3719
"2654",78.45579,779.3852
"2655",78.36057,779.3985
"2656",78.3093,779.4118
"2657",78.365456,779.4251
"2658",78.61692,779.4384
"2659",79.13695,779.4517
"2660",79.92798,779.465
"2661",80.919205,779.47833
"2662",81.971466,779.49164
"2663",82.916306,779.50494
"2664",83.60235,779.51825
"2665",83.966125,779.53156
"2666",84.01984,779.54486
"2667",83.81964,779.55817
"2668",83.43145,779.5715
"2669",82.92851,779.5848
"2670",82.36942,779.5981
"2671",81.78836,779.6114
"2672",81.214615,779.6247
"2673",80.672615,779.638
"2674",80.184326,779.6513
"2675",79.77417,779.6646
"2676",79.46166,779.6779
"2677",79.27856,779.6912
"2678",79.23949,779.7045
"2679",79.33471,779.71783
"2680",79.53002,779.73114
"2681",79.78882,779.74445
"2682",80.059814,779.75775
"2683",80.289314,779.77106
"2684",80.4358,779.78436
"2685",80.48707,779.79767
"2686",80.45045,779.811
"2687",80.34058,779.8243
"2688",80.184326,779.8376
"2689",80.0061,779.8509
"2690",79.81323,779.8642
"2691",79.60082,779.8775
"2692",79.381096,779.8908
"2693",79.1638,779.9041
"2694",78.96605,779.9174
"2695",78.80736,779.9307
"2696",78.71458,779.94403
"2697",78.7219,779.95734
"2698",78.89525,779.97064
"2699",79.30297,779.98395
"2700",79.96704,779.99725
"2701",80.84108,780.01056
"2702",81.80789,780.02386
"2703",82.72587,780.0372
"2704",83.4461,780.0505
"2705",83.888,780.0638
"2706",84.03937,780.0771
"2707",83.93927,780.0904
"2708",83.648735,780.1037
"2709",83.228806,780.117
"2710",82.73075,780.1303
"2711",82.193634,780.1436
"2712",81.654076,780.1569
"2713",81.13649,780.1702
"2714",80.66529,780.18353
"2715",80.26978,780.19684
"2716",79.96704,780.21014
"2717",79.766846,780.22345
"2718",79.66918,780.23676
"2719",79.66186,780.25006
"2720",79.727776,780.26337
"2721",79.84497,780.2767
"2722",79.98657,780.29
"2723",80.11597,780.3033
"2724",80.20386,780.3166
"2725",80.233154,780.3299
"2726",80.18921,780.3432
"2727",80.079346,780.3565
"2728",79.92554,780.3698
"2729",79.74731,780.3831
"2730",79.551994,780.3964
"2731",79.34692,780.4097
"2732",79.132065,780.42303
"2733",78.9099,780.43634
"2734",78.68772,780.44965
"2735",78.487526,780.46295
"2736",78.365456,780.47626
"2737",78.39231,780.48956
"2738",78.65354,780.50287
"2739",79.21263,780.5162
"2740",80.042725,780.5295
"2741",81.041275,780.5428
"2742",82.05203,780.5561
"2743",82.90166,780.5694
"2744",83.475395,780.5827
"2745",83.736626,780.596
"2746",83.717094,780.6093
"2747",83.492485,780.6226
"2748",83.14824,780.6359
"2749",82.73319,780.64923
"2750",82.28397,780.66254
"2751",81.82498,780.67584
"2752",81.375755,780.68915
"2753",80.94606,780.70245
"2754",80.56275,780.71576
"2755",80.25025,780.72906
"2756",80.025635,780.7424
"2757",79.89624,780.7557
"2758",79.8645,780.769
"2759",79.903564,780.7823
"2760",79.9939,780.7956
"2761",80.10376,780.8089
"2762",80.2063,780.8222
"2763",80.28443,780.8355
"2764",80.31617,780.8488
"2765",80.30396,780.8621
"2766",80.24048,780.8754
"2767",80.130615,780.88873
"2768",79.974365,780.90204
"2769",79.781494,780.91534
"2770",79.551994,780.92865
"2771",79.29809,780.94196
"2772",79.03197,780.95526
"2773",78.77318,780.96857
"2774",78.538795,780.9819
"2775",78.363014,780.9952
"2776",78.28977,781.0085
"2777",78.40452,781.0218
"2778",78.7805,781.0351
"2779",79.4519,781.0484
"2780",80.37476,781.0617
"2781",81.43191,781.075
"2782",82.45487,781.0883
"2783",83.27276,781.1016
"2784",83.77081,781.1149
"2785",83.91974,781.12823
"2786",83.76837,781.14154
"2787",83.404594,781.15485
"2788",82.92119,781.16815
"2789",82.39628,781.18146
"2790",81.86893,781.19476
"2791",81.36111,781.20807
"2792",80.8777,781.2214
"2793",80.42359,781.2347
"2794",80.01831,781.248
"2795",79.70336,781.2613
"2796",79.50805,781.2746
"2797",79.44213,781.2879
"2798",79.49096,781.3012
"2799",79.62035,781.3145
"2800",79.77905,781.3278
"2801",79.91821,781.3411
"2802",80.01343,781.35443
"2803",80.05493,781.36774
"2804",80.042725,781.38104
"2805",79.97681,781.39435
"2806",79.85962,781.40765
"2807",79.70092,781.42096
"2808",79.50317,781.43427
"2809",79.28344,781.4476
"2810",79.06615,781.4609
"2811",78.86595,781.4742
"2812",78.68528,781.4875
"2813",78.521706,781.5008
"2814",78.3679,781.5141
"2815",78.22629,781.5274
"2816",78.12375,781.5407
"2817",78.11398,781.554
"2818",78.28977,781.5673
"2819",78.73899,781.5806
"2820",79.483635,781.59393
"2821",80.465096,781.60724
"2822",81.55154,781.62054
"2823",82.56962,781.63385
"2824",83.35821,781.64716
"2825",83.8172,781.66046
"2826",83.93927,781.67377
"2827",83.77814,781.6871
"2828",83.4168,781.7004
"2829",82.93584,781.7137
"2830",82.408485,781.727
"2831",81.87869,781.7403
"2832",81.37087,781.7536
"2833",80.88991,781.7669
"2834",80.44068,781.7802
"2835",80.05249,781.7935
"2836",79.74731,781.8068
"2837",79.55688,781.8201
"2838",79.500725,781.83344
"2839",79.5642,781.84674
"2840",79.71557,781.86005
"2841",79.89868,781.87335
"2842",80.05737,781.88666
"2843",80.15259,781.89996
"2844",80.17212,781.91327
"2845",80.12085,781.9266
"2846",80.02075,781.9399
"2847",79.89624,781.9532
"2848",79.75708,781.9665
"2849",79.60815,781.9798
"2850",79.44457,781.9931
"2851",79.273674,782.0064
"2852",79.10033,782.0197
"2853",78.92943,782.033
"2854",78.76097,782.0463
"2855",78.60471,782.05963
"2856",78.46555,782.07294
"2857",78.348366,782.08624
"2858",78.25315,782.09955
"2859",78.1799,782.11285
"2860",78.12619,782.12616
"2861",78.099335,782.13947
"2862",78.14816,782.1528
"2863",78.36057,782.1661
"2864",78.83421,782.1794
"2865",79.61059,782.1927
"2866",80.65064,782.206
"2867",81.832306,782.2193
"2868",82.96513,782.2326
"2869",83.861145,782.2459
"2870",84.39826,782.2592
"2871",84.54963,782.2725
"2872",84.36652,782.2858
"2873",83.95148,782.29913
"2874",83.41436,782.31244
"2875",82.845505,782.32574
"2876",82.29862,782.33905
"2877",81.79324,782.35236
"2878",81.32693,782.36566
"2879",80.89967,782.37897
"2880",80.51392,782.3923
"2881",80.17944,782.4056
"2882",79.903564,782.4189
"2883",79.710686,782.4322
"2884",79.61547,782.4455
"2885",79.61547,782.4588
"2886",79.68871,782.4721
"2887",79.79614,782.4854
"2888",79.886475,782.4987
"2889",79.91821,782.512
"2890",79.871826,782.5253
"2891",79.75464,782.53864
"2892",79.588615,782.55194
"2893",79.40551,782.56525
"2894",79.219955,782.57855
"2895",79.03685,782.59186
"2896",78.84886,782.60516
"2897",78.65598,782.61847
"2898",78.45579,782.6318
"2899",78.27268,782.6451
"2900",78.12375,782.6584
"2901",78.030975,782.6717
"2902",77.994354,782.685
"2903",77.996796,782.6983
"2904",78.009,782.7116
"2905",78.011444,782.7249
"2906",77.98459,782.7382
"2907",77.92355,782.7515
"2908",77.83322,782.76483
"2909",77.72335,782.77814
"2910",77.63546,782.79144
"2911",77.62081,782.80475
"2912",77.78439,782.81805
"2913",78.23117,782.83136
"2914",78.98802,782.84467
"2915",80.008545,782.858
"2916",81.160904,782.8713
"2917",82.25468,782.8846
"2918",83.106735,782.8979
"2919",83.60723,782.9112
"2920",83.734184,782.9245
"2921",83.563286,782.9378
"2922",83.192184,782.9511
"2923",82.720985,782.9644
"2924",82.22781,782.9777
"2925",81.75906,782.991
"2926",81.324486,783.00433
"2927",80.92409,783.01764
"2928",80.55543,783.03094
"2929",80.22339,783.04425
"2930",79.94263,783.05756
"2931",79.73022,783.07086
"2932",79.603264,783.08417
"2933",79.5642,783.0975
"2934",79.60815,783.1108
"2935",79.7058,783.1241
"2936",79.81079,783.1374
"2937",79.87427,783.1507
"2938",79.869385,783.164
"2939",79.783936,783.1773
"2940",79.63012,783.1906
"2941",79.429924,783.2039
"2942",79.217514,783.2172
"2943",79.00755,783.2305
"2944",78.80003,783.24384
"2945",78.590065,783.25714
"2946",78.3679,783.27045
"2947",78.135956,783.28375
"2948",77.8967,783.29706
"2949",77.66964,783.31036
"2950",77.46456,783.32367
"2951",77.296104,783.337
"2952",77.1667,783.3503
"2953",77.086136,783.3636
"2954",77.049515,783.3769
"2955",77.069046,783.3902
"2956",77.134964,783.4035
"2957",77.2375,783.4168
"2958",77.35226,783.4301
"2959",77.45968,783.4434
"2960",77.53048,783.4567
"2961",77.55001,783.47003
"2962",77.523155,783.48334
"2963",77.467,783.49664
"2964",77.44503,783.50995
"2965",77.54513,783.52325
"2966",77.87717,783.53656
"2967",78.502174,783.54987
"2968",79.412834,783.5632
"2969",80.51392,783.5765
"2970",81.64431,783.5898
"2971",82.62821,783.6031
"2972",83.32891,783.6164
"2973",83.6878,783.6297
"2974",83.72198,783.643
"2975",83.50225,783.6563
"2976",83.12138,783.6696
"2977",82.65995,783.6829
"2978",82.19119,783.6962
"2979",81.75418,783.70953
"2980",81.36111,783.72284
"2981",80.99977,783.73615
"2982",80.66529,783.74945
"2983",80.360115,783.76276
"2984",80.093994,783.77606
"2985",79.888916,783.78937
"2986",79.764404,783.8027
"2987",79.7351,783.816
"2988",79.781494,783.8293
"2989",79.869385,783.8426
"2990",79.954834,783.8559
"2991",80.00366,783.8692
"2992",79.98901,783.8825
"2993",79.91333,783.8958
"2994",79.78638,783.9091
"2995",79.62768,783.9224
"2996",79.44457,783.9357
"2997",79.234604,783.94904
"2998",78.992905,783.96234
"2999",78.73411,783.97565
"3000",78.47532,783.98895
"3001",78.23361,784.00226
"3002",78.03342,784.01556
"3003",77.87717,784.0289
"3004",77.75754,784.0422
"3005",77.662315,784.0555
"3006",77.58175,784.0688
"3007",77.51339,784.0821
"3008",77.45968,784.0954
"3009",77.43282,784.1087
"3010",77.43282,784.122
"3011",77.45724,784.1353
"3012",77.49386,784.1486
"3013",77.540245,784.1619
"3014",77.58907,784.17523
"3015",77.6379,784.18854
"3016",77.67452,784.20184
"3017",77.696495,784.21515
"3018",77.68917,784.22845
"3019",77.65255,784.24176
"3020",77.57931,784.25507
"3021",77.49386,784.2684
"3022",77.44259,784.2817
"3023",77.51095,784.295
"3024",77.789276,784.3083
"3025",78.348366,784.3216
"3026",79.17357,784.3349
"3027",80.17456,784.3482
"3028",81.20485,784.3615
"3029",82.09598,784.3748
"3030",82.718544,784.3881
"3031",83.021286,784.4014
"3032",83.02861,784.41473
"3033",82.80644,784.42804
"3034",82.43534,784.44135
"3035",81.99344,784.45465
"3036",81.53933,784.46796
"3037",81.109634,784.48126
"3038",80.72144,784.49457
"3039",80.365,784.5079
"3040",80.03296,784.5212
"3041",79.73266,784.5345
"3042",79.47875,784.5478
"3043",79.30053,784.5611
"3044",79.219955,784.5744
"3045",79.23949,784.5877
"3046",79.34203,784.601
"3047",79.48852,784.6143
"3048",79.639885,784.6276
"3049",79.7522,784.6409
"3050",79.80835,784.65424
"3051",79.798584,784.66754
"3052",79.73022,784.68085
"3053",79.62035,784.69415
"3054",79.47631,784.70746
"3055",79.30541,784.72076
"3056",79.1223,784.7341
"3057",78.93187,784.7474
"3058",78.74143,784.7607
"3059",78.56321,784.774
"3060",78.40208,784.7873
"3061",78.25071,784.8006
"3062",78.116425,784.8139
"3063",77.996796,784.8272
"3064",77.89914,784.8405
"3065",77.83566,784.8538
"3066",77.81125,784.8671
"3067",77.81369,784.88043
"3068",77.83566,784.89374
"3069",77.86984,784.90704
"3070",77.90646,784.92035
"3071",77.943085,784.93365
"3072",77.977264,784.94696
"3073",78.00656,784.96027
"3074",78.02121,784.9736
"3075",78.02365,784.9869
"3076",78.013885,785.0002
"3077",78.009,785.0135
"3078",78.01877,785.0268
"3079",78.05051,785.0401
"3080",78.135956,785.0534
"3081",78.34104,785.0667
"3082",78.73655,785.08
"3083",79.37133,785.0933
"3084",80.23071,785.1066
"3085",81.22926,785.11993
"3086",82.22049,785.13324
"3087",83.055466,785.14655
"3088",83.61944,785.15985
"3089",83.87579,785.17316
"3090",83.85626,785.18646
"3091",83.63653,785.19977
"3092",83.28741,785.2131
"3093",82.88457,785.2264
"3094",82.47196,785.2397
"3095",82.07645,785.253
"3096",81.69558,785.2663
"3097",81.33181,785.2796
"3098",80.98268,785.2929
"3099",80.66041,785.3062
"3100",80.38209,785.3195
"3101",80.177,785.3328
"3102",80.0647,785.3461
"3103",80.04761,785.35944
"3104",80.11597,785.37274
"3105",80.233154,785.38605
"3106",80.35767,785.39935
"3107",80.45045,785.41266
"3108",80.48951,785.42596
"3109",80.47242,785.4393
"3110",80.40162,785.4526
"3111",80.289314,785.4659
"3112",80.147705,785.4792
"3113",79.98413,785.4925
"3114",79.80347,785.5058
"3115",79.61791,785.5191
"3116",79.429924,785.5324
"3117",79.25414,785.5457
"3118",79.08568,785.559
"3119",78.93187,785.5723
"3120",78.79271,785.58563
"3121",78.67063,785.59894
"3122",78.58274,785.61224
"3123",78.52903,785.62555
"3124",78.5095,785.63885
"3125",78.51194,785.65216
"3126",78.52415,785.66547
"3127",78.536354,785.6788
"3128",78.54124,785.6921
"3129",78.53391,785.7054
"3130",78.521706,785.7187
"3131",78.50706,785.732
"3132",78.48264,785.7453
"3133",78.44602,785.7586
"3134",78.39475,785.7719
"3135",78.33372,785.7852
"3136",78.28733,785.7985
"3137",78.32395,785.8118
"3138",78.53391,785.82513
"3139",78.9807,785.83844
"3140",79.66918,785.85175
"3141",80.533455,785.86505
"3142",81.44167,785.87836
"3143",82.23758,785.89166
"3144",82.79668,785.90497
"3145",83.070114,785.9183
"3146",83.08232,785.9316
"3147",82.89433,785.9449
"3148",82.581825,785.9582
"3149",82.20584,785.9715
"3150",81.815216,785.9848
"3151",81.43435,785.9981
"3152",81.07301,786.0114
"3153",80.740974,786.0247
"3154",80.43336,786.038
"3155",80.16724,786.05133
"3156",79.954834,786.06464
"3157",79.80347,786.07794
"3158",79.727776,786.09125
"3159",79.727776,786.10455
"3160",79.79614,786.11786
"3161",79.90112,786.13116
"3162",80.01831,786.1445
"3163",80.11841,786.1578
"3164",80.17456,786.1711
"3165",80.17212,786.1844
"3166",80.11841,786.1977
"3167",80.01831,786.211
"3168",79.88403,786.2243
"3169",79.727776,786.2376
"3170",79.56176,786.2509
"3171",79.3933,786.2642
"3172",79.22728,786.2775
"3173",79.06859,786.29083
"3174",78.922104,786.30414
"3175",78.785385,786.31744
"3176",78.67063,786.33075
"3177",78.5803,786.34406
"3178",78.519264,786.35736
"3179",78.487526,786.37067
"3180",78.47532,786.384
"3181",78.48264,786.3973
"3182",78.49973,786.4106
"3183",78.52659,786.4239
"3184",78.553444,786.4372
"3185",78.58518,786.4505
"3186",78.61204,786.4638
"3187",78.63157,786.4771
"3188",78.63157,786.4904
"3189",78.61204,786.5037
"3190",78.57542,786.517
"3191",78.52415,786.53033
"3192",78.4802,786.54364
"3193",78.487526,786.55695
"3194",78.624245,786.57025
"3195",78.96605,786.58356
"3196",79.56176,786.59686
"3197",80.38697,786.61017
"3198",81.34402,786.6235
"3199",82.28886,786.6368
"3200",83.06767,786.6501
"3201",83.57061,786.6634
"3202",83.77081,786.6767
"3203",83.700005,786.69
"3204",83.43145,786.7033
"3205",83.035934,786.7166
"3206",82.581825,786.7299
"3207",82.125275,786.7432
"3208",81.6907,786.75653
"3209",81.28542,786.76984
"3210",80.91188,786.78314
"3211",80.56275,786.79645
"3212",80.24536,786.80975
"3213",79.96948,786.82306
"3214",79.76196,786.83636
"3215",79.64233,786.8497
"3216",79.62035,786.863
"3217",79.68139,786.8763
"3218",79.798584,786.8896
"3219",79.92798,786.9029
"3220",80.03784,786.9162
"3221",80.10132,786.9295
"3222",80.09888,786.9428
"3223",80.04028,786.9561
"3224",79.937744,786.9694
"3225",79.801025,786.9827
"3226",79.64721,786.99603
"3227",79.48119,787.00934
"3228",79.310295,787.02264
"3229",79.14183,787.03595
"3230",78.98314,787.04926
"3231",78.836655,787.06256
"3232",78.709694,787.07587
"3233",78.59983,787.0892
"3234",78.51682,787.1025
"3235",78.45823,787.1158
"3236",78.42405,787.1291
"3237",78.41184,787.1424
"3238",78.41917,787.1557
"3239",78.44114,787.169
"3240",78.46311,787.1823
"3241",78.48264,787.1956
"3242",78.49241,787.2089
"3243",78.4802,787.2222
"3244",78.44846,787.23553
"3245",78.40696,787.24884
"3246",78.37522,787.26215
"3247",78.35813,787.27545
"3248",78.37034,787.28876
"3249",78.44846,787.30206
"3250",78.66331,787.31537
"3251",79.07591,787.3287
"3252",79.710686,787.342
"3253",80.52613,787.3553
"3254",81.4197,787.3686
"3255",82.24979,787.3819
"3256",82.87724,787.3952
"3257",83.228806,787.4085
"3258",83.3045,787.4218
"3259",83.15068,787.4351
"3260",82.8333,787.4484
"3261",82.425575,787.46173
"3262",81.97879,787.47504
"3263",81.53933,787.48834
"3264",81.129166,787.50165
"3265",80.76051,787.51495
"3266",80.43824,787.52826
"3267",80.177,787.54156
"3268",79.974365,787.5549
"3269",79.83032,787.5682
"3270",79.74731,787.5815
"3271",79.727776,787.5948
"3272",79.75952,787.6081
"3273",79.84253,787.6214
"3274",79.957275,787.6347
"3275",80.079346,787.648
"3276",80.17212,787.6613
"3277",80.2063,787.6746
"3278",80.164795,787.6879
"3279",80.05737,787.70123
"3280",79.90112,787.71454
"3281",79.725334,787.72784
"3282",79.55932,787.74115
"3283",79.415276,787.75446
"3284",79.28832,787.76776
"3285",79.17113,787.78107
"3286",79.046616,787.7944
"3287",78.905014,787.8077
"3288",78.76097,787.821
"3289",78.63401,787.8343
"3290",78.54612,787.8476
"3291",78.51682,787.8609
"3292",78.54124,787.8742
"3293",78.60227,787.8875
"3294",78.677956,787.9008
"3295",78.75365,787.9141
"3296",78.819565,787.9274
"3297",78.870834,787.94073
"3298",78.90257,787.95404
"3299",78.907455,787.96735
"3300",78.88548,787.98065
"3301",78.839096,787.99396
"3302",78.79515,788.00726
"3303",78.80736,788.02057
"3304",78.96117,788.0339
"3305",79.32983,788.0472
"3306",79.94751,788.0605
"3307",80.76051,788.0738
"3308",81.65652,788.0871
"3309",82.48173,788.1004
"3310",83.09453,788.1137
"3311",83.41192,788.127
"3312",83.43145,788.1403
"3313",83.209274,788.1536
"3314",82.8333,788.16693
"3315",82.37675,788.18024
"3316",81.900665,788.19354
"3317",81.449,788.20685
"3318",81.0486,788.22015
"3319",80.69215,788.23346
"3320",80.38697,788.24677
"3321",80.13306,788.2601
"3322",79.9353,788.2734
"3323",79.7937,788.2867
"3324",79.73754,788.3
"3325",79.77173,788.3133
"3326",79.89624,788.3266
"3327",80.08179,788.3399
"3328",80.28443,788.3532
"3329",80.45533,788.3665
"3330",80.56275,788.3798
"3331",80.58961,788.3931
"3332",80.53834,788.40643
"3333",80.4358,788.41974
"3334",80.29664,788.43304
"3335",80.13306,788.44635
"3336",79.94995,788.45966
"3337",79.764404,788.47296
"3338",79.58373,788.48627
"3339",79.412834,788.4996
"3340",79.26147,788.5129
"3341",79.132065,788.5262
"3342",79.029526,788.5395
"3343",78.95384,788.5528
"3344",78.90257,788.5661
"3345",78.87816,788.5794
"3346",78.87816,788.5927
"3347",78.88304,788.606
"3348",78.88304,788.6193
"3349",78.873276,788.6326
"3350",78.84886,788.64594
"3351",78.819565,788.65924
"3352",78.80492,788.67255
"3353",78.836655,788.68585
"3354",78.97093,788.69916
"3355",79.273674,788.71246
"3356",79.80347,788.72577
"3357",80.54566,788.7391
"3358",81.42947,788.7524
"3359",82.33036,788.7657
"3360",83.104294,788.779
"3361",83.62676,788.7923
"3362",83.84161,788.8056
"3363",83.76837,788.8189
"3364",83.475395,788.8322
"3365",83.04814,788.8455
"3366",82.55497,788.8588
"3367",82.05936,788.87213
"3368",81.600365,788.88544
"3369",81.18288,788.89874
"3370",80.81178,788.91205
"3371",80.48463,788.92535
"3372",80.2063,788.93866
"3373",79.9939,788.95197
"3374",79.871826,788.9653
"3375",79.86206,788.9786
"3376",79.96216,788.9919
"3377",80.15991,789.0052
"3378",80.40162,789.0185
"3379",80.638435,789.0318
"3380",80.816666,789.0451
"3381",80.91188,789.0584
"3382",80.91432,789.0717
"3383",80.84108,789.085
"3384",80.706795,789.0983
"3385",80.5359,789.11163
"3386",80.34547,789.12494
"3387",80.15259,789.13824
"3388",79.9646,789.15155
"3389",79.781494,789.16486
"3390",79.61547,789.17816
"3391",79.45922,789.19147
"3392",79.31518,789.2048
"3393",79.18089,789.2181
"3394",79.05638,789.2314
"3395",78.941635,789.2447
"3396",78.84642,789.258
"3397",78.765854,789.2713
"3398",78.712135,789.2846
"3399",78.69016,789.2979
"3400",78.71458,789.3112
"3401",78.84642,789.3245
"3402",79.1638,789.3378
"3403",79.72045,789.35114
"3404",80.50904,789.36444
"3405",81.43923,789.37775
"3406",82.36942,789.39105
"3407",83.140915,789.40436
"3408",83.63897,789.41766
"3409",83.84161,789.43097
"3410",83.78058,789.4443
"3411",83.529106,789.4576
"3412",83.160446,789.4709
"3413",82.72831,789.4842
"3414",82.27421,789.4975
"3415",81.829865,789.5108
"3416",81.40749,789.5241
"3417",81.02663,789.5374
"3418",80.69459,789.5507
"3419",80.42115,789.564
"3420",80.22827,789.57733
"3421",80.128174,789.59064
"3422",80.12329,789.60394
"3423",80.20874,789.61725
"3424",80.35767,789.63055
"3425",80.533455,789.64386
"3426",80.69703,789.65717
"3427",80.80934,789.6705
"3428",80.84596,789.6838
"3429",80.799576,789.6971
"3430",80.6775,789.7104
"3431",80.5066,789.7237
"3432",80.306404,789.737
"3433",80.10132,789.7503
"3434",79.90845,789.7636
"3435",79.73266,789.7769
"3436",79.571526,789.7902
"3437",79.429924,789.8035
"3438",79.30541,789.81683
"3439",79.200424,789.83014
"3440",79.11253,789.84344
"3441",79.04173,789.85675
"3442",78.97337,789.87006
"3443",78.907455,789.88336
"3444",78.8513,789.89667
"3445",78.82445,789.91
"3446",78.86595,789.9233
"3447",79.04906,789.9366
"3448",79.4519,789.9499
"3449",80.111084,789.9632
"3450",80.99489,789.9765
"3451",82.003204,789.9898
"3452",82.98711,790.0031
"3453",83.78302,790.0164
"3454",84.28596,790.0297
"3455",84.46418,790.043
"3456",84.35676,790.05634
"3457",84.034485,790.06964
"3458",83.58282,790.08295
"3459",83.06279,790.09625
"3460",82.52567,790.10956
"3461",81.99832,790.12286
"3462",81.50515,790.13617
"3463",81.05104,790.1495
"3464",80.65797,790.1628
"3465",80.3357,790.1761
"3466",80.10864,790.1894
"3467",79.98901,790.2027
"3468",79.98169,790.216
"3469",80.07202,790.2293
"3470",80.22827,790.2426
"3471",80.411385,790.2559
"3472",80.57984,790.2692
"3473",80.69947,790.28253
"3474",80.7483,790.29584
"3475",80.72144,790.30914
"3476",80.62623,790.32245
"3477",80.47486,790.33575
"3478",80.28199,790.34906
"3479",80.0647,790.36237
"3480",79.84009,790.3757
"3481",79.61303,790.389
"3482",79.39086,790.4023
"3483",79.17601,790.4156
"3484",78.97093,790.4289
"3485",78.77806,790.4422
"3486",78.60471,790.4555
"3487",78.46067,790.4688
"3488",78.345924,790.4821
"3489",78.28245,790.4954
"3490",78.32395,790.5087
"3491",78.551,790.52203
"3492",79.027084,790.53534
"3493",79.77905,790.54865
"3494",80.73853,790.56195
"3495",81.778595,790.57526
"3496",82.72587,790.58856
"3497",83.42657,790.60187
"3498",83.80255,790.6152
"3499",83.8587,790.6285
"3500",83.6585,790.6418
"3501",83.29229,790.6551
"3502",82.8333,790.6684
"3503",82.34501,790.6817
"3504",81.85916,790.695
"3505",81.375755,790.7083
"3506",80.89479,790.7216
"3507",80.41871,790.7349
"3508",79.98657,790.7482
"3509",79.63744,790.76154
"3510",79.4226,790.77484
"3511",79.361565,790.78815
"3512",79.447014,790.80145
"3513",79.63256,790.81476
"3514",79.852295,790.82806
"3515",80.042725,790.8414
"3516",80.164795,790.8547
"3517",80.21118,790.868
"3518",80.17212,790.8813
"3519",80.05737,790.8946
"3520",79.87427,790.9079
"3521",79.635,790.9212
"3522",79.364006,790.9345
"3523",79.093,790.9478
"3524",78.84886,790.9611
"3525",78.643776,790.9744
"3526",78.4802,790.98773
"3527",78.34348,791.00104
"3528",78.21896,791.01434
"3529",78.09445,791.02765
"3530",77.9675,791.04095
"3531",77.84787,791.05426
"3532",77.7551,791.06757
"3533",77.72579,791.0809
"3534",77.83322,791.0942
"3535",78.16037,791.1075
"3536",78.76097,791.1208
"3537",79.61303,791.1341
"3538",80.62623,791.1474
"3539",81.651634,791.1607
"3540",82.52567,791.174
"3541",83.12138,791.1873
"3542",83.39727,791.2006
"3543",83.36797,791.2139
"3544",83.106735,791.22723
"3545",82.69413,791.24054
"3546",82.2034,791.25385
"3547",81.67849,791.26715
"3548",81.15114,791.28046
"3549",80.64088,791.29376
"3550",80.17456,791.30707
"3551",79.77173,791.3204
"3552",79.46166,791.3337
"3553",79.273674,791.347
"3554",79.21019,791.3603
"3555",79.259026,791.3736
"3556",79.39086,791.3869
"3557",79.569084,791.4002
"3558",79.75464,791.4135
"3559",79.90845,791.4268
"3560",80.0061,791.4401
"3561",80.03784,791.4534
"3562",80.00122,791.46674
"3563",79.89868,791.48004
"3564",79.7351,791.49335
"3565",79.51537,791.50665
"3566",79.256584,791.51996
"3567",78.9807,791.53326
"3568",78.70725,791.5466
"3569",78.45579,791.5599
"3570",78.23117,791.5732
"3571",78.04562,791.5865
"3572",77.8967,791.5998
"3573",77.79172,791.6131
"3574",77.72579,791.6264
"3575",77.696495,791.6397
"3576",77.696495,791.653
"3577",77.72335,791.6663
"3578",77.81369,791.6796
"3579",78.03586,791.69293
"3580",78.47288,791.70624
"3581",79.1638,791.71954
"3582",80.06958,791.73285
"3583",81.077896,791.74615
"3584",82.04227,791.75946
"3585",82.80888,791.77277
"3586",83.27764,791.7861
"3587",83.43145,791.7994
"3588",83.3167,791.8127
"3589",83.00908,791.826
"3590",82.58671,791.8393
"3591",82.11795,791.8526
"3592",81.64431,791.8659
"3593",81.18532,791.8792
"3594",80.75075,791.8925
"3595",80.343025,791.9058
"3596",79.98169,791.9191
"3597",79.691154,791.93243
"3598",79.49828,791.94574
"3599",79.415276,791.95905
"3600",79.43969,791.97235
"3601",79.54711,791.98566
"3602",79.693596,791.99896
"3603",79.83032,792.01227
"3604",79.920654,792.0256
"3605",79.954834,792.0389
"3606",79.92554,792.0522
"3607",79.84497,792.0655
"3608",79.725334,792.0788
"3609",79.57397,792.0921
"3610",79.38598,792.1054
"3611",79.17357,792.1187
"3612",78.95384,792.132
"3613",78.74143,792.1453
"3614",78.553444,792.1586
"3615",78.40208,792.17194
"3616",78.28977,792.18524
"3617",78.221405,792.19855
"3618",78.19455,792.21185
"3619",78.2092,792.22516
"3620",78.26292,792.23846
"3621",78.3386,792.2518
"3622",78.4094,792.2651
"3623",78.45823,792.2784
"3624",78.467995,792.2917
"3625",78.44602,792.305
"3626",78.416725,792.3183
"3627",78.44358,792.3316
"3628",78.61448,792.3449
"3629",79.00511,792.3582
"3630",79.64965,792.3715
"3631",80.516365,792.3848
"3632",81.50271,792.39813
"3633",82.459755,792.41144
"3634",83.23613,792.42474
"3635",83.7293,792.43805
"3636",83.914856,792.45135
"3637",83.83185,792.46466
"3638",83.560844,792.47797
"3639",83.18486,792.4913
"3640",82.76494,792.5046
"3641",82.34745,792.5179
"3642",81.93973,792.5312
"3643",81.54665,792.5445
"3644",81.17555,792.5578
"3645",80.83864,792.5711
"3646",80.552986,792.5844
"3647",80.33814,792.5977
"3648",80.2063,792.611
"3649",80.15503,792.6243
"3650",80.17944,792.63763
"3651",80.25025,792.65094
"3652",80.33326,792.66425
"3653",80.394295,792.67755
"3654",80.4065,792.69086
"3655",80.34791,792.70416
"3656",80.216064,792.71747
"3657",80.02319,792.7308
"3658",79.79126,792.7441
"3659",79.54223,792.7574
"3660",79.30297,792.7707
"3661",79.08568,792.784
"3662",78.887924,792.7973
"3663",78.69016,792.8106
"3664",78.4802,792.8239
"3665",78.25315,792.8372
"3666",78.02365,792.8505
"3667",77.81369,792.86383
"3668",77.65499,792.87714
"3669",77.557335,792.89044
"3670",77.50851,792.90375
"3671",77.49142,792.91705
"3672",77.488976,792.93036
"3673",77.4963,792.94366
"3674",77.52071,792.957
"3675",77.57198,792.9703
"3676",77.645226,792.9836
"3677",77.72091,792.9969
"3678",77.77219,793.0102
"3679",77.77707,793.0235
"3680",77.72579,793.0368
"3681",77.645226,793.0501
"3682",77.5671,793.0634
"3683",77.51583,793.0767
"3684",77.53292,793.09
"3685",77.67452,793.10333
"3686",78.01633,793.11664
"3687",78.60471,793.12994
"3688",79.449455,793.14325
"3689",80.48951,793.15656
"3690",81.59792,793.16986
"3691",82.60136,793.18317
"3692",83.35577,793.1965
"3693",83.78546,793.2098
"3694",83.897766,793.2231
"3695",83.758606,793.2364
"3696",83.458305,793.2497
"3697",83.087204,793.263
"3698",82.70878,793.2763
"3699",82.340126,793.2896
"3700",81.97391,793.3029
"3701",81.602806,793.3162
"3702",81.22682,793.3295
"3703",80.87038,793.34283
"3704",80.56275,793.35614
"3705",80.33814,793.36945
"3706",80.22339,793.38275
"3707",80.21362,793.39606
"3708",80.28687,793.40936
"3709",80.41627,793.42267
"3710",80.552986,793.436
"3711",80.66285,793.4493
"3712",80.709236,793.4626
"3713",80.6775,793.4759
"3714",80.567635,793.4892
"3715",80.40406,793.5025
"3716",80.20874,793.5158
"3717",80.00366,793.5291
"3718",79.80591,793.5424
"3719",79.62035,793.5557
"3720",79.4519,793.56903
"3721",79.290764,793.58234
"3722",79.13451,793.59564
"3723",78.98314,793.60895
"3724",78.83177,793.62225
"3725",78.69016,793.63556
"3726",78.56809,793.64886
"3727",78.470436,793.6622
"3728",78.399635,793.6755
"3729",78.35813,793.6888
"3730",78.33372,793.7021
"3731",78.31663,793.7154
"3732",78.2971,793.7287
"3733",78.28001,793.742
"3734",78.25803,793.7553
"3735",78.24094,793.7686
"3736",78.24338,793.7819
"3737",78.260475,793.7952
"3738",78.28489,793.80853
"3739",78.29221,793.82184
"3740",78.26536,793.83514
"3741",78.19211,793.84845
"3742",78.07492,793.86176
"3743",77.93332,793.87506
"3744",77.79904,793.88837
"3745",77.72091,793.9017
"3746",77.75021,793.915
"3747",77.96506,793.9283
"3748",78.43626,793.9416
"3749",79.18822,793.9549
"3750",80.17212,793.9682
"3751",81.27566,793.9815
"3752",82.35233,793.9948
"3753",83.245895,794.0081
"3754",83.84894,794.0214
"3755",84.139465,794.0347
"3756",84.14923,794.04803
"3757",83.949036,794.06134
"3758",83.61944,794.07465
"3759",83.24101,794.08795
"3760",82.85527,794.10126
"3761",82.48417,794.11456
"3762",82.13748,794.12787
"3763",81.80789,794.1412
"3764",81.49294,794.1545
"3765",81.20729,794.1678
"3766",80.970474,794.1811
"3767",80.80446,794.1944
"3768",80.71656,794.2077
"3769",80.70435,794.221
"3770",80.7483,794.2343
"3771",80.814224,794.2476
"3772",80.86549,794.2609
"3773",80.87526,794.27423
"3774",80.831314,794.28754
"3775",80.726326,794.30084
"3776",80.57496,794.31415
"3777",80.38209,794.32745
"3778",80.16724,794.34076
"3779",79.94751,794.35406
"3780",79.73022,794.3674
"3781",79.52758,794.3807
"3782",79.34203,794.394
"3783",79.17113,794.4073
"3784",79.01732,794.4206
"3785",78.87572,794.4339
"3786",78.746315,794.4472
"3787",78.62913,794.4605
"3788",78.52903,794.4738
"3789",78.44846,794.4871
"3790",78.38499,794.5004
"3791",78.33616,794.51373
"3792",78.29221,794.52704
"3793",78.24582,794.54034
"3794",78.19455,794.55365
"3795",78.14084,794.56696
"3796",78.08957,794.58026
"3797",78.04562,794.59357
"3798",78.013885,794.6069
"3799",77.98947,794.6202
"3800",77.97482,794.6335
"3801",77.960175,794.6468
"3802",77.93332,794.6601
"3803",77.87961,794.6734
"3804",77.80148,794.6867
"3805",77.70626,794.7
"3806",77.608604,794.7133
"3807",77.557335,794.7266
"3808",77.62325,794.7399
"3809",77.8967,794.75323
"3810",78.44358,794.76654
"3811",79.276115,794.77985
"3812",80.33814,794.79315
"3813",81.51003,794.80646
"3814",82.62333,794.81976
"3815",83.526665,794.83307
"3816",84.13214,794.8464
"3817",84.41535,794.8597
"3818",84.41779,794.873
"3819",84.20538,794.8863
"3820",83.86359,794.8996
"3821",83.46807,794.9129
"3822",83.06279,794.9262
"3823",82.6746,794.9395
"3824",82.30839,794.9528
"3825",81.9617,794.9661
"3826",81.636986,794.97943
"3827",81.341576,794.99274
"3828",81.08278,795.00604
"3829",80.8777,795.01935
"3830",80.73853,795.03265
"3831",80.672615,795.04596
"3832",80.65797,795.05927
"3833",80.68238,795.0726
"3834",80.719,795.0859
"3835",80.73609,795.0992
"3836",80.706795,795.1125
"3837",80.62867,795.1258
"3838",80.49439,795.1391
"3839",80.31373,795.1524
"3840",80.09888,795.1657
"3841",79.86694,795.179
"3842",79.639885,795.1923
"3843",79.4226,795.2056
"3844",79.21263,795.21893
"3845",79.00755,795.23224
"3846",78.802475,795.24554
"3847",78.59251,795.25885
"3848",78.40208,795.27216
"3849",78.24338,795.28546
"3850",78.118866,795.29877
"3851",78.02365,795.3121
"3852",77.95285,795.3254
"3853",77.88937,795.3387
"3854",77.83322,795.352
"3855",77.789276,795.3653
"3856",77.7551,795.3786
"3857",77.730675,795.3919
"3858",77.70626,795.4052
"3859",77.68185,795.4185
"3860",77.65255,795.4318
"3861",77.61837,795.4451
"3862",77.57931,795.45844
"3863",77.540245,795.47174
"3864",77.49142,795.48505
"3865",77.42794,795.49835
"3866",77.35714,795.51166
"3867",77.281456,795.52496
"3868",77.20088,795.53827
"3869",77.13008,795.5516
"3870",77.07881,795.5649
"3871",77.069046,795.5782
"3872",77.17403,795.5915
"3873",77.47921,795.6048
"3874",78.05539,795.6181
"3875",78.922104,795.6314
"3876",80.02319,795.6447
"3877",81.23903,795.658
"3878",82.41337,795.6713
"3879",83.39971,795.68463
"3880",84.102844,795.69794
"3881",84.50324,795.71124
"3882",84.62043,795.72455
"3883",84.51545,795.73785
"3884",84.26154,795.75116
"3885",83.93439,795.76447
"3886",83.580376,795.7778
"3887",83.23369,795.7911
"3888",82.89189,795.8044
"3889",82.547646,795.8177
"3890",82.19852,795.831
"3891",81.864044,795.8443
"3892",81.5613,795.8576
"3893",81.31472,795.8709
"3894",81.146255,795.8842
"3895",81.06081,795.8975
"3896",81.04372,795.9108
"3897",81.06813,795.92413
"3898",81.09987,795.93744
"3899",81.10719,795.95074
"3900",81.06569,795.96405
"3901",80.96803,795.97736
"3902",80.82399,795.99066
"3903",80.63355,796.00397
"3904",80.41627,796.0173
"3905",80.181885,796.0306
"3906",79.937744,796.0439
"3907",79.67895,796.0572
"3908",79.4226,796.0705
"3909",79.166245,796.0838
"3910",78.91722,796.0971
"3911",78.675514,796.1104
"3912",78.44846,796.1237
"3913",78.23605,796.137
"3914",78.0383,796.1503
"3915",77.855194,796.16364
"3916",77.69405,796.17694
"3917",77.5671,796.19025
"3918",77.47921,796.20355
"3919",77.42794,796.21686
"3920",77.40597,796.23016
"3921",77.39376,796.24347
"3922",77.38644,796.2568
"3923",77.37423,796.2701
"3924",77.36446,796.2834
"3925",77.35958,796.2967
"3926",77.35226,796.31
"3927",77.33517,796.3233
"3928",77.29366,796.3366
"3929",77.22774,796.3499
"3930",77.13008,796.3632
"3931",77.02022,796.3765
"3932",76.91524,796.38983
"3933",76.83711,796.40314
"3934",76.807816,796.41644
"3935",76.89815,796.42975
"3936",77.19356,796.44305
"3937",77.77219,796.45636
"3938",78.660866,796.46967
"3939",79.81079,796.483
"3940",81.09743,796.4963
"3941",82.34745,796.5096
"3942",83.39483,796.5229
"3943",84.12482,796.5362
"3944",84.51301,796.5495
"3945",84.59846,796.5628
"3946",84.44709,796.5761
"3947",84.139465,796.5894
"3948",83.74395,796.6027
"3949",83.30938,796.616
"3950",82.86015,796.62933
"3951",82.4036,796.64264
"3952",81.951935,796.65594
"3953",81.52468,796.66925
"3954",81.143814,796.68256
"3955",80.82643,796.69586
"3956",80.59449,796.70917
"3957",80.45533,796.7225
"3958",80.40894,796.7358
"3959",80.43824,796.7491
"3960",80.51392,796.7624
"3961",80.60914,796.7757
"3962",80.689705,796.789
"3963",80.72877,796.8023
"3964",80.71168,796.8156
"3965",80.62867,796.8289
"3966",80.479744,796.8422
"3967",80.26978,796.8555
"3968",80.025635,796.86884
"3969",79.76196,796.88214
"3970",79.49828,796.89545
"3971",79.24193,796.90875
"3972",79.00267,796.92206
"3973",78.7805,796.93536
"3974",78.57786,796.94867
"3975",78.40208,796.962
"3976",78.260475,796.9753
"3977",78.14816,796.9886
"3978",78.0676,797.0019
"3979",78.011444,797.0152
"3980",77.962616,797.0285
"3981",77.91623,797.0418
"3982",77.874725,797.0551
"3983",77.83566,797.0684
"3984",77.806366,797.0817
"3985",77.789276,797.09503
"3986",77.786835,797.10834
"3987",77.79416,797.12164
"3988",77.806366,797.13495
"3989",77.80881,797.14825
"3990",77.79904,797.16156
"3991",77.77951,797.17487
"3992",77.752655,797.1882
"3993",77.73556,797.2015
"3994",77.77219,797.2148
"3995",77.95041,797.2281
"3996",78.35813,797.2414
"3997",79.044174,797.2547
"3998",79.98901,797.268
"3999",81.10231,797.2813
"4000",82.230255,797.2946
"4001",83.211716,797.3079
"4002",83.92462,797.3212
"4003",84.32746,797.33453
"4004",84.43,797.34784
"4005",84.283516,797.36115
"4006",83.949036,797.37445
"4007",83.492485,797.38776
"4008",82.967575,797.40106
"4009",82.41581,797.41437
"4010",81.864044,797.4277
"4011",81.33669,797.441
"4012",80.85817,797.4543
"4013",80.45045,797.4676
"4014",80.13794,797.4809
"4015",79.94263,797.4942
"4016",79.869385,797.5075
"4017",79.920654,797.5208
"4018",80.06714,797.5341
"4019",80.26734,797.5474
"4020",80.46754,797.5607
"4021",80.61646,797.57404
"4022",80.67994,797.58734
"4023",80.64576,797.60065
"4024",80.52125,797.61395
"4025",80.32838,797.62726
"4026",80.08911,797.64056
"4027",79.82056,797.6539
"4028",79.54223,797.6672
"4029",79.26879,797.6805
"4030",79.00755,797.6938
"4031",78.768295,797.7071
"4032",78.555885,797.7204
"4033",78.37278,797.7337
"4034",78.22385,797.747
"4035",78.101776,797.7603
"4036",78.00168,797.7736
"4037",77.925995,797.7869
"4038",77.86008,797.80023
"4039",77.806366,797.81354
"4040",77.752655,797.82684
"4041",77.70382,797.84015
"4042",77.65743,797.85345
"4043",77.62081,797.86676
"4044",77.60616,797.88007
"4045",77.662315,797.8934
"4046",77.86008,797.9067
"4047",78.277565,797.92
"4048",78.96117,797.9333
"4049",79.886475,797.9466
"4050",80.953384,797.9599
"4051",82.00809,797.9732
"4052",82.88457,797.9865
"4053",83.46807,797.9998
"4054",83.7293,798.0131
"4055",83.700005,798.0264
"4056",83.455864,798.03973
"4057",83.06767,798.05304
"4058",82.59647,798.06635
"4059",82.08133,798.07965
"4060",81.53933,798.09296
"4061",80.99733,798.10626
"4062",80.47242,798.11957
"4063",79.991455,798.1329
"4064",79.588615,798.1462
"4065",79.29809,798.1595
"4066",79.14427,798.1728
"4067",79.12962,798.1861
"4068",79.23216,798.1994
"4069",79.412834,798.2127
"4070",79.62524,798.226
"4071",79.81323,798.2393
"4072",79.94995,798.2526
"4073",80.01343,798.2659
"4074",80.01099,798.27924
"4075",79.94751,798.29254
"4076",79.835205,798.30585
"4077",79.67895,798.31915
"4078",79.48852,798.33246
"4079",79.26635,798.34576
"4080",79.01732,798.3591
"4081",78.76341,798.3724
"4082",78.51682,798.3857
"4083",78.30442,798.399
"4084",78.133514,798.4123
"4085",78.00168,798.4256
"4086",77.88937,798.4389
"4087",77.79172,798.4522
"4088",77.70138,798.4655
"4089",77.61593,798.4788
"4090",77.55001,798.4921
"4091",77.5256,798.50543
"4092",77.59884,798.51874
"4093",77.838104,798.53204
"4094",78.328835,798.54535
"4095",79.09544,798.55865
"4096",80.1062,798.57196
"4097",81.234146,798.58527
"4098",82.31083,798.5986
"4099",83.17021,798.6119
"4100",83.717094,798.6252
"4101",83.92462,798.6385
"4102",83.84894,798.6518
"4103",83.563286,798.6651
"4104",83.14336,798.6784
"4105",82.65507,798.6917
"4106",82.13748,798.705
"4107",81.61257,798.7183
"4108",81.09987,798.7316
"4109",80.601814,798.74493
"4110",80.130615,798.75824
"4111",79.710686,798.77155
"4112",79.378654,798.78485
"4113",79.1638,798.79816
"4114",79.08568,798.81146
"4115",79.12962,798.82477
"4116",79.26635,798.8381
"4117",79.44213,798.8514
"4118",79.61547,798.8647
"4119",79.74975,798.878
"4120",79.823,798.8913
"4121",79.82788,798.9046
"4122",79.766846,798.9179
"4123",79.639885,798.9312
"4124",79.45678,798.9445
"4125",79.24193,798.9578
"4126",79.00755,798.9711
"4127",78.768295,798.98444
"4128",78.53147,798.99774
"4129",78.31907,799.01105
"4130",78.133514,799.02435
"4131",77.979706,799.03766
"4132",77.85031,799.05096
"4133",77.747765,799.0643
"4134",77.66476,799.0776
"4135",77.608604,799.0909
"4136",77.60128,799.1042
"4137",77.7087,799.1175
"4138",78.011444,799.1308
"4139",78.58274,799.1441
"4140",79.42748,799.1574
"4141",80.48707,799.1707
"4142",81.62722,799.184
"4143",82.6746,799.1973
"4144",83.47784,799.21063
"4145",83.949036,799.22394
"4146",84.09064,799.23724
"4147",83.95636,799.25055
"4148",83.63409,799.26385
"4149",83.19707,799.27716
"4150",82.71122,799.29047
"4151",82.213165,799.3038
"4152",81.71267,799.3171
"4153",81.21706,799.3304
"4154",80.72877,799.3437
"4155",80.26978,799.357
"4156",79.87915,799.3703
"4157",79.59594,799.3836
"4158",79.4519,799.3969
"4159",79.46166,799.4102
"4160",79.603264,799.4235
"4161",79.82788,799.4368
"4162",80.06958,799.45013
"4163",80.27711,799.46344
"4164",80.413826,799.47675
"4165",80.45533,799.49005
"4166",80.4065,799.50336
"4167",80.27711,799.51666
"4168",80.08423,799.52997
"4169",79.84741,799.5433
"4170",79.5935,799.5566
"4171",79.34203,799.5699
"4172",79.11009,799.5832
"4173",78.907455,799.5965
"4174",78.729225,799.6098
"4175",78.56077,799.6231
"4176",78.39475,799.6364
"4177",78.22873,799.6497
"4178",78.05783,799.663
"4179",77.89426,799.67633
"4180",77.752655,799.68964
"4181",77.659874,799.70294
"4182",77.662315,799.71625
"4183",77.84299,799.72955
"4184",78.29221,799.74286
"4185",79.063705,799.75616
"4186",80.11597,799.7695
"4187",81.33181,799.7828
"4188",82.53544,799.7961
"4189",83.543755,799.8094
"4190",84.224915,799.8227
"4191",84.54475,799.836
"4192",84.54963,799.8493
"4193",84.31281,799.8626
"4194",83.914856,799.8759
"4195",83.421684,799.8892
"4196",82.879684,799.9025
"4197",82.320595,799.91583
"4198",81.76883,799.92914
"4199",81.24147,799.94244
"4200",80.765396,799.95575
"4201",80.365,799.96906
"4202",80.06958,799.98236
"4203",79.89624,799.99567
"4204",79.85474,800.009
"4205",79.940186,800.0223
"4206",80.12085,800.0356
"4207",80.34791,800.0489
"4208",80.567635,800.0622
"4209",80.72877,800.0755
"4210",80.799576,800.0888
"4211",80.780045,800.1021
"4212",80.67994,800.1154
"4213",80.51392,800.1287
"4214",80.30152,800.142
"4215",80.04761,800.15533
"4216",79.76196,800.16864
"4217",79.45434,800.18195
"4218",79.14183,800.19525
"4219",78.84642,800.20856
"4220",78.590065,800.22186
"4221",78.38499,800.23517
"4222",78.23361,800.2485
"4223",78.12375,800.2618
"4224",78.04318,800.2751
"4225",77.9675,800.2884
"4226",77.88205,800.3017
"4227",77.77707,800.315
"4228",77.66964,800.3283
"4229",77.576866,800.3416
"4230",77.54513,800.3549
"4231",77.64767,800.3682
"4232",77.98947,800.38153
"4233",78.63645,800.39484
"4234",79.588615,800.40814
"4235",80.76784,800.42145
"4236",82.020294,800.43475
"4237",83.158005,800.44806
"4238",84.01984,800.46136
"4239",84.51789,800.4747
"4240",84.661934,800.488
"4241",84.51057,800.5013
"4242",84.14435,800.5146
"4243",83.65118,800.5279
"4244",83.10185,800.5412
"4245",82.53788,800.5545
"4246",81.986115,800.5678
"4247",81.45144,800.5811
"4248",80.95094,800.5944
"4249",80.49439,800.6077
"4250",80.111084,800.62103
"4251",79.83276,800.63434
"4252",79.68139,800.64764
"4253",79.66186,800.66095
"4254",79.75952,800.67426
"4255",79.92798,800.68756
"4256",80.11841,800.70087
"4257",80.28443,800.7142
"4258",80.394295,800.7275
"4259",80.42603,800.7408
"4260",80.37232,800.7541
"4261",80.235596,800.7674
"4262",80.025635,800.7807
"4263",79.75952,800.794
"4264",79.4519,800.8073
"4265",79.12718,800.8206
"4266",78.80736,800.8339
"4267",78.504616,800.8472
"4268",78.22629,800.86053
"4269",77.98947,800.87384
"4270",77.80881,800.88715
"4271",77.68429,800.90045
"4272",77.61593,800.91376
"4273",77.59884,800.92706
"4274",77.628136,800.94037
"4275",77.68673,800.9537
"4276",77.76486,800.967
"4277",77.84543,800.9803
"4278",77.91623,800.9936
"4279",77.95041,801.0069
"4280",77.93576,801.0202
"4281",77.87717,801.0335
"4282",77.79904,801.0468
"4283",77.730675,801.0601
"4284",77.71847,801.0734
"4285",77.85031,801.08673
"4286",78.23361,801.10004
"4287",78.94408,801.11334
"4288",79.98169,801.12665
"4289",81.270775,801.13995
"4290",82.64042,801.15326
"4291",83.89288,801.16656
"4292",84.84993,801.1799
"4293",85.43099,801.1932
"4294",85.63607,801.2065
"4295",85.53353,801.2198
"4296",85.21126,801.2331
"4297",84.7596,801.2464
"4298",84.23468,801.2597
"4299",83.685356,801.273
"4300",83.13115,801.2863
"4301",82.581825,801.2996
"4302",82.04715,801.3129
"4303",81.55398,801.32623
"4304",81.129166,801.33954
"4305",80.8069,801.35284
"4306",80.59693,801.36615
"4307",80.5066,801.37946
"4308",80.51392,801.39276
"4309",80.587166,801.40607
"4310",80.67994,801.4194
"4311",80.76051,801.4327
"4312",80.80446,801.446
"4313",80.780045,801.4593
"4314",80.68238,801.4726
"4315",80.51148,801.4859
"4316",80.274666,801.4992
"4317",79.991455,801.5125
"4318",79.691154,801.5258
"4319",79.3933,801.5391
"4320",79.11742,801.5524
"4321",78.86839,801.56573
"4322",78.63157,801.57904
"4323",78.40452,801.59235
"4324",78.18234,801.60565
"4325",77.9675,801.61896
"4326",77.7673,801.63226
"4327",77.591515,801.64557
"4328",77.44503,801.6589
"4329",77.32296,801.6722
"4330",77.22774,801.6855
"4331",77.16182,801.6988
"4332",77.13008,801.7121
"4333",77.12276,801.7254
"4334",77.12276,801.7387
"4335",77.11543,801.752
"4336",77.07637,801.7653
"4337",77.00313,801.7786
"4338",76.912796,801.79193
"4339",76.82735,801.80524
"4340",76.79561,801.81854
"4341",76.893265,801.83185
"4342",77.21309,801.84515
"4343",77.84299,801.85846
"4344",78.79271,801.87177
"4345",79.9939,801.8851
"4346",81.304955,801.8984
"4347",82.54276,801.9117
"4348",83.526665,801.925
"4349",84.156555,801.9383
"4350",84.41535,801.9516
"4351",84.3592,801.9649
"4352",84.07843,801.9782
"4353",83.66094,801.9915
"4354",83.17998,802.0048
"4355",82.686806,802.0181
"4356",82.19119,802.03143
"4357",81.69802,802.04474
"4358",81.20729,802.05804
"4359",80.73853,802.07135
"4360",80.31617,802.08466
"4361",79.98413,802.09796
"4362",79.76929,802.11127
"4363",79.68383,802.1246
"4364",79.72045,802.1379
"4365",79.84253,802.1512
"4366",79.9939,802.1645
"4367",80.12085,802.1778
"4368",80.18677,802.1911
"4369",80.17212,802.2044
"4370",80.08423,802.2177
"4371",79.937744,802.231
"4372",79.74975,802.2443
"4373",79.53246,802.2576
"4374",79.290764,802.27094
"4375",79.03197,802.28424
"4376",78.765854,802.29755
"4377",78.51194,802.31085
"4378",78.27512,802.32416
"4379",78.06027,802.33746
"4380",77.8674,802.35077
"4381",77.69894,802.3641
"4382",77.56222,802.3774
"4383",77.46456,802.3907
"4384",77.41573,802.404
"4385",77.40597,802.4173
"4386",77.43038,802.4306
"4387",77.47433,802.4439
"4388",77.5256,802.4572
"4389",77.576866,802.4705
"4390",77.62325,802.4838
"4391",77.659874,802.49713
"4392",77.68185,802.51044
"4393",77.67696,802.52374
"4394",77.6379,802.53705
"4395",77.5671,802.55035
"4396",77.467,802.56366
"4397",77.3547,802.57697
"4398",77.25948,802.5903
"4399",77.222855,802.6036
"4400",77.315636,802.6169
"4401",77.64767,802.6302
"4402",78.30442,802.6435
"4403",79.29565,802.6568
"4404",80.5359,802.6701
"4405",81.87625,802.6834
"4406",83.11162,802.6967
"4407",84.071106,802.71
"4408",84.664375,802.7233
"4409",84.893875,802.73663
"4410",84.81819,802.74994
"4411",84.51789,802.76324
"4412",84.07599,802.77655
"4413",83.5584,802.78986
"4414",83.018845,802.80316
"4415",82.48417,802.81647
"4416",81.971466,802.8298
"4417",81.48318,802.8431
"4418",81.02907,802.8564
"4419",80.618904,802.8697
"4420",80.28199,802.883
"4421",80.045166,802.8963
"4422",79.93286,802.9096
"4423",80.02075,802.9362
"4424",80.15259,802.9495
"4425",80.274666,802.9628
"4426",80.34547,802.97614
"4427",80.33814,802.98944
"4428",80.255135,803.00275
"4429",80.11597,803.01605
"4430",79.9353,803.02936
"4431",79.73754,803.04266
"4432",79.53246,803.05597
"4433",79.327385,803.0693
"4434",79.114975,803.0826
"4435",78.89769,803.0959
"4436",78.68284,803.1092
"4437",78.48264,803.1225
"4438",78.30686,803.1358
"4439",78.15549,803.1491
"4440",78.030975,803.1624
"4441",77.92844,803.1757
"4442",77.84543,803.189
"4443",77.77951,803.20233
"4444",77.738,803.21564
"4445",77.71603,803.22894
"4446",77.71114,803.24225
"4447",77.72091,803.25555
"4448",77.74532,803.26886
"4449",77.78195,803.28217
"4450",77.8259,803.2955
"4451",77.86496,803.3088
"4452",77.88937,803.3221
"4453",77.88449,803.3354
"4454",77.84543,803.3487
"4455",77.77463,803.362
"4456",77.69161,803.3753
"4457",77.61349,803.3886
"4458",77.58419,803.4019
"4459",77.66964,803.4152
"4460",77.96506,803.4285
"4461",78.555885,803.44183
"4462",79.45922,803.45514
"4463",80.601814,803.46844
"4464",81.83963,803.48175
"4465",83.004196,803.49506
"4466",83.931946,803.50836
"4467",84.53498,803.52167
"4468",84.8011,803.535
"4469",84.77913,803.5483
"4470",84.525215,803.5616
"4471",84.11749,803.5749
"4472",83.631645,803.5882
"4473",83.11894,803.6015
"4474",82.62333,803.6148
"4475",82.161896,803.6281
"4476",81.72976,803.6414
"4477",81.32937,803.6547
"4478",80.972916,803.668
"4479",80.67017,803.68134
"4480",80.448006,803.69464
"4481",80.32105,803.70795
"4482",80.29664,803.72125
"4483",80.35523,803.73456
"4484",80.46998,803.74786
"4485",80.59937,803.76117
"4486",80.706795,803.7745
"4487",80.762955,803.7878
"4488",80.75075,803.8011
"4489",80.67506,803.8144
"4490",80.53834,803.8277
"4491",80.35035,803.841
"4492",80.12573,803.8543
"4493",79.87671,803.8676
"4494",79.62035,803.8809
"4495",79.361565,803.8942
"4496",79.11009,803.90753
"4497",78.86351,803.92084
"4498",78.62913,803.93414
"4499",78.41184,803.94745
"4500",78.21164,803.96075
"4501",78.05051,803.97406
"4502",77.93088,803.98737
"4503",77.85275,804.0007
"4504",77.806366,804.014
"4505",77.79172,804.0273
"4506",77.7966,804.0406
"4507",77.81369,804.0539
"4508",77.83078,804.0672
"4509",77.84299,804.0805
"4510",77.85275,804.0938
"4511",77.857635,804.1071
"4512",77.855194,804.1204
"4513",77.85031,804.1337
"4514",77.84543,804.14703
"4515",77.83322,804.16034
"4516",77.81125,804.17365
"4517",77.77219,804.18695
"4518",77.72335,804.20026
"4519",77.67452,804.21356
"4520",77.659874,804.22687
"4521",77.74532,804.2402
"4522",78.0383,804.2535
"4523",78.63157,804.2668
"4524",79.54711,804.2801
"4525",80.726326,804.2934
"4526",82.02518,804.3067
"4527",83.25323,804.32
"4528",84.244446,804.3333
"4529",84.893875,804.3466
"4530",85.186844,804.3599
"4531",85.17464,804.3732
"4532",84.92073,804.38654
"4533",84.5008,804.39984
"4534",83.9881,804.41315
"4535",83.43633,804.42645
"4536",82.88945,804.43976
"4537",82.371864,804.45306
"4538",81.89334,804.4664
"4539",81.463646,804.4797
"4540",81.077896,804.493
"4541",80.7483,804.5063
"4542",80.482185,804.5196
"4543",80.30152,804.5329
"4544",80.21118,804.5462
"4545",80.218506,804.5595
"4546",80.30396,804.5728
"4547",80.42603,804.5861
"4548",80.54078,804.5994
"4549",80.61402,804.61273
"4550",80.61646,804.62604
"4551",80.54078,804.63934
"4552",80.39185,804.65265
"4553",80.18677,804.66595
"4554",79.94263,804.67926
"4555",79.67895,804.69257
"4556",79.40795,804.7059
"4557",79.14427,804.7192
"4558",78.89769,804.7325
"4559",78.66819,804.7458
"4560",78.44846,804.7591
"4561",78.24338,804.7724
"4562",78.05539,804.7857
"4563",77.89426,804.799
"4564",77.769745,804.8123
"4565",77.69405,804.8256
"4566",77.65743,804.8389
"4567",77.65255,804.85223
"4568",77.659874,804.86554
"4569",77.662315,804.87885
"4570",77.65743,804.89215
"4571",77.65255,804.90546
"4572",77.65743,804.91876
