"","ppg","time"
"1",84.9012,647.9468
"2",84.91585,647.95996
"3",84.681465,647.97314
"4",84.30305,647.9863
"5",83.85138,647.9995
"6",83.36553,648.0127
"7",82.86015,648.0259
"8",82.3328,648.03906
"9",81.79813,648.05225
"10",81.29519,648.0654
"11",80.89479,648.0786
"12",80.672615,648.0918
"13",80.689705,648.105
"14",80.94606,648.11816
"15",81.39773,648.13135
"16",81.94949,648.14453
"17",82.48173,648.1577
"18",82.896774,648.1709
"19",83.13603,648.1841
"20",83.177536,648.19727
"21",83.03349,648.21045
"22",82.75029,648.22363
"23",82.37919,648.2368
"24",81.96658,648.25
"25",81.53445,648.2632
"26",81.094986,648.27637
"27",80.65797,648.28955
"28",80.23071,648.30273
"29",79.82056,648.3159
"30",79.43481,648.3291
"31",79.07591,648.3423
"32",78.75365,648.35547
"33",78.502174,648.36865
"34",78.416725,648.38184
"35",78.63889,648.395
"36",79.30541,648.4082
"37",80.465096,648.4214
"38",82.04471,648.4346
"39",83.84161,648.44775
"40",85.58968,648.46094
"41",87.02037,648.4741
"42",87.96033,648.4873
"43",88.35096,648.5005
"44",88.22644,648.5137
"45",87.68932,648.52686
"46",86.85924,648.54004
"47",85.86801,648.5532
"48",84.81819,648.5664
"49",83.792786,648.5796
"50",82.80644,648.5928
"51",81.85184,648.60596
"52",80.91676,648.61914
"53",80.0061,648.6323
"54",79.168686,648.6455
"55",78.47776,648.6587
"56",78.02121,648.6719
"57",77.82834,648.68506
"58",77.88205,648.69824
"59",78.10666,648.7114
"60",78.40696,648.7246
"61",78.68772,648.7378
"62",78.890366,648.751
"63",78.995346,648.76416
"64",79.00023,648.77734
"65",78.907455,648.7905
"66",78.73167,648.8037
"67",78.47532,648.8169
"68",78.1384,648.8301
"69",77.74532,648.84326
"70",77.315636,648.85645
"71",76.87862,648.8696
"72",76.470894,648.8828
"73",76.112,648.896
"74",75.826355,648.9092
"75",75.62859,648.92236
"76",75.526054,648.93555
"77",75.511406,648.9487
"78",75.57244,648.9619
"79",75.7409,648.9751
"80",76.112,648.9883
"81",76.82979,649.00146
"82",77.996796,649.01465
"83",79.62035,649.02783
"84",81.59304,649.041
"85",83.682915,649.0542
"86",85.609215,649.0674
"87",87.13512,649.08057
"88",88.13611,649.09375
"89",88.59022,649.10693
"90",88.53651,649.1201
"91",88.06287,649.1333
"92",87.28405,649.1465
"93",86.31968,649.15967
"94",85.27718,649.17285
"95",84.244446,649.18604
"96",83.267876,649.1992
"97",82.36454,649.2124
"98",81.54177,649.2256
"99",80.816666,649.2388
"100",80.23071,649.25195
"101",79.83276,649.26514
"102",79.65942,649.2783
"103",79.71801,649.2915
"104",79.95972,649.3047
"105",80.29664,649.3179
"106",80.63355,649.33105
"107",80.88991,649.34424
"108",81.007095,649.3574
"109",80.96803,649.3706
"110",80.7776,649.3838
"111",80.45777,649.397
"112",80.04028,649.41016
"113",79.56664,649.42334
"114",79.07347,649.4365
"115",78.59251,649.4497
"116",78.150604,649.4629
"117",77.76242,649.4761
"118",77.43282,649.48926
"119",77.15694,649.50244
"120",76.93477,649.5156
"121",76.76875,649.5288
"122",76.64423,649.542
"123",76.55634,649.5552
"124",76.49287,649.56836
"125",76.44648,649.58154
"126",76.46357,649.5947
"127",76.67597,649.6079
"128",77.23506,649.6211
"129",78.25315,649.6343
"130",79.725334,649.64746
"131",81.514915,649.66064
"132",83.3753,649.6738
"133",85.015945,649.687
"134",86.2269,649.7002
"135",86.908066,649.7134
"136",87.0692,649.72656
"137",86.785995,649.73975
"138",86.1561,649.7529
"139",85.27718,649.7661
"140",84.24933,649.7793
"141",83.15556,649.7925
"142",82.054474,649.80566
"143",80.98512,649.81885
"144",79.971924,649.83203
"145",79.044174,649.8452
"146",78.238495,649.8584
"147",77.611046,649.8716
"148",77.222855,649.88477
"149",77.10811,649.89795
"150",77.261925,649.91113
"151",77.62081,649.9243
"152",78.09201,649.9375
"153",78.56321,649.9507
"154",78.95384,649.96387
"155",79.200424,649.97705
"156",79.28832,649.99023
"157",79.219955,650.0034
"158",79.027084,650.0166
"159",78.74387,650.0298
"160",78.40208,650.04297
"161",78.03586,650.05615
"162",77.67696,650.06934
"163",77.34249,650.0825
"164",77.03975,650.0957
"165",76.77852,650.1089
"166",76.558784,650.1221
"167",76.37812,650.13525
"168",76.23651,650.14844
"169",76.13641,650.1616
"170",76.0827,650.1748
"171",76.0827,650.188
"172",76.12909,650.2012
"173",76.19989,650.21436
"174",76.280464,650.22754
"175",76.40009,650.2407
"176",76.66865,650.2539
"177",77.242386,650.2671
"178",78.24094,650.2803
"179",79.691154,650.29346
"180",81.478294,650.30664
"181",83.3753,650.3198
"182",85.103836,650.333
"183",86.42466,650.3462
"184",87.22789,650.3594
"185",87.50622,650.37256
"186",87.32311,650.38574
"187",86.77623,650.3989
"188",85.977875,650.4121
"189",85.030594,650.4253
"190",84.01495,650.4385
"191",82.99687,650.45166
"192",82.01053,650.46484
"193",81.08278,650.478
"194",80.216064,650.4912
"195",79.43481,650.5044
"196",78.7805,650.5176
"197",78.311745,650.53076
"198",78.07248,650.54395
"199",78.08957,650.5571
"200",78.32395,650.5703
"201",78.695045,650.5835
"202",79.10033,650.5967
"203",79.44213,650.60986
"204",79.656975,650.62305
"205",79.72045,650.6362
"206",79.62035,650.6494
"207",79.39086,650.6626
"208",79.05882,650.6758
"209",78.658424,650.68896
"210",78.221405,650.70215
"211",77.79172,650.71533
"212",77.38888,650.7285
"213",77.02998,650.7417
"214",76.715034,650.7549
"215",76.44648,650.76807
"216",76.21454,650.78125
"217",76.016785,650.79443
"218",75.85321,650.8076
"219",75.73113,650.8208
"220",75.65545,650.834
"221",75.6408,650.84717
"222",75.682304,650.86035
"223",75.76532,650.87354
"224",75.862976,650.8867
"225",75.965515,650.8999
"226",76.112,650.9131
"227",76.43183,650.9263
"228",77.083694,650.93945
"229",78.18234,650.95264
"230",79.71557,650.9658
"231",81.55886,650.979
"232",83.46319,650.9922
"233",85.14534,651.0054
"234",86.40269,651.01855
"235",87.149765,651.03174
"236",87.398796,651.0449
"237",87.21324,651.0581
"238",86.693214,651.0713
"239",85.93393,651.0845
"240",85.02571,651.09766
"241",84.04181,651.11084
"242",83.04326,651.124
"243",82.08133,651.1372
"244",81.18532,651.1504
"245",80.36988,651.1636
"246",79.65942,651.17676
"247",79.078354,651.18994
"248",78.67307,651.2031
"249",78.485085,651.2163
"250",78.52659,651.2295
"251",78.77074,651.2427
"252",79.14427,651.25586
"253",79.54955,651.26904
"254",79.886475,651.2822
"255",80.093994,651.2954
"256",80.13794,651.3086
"257",80.02075,651.3218
"258",79.76929,651.33496
"259",79.41772,651.34814
"260",79.00023,651.3613
"261",78.55833,651.3745
"262",78.12375,651.3877
"263",77.71847,651.4009
"264",77.36202,651.41406
"265",77.051956,651.42725
"266",76.788284,651.4404
"267",76.55634,651.4536
"268",76.35371,651.4668
"269",76.17792,651.48
"270",76.036316,651.49316
"271",75.948425,651.50635
"272",75.91913,651.51953
"273",75.95331,651.5327
"274",76.019226,651.5459
"275",76.09491,651.5591
"276",76.18524,651.57227
"277",76.37812,651.58545
"278",76.82002,651.59863
"279",77.65499,651.6118
"280",78.94896,651.625
"281",80.63355,651.6382
"282",82.51591,651.65137
"283",84.3299,651.66455
"284",85.82651,651.67773
"285",86.84703,651.6909
"286",87.34997,651.7041
"287",87.35729,651.7173
"288",86.94469,651.73047
"289",86.21469,651.74365
"290",85.26742,651.75684
"291",84.207825,651.77
"292",83.11162,651.7832
"293",82.037384,651.7964
"294",81.02663,651.8096
"295",80.096436,651.82275
"296",79.256584,651.83594
"297",78.53147,651.8491
"298",77.97482,651.8623
"299",77.64767,651.8755
"300",77.593956,651.8887
"301",77.81857,651.90186
"302",78.27024,651.91504
"303",78.84154,651.9282
"304",79.40307,651.9414
"305",79.84009,651.9546
"306",80.093994,651.9678
"307",80.14526,651.98096
"308",80.01343,651.99414
"309",79.74975,652.0073
"310",79.40795,652.0205
"311",79.03685,652.0337
"312",78.66575,652.0469
"313",78.32395,652.06006
"314",78.028534,652.07324
"315",77.77707,652.0864
"316",77.56466,652.0996
"317",77.37911,652.1128
"318",77.20088,652.126
"319",77.00801,652.13916
"320",76.805374,652.15234
"321",76.63447,652.1655
"322",76.5539,652.1787
"323",76.60517,652.1919
"324",76.78584,652.2051
"325",77.03975,652.21826
"326",77.296104,652.23145
"327",77.52804,652.2446
"328",77.81369,652.2578
"329",78.294655,652.271
"330",79.10521,652.2842
"331",80.27955,652.29736
"332",81.72732,652.31055
"333",83.24834,652.3237
"334",84.60578,652.3369
"335",85.6141,652.3501
"336",86.18295,652.3633
"337",86.312355,652.37646
"338",86.04379,652.38965
"339",85.452965,652.40283
"340",84.62531,652.416
"341",83.65118,652.4292
"342",82.6038,652.4424
"343",81.55398,652.45557
"344",80.54078,652.46875
"345",79.59838,652.48193
"346",78.7805,652.4951
"347",78.16281,652.5083
"348",77.80148,652.5215
"349",77.738,652.53467
"350",77.98215,652.54785
"351",78.49485,652.56104
"352",79.17357,652.5742
"353",79.89624,652.5874
"354",80.5481,652.6006
"355",81.05104,652.6138
"356",81.34402,652.62695
"357",81.42214,652.64014
"358",81.31716,652.6533
"359",81.092545,652.6665
"360",80.78737,652.6797
"361",80.44068,652.6929
"362",80.08423,652.70605
"363",79.73022,652.71924
"364",79.38598,652.7324
"365",79.0515,652.7456
"366",78.72678,652.7588
"367",78.41428,652.772
"368",78.118866,652.78516
"369",77.83566,652.79834
"370",77.576866,652.8115
"371",77.347374,652.8247
"372",77.14717,652.8379
"373",76.97627,652.8511
"374",76.8542,652.86426
"375",76.84444,652.87744
"376",77.09346,652.8906
"377",77.77463,652.9038
"378",78.96605,652.917
"379",80.621346,652.9302
"380",82.562294,652.94336
"381",84.51301,652.95654
"382",86.17319,652.9697
"383",87.34997,652.9829
"384",87.9823,652.9961
"385",88.114136,653.0093
"386",87.83826,653.02246
"387",87.26208,653.03564
"388",86.485695,653.0488
"389",85.592125,653.062
"390",84.63264,653.0752
"391",83.6292,653.0884
"392",82.59403,653.10156
"393",81.53689,653.11475
"394",80.46998,653.1279
"395",79.43969,653.1411
"396",78.51682,653.1543
"397",77.80148,653.1675
"398",77.39864,653.18066
"399",77.383995,653.19385
"400",77.738,653.20703
"401",78.365456,653.2202
"402",79.10765,653.2334
"403",79.801025,653.2466
"404",80.31861,653.25977
"405",80.604256,653.27295
"406",80.66773,653.28613
"407",80.552986,653.2993
"408",80.29908,653.3125
"409",79.94507,653.3257
"410",79.52514,653.33887
"411",79.078354,653.35205
"412",78.6218,653.36523
"413",78.184784,653.3784
"414",77.78195,653.3916
"415",77.420616,653.4048
"416",77.08858,653.41797
"417",76.77608,653.43115
"418",76.48554,653.44434
"419",76.224304,653.4575
"420",76.00458,653.4707
"421",75.86542,653.4839
"422",75.92157,653.4971
"423",76.36591,653.51025
"424",77.35958,653.52344
"425",78.93675,653.5366
"426",80.9778,653.5498
"427",83.228806,653.563
"428",85.35775,653.5762
"429",87.0399,653.58936
"430",88.111694,653.60254
"431",88.57801,653.6157
"432",88.53651,653.6289
"433",88.097046,653.6421
"434",87.36706,653.6553
"435",86.45396,653.66846
"436",85.44808,653.68164
"437",84.39338,653.6948
"438",83.32647,653.708
"439",82.269325,653.7212
"440",81.231705,653.7344
"441",80.22095,653.74756
"442",79.26391,653.76074
"443",78.42405,653.7739
"444",77.79172,653.7871
"445",77.452354,653.8003
"446",77.44991,653.8135
"447",77.76486,653.82666
"448",78.30686,653.83984
"449",78.9514,653.853
"450",79.551994,653.8662
"451",80.0061,653.8794
"452",80.257576,653.8926
"453",80.29908,653.90576
"454",80.15503,653.91895
"455",79.871826,653.9321
"456",79.4934,653.9453
"457",79.063705,653.9585
"458",78.607155,653.9717
"459",78.14328,653.98486
"460",77.69405,653.99805
"461",77.27657,654.0112
"462",76.89815,654.0244
"463",76.54902,654.0376
"464",76.22186,654.0508
"465",75.911804,654.06396
"466",75.63592,654.07715
"467",75.41863,654.09033
"468",75.372246,654.1035
"469",75.70428,654.1167
"470",76.61494,654.1299
"471",78.14816,654.14307
"472",80.18921,654.15625
"473",82.49882,654.16943
"474",84.74494,654.1826
"475",86.590675,654.1958
"476",87.84314,654.209
"477",88.49012,654.22217
"478",88.619514,654.23535
"479",88.324104,654.24854
"480",87.71862,654.2617
"481",86.91295,654.2749
"482",85.98764,654.2881
"483",85.0013,654.3013
"484",83.983215,654.31445
"485",82.96513,654.32764
"486",81.95682,654.3408
"487",80.96071,654.354
"488",79.9939,654.3672
"489",79.10765,654.3804
"490",78.3679,654.39355
"491",77.8674,654.40674
"492",77.68429,654.4199
"493",77.82834,654.4331
"494",78.22873,654.4463
"495",78.75853,654.4595
"496",79.293205,654.47266
"497",79.71313,654.48584
"498",79.94751,654.499
"499",79.97681,654.5122
"500",79.823,654.5254
"501",79.5227,654.5386
"502",79.11986,654.55176
"503",78.65598,654.56494
"504",78.167694,654.5781
"505",77.679405,654.5913
"506",77.20332,654.6045
"507",76.74189,654.6177
"508",76.30488,654.63086
"509",75.90204,654.64404
"510",75.528496,654.6572
"511",75.1989,654.6704
"512",74.93767,654.6836
"513",74.82048,654.6968
"514",75.02556,654.70996
"515",75.76532,654.72314
"516",77.14229,654.7363
"517",79.09056,654.7495
"518",81.392845,654.7627
"519",83.717094,654.7759
"520",85.70931,654.78906
"521",87.12291,654.80225
"522",87.90173,654.8154
"523",88.10925,654.8286
"524",87.850464,654.8418
"525",87.24254,654.855
"526",86.39292,654.86816
"527",85.40414,654.88135
"528",84.35432,654.89453
"529",83.29717,654.9077
"530",82.266884,654.9209
"531",81.27566,654.9341
"532",80.32105,654.94727
"533",79.41039,654.96045
"534",78.5803,654.97363
"535",77.891815,654.9868
"536",77.42306,655
"537",77.24727,655.0132
"538",77.37911,655.02637
"539",77.747765,655.03955
"540",78.24582,655.05273
"541",78.74876,655.0659
"542",79.149155,655.0791
"543",79.37377,655.0923
"544",79.40795,655.10547
"545",79.27856,655.11865
"546",79.009995,655.13184
"547",78.63645,655.145
"548",78.19699,655.1582
"549",77.72579,655.1714
"550",77.24727,655.1846
"551",76.78096,655.19775
"552",76.3415,655.21094
"553",75.945984,655.2241
"554",75.60418,655.2373
"555",75.318535,655.2505
"556",75.089035,655.2637
"557",74.91325,655.27686
"558",74.82048,655.29004
"559",74.9279,655.3032
"560",75.43328,655.3164
"561",76.50263,655.3296
"562",78.16525,655.3428
"563",80.289314,655.35596
"564",82.6038,655.36914
"565",84.7596,655.3823
"566",86.451515,655.3955
"567",87.52819,655.4087
"568",87.99695,655.4219
"569",87.93347,655.43506
"570",87.45739,655.44824
"571",86.68101,655.4614
"572",85.7264,655.4746
"573",84.67658,655.4878
"574",83.59991,655.501
"575",82.545204,655.51416
"576",81.532005,655.52734
"577",80.56275,655.5405
"578",79.64477,655.5537
"579",78.8098,655.5669
"580",78.116425,655.5801
"581",77.645226,655.59326
"582",77.45968,655.60645
"583",77.57931,655.6196
"584",77.943085,655.6328
"585",78.44358,655.646
"586",78.94896,655.6592
"587",79.34692,655.67236
"588",79.571526,655.68555
"589",79.605705,655.6987
"590",79.4641,655.7119
"591",79.183334,655.7251
"592",78.80003,655.7383
"593",78.35081,655.75146
"594",77.86252,655.76465
"595",77.36935,655.77783
"596",76.893265,655.791
"597",76.45136,655.8042
"598",76.050964,655.8174
"599",75.7116,655.83057
"600",75.43328,655.84375
"601",75.21355,655.85693
"602",75.04509,655.8701
"603",74.93523,655.8833
"604",74.94499,655.8965
"605",75.22087,655.90967
"606",75.95087,655.92285
"607",77.239944,655.93604
"608",79.063705,655.9492
"609",81.22926,655.9624
"610",83.43633,655.9756
"611",85.35775,655.9888
"612",86.751816,656.00195
"613",87.5404,656.01514
"614",87.75769,656.0283
"615",87.49645,656.0415
"616",86.871445,656.0547
"617",85.994965,656.0679
"618",84.97444,656.08105
"619",83.89288,656.09424
"620",82.80644,656.1074
"621",81.74685,656.1206
"622",80.72877,656.1338
"623",79.74731,656.147
"624",78.83421,656.16016
"625",78.0383,656.17334
"626",77.44747,656.1865
"627",77.14473,656.1997
"628",77.1667,656.2129
"629",77.471886,656.2261
"630",77.96506,656.23926
"631",78.5095,656.25244
"632",78.97093,656.2656
"633",79.26635,656.2788
"634",79.364006,656.292
"635",79.276115,656.3052
"636",79.03685,656.31836
"637",78.677956,656.33154
"638",78.24582,656.3447
"639",77.77951,656.3579
"640",77.30831,656.3711
"641",76.84444,656.3843
"642",76.4123,656.39746
"643",76.019226,656.41064
"644",75.67742,656.4238
"645",75.39178,656.437
"646",75.16716,656.4502
"647",75.001144,656.4634
"648",74.88884,656.47656
"649",74.861984,656.48975
"650",75.04021,656.5029
"651",75.58953,656.5161
"652",76.64423,656.5293
"653",78.22629,656.5425
"654",80.218506,656.55566
"655",82.37919,656.56885
"656",84.37873,656.58203
"657",85.94858,656.5952
"658",86.939804,656.6084
"659",87.33776,656.6216
"660",87.203476,656.63477
"661",86.64683,656.64795
"662",85.78989,656.66113
"663",84.754715,656.6743
"664",83.6292,656.6875
"665",82.48417,656.7007
"666",81.36355,656.71387
"667",80.27955,656.72705
"668",79.24925,656.74023
"669",78.30442,656.7534
"670",77.50851,656.7666
"671",76.94209,656.7798
"672",76.680855,656.79297
"673",76.749214,656.80615
"674",77.10811,656.81934
"675",77.65011,656.8325
"676",78.22873,656.8457
"677",78.70725,656.8589
"678",78.98314,656.8721
"679",79.01732,656.88525
"680",78.81468,656.89844
"681",78.42649,656.9116
"682",77.92111,656.9248
"683",77.41085,656.938
"684",76.9836,656.9512
"685",76.66621,656.96436
"686",76.40742,656.97754
"687",76.16327,656.9907
"688",75.8996,657.0039
"689",75.60174,657.0171
"690",75.29168,657.0303
"691",75.018234,657.04346
"692",74.8156,657.05664
"693",74.67155,657.0698
"694",74.62516,657.083
"695",74.80095,657.0962
"696",75.386894,657.1094
"697",76.50019,657.12256
"698",78.1384,657.13574
"699",80.15015,657.1489
"700",82.262,657.1621
"701",84.16144,657.1753
"702",85.59945,657.1885
"703",86.4564,657.20166
"704",86.73716,657.21484
"705",86.51255,657.228
"706",85.89487,657.2412
"707",85.00862,657.2544
"708",83.97345,657.2676
"709",82.94316,657.28076
"710",82.037384,657.29395
"711",81.2781,657.3071
"712",80.60914,657.3203
"713",79.9646,657.3335
"714",79.31762,657.3467
"715",78.68772,657.35986
"716",78.167694,657.37305
"717",77.89426,657.3862
"718",77.945526,657.3994
"719",78.2678,657.4126
"720",78.73411,657.4258
"721",79.200424,657.43896
"722",79.54955,657.45215
"723",79.71801,657.46533
"724",79.69848,657.4785
"725",79.50805,657.4917
"726",79.185776,657.5049
"727",78.80003,657.51807
"728",78.450905,657.53125
"729",78.221405,657.54443
"730",78.09689,657.5576
"731",77.99924,657.5708
"732",77.85275,657.584
"733",77.611046,657.59717
"734",77.24971,657.61035
"735",76.81758,657.62354
"736",76.404976,657.6367
"737",76.11932,657.6499
"738",76.070496,657.6631
"739",76.40986,657.6763
"740",77.28634,657.68945
"741",78.74143,657.70264
"742",80.672615,657.7158
"743",82.84062,657.729
"744",84.91585,657.7422
"745",86.60044,657.7554
"746",87.72106,657.76855
"747",88.224,657.78174
"748",88.1532,657.7949
"749",87.603874,657.8081
"750",86.710304,657.8213
"751",85.65072,657.8345
"752",84.613106,657.84766
"753",83.72442,657.86084
"754",82.99443,657.874
"755",82.36942,657.8872
"756",81.75906,657.9004
"757",81.11452,657.9136
"758",80.44312,657.92676
"759",79.84741,657.93994
"760",79.46166,657.9531
"761",79.35424,657.9663
"762",79.50317,657.9795
"763",79.818115,657.9927
"764",80.18677,658.00586
"765",80.50172,658.01904
"766",80.69703,658.0322
"767",80.73853,658.0454
"768",80.62379,658.0586
"769",80.36988,658.0718
"770",80.0061,658.08496
"771",79.56176,658.09814
"772",79.05638,658.1113
"773",78.52903,658.1245
"774",78.011444,658.1377
"775",77.53536,658.1509
"776",77.13008,658.16406
"777",76.81514,658.17725
"778",76.575874,658.1904
"779",76.39277,658.2036
"780",76.2707,658.2168
"781",76.297554,658.23
"782",76.65156,658.24316
"783",77.50118,658.25635
"784",78.91722,658.26953
"785",80.82643,658.2827
"786",83.00908,658.2959
"787",85.14534,658.3091
"788",86.92027,658.32227
"789",88.13611,658.33545
"790",88.73914,658.34863
"791",88.76112,658.3618
"792",88.30213,658.375
"793",87.484245,658.3882
"794",86.45396,658.40137
"795",85.34066,658.41455
"796",84.244446,658.42773
"797",83.22148,658.4409
"798",82.2913,658.4541
"799",81.446556,658.4673
"800",80.66773,658.48047
"801",79.96704,658.49365
"802",79.37621,658.50684
"803",78.94896,658.52
"804",78.72678,658.5332
"805",78.71702,658.5464
"806",78.8806,658.5596
"807",79.14183,658.57275
"808",79.412834,658.58594
"809",79.622795,658.5991
"810",79.72045,658.6123
"811",79.68383,658.6255
"812",79.520256,658.6387
"813",79.24925,658.65186
"814",78.89769,658.66504
"815",78.48997,658.6782
"816",78.05539,658.6914
"817",77.61593,658.7046
"818",77.19112,658.7178
"819",76.80049,658.73096
"820",76.453804,658.74414
"821",76.155945,658.7573
"822",75.89227,658.7705
"823",75.682304,658.7837
"824",75.62615,658.7969
"825",75.8996,658.81006
"826",76.680855,658.82324
"827",78.06271,658.8364
"828",79.97681,658.8496
"829",82.210724,658.8628
"830",84.43,658.876
"831",86.30503,658.88916
"832",87.61364,658.90234
"833",88.289925,658.9155
"834",88.36317,658.9287
"835",87.93347,658.9419
"836",87.14,658.9551
"837",86.11948,658.96826
"838",85.00374,658.98145
"839",83.888,658.9946
"840",82.83086,659.0078
"841",81.84451,659.021
"842",80.91432,659.0342
"843",80.03296,659.04736
"844",79.21507,659.06055
"845",78.521706,659.0737
"846",78.02609,659.0869
"847",77.789276,659.1001
"848",77.81369,659.1133
"849",78.05051,659.12646
"850",78.399635,659.13965
"851",78.75365,659.15283
"852",79.01976,659.166
"853",79.14671,659.1792
"854",79.114975,659.1924
"855",78.92943,659.20557
"856",78.61692,659.21875
"857",78.20676,659.23193
"858",77.74288,659.2451
"859",77.261925,659.2583
"860",76.79805,659.2715
"861",76.3708,659.28467
"862",75.999695,659.29785
"863",75.69451,659.31104
"864",75.46258,659.3242
"865",75.31121,659.3374
"866",75.23796,659.3506
"867",75.23064,659.3638
"868",75.30389,659.37695
"869",75.54803,659.39014
"870",76.11688,659.4033
"871",77.152054,659.4165
"872",78.69993,659.4297
"873",80.672615,659.4429
"874",82.83574,659.45605
"875",84.88411,659.46924
"876",86.5272,659.4824
"877",87.59411,659.4956
"878",88.05798,659.5088
"879",87.97986,659.522
"880",87.467155,659.53516
"881",86.65415,659.54834
"882",85.660484,659.5615
"883",84.59113,659.5747
"884",83.529106,659.5879
"885",82.50614,659.6011
"886",81.54177,659.61426
"887",80.63111,659.62744
"888",79.77661,659.6406
"889",79.01976,659.6538
"890",78.41428,659.667
"891",78.02121,659.6802
"892",77.872284,659.69336
"893",77.95285,659.70654
"894",78.18967,659.7197
"895",78.48997,659.7329
"896",78.75365,659.7461
"897",78.91722,659.7593
"898",78.94408,659.77246
"899",78.82933,659.78564
"900",78.590065,659.7988
"901",78.25071,659.812
"902",77.840546,659.8252
"903",77.38644,659.8384
"904",76.90791,659.85156
"905",76.42939,659.86475
"906",75.9704,659.8779
"907",75.55535,659.8911
"908",75.1989,659.9043
"909",74.915695,659.9175
"910",74.70817,659.93066
"911",74.581215,659.94385
"912",74.53239,659.95703
"913",74.57633,659.9702
"914",74.72282,659.9834
"915",74.969406,659.9966
"916",75.27703,660.00977
"917",75.58709,660.02295
"918",75.84833,660.03613
"919",76.0412,660.0493
"920",76.263374,660.0625
"921",76.717476,660.0757
"922",77.608604,660.08887
"923",79.0222,660.10205
"924",80.89235,660.11523
"925",82.99443,660.1284
"926",85.015945,660.1416
"927",86.659035,660.1548
"928",87.74059,660.16797
"929",88.23132,660.18115
"930",88.18982,660.19434
"931",87.71618,660.2075
"932",86.9276,660.2207
"933",85.94858,660.2339
"934",84.88167,660.2471
"935",83.81476,660.26025
"936",82.79912,660.27344
"937",81.8616,660.2866
"938",81.01198,660.2998
"939",80.24536,660.313
"940",79.57885,660.3262
"941",79.05394,660.33936
"942",78.709694,660.35254
"943",78.56809,660.3657
"944",78.6218,660.3789
"945",78.80492,660.3921
"946",79.04906,660.4053
"947",79.26635,660.41846
"948",79.395744,660.43164
"949",79.40551,660.4448
"950",79.28588,660.458
"951",79.04173,660.4712
"952",78.69016,660.4844
"953",78.26292,660.49756
"954",77.79172,660.51074
"955",77.31075,660.5239
"956",76.84688,660.5371
"957",76.422066,660.5503
"958",76.04852,660.5635
"959",75.72869,660.57666
"960",75.46502,660.58984
"961",75.2575,660.603
"962",75.11101,660.6162
"963",75.037766,660.6294
"964",75.04753,660.6426
"965",75.13542,660.65576
"966",75.29656,660.66895
"967",75.50652,660.6821
"968",75.73846,660.6953
"969",75.9704,660.7085
"970",76.18036,660.7217
"971",76.35615,660.73486
"972",76.4831,660.74805
"973",76.5539,660.7612
"974",76.63203,660.7744
"975",76.859085,660.7876
"976",77.420616,660.8008
"977",78.44846,660.81396
"978",79.95972,660.82715
"979",81.8201,660.84033
"980",83.76837,660.8535
"981",85.50912,660.8667
"982",86.81041,660.8799
"983",87.56725,660.89307
"984",87.79675,660.90625
"985",87.57458,660.91943
"986",87.01305,660.9326
"987",86.21713,660.9458
"988",85.28939,660.959
"989",84.30549,660.97217
"990",83.33135,660.98535
"991",82.40116,660.99854
"992",81.53933,661.0117
"993",80.762955,661.0249
"994",80.10376,661.0381
"995",79.61303,661.0513
"996",79.33471,661.06445
"997",79.276115,661.07764
"998",79.415276,661.0908
"999",79.691154,661.104
"1000",80.008545,661.1172
"1001",80.272224,661.1304
"1002",80.41871,661.14355
"1003",80.41871,661.15674
"1004",80.26246,661.1699
"1005",79.971924,661.1831
"1006",79.571526,661.1963
"1007",79.10277,661.2095
"1008",78.60227,661.22266
"1009",78.10422,661.23584
"1010",77.63546,661.249
"1011",77.225296,661.2622
"1012",76.895706,661.2754
"1013",76.65156,661.2886
"1014",76.473335,661.30176
"1015",76.334175,661.31494
"1016",76.209656,661.3281
"1017",76.09003,661.3413
"1018",75.98016,661.3545
"1019",75.90204,661.3677
"1020",75.8703,661.38086
"1021",75.90448,661.39404
"1022",76.00458,661.4072
"1023",76.16083,661.4204
"1024",76.35371,661.4336
"1025",76.5539,661.4468
"1026",76.72724,661.45996
"1027",76.84932,661.47314
"1028",76.93477,661.4863
"1029",77.08125,661.4995
"1030",77.45968,661.5127
"1031",78.21164,661.5259
"1032",79.40551,661.53906
"1033",80.9778,661.55225
"1034",82.74052,661.5654
"1035",84.43244,661.5786
"1036",85.80698,661.5918
"1037",86.72495,661.605
"1038",87.15953,661.61816
"1039",87.15709,661.63135
"1040",86.80553,661.64453
"1041",86.185394,661.6577
"1042",85.37484,661.6709
"1043",84.43244,661.6841
"1044",83.42657,661.69727
"1045",82.408485,661.71045
"1046",81.43191,661.72363
"1047",80.54322,661.7368
"1048",79.79614,661.75
"1049",79.23949,661.7632
"1050",78.91234,661.77637
"1051",78.82445,661.78955
"1052",78.97337,661.80273
"1053",79.31274,661.8159
"1054",79.75708,661.8291
"1055",80.20386,661.8423
"1056",80.570076,661.85547
"1057",80.79469,661.86865
"1058",80.84108,661.88184
"1059",80.70435,661.895
"1060",80.411385,661.9082
"1061",80.0061,661.9214
"1062",79.53246,661.9346
"1063",79.02464,661.94775
"1064",78.519264,661.96094
"1065",78.04562,661.9741
"1066",77.61593,661.9873
"1067",77.239944,662.0005
"1068",76.91768,662.0137
"1069",76.64423,662.02686
"1070",76.40742,662.04004
"1071",76.209656,662.0532
"1072",76.05585,662.0664
"1073",75.95575,662.0796
"1074",75.914246,662.0928
"1075",75.9411,662.10596
"1076",76.02167,662.11914
"1077",76.14374,662.1323
"1078",76.30488,662.1455
"1079",76.47822,662.1587
"1080",76.646675,662.1719
"1081",76.790726,662.18506
"1082",76.895706,662.19824
"1083",77.00069,662.2114
"1084",77.222855,662.2246
"1085",77.738,662.2378
"1086",78.6804,662.251
"1087",80.076904,662.26416
"1088",81.80789,662.27734
"1089",83.64629,662.2905
"1090",85.31136,662.3037
"1091",86.58335,662.3169
"1092",87.35973,662.3301
"1093",87.64294,662.34326
"1094",87.501335,662.35645
"1095",87.01305,662.3696
"1096",86.261086,662.3828
"1097",85.31869,662.396
"1098",84.25422,662.4092
"1099",83.12627,662.42236
"1100",81.99832,662.43555
"1101",80.91676,662.4487
"1102",79.937744,662.4619
"1103",79.1223,662.4751
"1104",78.51682,662.4883
"1105",78.15793,662.50146
"1106",78.07736,662.51465
"1107",78.277565,662.52783
"1108",78.70481,662.541
"1109",79.26879,662.5542
"1110",79.85474,662.5674
"1111",80.343025,662.58057
"1112",80.64088,662.59375
"1113",80.70435,662.60693
"1114",80.5481,662.6201
"1115",80.21118,662.6333
"1116",79.7522,662.6465
"1117",79.2224,662.65967
"1118",78.67063,662.67285
"1119",78.14816,662.68604
"1120",77.68185,662.6992
"1121",77.28878,662.7124
"1122",76.95186,662.7256
"1123",76.64912,662.7388
"1124",76.35859,662.75195
"1125",76.070496,662.76514
"1126",75.789734,662.7783
"1127",75.5407,662.7915
"1128",75.36004,662.8047
"1129",75.27703,662.8179
"1130",75.301445,662.83105
"1131",75.43816,662.84424
"1132",75.64568,662.8574
"1133",75.88495,662.8706
"1134",76.09491,662.8838
"1135",76.25117,662.897
"1136",76.37568,662.91016
"1137",76.612495,662.92334
"1138",77.171585,662.9365
"1139",78.22873,662.9497
"1140",79.81323,662.9629
"1141",81.78104,662.9761
"1142",83.8587,662.98926
"1143",85.70199,663.00244
"1144",87.047226,663.0156
"1145",87.782104,663.0288
"1146",87.94568,663.042
"1147",87.65514,663.0552
"1148",87.03502,663.06836
"1149",86.204926,663.08154
"1150",85.25765,663.0947
"1151",84.26887,663.1079
"1152",83.282524,663.1211
"1153",82.31815,663.1343
"1154",81.38308,663.14746
"1155",80.46998,663.16064
"1156",79.59594,663.1738
"1157",78.79271,663.187
"1158",78.150604,663.2002
"1159",77.78439,663.2134
"1160",77.78195,663.22656
"1161",78.15549,663.23975
"1162",78.81224,663.2529
"1163",79.59838,663.2661
"1164",80.33082,663.2793
"1165",80.87526,663.2925
"1166",81.16579,663.30566
"1167",81.22194,663.31885
"1168",81.092545,663.33203
"1169",80.82399,663.3452
"1170",80.46021,663.3584
"1171",80.03784,663.3716
"1172",79.58373,663.38477
"1173",79.11742,663.39795
"1174",78.658424,663.41113
"1175",78.21896,663.4243
"1176",77.803925,663.4375
"1177",77.43038,663.4507
"1178",77.0959,663.46387
"1179",76.81758,663.47705
"1180",76.59785,663.49023
"1181",76.44404,663.5034
"1182",76.34638,663.5166
"1183",76.299995,663.5298
"1184",76.29511,663.54297
"1185",76.35371,663.55615
"1186",76.56611,663.56934
"1187",77.100784,663.5825
"1188",78.11154,663.5957
"1189",79.62524,663.6089
"1190",81.52468,663.6221
"1191",83.560844,663.63525
"1192",85.42367,663.64844
"1193",86.8275,663.6616
"1194",87.64294,663.6748
"1195",87.8822,663.688
"1196",87.64538,663.7012
"1197",87.05211,663.71436
"1198",86.21713,663.72754
"1199",85.23811,663.7407
"1200",84.190735,663.7539
"1201",83.12627,663.7671
"1202",82.06668,663.7803
"1203",81.02663,663.79346
"1204",80.0061,663.80664
"1205",79.01732,663.8198
"1206",78.101776,663.833
"1207",77.34249,663.8462
"1208",76.86641,663.8594
"1209",76.79805,663.87256
"1210",77.17403,663.88574
"1211",77.91867,663.8989
"1212",78.86595,663.9121
"1213",79.80347,663.9253
"1214",80.54566,663.9385
"1215",80.990005,663.95166
"1216",81.13405,663.96484
"1217",81.03883,663.978
"1218",80.77272,663.9912
"1219",80.40162,664.0044
"1220",79.96948,664.0176
"1221",79.50805,664.03076
"1222",79.03929,664.04395
"1223",78.57542,664.0571
"1224",78.13107,664.0703
"1225",77.71114,664.0835
"1226",77.32296,664.0967
"1227",76.96895,664.10986
"1228",76.65888,664.12305
"1229",76.39277,664.1362
"1230",76.17792,664.1494
"1231",76.00946,664.1626
"1232",75.8996,664.1758
"1233",75.911804,664.18896
"1234",76.21454,664.20215
"1235",77.01778,664.21533
"1236",78.43137,664.2285
"1237",80.38941,664.2417
"1238",82.669716,664.2549
"1239",84.928055,664.26807
"1240",86.80553,664.28125
"1241",88.06287,664.29443
"1242",88.66102,664.3076
"1243",88.6952,664.3208
"1244",88.29969,664.334
"1245",87.606316,664.34717
"1246",86.72251,664.36035
"1247",85.731285,664.37354
"1248",84.68635,664.3867
"1249",83.6292,664.3999
"1250",82.579384,664.4131
"1251",81.549095,664.4263
"1252",80.54566,664.43945
"1253",79.586174,664.45264
"1254",78.69993,664.4658
"1255",77.97238,664.479
"1256",77.50851,664.4922
"1257",77.40597,664.5054
"1258",77.69405,664.51855
"1259",78.311745,664.53174
"1260",79.10277,664.5449
"1261",79.888916,664.5581
"1262",80.5066,664.5713
"1263",80.87282,664.5845
"1264",80.98024,664.59766
"1265",80.88014,664.61084
"1266",80.62379,664.624
"1267",80.257576,664.6372
"1268",79.818115,664.6504
"1269",79.33959,664.6636
"1270",78.84154,664.67676
"1271",78.35081,664.68994
"1272",77.88205,664.7031
"1273",77.44503,664.7163
"1274",77.049515,664.7295
"1275",76.6955,664.7427
"1276",76.383,664.75586
"1277",76.11932,664.76904
"1278",75.90692,664.7822
"1279",75.74334,664.7954
"1280",75.684746,664.8086
"1281",75.88495,664.8218
"1282",76.56367,664.83496
"1283",77.86008,664.84814
"1284",79.74731,664.8613
"1285",82.02518,664.8745
"1286",84.35676,664.8877
"1287",86.36851,664.9009
"1288",87.784546,664.91406
"1289",88.52918,664.92725
"1290",88.687874,664.9404
"1291",88.38758,664.9536
"1292",87.75769,664.9668
"1293",86.908066,664.98
"1294",85.94125,664.99316
"1295",84.92317,665.00635
"1296",83.90265,665.01953
"1297",82.9041,665.0327
"1298",81.93973,665.0459
"1299",81.00954,665.0591
"1300",80.113525,665.07227
"1301",79.27856,665.08545
"1302",78.56077,665.09863
"1303",78.048065,665.1118
"1304",77.83078,665.125
"1305",77.945526,665.1382
"1306",78.35325,665.15137
"1307",78.94652,665.16455
"1308",79.57885,665.17773
"1309",80.1062,665.1909
"1310",80.44312,665.2041
"1311",80.56031,665.2173
"1312",80.482185,665.23047
"1313",80.25269,665.24365
"1314",79.91577,665.25684
"1315",79.51049,665.27
"1316",79.06859,665.2832
"1317",78.61204,665.2964
"1318",78.15793,665.3096
"1319",77.71603,665.32275
"1320",77.30099,665.33594
"1321",76.92012,665.3491
"1322",76.578316,665.3623
"1323",76.280464,665.3755
"1324",76.02655,665.3887
"1325",75.81659,665.40186
"1326",75.67742,665.41504
"1327",75.72625,665.4282
"1328",76.155945,665.4414
"1329",77.14229,665.4546
"1330",78.72434,665.4678
"1331",80.77028,665.48096
"1332",83.01396,665.49414
"1333",85.103836,665.5073
"1334",86.72495,665.5205
"1335",87.7235,665.5337
"1336",88.1239,665.5469
"1337",88.02136,665.56006
"1338",87.5404,665.57324
"1339",86.7982,665.5864
"1340",85.892426,665.5996
"1341",84.90364,665.6128
"1342",83.89288,665.626
"1343",82.90898,665.63916
"1344",81.97635,665.65234
"1345",81.10231,665.6655
"1346",80.28199,665.6787
"1347",79.517815,665.6919
"1348",78.839096,665.7051
"1349",78.32151,665.71826
"1350",78.04074,665.73145
"1351",78.030975,665.7446
"1352",78.27024,665.7578
"1353",78.6804,665.771
"1354",79.149155,665.7842
"1355",79.55932,665.79736
"1356",79.83276,665.81055
"1357",79.94751,665.8237
"1358",79.903564,665.8369
"1359",79.72289,665.8501
"1360",79.42748,665.8633
"1361",79.061264,665.87646
"1362",78.6511,665.88965
"1363",78.221405,665.90283
"1364",77.786835,665.916
"1365",77.37179,665.9292
"1366",76.97627,665.9424
"1367",76.61738,665.95557
"1368",76.297554,665.96875
"1369",76.02167,665.98193
"1370",75.77997,665.9951
"1371",75.56756,666.0083
"1372",75.41131,666.0215
"1373",75.43084,666.03467
"1374",75.81171,666.04785
"1375",76.71259,666.06104
"1376",78.18967,666.0742
"1377",80.128174,666.0874
"1378",82.27421,666.1006
"1379",84.29084,666.1138
"1380",85.88754,666.12695
"1381",86.90318,666.14014
"1382",87.33776,666.1533
"1383",87.2694,666.1665
"1384",86.81041,666.1797
"1385",86.0853,666.1929
"1386",85.19173,666.20605
"1387",84.207825,666.21924
"1388",83.19707,666.2324
"1389",82.21561,666.2456
"1390",81.28542,666.2588
"1391",80.42115,666.272
"1392",79.63012,666.28516
"1393",78.91478,666.29834
"1394",78.30686,666.3115
"1395",77.86008,666.3247
"1396",77.6379,666.3379
"1397",77.67208,666.3511
"1398",77.94064,666.36426
"1399",78.363014,666.37744
"1400",78.82201,666.3906
"1401",79.21019,666.4038
"1402",79.45678,666.417
"1403",79.53979,666.4302
"1404",79.4641,666.44336
"1405",79.259026,666.45654
"1406",78.9514,666.4697
"1407",78.572975,666.4829
"1408",78.15549,666.4961
"1409",77.71847,666.5093
"1410",77.2839,666.52246
"1411",76.86641,666.53564
"1412",76.48066,666.5488
"1413",76.13397,666.562
"1414",75.83856,666.5752
"1415",75.59197,666.5884
"1416",75.39422,666.60156
"1417",75.24284,666.61475
"1418",75.17937,666.6279
"1419",75.32342,666.6411
"1420",75.85321,666.6543
"1421",76.910355,666.6675
"1422",78.502174,666.68066
"1423",80.48951,666.69385
"1424",82.6038,666.70703
"1425",84.52277,666.7202
"1426",85.97299,666.7334
"1427",86.837265,666.7466
"1428",87.13512,666.75977
"1429",86.959335,666.77295
"1430",86.42466,666.78613
"1431",85.65072,666.7993
"1432",84.7425,666.8125
"1433",83.78302,666.8257
"1434",82.82597,666.83887
"1435",81.91043,666.85205
"1436",81.04372,666.86523
"1437",80.216064,666.8784
"1438",79.432365,666.8916
"1439",78.7219,666.9048
"1440",78.1384,666.91797
"1441",77.76242,666.93115
"1442",77.64034,666.94434
"1443",77.789276,666.9575
"1444",78.14328,666.9707
"1445",78.59983,666.9839
"1446",79.03929,666.9971
"1447",79.36889,667.01025
"1448",79.537346,667.02344
"1449",79.53979,667.0366
"1450",79.3933,667.0498
"1451",79.12474,667.063
"1452",78.77074,667.0762
"1453",78.36057,667.08936
"1454",77.91867,667.10254
"1455",77.467,667.1157
"1456",77.032425,667.1289
"1457",76.6247,667.1421
"1458",76.26093,667.1553
"1459",75.95087,667.16846
"1460",75.69451,667.18164
"1461",75.48455,667.1948
"1462",75.318535,667.208
"1463",75.21843,667.2212
"1464",75.27215,667.2344
"1465",75.6408,667.24756
"1466",76.48798,667.26074
"1467",77.8674,667.2739
"1468",79.69848,667.2871
"1469",81.76639,667.3003
"1470",83.758606,667.3135
"1471",85.38705,667.32666
"1472",86.47349,667.33984
"1473",86.98619,667.353
"1474",86.98619,667.3662
"1475",86.57603,667.3794
"1476",85.87045,667.3926
"1477",84.98909,667.40576
"1478",84.02228,667.41895
"1479",83.04082,667.4321
"1480",82.07889,667.4453
"1481",81.15358,667.4585
"1482",80.26978,667.4717
"1483",79.42504,667.48486
"1484",78.65598,667.49805
"1485",78.028534,667.5112
"1486",77.61837,667.5244
"1487",77.48409,667.5376
"1488",77.63058,667.5508
"1489",77.98947,667.56396
"1490",78.46311,667.57715
"1491",78.922104,667.59033
"1492",79.27123,667.6035
"1493",79.4519,667.6167
"1494",79.45922,667.6299
"1495",79.31274,667.64307
"1496",79.04906,667.65625
"1497",78.69993,667.66943
"1498",78.30198,667.6826
"1499",77.87717,667.6958
"1500",77.44259,667.709
"1501",77.015335,667.72217
"1502",76.60517,667.73535
"1503",76.226746,667.74854
"1504",75.897156,667.7617
"1505",75.613945,667.7749
"1506",75.37713,667.7881
"1507",75.20378,667.8013
"1508",75.174484,667.81445
"1509",75.43084,667.82764
"1510",76.12665,667.8408
"1511",77.34249,667.854
"1512",79.027084,667.8672
"1513",80.99733,667.8804
"1514",82.9749,667.89355
"1515",84.66926,667.90674
"1516",85.8851,667.9199
"1517",86.554054,667.9331
"1518",86.70298,667.9463
"1519",86.414894,667.9595
"1520",85.804535,667.97266
"1521",84.981766,667.98584
"1522",84.04425,667.999
"1523",83.06523,668.0122
"1524",82.08865,668.0254
"1525",81.13161,668.0386
"1526",80.20386,668.05176
"1527",79.31762,668.06494
"1528",78.521706,668.0781
"1529",77.89426,668.0913
"1530",77.51827,668.1045
"1531",77.44503,668.1177
"1532",77.662315,668.13086
"1533",78.09445,668.14404
"1534",78.61448,668.1572
"1535",79.080795,668.1704
"1536",79.398186,668.1836
"1537",79.51293,668.1968
"1538",79.42016,668.20996
"1539",79.13695,668.22314
"1540",78.71946,668.2363
"1541",78.26292,668.2495
"1542",77.838104,668.2627
"1543",77.44747,668.2759
"1544",77.06416,668.28906
"1545",76.67597,668.30225
"1546",76.27802,668.3154
"1547",75.880066,668.3286
"1548",75.526054,668.3418
"1549",75.25994,668.355
"1550",75.10124,668.36816
"1551",75.09148,668.38135
"1552",75.34539,668.39453
"1553",76.016785,668.4077
"1554",77.20332,668.4209
"1555",78.870834,668.4341
"1556",80.84352,668.44727
"1557",82.83818,668.46045
"1558",84.54475,668.47363
"1559",85.75815,668.4868
"1560",86.39536,668.5
"1561",86.485695,668.5132
"1562",86.117035,668.52637
"1563",85.42123,668.53955
"1564",84.52766,668.55273
"1565",83.55108,668.5659
"1566",82.56962,668.5791
"1567",81.62966,668.5923
"1568",80.73853,668.60547
"1569",79.88403,668.61865
"1570",79.080795,668.63184
"1571",78.363014,668.645
"1572",77.803925,668.6582
"1573",77.471886,668.6714
"1574",77.41329,668.6846
"1575",77.60128,668.69775
"1576",77.94797,668.71094
"1577",78.399635,668.7241
"1578",78.90257,668.7373
"1579",79.37133,668.7505
"1580",79.73754,668.7637
"1581",79.9939,668.77686
"1582",80.10864,668.79004
"1583",80.01343,668.8032
"1584",79.70092,668.8164
"1585",79.22728,668.8296
"1586",78.65354,668.8428
"1587",78.01633,668.85596
"1588",77.40597,668.86914
"1589",76.90059,668.8823
"1590",76.51972,668.8955
"1591",76.24872,668.9087
"1592",76.06561,668.9219
"1593",76.00458,668.93506
"1594",76.190125,668.94824
"1595",76.788284,668.9614
"1596",77.91135,668.9746
"1597",79.54955,668.9878
"1598",81.549095,669.001
"1599",83.631645,669.01416
"1600",85.4847,669.02734
"1601",86.86412,669.0405
"1602",87.66247,669.0537
"1603",87.87976,669.0669
"1604",87.586784,669.0801
"1605",86.8983,669.09326
"1606",85.94614,669.10645
"1607",84.857254,669.1196
"1608",83.734184,669.1328
"1609",82.64042,669.146
"1610",81.59792,669.1592
"1611",80.604256,669.17236
"1612",79.74731,669.18555
"1613",79.1223,669.1987
"1614",78.77074,669.2119
"1615",78.658424,669.2251
"1616",78.74387,669.2383
"1617",78.95628,669.25146
"1618",79.19554,669.26465
"1619",79.412834,669.27783
"1620",79.61547,669.291
"1621",79.7937,669.3042
"1622",79.88403,669.3174
"1623",79.84985,669.33057
"1624",79.66674,669.34375
"1625",79.35668,669.35693
"1626",78.96117,669.3701
"1627",78.51682,669.3833
"1628",78.05539,669.3965
"1629",77.60372,669.40967
"1630",77.18379,669.42285
"1631",76.8127,669.43604
"1632",76.48798,669.4492
"1633",76.19989,669.4624
"1634",75.93866,669.4756
"1635",75.755554,669.4888
"1636",75.77997,669.50195
"1637",76.20233,669.51514
"1638",77.171585,669.5283
"1639",78.71946,669.5415
"1640",80.71656,669.5547
"1641",82.88945,669.5679
"1642",84.9012,669.58105
"1643",86.4564,669.59424
"1644",87.40124,669.6074
"1645",87.71618,669.6206
"1646",87.45983,669.6338
"1647",86.74937,669.647
"1648",85.73373,669.66016
"1649",84.55451,669.67334
"1650",83.34112,669.6865
"1651",82.18631,669.6997
"1652",81.13649,669.7129
"1653",80.19409,669.7261
"1654",79.33715,669.73926
"1655",78.555885,669.75244
"1656",77.86496,669.7656
"1657",77.31075,669.7788
"1658",76.94209,669.792
"1659",76.788284,669.8052
"1660",76.83223,669.81836
"1661",77.01289,669.83154
"1662",77.24727,669.8447
"1663",77.45968,669.8579
"1664",77.60372,669.8711
"1665",77.65743,669.8843
"1666",77.63546,669.89746
"1667",77.55489,669.91064
"1668",77.437706,669.9238
"1669",77.30099,669.937
"1670",77.16182,669.9502
"1671",77.032425,669.9634
"1672",76.91524,669.97656
"1673",76.822464,669.98975
"1674",76.76387,670.0029
"1675",76.72724,670.0161
"1676",76.697945,670.0293
"1677",76.680855,670.0425
"1678",76.74677,670.05566
"1679",77.03975,670.06885
"1680",77.73556,670.08203
"1681",78.95384,670.0952
"1682",80.67994,670.1084
"1683",82.74296,670.1216
"1684",84.86458,670.13477
"1685",86.72251,670.14795
"1686",88.07507,670.16113
"1687",88.81239,670.1743
"1688",88.94423,670.1875
"1689",88.54871,670.2007
"1690",87.765015,670.21387
"1691",86.74204,670.22705
"1692",85.63119,670.24023
"1693",84.54963,670.2534
"1694",83.56573,670.2666
"1695",82.69413,670.2798
"1696",81.917755,670.29297
"1697",81.20241,670.30615
"1698",80.54078,670.31934
"1699",79.95239,670.3325
"1700",79.48608,670.3457
"1701",79.18822,670.3589
"1702",79.078354,670.3721
"1703",79.13695,670.38525
"1704",79.30297,670.39844
"1705",79.49096,670.4116
"1706",79.635,670.4248
"1707",79.67895,670.438
"1708",79.61059,670.4512
"1709",79.43725,670.46436
"1710",79.18822,670.47754
"1711",78.89525,670.4907
"1712",78.57786,670.5039
"1713",78.24094,670.5171
"1714",77.87961,670.5303
"1715",77.48409,670.54346
"1716",77.05684,670.55664
"1717",76.610054,670.5698
"1718",76.175476,670.583
"1719",75.78485,670.5962
"1720",75.46502,670.6094
"1721",75.2575,670.62256
"1722",75.25994,670.63574
"1723",75.6115,670.6489
"1724",76.45869,670.6621
"1725",77.85031,670.6753
"1726",79.710686,670.6885
"1727",81.829865,670.70166
"1728",83.90509,670.71484
"1729",85.63119,670.728
"1730",86.80797,670.7412
"1731",87.3695,670.7544
"1732",87.34997,670.7676
"1733",86.8568,670.78076
"1734",86.029144,670.79395
"1735",85.02083,670.8071
"1736",83.97101,670.8203
"1737",82.98222,670.8335
"1738",82.10574,670.8467
"1739",81.34402,670.85986
"1740",80.67017,670.87305
"1741",80.05249,670.8862
"1742",79.49096,670.8994
"1743",79.01732,670.9126
"1744",78.68284,670.9258
"1745",78.51682,670.93896
"1746",78.52659,670.95215
"1747",78.66575,670.96533
"1748",78.870834,670.9785
"1749",79.07591,670.9917
"1750",79.22972,671.0049
"1751",79.29809,671.01807
"1752",79.281,671.03125
"1753",79.17845,671.04443
"1754",78.98314,671.0576
"1755",78.70237,671.0708
"1756",78.34348,671.084
"1757",77.91623,671.09717
"1758",77.44503,671.11035
"1759",76.961624,671.12354
"1760",76.50996,671.1367
"1761",76.12665,671.1499
"1762",75.843445,671.1631
"1763",75.682304,671.1763
"1764",75.63836,671.18945
"1765",75.69451,671.20264
"1766",75.81171,671.2158
"1767",75.99237,671.229
"1768",76.32929,671.2422
"1769",76.9543,671.2554
"1770",77.98459,671.26855
"1771",79.43969,671.28174
"1772",81.21706,671.2949
"1773",83.089645,671.3081
"1774",84.77913,671.3213
"1775",86.048676,671.3345
"1776",86.7982,671.34766
"1777",87.02525,671.36084
"1778",86.80553,671.374
"1779",86.24643,671.3872
"1780",85.46273,671.4004
"1781",84.56428,671.4136
"1782",83.63897,671.42676
"1783",82.74296,671.43994
"1784",81.90555,671.4531
"1785",81.12428,671.4663
"1786",80.396736,671.4795
"1787",79.7351,671.4927
"1788",79.17113,671.50586
"1789",78.75365,671.51904
"1790",78.521706,671.5322
"1791",78.487526,671.5454
"1792",78.61448,671.5586
"1793",78.83177,671.5718
"1794",79.05394,671.58496
"1795",79.20775,671.59814
"1796",79.23949,671.6113
"1797",79.13939,671.6245
"1798",78.9099,671.6377
"1799",78.57542,671.6509
"1800",78.167694,671.66406
"1801",77.72091,671.67725
"1802",77.261925,671.6904
"1803",76.824905,671.7036
"1804",76.4416,671.7168
"1805",76.15106,671.73
"1806",75.98749,671.74316
"1807",75.95087,671.75635
"1808",76.00458,671.76953
"1809",76.102234,671.7827
"1810",76.19745,671.7959
"1811",76.26093,671.8091
"1812",76.28779,671.82227
"1813",76.29511,671.83545
"1814",76.299995,671.84863
"1815",76.29511,671.8618
"1816",76.297554,671.875
"1817",76.3708,671.8882
"1818",76.66865,671.90137
"1819",77.34493,671.91455
"1820",78.502174,671.92773
"1821",80.10376,671.9409
"1822",81.986115,671.9541
"1823",83.878235,671.9673
"1824",85.50179,671.98047
"1825",86.65171,671.99365
"1826",87.237656,672.00684
"1827",87.28161,672.02
"1828",86.854355,672.0332
"1829",86.05356,672.0464
"1830",85.00862,672.0596
"1831",83.8587,672.07275
"1832",82.720985,672.08594
"1833",81.67361,672.0991
"1834",80.77272,672.1123
"1835",80.028076,672.1255
"1836",79.44213,672.1387
"1837",79.02464,672.15186
"1838",78.78783,672.16504
"1839",78.712135,672.1782
"1840",78.78294,672.1914
"1841",78.958725,672.2046
"1842",79.17113,672.2178
"1843",79.34936,672.23096
"1844",79.4519,672.24414
"1845",79.447014,672.2573
"1846",79.32006,672.2705
"1847",79.078354,672.2837
"1848",78.73655,672.2969
"1849",78.331276,672.31006
"1850",77.88449,672.32324
"1851",77.4255,672.3364
"1852",76.978714,672.3496
"1853",76.575874,672.3628
"1854",76.25117,672.376
"1855",76.04608,672.38916
"1856",75.965515,672.40234
"1857",75.98505,672.4155
"1858",76.068054,672.4287
"1859",76.173035,672.4419
"1860",76.25849,672.4551
"1861",76.3122,672.46826
"1862",76.3415,672.48145
"1863",76.35371,672.4946
"1864",76.35615,672.5078
"1865",76.35371,672.521
"1866",76.34882,672.5342
"1867",76.34882,672.54736
"1868",76.35371,672.56055
"1869",76.35859,672.5737
"1870",76.402534,672.5869
"1871",76.57099,672.6001
"1872",77.01289,672.6133
"1873",77.857635,672.62646
"1874",79.149155,672.63965
"1875",80.79469,672.65283
"1876",82.60624,672.666
"1877",84.31037,672.6792
"1878",85.66537,672.6924
"1879",86.53208,672.70557
"1880",86.890976,672.71875
"1881",86.78111,672.73193
"1882",86.30259,672.7451
"1883",85.55062,672.7583
"1884",84.63752,672.7715
"1885",83.66094,672.78467
"1886",82.703896,672.79785
"1887",81.82498,672.81104
"1888",81.058365,672.8242
"1889",80.40894,672.8374
"1890",79.88159,672.8506
"1891",79.46899,672.8638
"1892",79.17601,672.87695
"1893",79.01732,672.89014
"1894",79.00755,672.9033
"1895",79.14183,672.9165
"1896",79.381096,672.9297
"1897",79.6643,672.9429
"1898",79.91821,672.95605
"1899",80.079346,672.96924
"1900",80.113525,672.9824
"1901",80.01099,672.9956
"1902",79.78882,673.0088
"1903",79.47875,673.022
"1904",79.11986,673.03516
"1905",78.73655,673.04834
"1906",78.35569,673.0615
"1907",77.996796,673.0747
"1908",77.66964,673.0879
"1909",77.37179,673.1011
"1910",77.10567,673.11426
"1911",76.87129,673.12744
"1912",76.67353,673.1406
"1913",76.5124,673.1538
"1914",76.40742,673.167
"1915",76.36103,673.1802
"1916",76.3708,673.19336
"1917",76.43427,673.20654
"1918",76.53925,673.2197
"1919",76.66621,673.2329
"1920",76.79805,673.2461
"1921",76.91524,673.2593
"1922",77.00069,673.27246
"1923",77.04463,673.28564
"1924",77.05684,673.2988
"1925",77.11299,673.312
"1926",77.3547,673.3252
"1927",77.94064,673.3384
"1928",78.96605,673.35156
"1929",80.40894,673.36475
"1930",82.11307,673.3779
"1931",83.83429,673.3911
"1932",85.313805,673.4043
"1933",86.366066,673.4175
"1934",86.922714,673.43066
"1935",87.01549,673.44385
"1936",86.710304,673.45703
"1937",86.10483,673.4702
"1938",85.296715,673.4834
"1939",84.37141,673.4966
"1940",83.40948,673.50977
"1941",82.47196,673.52295
"1942",81.59304,673.53613
"1943",80.799576,673.5493
"1944",80.10864,673.5625
"1945",79.53979,673.5757
"1946",79.11253,673.58887
"1947",78.85863,673.60205
"1948",78.8098,673.61523
"1949",78.96117,673.6284
"1950",79.27123,673.6416
"1951",79.66674,673.6548
"1952",80.05249,673.66797
"1953",80.343025,673.68115
"1954",80.48951,673.69434
"1955",80.482185,673.7075
"1956",80.34547,673.7207
"1957",80.11597,673.7339
"1958",79.823,673.7471
"1959",79.49584,673.76025
"1960",79.14671,673.77344
"1961",78.78294,673.7866
"1962",78.41184,673.7998
"1963",78.03586,673.813
"1964",77.66476,673.8262
"1965",77.30099,673.83936
"1966",76.961624,673.85254
"1967",76.66132,673.8657
"1968",76.43183,673.8789
"1969",76.29023,673.8921
"1970",76.25117,673.9053
"1971",76.31953,673.91846
"1972",76.48066,673.93164
"1973",76.71259,673.9448
"1974",76.9836,673.958
"1975",77.2546,673.9712
"1976",77.49874,673.9844
"1977",77.69405,673.99756
"1978",77.83078,674.01074
"1979",77.90646,674.0239
"1980",77.9382,674.0371
"1981",78.00656,674.0503
"1982",78.24826,674.0635
"1983",78.82445,674.07666
"1984",79.82056,674.08984
"1985",81.20729,674.103
"1986",82.84062,674.1162
"1987",84.471504,674.1294
"1988",85.841156,674.1426
"1989",86.76402,674.15576
"1990",87.19371,674.16895
"1991",87.16441,674.1821
"1992",86.766464,674.1953
"1993",86.10971,674.2085
"1994",85.30404,674.2217
"1995",84.42756,674.23486
"1996",83.543755,674.24805
"1997",82.69413,674.2612
"1998",81.89578,674.2744
"1999",81.143814,674.2876
"2000",80.44312,674.3008
"2001",79.798584,674.31396
"2002",79.25414,674.32715
"2003",78.870834,674.34033
"2004",78.729225,674.3535
"2005",78.86107,674.3667
"2006",79.24193,674.3799
"2007",79.77905,674.39307
"2008",80.34791,674.40625
"2009",80.82155,674.41943
"2010",81.12184,674.4326
"2011",81.22926,674.4458
"2012",81.16579,674.459
"2013",80.96559,674.47217
"2014",80.66773,674.48535
"2015",80.29908,674.49854
"2016",79.89136,674.5117
"2017",79.46899,674.5249
"2018",79.046616,674.5381
"2019",78.64622,674.5513
"2020",78.2678,674.56445
"2021",77.91867,674.57764
"2022",77.60372,674.5908
"2023",77.3254,674.604
"2024",77.100784,674.6172
"2025",76.93233,674.6304
"2026",76.824905,674.64355
"2027",76.7834,674.65674
"2028",76.80293,674.6699
"2029",76.87862,674.6831
"2030",76.995804,674.6963
"2031",77.137405,674.7095
"2032",77.281456,674.72266
"2033",77.41329,674.73584
"2034",77.55489,674.749
"2035",77.81369,674.7622
"2036",78.35325,674.7754
"2037",79.30541,674.7886
"2038",80.68726,674.80176
"2039",82.39384,674.81494
"2040",84.207825,674.8281
"2041",85.84848,674.8413
"2042",87.08629,674.8545
"2043",87.816284,674.8677
"2044",88.05066,674.88086
"2045",87.86267,674.89404
"2046",87.34997,674.9072
"2047",86.61509,674.9204
"2048",85.74593,674.9336
"2049",84.805984,674.9468
"2050",83.85626,674.95996
"2051",82.92119,674.97314
"2052",82.02762,674.9863
"2053",81.17555,674.9995
"2054",80.36256,675.0127
"2055",79.59838,675.0259
"2056",78.93919,675.03906
"2057",78.467995,675.05225
"2058",78.27268,675.0654
"2059",78.397194,675.0786
"2060",78.80492,675.0918
"2061",79.39086,675.105
"2062",80.01099,675.11816
"2063",80.52369,675.13135
"2064",80.84352,675.14453
"2065",80.95827,675.1577
"2066",80.88258,675.1709
"2067",80.65797,675.1841
"2068",80.323494,675.19727
"2069",79.91821,675.21045
"2070",79.47387,675.22363
"2071",79.01732,675.2368
"2072",78.56321,675.25
"2073",78.12619,675.2632
"2074",77.71114,675.27637
"2075",77.3254,675.28955
"2076",76.981155,675.30273
"2077",76.68574,675.3159
"2078",76.44892,675.3291
"2079",76.2707,675.3423
"2080",76.155945,675.35547
"2081",76.09979,675.36865
"2082",76.09979,675.38184
"2083",76.14374,675.395
"2084",76.21454,675.4082
"2085",76.33662,675.4214
"2086",76.60273,675.4346
"2087",77.18135,675.44775
"2088",78.21408,675.46094
"2089",79.73266,675.4741
"2090",81.62234,675.4873
"2091",83.65606,675.5005
"2092",85.52621,675.5137
"2093",86.97887,675.52686
"2094",87.887085,675.54004
"2095",88.26063,675.5532
"2096",88.17761,675.5664
"2097",87.74059,675.5796
"2098",87.061874,675.5928
"2099",86.239105,675.60596
"2100",85.33822,675.61914
"2101",84.41291,675.6323
"2102",83.492485,675.6455
"2103",82.59647,675.6587
"2104",81.72488,675.6719
"2105",80.885025,675.68506
"2106",80.079346,675.69824
"2107",79.33959,675.7114
"2108",78.729225,675.7246
"2109",78.3386,675.7378
"2110",78.23605,675.751
"2111",78.43626,675.76416
"2112",78.8806,675.77734
"2113",79.44213,675.7905
"2114",79.97925,675.8037
"2115",80.377205,675.8169
"2116",80.58228,675.8301
"2117",80.59205,675.84326
"2118",80.4358,675.85645
"2119",80.15991,675.8696
"2120",79.79614,675.8828
"2121",79.378654,675.896
"2122",78.93187,675.9092
"2123",78.47532,675.92236
"2124",78.01877,675.93555
"2125",77.58663,675.9487
"2126",77.18135,675.9619
"2127",76.8127,675.9751
"2128",76.49531,675.9883
"2129",76.22919,676.00146
"2130",76.0119,676.01465
"2131",75.83612,676.02783
"2132",75.70428,676.041
"2133",75.61883,676.0542
"2134",75.58465,676.0674
"2135",75.65545,676.08057
"2136",75.96796,676.09375
"2137",76.715034,676.10693
"2138",78.00412,676.1201
"2139",79.798584,676.1333
"2140",81.92264,676.1465
"2141",84.07843,676.15967
"2142",85.93393,676.17285
"2143",87.235214,676.18604
"2144",87.91638,676.1992
"2145",88.04822,676.2124
"2146",87.75769,676.2256
"2147",87.16441,676.2388
"2148",86.380714,676.25195
"2149",85.49691,676.26514
"2150",84.56428,676.2783
"2151",83.62188,676.2915
"2152",82.69657,676.3047
"2153",81.81033,676.3179
"2154",80.96315,676.33105
"2155",80.147705,676.34424
"2156",79.378654,676.3574
"2157",78.69749,676.3706
"2158",78.1799,676.3838
"2159",77.908905,676.397
"2160",77.94064,676.41016
"2161",78.25803,676.42334
"2162",78.77318,676.4365
"2163",79.34936,676.4497
"2164",79.85962,676.4629
"2165",80.20386,676.4761
"2166",80.343025,676.48926
"2167",80.291756,676.50244
"2168",80.08423,676.5156
"2169",79.76196,676.5288
"2170",79.35912,676.542
"2171",78.907455,676.5552
"2172",78.433815,676.56836
"2173",77.962616,676.58154
"2174",77.50851,676.5947
"2175",77.09102,676.6079
"2176",76.715034,676.6211
"2177",76.383,676.6343
"2178",76.09247,676.64746
"2179",75.841,676.66064
"2180",75.62615,676.6738
"2181",75.45281,676.687
"2182",75.35027,676.7002
"2183",75.421074,676.7134
"2184",75.84589,676.72656
"2185",76.79317,676.73975
"2186",78.30686,676.7529
"2187",80.274666,676.7661
"2188",82.45243,676.7793
"2189",84.505684,676.7925
"2190",86.136566,676.80566
"2191",87.186386,676.81885
"2192",87.657585,676.83203
"2193",87.63561,676.8452
"2194",87.23033,676.8584
"2195",86.55894,676.8716
"2196",85.71908,676.88477
"2197",84.788895,676.89795
"2198",83.82941,676.91113
"2199",82.87236,676.9243
"2200",81.93729,676.9375
"2201",81.02907,676.9507
"2202",80.14282,676.96387
"2203",79.30053,676.97705
"2204",78.538795,676.99023
"2205",77.93576,677.0034
"2206",77.591515,677.0166
"2207",77.56222,677.0298
"2208",77.84787,677.04297
"2209",78.35569,677.05615
"2210",78.95384,677.06934
"2211",79.49828,677.0825
"2212",79.87671,677.0957
"2213",80.04761,677.1089
"2214",80.02075,677.1221
"2215",79.83276,677.13525
"2216",79.5227,677.14844
"2217",79.12962,677.1616
"2218",78.68772,677.1748
"2219",78.221405,677.188
"2220",77.752655,677.2012
"2221",77.298546,677.21436
"2222",76.876175,677.22754
"2223",76.48554,677.2407
"2224",76.13397,677.2539
"2225",75.82391,677.2671
"2226",75.55535,677.2803
"2227",75.32586,677.29346
"2228",75.17204,677.30664
"2229",75.211105,677.3198
"2230",75.63592,677.333
"2231",76.59785,677.3462
"2232",78.12131,677.3594
"2233",80.079346,677.37256
"2234",82.21561,677.38574
"2235",84.19806,677.3989
"2236",85.73861,677.4121
"2237",86.70298,677.4253
"2238",87.10338,677.4385
"2239",87.01793,677.45166
"2240",86.554054,677.46484
"2241",85.824066,677.478
"2242",84.93782,677.4912
"2243",83.97101,677.5044
"2244",82.98955,677.5176
"2245",82.022736,677.53076
"2246",81.0901,677.54395
"2247",80.184326,677.5571
"2248",79.310295,677.5703
"2249",78.49729,677.5835
"2250",77.803925,677.5967
"2251",77.32052,677.60986
"2252",77.13008,677.62305
"2253",77.25704,677.6362
"2254",77.65499,677.6494
"2255",78.21408,677.6626
"2256",78.78783,677.6758
"2257",79.2517,677.68896
"2258",79.53002,677.70215
"2259",79.61547,677.71533
"2260",79.53246,677.7285
"2261",79.32983,677.7417
"2262",79.04173,677.7549
"2263",78.692604,677.76807
"2264",78.3093,677.78125
"2265",77.91379,677.79443
"2266",77.52071,677.8076
"2267",77.14473,677.8208
"2268",76.79561,677.834
"2269",76.48554,677.84717
"2270",76.20233,677.86035
"2271",75.948425,677.87354
"2272",75.76776,677.8867
"2273",75.78729,677.8999
"2274",76.19745,677.9131
"2275",77.14961,677.9263
"2276",78.658424,677.93945
"2277",80.58961,677.95264
"2278",82.686806,677.9658
"2279",84.613106,677.979
"2280",86.0975,677.9922
"2281",87.00816,678.0054
"2282",87.35729,678.01855
"2283",87.22301,678.03174
"2284",86.72007,678.0449
"2285",85.96811,678.0581
"2286",85.08186,678.0713
"2287",84.14923,678.0845
"2288",83.22392,678.09766
"2289",82.33036,678.11084
"2290",81.46853,678.124
"2291",80.62867,678.1372
"2292",79.81323,678.1504
"2293",79.063705,678.1636
"2294",78.44846,678.17676
"2295",78.06027,678.18994
"2296",77.96506,678.2031
"2297",78.17258,678.2163
"2298",78.6096,678.2295
"2299",79.15404,678.2427
"2300",79.66674,678.25586
"2301",80.045166,678.26904
"2302",80.235596,678.2822
"2303",80.24292,678.2954
"2304",80.096436,678.3086
"2305",79.83276,678.3218
"2306",79.48852,678.33496
"2307",79.08812,678.34814
"2308",78.66331,678.3613
"2309",78.23117,678.3745
"2310",77.81125,678.3877
"2311",77.41329,678.4009
"2312",77.04707,678.41406
"2313",76.71015,678.42725
"2314",76.40009,678.4404
"2315",76.16083,678.4536
"2316",76.11688,678.4668
"2317",76.45136,678.48
"2318",77.31808,678.49316
"2319",78.75609,678.50635
"2320",80.638435,678.51953
"2321",82.718544,678.5327
"2322",84.661934,678.5459
"2323",86.185394,678.5591
"2324",87.14244,678.57227
"2325",87.53063,678.58545
"2326",87.42565,678.59863
"2327",86.939804,678.6118
"2328",86.19272,678.625
"2329",85.29427,678.6382
"2330",84.3299,678.65137
"2331",83.36553,678.66455
"2332",82.44022,678.67773
"2333",81.5613,678.6909
"2334",80.719,678.7041
"2335",79.91577,678.7173
"2336",79.17601,678.73047
"2337",78.55833,678.74365
"2338",78.14084,678.75684
"2339",77.98703,678.77
"2340",78.101776,678.7832
"2341",78.42161,678.7964
"2342",78.84642,678.8096
"2343",79.256584,678.82275
"2344",79.55688,678.83594
"2345",79.70336,678.8491
"2346",79.693596,678.8623
"2347",79.54955,678.8755
"2348",79.30297,678.8887
"2349",78.975815,678.90186
"2350",78.60227,678.91504
"2351",78.19211,678.9282
"2352",77.77219,678.9414
"2353",77.3547,678.9546
"2354",76.95918,678.9678
"2355",76.59052,678.98096
"2356",76.25117,678.99414
"2357",75.94354,679.0073
"2358",75.699394,679.0205
"2359",75.65301,679.0337
"2360",75.98993,679.0469
"2361",76.86641,679.06006
"2362",78.311745,679.07324
"2363",80.198975,679.0864
"2364",82.28153,679.0996
"2365",84.2298,679.1128
"2366",85.76303,679.126
"2367",86.7396,679.13916
"2368",87.15709,679.15234
"2369",87.081406,679.1655
"2370",86.61021,679.1787
"2371",85.86069,679.1919
"2372",84.9427,679.2051
"2373",83.95148,679.21826
"2374",82.95293,679.23145
"2375",81.99588,679.2446
"2376",81.094986,679.2578
"2377",80.255135,679.271
"2378",79.47631,679.2842
"2379",78.77806,679.29736
"2380",78.20676,679.31055
"2381",77.8259,679.3237
"2382",77.67696,679.3369
"2383",77.75998,679.3501
"2384",78.02121,679.3633
"2385",78.3679,679.37646
"2386",78.692604,679.38965
"2387",78.91966,679.40283
"2388",79.009995,679.416
"2389",78.96117,679.4292
"2390",78.78783,679.4424
"2391",78.52415,679.45557
"2392",78.187225,679.46875
"2393",77.803925,679.48193
"2394",77.39132,679.4951
"2395",76.978714,679.5083
"2396",76.58076,679.5215
"2397",76.21698,679.53467
"2398",75.89227,679.54785
"2399",75.613945,679.56104
"2400",75.369804,679.5742
"2401",75.18669,679.5874
"2402",75.157394,679.6006
"2403",75.44549,679.6138
"2404",76.21454,679.62695
"2405",77.540245,679.64014
"2406",79.3518,679.6533
"2407",81.43435,679.6665
"2408",83.48516,679.6797
"2409",85.19661,679.6929
"2410",86.37339,679.70605
"2411",86.95445,679.71924
"2412",86.98375,679.7324
"2413",86.56138,679.7456
"2414",85.80942,679.7588
"2415",84.86458,679.772
"2416",83.85138,679.78516
"2417",82.862595,679.79834
"2418",81.951935,679.8115
"2419",81.13893,679.8247
"2420",80.4065,679.8379
"2421",79.73022,679.8511
"2422",79.114975,679.86426
"2423",78.5803,679.87744
"2424",78.1799,679.8906
"2425",77.96506,679.9038
"2426",77.95041,679.917
"2427",78.10666,679.9302
"2428",78.365456,679.94336
"2429",78.64622,679.95654
"2430",78.870834,679.9697
"2431",79.00023,679.9829
"2432",79.012436,679.9961
"2433",78.91478,680.0093
"2434",78.72434,680.02246
"2435",78.46311,680.03564
"2436",78.14816,680.0488
"2437",77.80148,680.062
"2438",77.44259,680.0752
"2439",77.100784,680.0884
"2440",76.79317,680.10156
"2441",76.53437,680.11475
"2442",76.32685,680.1279
"2443",76.16083,680.1411
"2444",76.019226,680.1543
"2445",75.914246,680.1675
"2446",75.94354,680.18066
"2447",76.25849,680.19385
"2448",77.01045,680.20703
"2449",78.2678,680.2202
"2450",79.96704,680.2334
"2451",81.9202,680.2466
"2452",83.8587,680.25977
"2453",85.49935,680.27295
"2454",86.65415,680.28613
"2455",87.24742,680.2993
"2456",87.293816,680.3125
"2457",86.85924,680.3257
"2458",86.05356,680.33887
"2459",85.02327,680.35205
"2460",83.914856,680.36523
"2461",82.83818,680.3784
"2462",81.866486,680.3916
"2463",81.03639,680.4048
"2464",80.35523,680.41797
"2465",79.80347,680.43115
"2466",79.3518,680.44434
"2467",79.00755,680.4575
"2468",78.77806,680.4707
"2469",78.68528,680.4839
"2470",78.729225,680.4971
"2471",78.88304,680.51025
"2472",79.10277,680.52344
"2473",79.327385,680.5366
"2474",79.48852,680.5498
"2475",79.53979,680.563
"2476",79.47631,680.5762
"2477",79.29809,680.58936
"2478",79.01976,680.60254
"2479",78.67063,680.6157
"2480",78.28001,680.6289
"2481",77.86984,680.6421
"2482",77.467,680.6553
"2483",77.103226,680.66846
"2484",76.7834,680.68164
"2485",76.51728,680.6948
"2486",76.30488,680.708
"2487",76.138855,680.7212
"2488",75.999695,680.7344
"2489",75.88495,680.74756
"2490",75.8288,680.76074
"2491",75.95575,680.7739
"2492",76.42451,680.7871
"2493",77.37179,680.8003
"2494",78.81712,680.8135
"2495",80.64088,680.82666
"2496",82.60868,680.83984
"2497",84.420235,680.853
"2498",85.83139,680.8662
"2499",86.710304,680.8794
"2500",87.04967,680.8926
"2501",86.91051,680.90576
"2502",86.38804,680.91895
"2503",85.592125,680.9321
"2504",84.63752,680.9453
"2505",83.631645,680.9585
"2506",82.66239,680.9717
"2507",81.79813,680.98486
"2508",81.06569,680.99805
"2509",80.46021,681.0112
"2510",79.94995,681.0244
"2511",79.51049,681.0376
"2512",79.14427,681.0508
"2513",78.870834,681.06396
"2514",78.71946,681.07715
"2515",78.70725,681.09033
"2516",78.81712,681.1035
"2517",78.99779,681.1167
"2518",79.18822,681.1299
"2519",79.327385,681.14307
"2520",79.378654,681.15625
"2521",79.3225,681.16943
"2522",79.1638,681.1826
"2523",78.905014,681.1958
"2524",78.56565,681.209
"2525",78.167694,681.22217
"2526",77.733116,681.23535
"2527",77.29366,681.24854
"2528",76.876175,681.2617
"2529",76.507515,681.2749
"2530",76.19989,681.2881
"2531",75.965515,681.3013
"2532",75.79706,681.31445
"2533",75.68719,681.32764
"2534",75.62371,681.3408
"2535",75.58709,681.354
"2536",75.56756,681.3672
"2537",75.61639,681.3804
"2538",75.860535,681.39355
"2539",76.46357,681.40674
"2540",77.53536,681.4199
"2541",79.07103,681.4331
"2542",80.92653,681.4463
"2543",82.84306,681.4595
"2544",84.53254,681.47266
"2545",85.77524,681.48584
"2546",86.485695,681.499
"2547",86.68345,681.5122
"2548",86.46128,681.5254
"2549",85.91928,681.5386
"2550",85.169754,681.55176
"2551",84.31281,681.56494
"2552",83.421684,681.5781
"2553",82.55009,681.5913
"2554",81.73708,681.6045
"2555",80.99245,681.6177
"2556",80.325935,681.63086
"2557",79.725334,681.64404
"2558",79.21019,681.6572
"2559",78.802475,681.6704
"2560",78.536354,681.6836
"2561",78.43137,681.6968
"2562",78.485085,681.70996
"2563",78.66331,681.72314
"2564",78.90013,681.7363
"2565",79.12962,681.7495
"2566",79.30297,681.7627
"2567",79.38354,681.7759
"2568",79.361565,681.78906
"2569",79.234604,681.80225
"2570",79.01488,681.8154
"2571",78.709694,681.8286
"2572",78.348366,681.8418
"2573",77.94797,681.855
"2574",77.5378,681.86816
"2575",77.14473,681.88135
"2576",76.788284,681.89453
"2577",76.4831,681.9077
"2578",76.23407,681.9209
"2579",76.04852,681.9341
"2580",75.92157,681.94727
"2581",75.85565,681.96045
"2582",75.84589,681.97363
"2583",75.88495,681.9868
"2584",75.965515,682
"2585",76.12421,682.0132
"2586",76.46601,682.02637
"2587",77.137405,682.03955
"2588",78.24826,682.05273
"2589",79.79614,682.0659
"2590",81.64919,682.0791
"2591",83.56817,682.0923
"2592",85.26498,682.10547
"2593",86.51255,682.11865
"2594",87.220566,682.13184
"2595",87.411,682.145
"2596",87.17906,682.1582
"2597",86.63462,682.1714
"2598",85.8851,682.1846
"2599",85.030594,682.19775
"2600",84.14435,682.21094
"2601",83.282524,682.2241
"2602",82.476845,682.2373
"2603",81.739525,682.2505
"2604",81.05592,682.2637
"2605",80.41871,682.27686
"2606",79.83276,682.29004
"2607",79.32983,682.3032
"2608",78.958725,682.3164
"2609",78.765854,682.3296
"2610",78.76341,682.3428
"2611",78.91478,682.35596
"2612",79.149155,682.36914
"2613",79.38354,682.3823
"2614",79.54467,682.3955
"2615",79.59838,682.4087
"2616",79.53246,682.4219
"2617",79.35668,682.43506
"2618",79.097885,682.44824
"2619",78.77318,682.4614
"2620",78.00656,682.4878
"2621",77.60372,682.501
"2622",77.205765,682.51416
"2623",76.83223,682.52734
"2624",76.49775,682.5405
"2625",76.2121,682.5537
"2626",75.98505,682.5669
"2627",75.81903,682.5801
"2628",75.72137,682.59326
"2629",75.682304,682.60645
"2630",75.69207,682.6196
"2631",75.733574,682.6328
"2632",75.80194,682.646
"2633",75.91669,682.6592
"2634",76.190125,682.67236
"2635",76.773636,682.68555
"2636",77.79416,682.6987
"2637",79.27123,682.7119
"2638",81.08766,682.7251
"2639",83.0164,682.7383
"2640",84.76692,682.75146
"2641",86.09262,682.76465
"2642",86.88121,682.77783
"2643",87.15221,682.791
"2644",86.98375,682.8042
"2645",86.49546,682.8174
"2646",85.79721,682.83057
"2647",84.98909,682.84375
"2648",84.14923,682.85693
"2649",83.32891,682.8701
"2650",82.55985,682.8833
"2651",81.85184,682.8965
"2652",81.1902,682.90967
"2653",80.567635,682.92285
"2654",79.98413,682.93604
"2655",79.466545,682.9492
"2656",79.063705,682.9624
"2657",78.82689,682.9756
"2658",78.77806,682.9888
"2659",78.90013,683.00195
"2660",79.12474,683.01514
"2661",79.37377,683.0283
"2662",79.571526,683.0415
"2663",79.66674,683.0547
"2664",79.64233,683.0679
"2665",79.49828,683.08105
"2666",79.259026,683.09424
"2667",78.94408,683.1074
"2668",78.58274,683.1206
"2669",78.187225,683.1338
"2670",77.77707,683.147
"2671",77.366905,683.16016
"2672",76.97383,683.17334
"2673",76.612495,683.1865
"2674",76.297554,683.1997
"2675",76.04364,683.2129
"2676",75.85565,683.2261
"2677",75.74334,683.23926
"2678",75.699394,683.25244
"2679",75.70916,683.2656
"2680",75.76044,683.2788
"2681",75.83368,683.292
"2682",75.91913,683.3052
"2683",76.05585,683.31836
"2684",76.35615,683.33154
"2685",76.98848,683.3447
"2686",78.06271,683.3579
"2687",79.57397,683.3711
"2688",81.392845,683.3843
"2689",83.282524,683.39746
"2690",84.947586,683.41064
"2691",86.168304,683.4238
"2692",86.86168,683.437
"2693",87.05699,683.4502
"2694",86.84215,683.4634
"2695",86.34165,683.47656
"2696",85.6556,683.48975
"2697",84.88655,683.5029
"2698",84.09552,683.5161
"2699",83.33135,683.5293
"2700",82.61112,683.5425
"2701",81.93973,683.55566
"2702",81.304955,683.56885
"2703",80.69703,683.58203
"2704",80.12085,683.5952
"2705",79.61059,683.6084
"2706",79.21507,683.6216
"2707",78.98558,683.63477
"2708",78.941635,683.64795
"2709",79.05638,683.66113
"2710",79.27123,683.6743
"2711",79.500725,683.6875
"2712",79.676506,683.7007
"2713",79.75708,683.71387
"2714",79.727776,683.72705
"2715",79.5935,683.74023
"2716",79.37621,683.7534
"2717",79.093,683.7666
"2718",78.76341,683.7798
"2719",78.40208,683.79297
"2720",78.02121,683.80615
"2721",77.642784,683.81934
"2722",77.2839,683.8325
"2723",76.94942,683.8457
"2724",76.65888,683.8589
"2725",76.422066,683.8721
"2726",76.243835,683.88525
"2727",76.12665,683.89844
"2728",76.070496,683.9116
"2729",76.070496,683.9248
"2730",76.11444,683.938
"2731",76.18036,683.9512
"2732",76.25361,683.96436
"2733",76.33662,683.97754
"2734",76.48798,683.9907
"2735",76.841995,684.0039
"2736",77.55001,684.0171
"2737",78.692604,684.0303
"2738",80.22827,684.04346
"2739",81.99344,684.05664
"2740",83.73174,684.0698
"2741",85.17952,684.083
"2742",86.16342,684.0962
"2743",86.64439,684.1094
"2744",86.678566,684.12256
"2745",86.36118,684.13574
"2746",85.78989,684.1489
"2747",85.050125,684.1621
"2748",84.22247,684.1753
"2749",83.38262,684.1885
"2750",82.58915,684.20166
"2751",81.8616,684.21484
"2752",81.19997,684.228
"2753",80.587166,684.2412
"2754",80.01099,684.2544
"2755",79.46899,684.2676
"2756",79.00755,684.28076
"2757",78.68284,684.29395
"2758",78.538795,684.3071
"2759",78.57053,684.3203
"2760",78.73655,684.3335
"2761",78.97093,684.3467
"2762",79.19554,684.35986
"2763",79.34692,684.37305
"2764",79.39086,684.3862
"2765",79.3225,684.3994
"2766",79.15404,684.4126
"2767",78.90257,684.4258
"2768",78.59739,684.43896
"2769",78.25559,684.45215
"2770",77.89426,684.46533
"2771",77.5256,684.4785
"2772",77.16182,684.4917
"2773",76.82735,684.5049
"2774",76.51972,684.51807
"2775",76.25849,684.53125
"2776",76.04364,684.54443
"2777",75.88251,684.5576
"2778",75.77753,684.5708
"2779",75.72869,684.584
"2780",75.72381,684.59717
"2781",75.75311,684.61035
"2782",75.80682,684.62354
"2783",75.85809,684.6367
"2784",75.90204,684.6499
"2785",75.95087,684.6631
"2786",76.05585,684.6763
"2787",76.33906,684.68945
"2788",76.946976,684.70264
"2789",77.943085,684.7158
"2790",79.28832,684.729
"2791",80.84108,684.7422
"2792",82.36454,684.7554
"2793",83.62432,684.76855
"2794",84.46418,684.78174
"2795",84.857254,684.7949
"2796",84.85237,684.8081
"2797",84.542305,684.8213
"2798",84.02228,684.8345
"2799",83.38018,684.84766
"2800",82.68925,684.86084
"2801",82.00076,684.874
"2802",81.35134,684.8872
"2803",80.7483,684.9004
"2804",80.18921,684.9136
"2805",79.66674,684.92676
"2806",79.17601,684.93994
"2807",78.73411,684.9531
"2808",78.382545,684.9663
"2809",78.16525,684.9795
"2810",78.118866,684.9927
"2811",78.23117,685.00586
"2812",78.46067,685.01904
"2813",78.74143,685.0322
"2814",78.99046,685.0454
"2815",79.151596,685.0586
"2816",79.200424,685.0718
"2817",79.13451,685.08496
"2818",78.97337,685.09814
"2819",78.73899,685.1113
"2820",78.45579,685.1245
"2821",78.135956,685.1377
"2822",77.80148,685.1509
"2823",77.45968,685.16406
"2824",77.1252,685.17725
"2825",76.81026,685.1904
"2826",76.52705,685.2036
"2827",76.29267,685.2168
"2828",76.10712,685.23
"2829",75.97284,685.24316
"2830",75.88739,685.25635
"2831",75.83856,685.26953
"2832",75.82147,685.2827
"2833",75.82391,685.2959
"2834",75.85565,685.3091
"2835",75.945984,685.32227
"2836",76.17792,685.33545
"2837",76.67109,685.34863
"2838",77.51583,685.3618
"2839",78.70237,685.375
"2840",80.11597,685.3882
"2841",81.57107,685.40137
"2842",82.84062,685.41455
"2843",83.75372,685.42773
"2844",84.242004,685.4409
"2845",84.33723,685.4541
"2846",84.119934,685.4673
"2847",83.67559,685.48047
"2848",83.09453,685.49365
"2849",82.45243,685.50684
"2850",81.80057,685.52
"2851",81.16579,685.5332
"2852",80.56275,685.5464
"2853",79.99878,685.5596
"2854",79.47143,685.57275
"2855",78.98802,685.58594
"2856",78.572975,685.5991
"2857",78.27512,685.6123
"2858",78.133514,685.6255
"2859",78.1799,685.6387
"2860",78.40452,685.65186
"2861",78.75853,685.66504
"2862",79.15892,685.6782
"2863",79.520256,685.6914
"2864",79.781494,685.7046
"2865",79.91333,685.7178
"2866",79.920654,685.73096
"2867",79.83032,685.74414
"2868",79.67162,685.7573
"2869",79.46899,685.7705
"2870",79.24437,685.7837
"2871",79.01732,685.7969
"2872",78.79515,685.81006
"2873",78.59251,685.82324
"2874",78.40696,685.8364
"2875",78.24582,685.8496
"2876",78.11154,685.8628
"2877",77.996796,685.876
"2878",77.89914,685.88916
"2879",77.81369,685.90234
"2880",77.75998,685.9155
"2881",77.7966,685.9287
"2882",78.03586,685.9419
"2883",78.60227,685.9551
"2884",79.54955,685.96826
"2885",80.82887,685.98145
"2886",82.28397,685.9946
"2887",83.700005,686.0078
"2888",84.84993,686.021
"2889",85.592125,686.0342
"2890",85.89975,686.04736
"2891",85.83139,686.06055
"2892",85.472496,686.0737
"2893",84.928055,686.0869
"2894",84.2884,686.1001
"2895",83.61944,686.1133
"2896",82.97002,686.12646
"2897",82.357216,686.13965
"2898",81.78104,686.15283
"2899",81.23903,686.166
"2900",80.72144,686.1792
"2901",80.24536,686.1924
"2902",79.84497,686.20557
"2903",79.57397,686.21875
"2904",79.47875,686.23193
"2905",79.569084,686.2451
"2906",79.81323,686.2583
"2907",80.14526,686.2715
"2908",80.48463,686.28467
"2909",80.74586,686.29785
"2910",80.89479,686.31104
"2911",80.91676,686.3242
"2912",80.8362,686.3374
"2913",80.6775,686.3506
"2914",80.47242,686.3638
"2915",80.23804,686.37695
"2916",79.98657,686.39014
"2917",79.725334,686.4033
"2918",79.466545,686.4165
"2919",79.219955,686.4297
"2920",78.99779,686.4429
"2921",78.79759,686.45605
"2922",78.626686,686.46924
"2923",78.48997,686.4824
"2924",78.450905,686.4956
"2925",78.624245,686.5088
"2926",79.132065,686.522
"2927",80.03296,686.53516
"2928",81.27322,686.54834
"2929",82.69657,686.5615
"2930",84.071106,686.5747
"2931",85.17464,686.5879
"2932",85.86313,686.6011
"2933",86.11948,686.61426
"2934",85.997406,686.62744
"2935",85.59945,686.6406
"2936",85.02571,686.6538
"2937",84.368965,686.667
"2938",83.685356,686.6802
"2939",83.018845,686.69336
"2940",82.37919,686.70654
"2941",81.76639,686.7197
"2942",81.17555,686.7329
"2943",80.604256,686.7461
"2944",80.06714,686.7593
"2945",79.603264,686.77246
"2946",79.26391,686.78564
"2947",79.10033,686.7988
"2948",79.12718,686.812
"2949",79.3225,686.8252
"2950",79.622795,686.8384
"2951",79.94263,686.85156
"2952",80.2063,686.86475
"2953",80.35767,686.8779
"2954",80.37965,686.8911
"2955",80.28687,686.9043
"2956",80.111084,686.9175
"2957",79.87427,686.93066
"2958",79.605705,686.94385
"2959",79.3225,686.95703
"2960",79.03929,686.9702
"2961",78.76097,686.9834
"2962",78.49973,686.9966
"2963",78.26292,687.00977
"2964",78.048065,687.02295
"2965",77.85275,687.03613
"2966",77.69161,687.0493
"2967",77.62325,687.0625
"2968",77.77463,687.0757
"2969",78.27512,687.08887
"2970",79.18822,687.10205
"2971",80.46021,687.11523
"2972",81.9202,687.1284
"2973",83.32403,687.1416
"2974",84.44221,687.1548
"2975",85.13313,687.16797
"2976",85.382164,687.18115
"2977",85.24544,687.19434
"2978",84.81575,687.2075
"2979",84.19562,687.2207
"2980",83.48028,687.2339
"2981",82.73075,687.2471
"2982",82.003204,687.26025
"2983",81.339134,687.27344
"2984",80.73609,687.2866
"2985",80.18677,687.2998
"2986",79.674065,687.313
"2987",79.20775,687.3262
"2988",78.80492,687.33936
"2989",78.504616,687.35254
"2990",78.345924,687.3657
"2991",78.348366,687.3789
"2992",78.49729,687.3921
"2993",78.73899,687.4053
"2994",79.00755,687.41846
"2995",79.237045,687.43164
"2996",79.378654,687.4448
"2997",79.41772,687.458
"2998",79.35912,687.4712
"2999",79.217514,687.4844
"3000",79.01732,687.49756
"3001",78.7805,687.51074
"3002",78.51682,687.5239
"3003",78.24094,687.5371
"3004",77.96506,687.5503
"3005",77.70138,687.5635
"3006",77.45968,687.57666
"3007",77.24727,687.58984
"3008",77.06416,687.603
"3009",76.925,687.6162
"3010",76.88594,687.6294
"3011",77.06416,687.6426
"3012",77.58175,687.65576
"3013",78.48997,687.66895
"3014",79.73022,687.6821
"3015",81.13893,687.6953
"3016",82.48905,687.7085
"3017",83.54864,687.7217
"3018",84.19318,687.73486
"3019",84.41779,687.74805
"3020",84.2884,687.7612
"3021",83.90753,687.7744
"3022",83.3753,687.7876
"3023",82.76738,687.8008
"3024",82.13504,687.81396
"3025",81.51736,687.82715
"3026",80.93141,687.84033
"3027",80.37232,687.8535
"3028",79.83765,687.8667
"3029",79.33471,687.8799
"3030",78.87572,687.89307
"3031",78.487526,687.90625
"3032",78.21896,687.91943
"3033",78.1091,687.9326
"3034",78.16525,687.9458
"3035",78.36057,687.959
"3036",78.63401,687.97217
"3037",78.91478,687.98535
"3038",79.14183,687.99854
"3039",79.276115,688.0117
"3040",79.310295,688.0249
"3041",79.259026,688.0381
"3042",79.14427,688.0513
"3043",78.98314,688.06445
"3044",78.80003,688.07764
"3045",78.60471,688.0908
"3046",78.40208,688.104
"3047",78.19455,688.1172
"3048",77.99191,688.1304
"3049",77.80148,688.14355
"3050",77.63058,688.15674
"3051",77.506065,688.1699
"3052",77.49386,688.1831
"3053",77.71847,688.1963
"3054",78.28733,688.2095
"3055",79.23216,688.22266
"3056",80.48951,688.23584
"3057",81.900665,688.249
"3058",83.250786,688.2622
"3059",84.32258,688.2754
"3060",85.0013,688.2886
"3061",85.27474,688.30176
"3062",85.20149,688.31494
"3063",84.859695,688.3281
"3064",84.34455,688.3413
"3065",83.74883,688.3545
"3066",83.1458,688.3677
"3067",82.57694,688.38086
"3068",82.04715,688.39404
"3069",81.55154,688.4072
"3070",81.06813,688.4204
"3071",80.587166,688.4336
"3072",80.12329,688.4468
"3073",79.72289,688.45996
"3074",79.447014,688.47314
"3075",79.33227,688.4863
"3076",79.381096,688.4995
"3077",79.5642,688.5127
"3078",79.815674,688.5259
"3079",80.04028,688.53906
"3080",80.16968,688.55225
"3081",80.16968,688.5654
"3082",80.05737,688.5786
"3083",79.85718,688.5918
"3084",79.61059,688.605
"3085",79.34692,688.61816
"3086",79.07591,688.63135
"3087",78.78783,688.64453
"3088",78.487526,688.6577
"3089",78.187225,688.6709
"3090",77.90158,688.6841
"3091",77.64034,688.69727
"3092",77.420616,688.71045
"3093",77.27413,688.72363
"3094",77.296104,688.7368
"3095",77.61593,688.75
"3096",78.32639,688.7632
"3097",79.412834,688.77637
"3098",80.75807,688.78955
"3099",82.142365,688.80273
"3100",83.32159,688.8159
"3101",84.11749,688.8291
"3102",84.473946,688.8423
"3103",84.44709,688.85547
"3104",84.1297,688.86865
"3105",83.6292,688.88184
"3106",83.038376,688.895
"3107",82.42069,688.9082
"3108",81.815216,688.9214
"3109",81.248795,688.9346
"3110",80.723885,688.94775
"3111",80.23071,688.96094
"3112",79.75464,688.9741
"3113",79.30053,688.9873
"3114",78.88548,689.0005
"3115",78.553444,689.0137
"3116",78.345924,689.02686
"3117",78.30442,689.04004
"3118",78.42161,689.0532
"3119",78.64866,689.0664
"3120",78.91722,689.0796
"3121",79.15648,689.0928
"3122",79.31762,689.10596
"3123",79.378654,689.11914
"3124",79.33959,689.1323
"3125",79.217514,689.1455
"3126",79.03929,689.1587
"3127",78.82689,689.1719
"3128",78.59495,689.18506
"3129",78.35813,689.19824
"3130",78.12619,689.2114
"3131",77.90402,689.2246
"3132",77.69894,689.2378
"3133",77.51095,689.251
"3134",77.347374,689.26416
"3135",77.22041,689.27734
"3136",77.19356,689.2905
"3137",77.38155,689.3037
"3138",77.90402,689.3169
"3139",78.81224,689.3301
"3140",80.05737,689.34326
"3141",81.480736,689.35645
"3142",82.85527,689.3696
"3143",83.95636,689.3828
"3144",84.6424,689.396
"3145",84.90364,689.4092
"3146",84.805984,689.42236
"3147",84.44953,689.43555
"3148",83.93683,689.4487
"3149",83.34844,689.4619
"3150",82.74296,689.4751
"3151",82.15213,689.4883
"3152",81.58572,689.50146
"3153",81.04372,689.51465
"3154",80.51881,689.52783
"3155",80.008545,689.541
"3156",79.53246,689.5542
"3157",79.1223,689.5674
"3158",78.82201,689.58057
"3159",78.67063,689.59375
"3160",78.67307,689.60693
"3161",78.80736,689.6201
"3162",79.02464,689.6333
"3163",79.2517,689.6465
"3164",79.43725,689.65967
"3165",79.537346,689.67285
"3166",79.53979,689.68604
"3167",79.4519,689.6992
"3168",79.30053,689.7124
"3169",79.10277,689.7256
"3170",78.87572,689.7388
"3171",78.63889,689.75195
"3172",78.40696,689.76514
"3173",78.17746,689.7783
"3174",77.9675,689.7915
"3175",77.77951,689.8047
"3176",77.611046,689.8179
"3177",77.46456,689.83105
"3178",77.33761,689.84424
"3179",77.242386,689.8574
"3180",77.23506,689.8706
"3181",77.43282,689.8838
"3182",77.95041,689.897
"3183",78.84398,689.91016
"3184",80.07446,689.92334
"3185",81.49294,689.9365
"3186",82.87724,689.9497
"3187",84.00275,689.9629
"3188",84.73029,689.9761
"3189",85.033035,689.98926
"3190",84.972,690.00244
"3191",84.63508,690.0156
"3192",84.12726,690.0288
"3193",83.53399,690.042
"3194",82.91875,690.0552
"3195",82.31327,690.06836
"3196",81.74197,690.08154
"3197",81.20241,690.0947
"3198",80.689705,690.1079
"3199",80.19165,690.1211
"3200",79.72045,690.1343
"3201",79.30053,690.14746
"3202",78.97337,690.16064
"3203",78.77562,690.1738
"3204",78.72678,690.187
"3205",78.81224,690.2002
"3206",78.98314,690.2134
"3207",79.17357,690.22656
"3208",79.32983,690.23975
"3209",79.415276,690.2529
"3210",79.40795,690.2661
"3211",79.3225,690.2793
"3212",79.168686,690.2925
"3213",78.96849,690.30566
"3214",78.73411,690.31885
"3215",78.48264,690.33203
"3216",78.22629,690.3452
"3217",77.97482,690.3584
"3218",77.733116,690.3716
"3219",77.51339,690.38477
"3220",77.32052,690.39795
"3221",77.15694,690.41113
"3222",77.015335,690.4243
"3223",76.89815,690.4375
"3224",76.839554,690.4507
"3225",76.92256,690.46387
"3226",77.27413,690.47705
"3227",77.98703,690.49023
"3228",79.06859,690.5034
"3229",80.42115,690.5166
"3230",81.849396,690.5298
"3231",83.12138,690.54297
"3232",84.04669,690.55615
"3233",84.542305,690.56934
"3234",84.63996,690.5825
"3235",84.420235,690.5957
"3236",83.980774,690.6089
"3237",83.4168,690.6221
"3238",82.804,690.63525
"3239",82.18143,690.64844
"3240",81.57839,690.6616
"3241",81.00221,690.6748
"3242",80.448006,690.688
"3243",79.91089,690.7012
"3244",79.40307,690.71436
"3245",78.9514,690.72754
"3246",78.590065,690.7407
"3247",78.365456,690.7539
"3248",78.30442,690.7671
"3249",78.39475,690.7803
"3250",78.58518,690.79346
"3251",78.81468,690.80664
"3252",79.01488,690.8198
"3253",79.14427,690.833
"3254",79.17601,690.8462
"3255",79.114975,690.8594
"3256",78.975815,690.87256
"3257",78.7805,690.88574
"3258",78.54368,690.8989
"3259",78.28489,690.9121
"3260",78.013885,690.9253
"3261",77.752655,690.9385
"3262",77.50851,690.95166
"3263",77.28878,690.96484
"3264",77.09346,690.978
"3265",76.929886,690.9912
"3266",76.79561,691.0044
"3267",76.68818,691.0176
"3268",76.65156,691.03076
"3269",76.790726,691.04395
"3270",77.21553,691.0571
"3271",77.99191,691.0703
"3272",79.093,691.0835
"3273",80.40162,691.0967
"3274",81.71755,691.10986
"3275",82.82597,691.12305
"3276",83.58282,691.1362
"3277",83.94415,691.1494
"3278",83.949036,691.1626
"3279",83.67803,691.1758
"3280",83.21416,691.18896
"3281",82.63554,691.20215
"3282",82.003204,691.21533
"3283",81.356224,691.2285
"3284",80.72144,691.2417
"3285",80.111084,691.2549
"3286",79.53246,691.26807
"3287",78.992905,691.28125
"3288",78.51438,691.29443
"3289",78.12375,691.3076
"3290",77.86252,691.3208
"3291",77.75998,691.334
"3292",77.821014,691.34717
"3293",78.011444,691.36035
"3294",78.27268,691.37354
"3295",78.538795,691.3867
"3296",78.73899,691.3999
"3297",78.8513,691.4131
"3298",78.870834,691.4263
"3299",78.81468,691.43945
"3300",78.70481,691.45264
"3301",78.56077,691.4658
"3302",78.399635,691.479
"3303",78.22629,691.4922
"3304",78.05051,691.5054
"3305",77.874725,691.51855
"3306",77.7087,691.53174
"3307",77.557335,691.5449
"3308",77.4255,691.5581
"3309",77.30831,691.5713
"3310",77.23018,691.5845
"3311",77.26925,691.59766
"3312",77.5378,691.61084
"3313",78.150604,691.624
"3314",79.13695,691.6372
"3315",80.42603,691.6504
"3316",81.85184,691.6636
"3317",83.194626,691.67676
"3318",84.24933,691.68994
"3319",84.91585,691.7031
"3320",85.189285,691.7163
"3321",85.12581,691.7295
"3322",84.808426,691.7427
"3323",84.332344,691.75586
"3324",83.76349,691.76904
"3325",83.16533,691.7822
"3326",82.5745,691.7954
"3327",82.01053,691.8086
"3328",81.46853,691.8218
"3329",80.95094,691.83496
"3330",80.462654,691.84814
"3331",80.028076,691.8613
"3332",79.68383,691.8745
"3333",79.47631,691.8877
"3334",79.42504,691.9009
"3335",79.52514,691.91406
"3336",79.725334,691.92725
"3337",79.95972,691.9404
"3338",80.164795,691.9536
"3339",80.289314,691.9668
"3340",80.31373,691.98
"3341",80.24048,691.99316
"3342",80.08911,692.00635
"3343",79.87915,692.01953
"3344",79.63256,692.0327
"3345",79.37377,692.0459
"3346",79.11742,692.0591
"3347",78.870834,692.07227
"3348",78.64622,692.08545
"3349",78.43626,692.09863
"3350",78.238495,692.1118
"3351",78.05539,692.125
"3352",77.925995,692.1382
"3353",77.95285,692.15137
"3354",78.27268,692.16455
"3355",78.96117,692.17773
"3356",80.008545,692.1909
"3357",81.304955,692.2041
"3358",82.6453,692.2173
"3359",83.807434,692.23047
"3360",84.627754,692.24365
"3361",85.05501,692.25684
"3362",85.118484,692.27
"3363",84.9012,692.2832
"3364",84.48371,692.2964
"3365",83.949036,692.3096
"3366",83.35821,692.32275
"3367",82.75029,692.33594
"3368",82.14969,692.3491
"3369",81.5613,692.3623
"3370",80.990005,692.3755
"3371",80.44068,692.3887
"3372",79.92798,692.40186
"3373",79.48119,692.41504
"3374",79.14427,692.4282
"3375",78.958725,692.4414
"3376",78.93431,692.4546
"3377",79.0515,692.4678
"3378",79.25414,692.48096
"3379",79.47875,692.49414
"3380",79.66674,692.5073
"3381",79.77661,692.5205
"3382",79.79614,692.5337
"3383",79.7351,692.5469
"3384",79.603264,692.56006
"3385",79.41772,692.57324
"3386",79.1931,692.5864
"3387",78.941635,692.5996
"3388",78.68284,692.6128
"3389",78.42405,692.626
"3390",78.184784,692.63916
"3391",77.960175,692.65234
"3392",77.75754,692.6655
"3393",77.58663,692.6787
"3394",77.50851,692.6919
"3395",77.6379,692.7051
"3396",78.10422,692.71826
"3397",78.95384,692.73145
"3398",80.14526,692.7446
"3399",81.52468,692.7578
"3400",82.86748,692.771
"3401",83.95636,692.7842
"3402",84.664375,692.79736
"3403",84.96956,692.81055
"3404",84.93294,692.8237
"3405",84.647285,692.8369
"3406",84.2005,692.8501
"3407",83.66094,692.8633
"3408",83.08232,692.87646
"3409",82.50126,692.88965
"3410",81.92996,692.90283
"3411",81.37087,692.916
"3412",80.82155,692.9292
"3413",80.289314,692.9424
"3414",79.78638,692.95557
"3415",79.34936,692.96875
"3416",79.01488,692.98193
"3417",78.82689,692.9951
"3418",78.79027,693.0083
"3419",78.8806,693.0215
"3420",79.05394,693.03467
"3421",79.24193,693.04785
"3422",79.38598,693.06104
"3423",79.4519,693.0742
"3424",79.429924,693.0874
"3425",79.33227,693.1006
"3426",79.17113,693.1138
"3427",78.96849,693.12695
"3428",78.73899,693.14014
"3429",78.49241,693.1533
"3430",78.24094,693.1665
"3431",77.996796,693.1797
"3432",77.7673,693.1929
"3433",77.56222,693.20605
"3434",77.383995,693.21924
"3435",77.2375,693.2324
"3436",77.1667,693.2456
"3437",77.27413,693.2588
"3438",77.68429,693.272
"3439",78.46555,693.28516
"3440",79.59594,693.29834
"3441",80.95094,693.3115
"3442",82.33036,693.3247
"3443",83.509575,693.3379
"3444",84.33723,693.3511
"3445",84.76448,693.36426
"3446",84.8304,693.37744
"3447",84.62043,693.3906
"3448",84.23224,693.4038
"3449",83.736626,693.417
"3450",83.194626,693.4302
"3451",82.64774,693.44336
"3452",82.11063,693.45654
"3453",81.57839,693.4697
"3454",81.05104,693.4829
"3455",80.533455,693.4961
"3456",80.03296,693.5093
"3457",79.57641,693.52246
"3458",79.200424,693.53564
"3459",78.9514,693.5488
"3460",78.84642,693.562
"3461",78.873276,693.5752
"3462",78.995346,693.5884
"3463",79.15892,693.60156
"3464",79.30785,693.61475
"3465",79.40551,693.6279
"3466",79.432365,693.6411
"3467",79.38842,693.6543
"3468",79.281,693.6675
"3469",79.11986,693.68066
"3470",78.922104,693.69385
"3471",78.70237,693.70703
"3472",78.47532,693.7202
"3473",78.24826,693.7334
"3474",78.03342,693.7466
"3475",77.83078,693.75977
"3476",77.65011,693.77295
"3477",77.49386,693.78613
"3478",77.37179,693.7993
"3479",77.33517,693.8125
"3480",77.49386,693.8257
"3481",77.95773,693.83887
"3482",78.79027,693.85205
"3483",79.96216,693.86523
"3484",81.34402,693.8784
"3485",82.72587,693.8916
"3486",83.88312,693.9048
"3487",84.664375,693.91797
"3488",85.03548,693.93115
"3489",85.04768,693.94434
"3490",84.78645,693.9575
"3491",84.35432,693.9707
"3492",83.83429,693.9839
"3493",83.28741,693.9971
"3494",82.7454,694.01025
"3495",82.21561,694.02344
"3496",81.69558,694.0366
"3497",81.17311,694.0498
"3498",80.65064,694.063
"3499",80.14282,694.0762
"3500",79.67895,694.08936
"3501",79.30053,694.10254
"3502",79.046616,694.1157
"3503",78.93431,694.1289
"3504",78.94896,694.1421
"3505",79.04906,694.1553
"3506",79.183334,694.16846
"3507",79.30053,694.18164
"3508",79.35424,694.1948
"3509",79.327385,694.208
"3510",79.2224,694.2212
"3511",79.04906,694.2344
"3512",78.82933,694.24756
"3513",78.58762,694.26074
"3514",78.33372,694.2739
"3515",78.0798,694.2871
"3516",77.838104,694.3003
"3517",77.608604,694.3135
"3518",77.3962,694.32666
"3519",77.19356,694.33984
"3520",76.995804,694.353
"3521",76.80049,694.3662
"3522",76.63203,694.3794
"3523",76.57099,694.3926
"3524",76.749214,694.40576
"3525",77.281456,694.41895
"3526",78.21408,694.4321
"3527",79.47631,694.4453
"3528",80.902115,694.4585
"3529",82.266884,694.4717
"3530",83.36309,694.48486
"3531",84.071106,694.49805
"3532",84.37873,694.5112
"3533",84.34211,694.5244
"3534",84.04425,694.5376
"3535",83.580376,694.5508
"3536",83.04082,694.56396
"3537",82.47929,694.57715
"3538",81.92996,694.59033
"3539",81.40505,694.6035
"3540",80.902115,694.6167
"3541",80.40406,694.6299
"3542",79.90112,694.64307
"3543",79.41039,694.65625
"3544",78.97337,694.66943
"3545",78.643776,694.6826
"3546",78.450905,694.6958
"3547",78.4094,694.709
"3548",78.487526,694.72217
"3549",78.63889,694.73535
"3550",78.802475,694.74854
"3551",78.922104,694.7617
"3552",78.97093,694.7749
"3553",78.941635,694.7881
"3554",78.836655,694.8013
"3555",78.66575,694.81445
"3556",78.44602,694.82764
"3557",78.19943,694.8408
"3558",77.94064,694.854
"3559",77.679405,694.8672
"3560",77.42794,694.8804
"3561",77.196,694.89355
"3562",76.995804,694.90674
"3563",76.82735,694.9199
"3564",76.69306,694.9331
"3565",76.592964,694.9463
"3566",76.51972,694.9595
"3567",76.46845,694.97266
"3568",76.49287,694.98584
"3569",76.70283,694.999
"3570",77.21309,695.0122
"3571",78.09445,695.0254
"3572",79.310295,695.0386
"3573",80.72877,695.05176
"3574",82.13992,695.06494
"3575",83.319145,695.0781
"3576",84.119934,695.0913
"3577",84.51057,695.1045
"3578",84.53742,695.1177
"3579",84.27863,695.13086
"3580",83.83673,695.14404
"3581",83.284966,695.1572
"3582",82.686806,695.1704
"3583",82.08377,695.1836
"3584",81.495384,695.1968
"3585",80.921646,695.20996
"3586",80.365,695.22314
"3587",79.818115,695.2363
"3588",79.30053,695.2495
"3589",78.8513,695.2627
"3590",78.519264,695.2759
"3591",78.34348,695.28906
"3592",78.33372,695.30225
"3593",78.46311,695.3154
"3594",78.67063,695.3286
"3595",78.88304,695.3418
"3596",79.04173,695.355
"3597",79.11253,695.36816
"3598",79.08324,695.38135
"3599",78.97337,695.39453
"3600",78.79759,695.4077
"3601",78.572975,695.4209
"3602",78.31663,695.4341
"3603",78.0383,695.44727
"3604",77.747765,695.46045
"3605",77.46456,695.47363
"3606",77.20088,695.4868
"3607",76.96651,695.5
"3608",76.76631,695.5132
"3609",76.60029,695.52637
"3610",76.46601,695.53955
"3611",76.36347,695.55273
"3612",76.33906,695.5659
"3613",76.4831,695.5791
"3614",76.90791,695.5923
"3615",77.68429,695.60547
"3616",78.79759,695.61865
"3617",80.128174,695.63184
"3618",81.48806,695.645
"3619",82.65995,695.6582
"3620",83.4876,695.6714
"3621",83.92462,695.6846
"3622",83.99542,695.69775
"3623",83.775696,695.71094
"3624",83.35821,695.7241
"3625",82.81377,695.7373
"3626",82.20096,695.7505
"3627",81.56863,695.7637
"3628",80.936295,695.77686
"3629",80.308846,695.79004
"3630",79.68383,695.8032
"3631",79.07347,695.8164
"3632",78.49973,695.8296
"3633",78.00656,695.8428
"3634",77.65499,695.85596
"3635",77.49142,695.86914
"3636",77.52071,695.8823
"3637",77.70382,695.8955
"3638",77.97238,695.9087
"3639",78.24094,695.9219
"3640",78.44358,695.93506
"3641",78.54856,695.94824
"3642",78.54612,695.9614
"3643",78.44358,695.9746
"3644",78.28489,695.9878
"3645",78.10422,696.001
"3646",77.92111,696.01416
"3647",77.738,696.02734
"3648",77.54757,696.0405
"3649",77.34493,696.0537
"3650",77.13985,696.0669
"3651",76.94209,696.0801
"3652",76.76875,696.09326
"3653",76.63935,696.10645
"3654",76.57099,696.1196
"3655",76.61494,696.1328
"3656",76.87373,696.146
"3657",77.44015,696.1592
"3658",78.35081,696.17236
"3659",79.54711,696.18555
"3660",80.87038,696.1987
"3661",82.11795,696.2119
"3662",83.10918,696.2251
"3663",83.73174,696.2383
"3664",83.97345,696.25146
"3665",83.87579,696.26465
"3666",83.5584,696.27783
"3667",83.1458,696.291
"3668",82.70878,696.3042
"3669",82.269325,696.3174
"3670",81.81766,696.33057
"3671",81.33425,696.34375
"3672",80.78981,696.35693
"3673",80.19409,696.3701
"3674",79.60815,696.3833
"3675",79.10521,696.3965
"3676",78.73411,696.40967
"3677",78.52903,696.42285
"3678",78.49729,696.43604
"3679",78.61204,696.4492
"3680",78.81224,696.4624
"3681",79.01732,696.4756
"3682",79.16136,696.4888
"3683",79.19798,696.50195
"3684",79.10765,696.51514
"3685",78.95628,696.5283
"3686",78.839096,696.5415
"3687",78.78783,696.5547
"3688",78.765854,696.5679
"3689",78.72434,696.58105
"3690",78.61448,696.59424
"3691",78.38987,696.6074
"3692",78.06027,696.6206
"3693",77.68673,696.6338
"3694",77.32052,696.647
"3695",76.97139,696.66016
"3696",76.71015,696.67334
"3697",76.65156,696.6865
"3698",76.92256,696.6997
"3699",77.591515,696.7129
"3700",78.626686,696.7261
"3701",79.869385,696.73926
"3702",81.08766,696.75244
"3703",82.07156,696.7656
"3704",82.69901,696.7788
"3705",83.00664,696.792
"3706",83.11162,696.8052
"3707",83.07988,696.81836
"3708",82.92607,696.83154
"3709",82.650185,696.8447
"3710",82.262,696.8579
"3711",81.75174,696.8711
"3712",81.16579,696.8843
"3713",80.58228,696.89746
"3714",80.06714,696.91064
"3715",79.61791,696.9238
"3716",79.234604,696.937
"3717",78.93187,696.9502
"3718",78.74876,696.9634
"3719",78.70725,696.97656
"3720",78.79515,696.98975
"3721",78.96361,697.0029
"3722",79.15404,697.0161
"3723",79.31274,697.0293
"3724",79.40551,697.0425
"3725",79.412834,697.05566
"3726",79.33715,697.06885
"3727",79.18822,697.08203
"3728",78.99779,697.0952
"3729",78.7805,697.1084
"3730",78.555885,697.1216
"3731",78.33616,697.13477
"3732",78.11154,697.14795
"3733",77.86984,697.16113
"3734",77.63302,697.1743
"3735",77.49142,697.1875
"3736",77.56954,697.2007
"3737",77.98215,697.21387
"3738",78.77806,697.22705
"3739",79.92798,697.24023
"3740",81.30984,697.2534
"3741",82.73319,697.2666
"3742",84.00275,697.2798
"3743",84.979324,697.29297
"3744",85.5848,697.30615
"3745",85.79477,697.31934
"3746",85.643394,697.3325
"3747",85.20393,697.3457
"3748",84.576485,697.3589
"3749",83.86603,697.3721
"3750",83.140915,697.38525
"3751",82.45243,697.39844
"3752",81.80545,697.4116
"3753",81.19508,697.4248
"3754",80.61402,697.438
"3755",80.06958,697.4512
"3756",79.60082,697.46436
"3757",79.26147,697.47754
"3758",79.09056,697.4907
"3759",79.08568,697.5039
"3760",79.219955,697.5171
"3761",79.429924,697.5303
"3762",79.64721,697.54346
"3763",79.82056,697.55664
"3764",79.91821,697.5698
"3765",79.94263,697.583
"3766",79.90112,697.5962
"3767",79.801025,697.6094
"3768",79.66674,697.62256
"3769",79.51537,697.63574
"3770",79.364006,697.6489
"3771",79.22728,697.6621
"3772",79.114975,697.6753
"3773",79.03441,697.6885
"3774",78.9807,697.70166
"3775",78.9807,697.71484
"3776",79.10033,697.728
"3777",79.449455,697.7412
"3778",80.10376,697.7544
"3779",81.06569,697.7676
"3780",82.25956,697.78076
"3781",83.53643,697.79395
"3782",84.71809,697.8071
"3783",85.65072,697.8203
"3784",86.25132,697.8335
"3785",86.50767,697.8467
"3786",86.44663,697.85986
"3787",86.12192,697.87305
"3788",85.59457,697.8862
"3789",84.93782,697.8994
"3790",84.227356,697.9126
"3791",83.51202,697.9258
"3792",82.82109,697.93896
"3793",82.176544,697.95215
"3794",81.58572,697.96533
"3795",81.06081,697.9785
"3796",80.63355,697.9917
"3797",80.323494,698.0049
"3798",80.14526,698.01807
"3799",80.093994,698.03125
"3800",80.14526,698.04443
"3801",80.25025,698.0576
"3802",80.36744,698.0708
"3803",80.45533,698.084
"3804",80.48463,698.09717
"3805",80.43336,698.11035
"3806",80.289314,698.12354
"3807",80.062256,698.1367
"3808",79.766846,698.1499
"3809",79.43969,698.1631
"3810",79.114975,698.1763
"3811",78.82689,698.18945
"3812",78.58518,698.20264
"3813",78.38499,698.2158
"3814",78.21896,698.229
"3815",78.11154,698.2422
"3816",78.14816,698.2554
"3817",78.44602,698.26855
"3818",79.08324,698.28174
"3819",80.059814,698.2949
"3820",81.290306,698.3081
"3821",82.59159,698.3213
"3822",83.76593,698.3345
"3823",84.647285,698.34766
"3824",85.15755,698.36084
"3825",85.29916,698.374
"3826",85.1136,698.3872
"3827",84.67658,698.4004
"3828",84.07599,698.4136
"3829",83.40215,698.42676
"3830",82.71122,698.43994
"3831",82.04471,698.4531
"3832",81.41238,698.4663
"3833",80.82643,698.4795
"3834",80.28687,698.4927
"3835",79.82056,698.50586
"3836",79.466545,698.51904
"3837",79.259026,698.5322
"3838",79.19798,698.5454
"3839",79.25414,698.5586
"3840",79.36889,698.5718
"3841",79.48608,698.58496
"3842",79.54955,698.59814
"3843",79.54467,698.6113
"3844",79.4641,698.6245
"3845",79.32494,698.6377
"3846",79.13695,698.6509
"3847",78.9099,698.66406
"3848",78.65598,698.67725
"3849",78.39475,698.6904
"3850",78.16281,698.7036
"3851",78.00168,698.7168
"3852",77.94064,698.73
"3853",77.95041,698.74316
"3854",77.996796,698.75635
"3855",78.04318,698.76953
"3856",78.118866,698.7827
"3857",78.311745,698.7959
"3858",78.74876,698.8091
"3859",79.51049,698.82227
"3860",80.58228,698.83545
"3861",81.84207,698.84863
"3862",83.09453,698.8618
"3863",84.14435,698.875
"3864",84.85481,698.8882
"3865",85.17952,698.90137
"3866",85.14046,698.91455
"3867",84.78645,698.92773
"3868",84.2005,698.9409
"3869",83.47051,698.9541
"3870",82.686806,698.9673
"3871",81.91043,698.98047
"3872",81.18532,698.99365
"3873",80.52369,699.00684
"3874",79.94263,699.02
"3875",79.45922,699.0332
"3876",79.097885,699.0464
"3877",78.873276,699.0596
"3878",78.79759,699.07275
"3879",78.84398,699.08594
"3880",78.975815,699.0991
"3881",79.12962,699.1123
"3882",79.26147,699.1255
"3883",79.34692,699.1387
"3884",79.35668,699.15186
"3885",79.27856,699.16504
"3886",79.1223,699.1782
"3887",78.905014,699.1914
"3888",78.63401,699.2046
"3889",78.33616,699.2178
"3890",78.04318,699.23096
"3891",77.77707,699.24414
"3892",77.54757,699.2573
"3893",77.35226,699.2705
"3894",77.19112,699.2837
"3895",77.049515,699.2969
"3896",76.925,699.31006
"3897",76.87129,699.32324
"3898",77.00313,699.3364
"3899",77.43038,699.3496
"3900",78.204315,699.3628
"3901",79.28832,699.376
"3902",80.552986,699.38916
"3903",81.80301,699.40234
"3904",82.85039,699.4155
"3905",83.57061,699.4287
"3906",83.93683,699.4419
"3907",83.98566,699.4551
"3908",83.78058,699.46826
"3909",83.389946,699.48145
"3910",82.87236,699.4946
"3911",82.28397,699.5078
"3912",81.654076,699.521
"3913",80.99245,699.5342
"3914",80.31129,699.54736
"3915",79.64233,699.56055
"3916",79.01976,699.5737
"3917",78.485085,699.5869
"3918",78.08957,699.6001
"3919",77.86008,699.6133
"3920",77.806366,699.62646
"3921",77.8967,699.63965
"3922",78.07492,699.65283
"3923",78.27024,699.666
"3924",78.41917,699.6792
"3925",78.47532,699.6924
"3926",78.41917,699.70557
"3927",78.277565,699.71875
"3928",78.08713,699.73193
"3929",77.87717,699.7451
"3930",77.65011,699.7583
"3931",77.41085,699.7715
"3932",77.16426,699.78467
"3933",76.925,699.79785
"3934",76.700386,699.81104
"3935",76.51728,699.8242
"3936",76.387886,699.8374
"3937",76.297554,699.8506
"3938",76.226746,699.8638
"3939",76.18524,699.87695
"3940",76.21698,699.89014
"3941",76.43427,699.9033
"3942",76.944534,699.9165
"3943",77.79904,699.9297
"3944",78.958725,699.9429
"3945",80.289314,699.95605
"3946",81.58816,699.96924
"3947",82.65995,699.9824
"3948",83.39239,699.9956
"3949",83.78546,700.0088
"3950",83.89288,700.022
"3951",83.79767,700.03516
"3952",83.580376,700.04834
"3953",83.284966,700.0615
"3954",82.92607,700.0747
"3955",82.5037,700.0879
"3956",82.02518,700.1011
"3957",81.48562,700.11426
"3958",80.89723,700.12744
"3959",80.29908,700.1406
"3960",79.744865,700.1538
"3961",79.28832,700.167
"3962",78.975815,700.1802
"3963",78.836655,700.19336
"3964",78.84886,700.20654
"3965",78.97826,700.2197
"3966",79.1638,700.2329
"3967",79.3518,700.2461
"3968",79.4934,700.2593
"3969",79.55932,700.27246
"3970",79.53002,700.28564
"3971",79.415276,700.2988
"3972",79.234604,700.312
"3973",79.00755,700.3252
"3974",78.765854,700.3384
"3975",78.52903,700.35156
"3976",78.30198,700.36475
"3977",78.08713,700.3779
"3978",77.88205,700.3911
"3979",77.69161,700.4043
"3980",77.52071,700.4175
"3981",77.37423,700.43066
"3982",77.25704,700.44385
"3983",77.21553,700.45703
"3984",77.34005,700.4702
"3985",77.75021,700.4834
"3986",78.521706,700.4966
"3987",79.64477,700.50977
"3988",81.004654,700.52295
"3989",82.4036,700.53613
"3990",83.617,700.5493
"3991",84.48371,700.5625
"3992",84.964676,700.5757
"3993",85.09163,700.58887
"3994",84.95491,700.60205
"3995",84.63996,700.61523
"3996",84.21271,700.6284
"3997",83.719536,700.6416
"3998",83.18974,700.6548
"3999",82.62577,700.66797
"4000",82.037384,700.68115
"4001",81.42947,700.69434
"4002",80.814224,700.7075
"4003",80.22095,700.7207
"4004",79.68627,700.7339
"4005",79.256584,700.7471
"4006",78.97093,700.76025
"4007",78.8513,700.77344
"4008",78.8806,700.7866
"4009",79.01976,700.7998
"4010",79.21507,700.813
"4011",79.40795,700.8262
"4012",79.54955,700.83936
"4013",79.61059,700.85254
"4014",79.58373,700.8657
"4015",79.47387,700.8789
"4016",79.290764,700.8921
"4017",79.05882,700.9053
"4018",78.79515,700.91846
"4019",78.521706,700.93164
"4020",78.25071,700.9448
"4021",77.98947,700.958
"4022",77.75021,700.9712
"4023",77.53536,700.9844
"4024",77.347374,700.99756
"4025",77.19356,701.01074
"4026",77.10811,701.0239
"4027",77.17647,701.0371
"4028",77.52071,701.0503
"4029",78.22873,701.0635
"4030",79.30297,701.07666
"4031",80.64332,701.08984
"4032",82.06668,701.103
"4033",83.35821,701.1162
"4034",84.33723,701.1294
"4035",84.928055,701.1426
"4036",85.14778,701.15576
"4037",85.05989,701.16895
"4038",84.74494,701.1821
"4039",84.27131,701.1953
"4040",83.70733,701.2085
"4041",83.106735,701.2217
"4042",82.48905,701.23486
"4043",81.864044,701.24805
"4044",81.23903,701.2612
"4045",80.62623,701.2744
"4046",80.04761,701.2876
"4047",79.54711,701.3008
"4048",79.17113,701.31396
"4049",78.958725,701.32715
"4050",78.91478,701.34033
"4051",79.009995,701.3535
"4052",79.18822,701.3667
"4053",79.378654,701.3799
"4054",79.5227,701.39307
"4055",79.586174,701.40625
"4056",79.56664,701.41943
"4057",79.4641,701.4326
"4058",79.30541,701.4458
"4059",79.11009,701.459
"4060",78.890366,701.47217
"4061",78.65598,701.48535
"4062",78.41428,701.49854
"4063",78.18234,701.5117
"4064",77.96994,701.5249
"4065",77.78195,701.5381
"4066",77.61593,701.5513
"4067",77.47921,701.56445
"4068",77.435265,701.57764
"4069",77.58663,701.5908
"4070",78.05539,701.604
"4071",78.89769,701.6172
"4072",80.07446,701.6304
"4073",81.444115,701.64355
"4074",82.80156,701.65674
"4075",83.93683,701.6699
"4076",84.72297,701.6831
"4077",85.12337,701.6963
"4078",85.18196,701.7095
"4079",84.97444,701.72266
"4080",84.578926,701.73584
"4081",84.071106,701.749
"4082",83.49737,701.7622
"4083",82.88701,701.7754
"4084",82.252235,701.7886
"4085",81.602806,701.80176
"4086",80.9485,701.81494
"4087",80.31129,701.8281
"4088",79.73266,701.8413
"4089",79.259026,701.8545
"4090",78.924545,701.8677
"4091",78.74876,701.88086
"4092",78.7219,701.89404
"4093",78.80003,701.9072
"4094",78.91722,701.9204
"4095",79.0222,701.9336
"4096",79.07591,701.9468
"4097",79.06615,701.95996
"4098",78.98802,701.97314
"4099",78.84886,701.9863
"4100",78.660866,701.9995
"4101",78.43626,702.0127
"4102",78.1799,702.0259
"4103",77.908905,702.03906
"4104",77.642784,702.05225
"4105",77.3962,702.0654
"4106",77.17403,702.0786
"4107",76.98604,702.0918
"4108",76.82002,702.105
"4109",76.68574,702.11816
"4110",76.63203,702.13135
"4111",76.77852,702.14453
"4112",77.2546,702.1577
"4113",78.133514,702.1709
"4114",79.3933,702.1841
"4115",80.88991,702.19727
"4116",82.406044,702.21045
"4117",83.702446,702.22363
"4118",84.60334,702.2368
"4119",85.04524,702.25
"4120",85.06966,702.2632
"4121",84.77913,702.27637
"4122",84.2884,702.28955
"4123",83.69756,702.30273
"4124",83.089645,702.3159
"4125",82.49882,702.3291
"4126",81.92996,702.3423
"4127",81.36111,702.35547
"4128",80.77516,702.36865
"4129",80.17944,702.38184
"4130",79.603264,702.395
"4131",79.08812,702.4082
"4132",78.68284,702.4214
"4133",78.43137,702.4346
"4134",78.34348,702.44775
"4135",78.397194,702.46094
"4136",78.536354,702.4741
"4137",78.695045,702.4873
"4138",78.82201,702.5005
"4139",78.88304,702.5137
"4140",78.86107,702.52686
"4141",78.75853,702.54004
"4142",78.58518,702.5532
"4143",78.365456,702.5664
"4144",78.11398,702.5796
"4145",77.840546,702.5928
"4146",77.56466,702.60596
"4147",77.298546,702.61914
"4148",77.051956,702.6323
"4149",76.83711,702.6455
"4150",76.65156,702.6587
"4151",76.490425,702.6719
"4152",76.36103,702.68506
"4153",76.29511,702.69824
"4154",76.383,702.7114
"4155",76.754105,702.7246
"4156",77.49386,702.7378
"4157",78.626686,702.751
"4158",80.062256,702.76416
"4159",81.60525,702.77734
"4160",83.021286,702.7905
"4161",84.119934,702.8037
"4162",84.79378,702.8169
"4163",85.04524,702.8301
"4164",84.93538,702.84326
"4165",84.56916,702.85645
"4166",84.04425,702.8696
"4167",83.44854,702.8828
"4168",82.83086,702.896
"4169",82.22049,702.9092
"4170",81.62234,702.92236
"4171",81.024185,702.93555
"4172",80.42115,702.9487
"4173",79.82788,702.9619
"4174",79.27123,702.9751
"4175",78.80736,702.9883
"4176",78.48264,703.00146
"4177",78.32639,703.01465
"4178",78.31907,703.02783
"4179",78.42649,703.041
"4180",78.58518,703.0542
"4181",78.73655,703.0674
"4182",78.836655,703.08057
"4183",78.86351,703.09375
"4184",78.80736,703.10693
"4185",78.67307,703.1201
"4186",78.47776,703.1333
"4187",78.24094,703.1465
"4188",77.98215,703.15967
"4189",77.71603,703.17285
"4190",77.454796,703.18604
"4191",77.21309,703.1992
"4192",76.978714,703.2124
"4193",76.75166,703.2256
"4194",76.52949,703.2388
"4195",76.334175,703.25195
"4196",76.209656,703.26514
"4197",76.265816,703.2783
"4198",76.64423,703.2915
"4199",77.437706,703.3047
"4200",78.63889,703.3179
"4201",80.11597,703.33105
"4202",81.6614,703.34424
"4203",83.03349,703.3574
"4204",84.04425,703.3706
"4205",84.613106,703.3838
"4206",84.771805,703.397
"4207",84.61799,703.41016
"4208",84.25178,703.42334
"4209",83.76349,703.4365
"4210",83.2166,703.4497
"4211",82.65507,703.4629
"4212",82.08133,703.4761
"4213",81.495384,703.48926
"4214",80.89235,703.50244
"4215",80.27711,703.5156
"4216",79.676506,703.5288
"4217",79.13451,703.542
"4218",78.70237,703.5552
"4219",78.42405,703.56836
"4220",78.31663,703.58154
"4221",78.35569,703.5947
"4222",78.49485,703.6079
"4223",78.66819,703.6211
"4224",78.819565,703.6343
"4225",78.89769,703.64746
"4226",78.887924,703.66064
"4227",78.78783,703.6738
"4228",78.61204,703.687
"4229",78.37278,703.7002
"4230",78.09689,703.7134
"4231",77.80148,703.72656
"4232",77.50118,703.73975
"4233",77.21065,703.7529
"4234",76.944534,703.7661
"4235",76.70771,703.7793
"4236",76.50019,703.7925
"4237",76.32197,703.80566
"4238",76.19501,703.81885
"4239",76.20477,703.83203
"4240",76.46601,703.8452
"4241",77.083694,703.8584
"4242",78.08957,703.8716
"4243",79.40063,703.88477
"4244",80.84108,703.89795
"4245",82.178986,703.91113
"4246",83.21904,703.9243
"4247",83.861145,703.9375
"4248",84.10773,703.9507
"4249",84.01495,703.96387
"4250",83.67315,703.97705
"4251",83.16533,703.99023
"4252",82.55741,704.0034
"4253",81.88846,704.0166
"4254",81.19264,704.0298
"4255",80.48463,704.04297
"4256",79.766846,704.05615
"4257",79.04906,704.06934
"4258",78.3679,704.0825
"4259",77.77219,704.0957
"4260",77.31075,704.1089
"4261",77.032425,704.1221
"4262",76.94942,704.13525
"4263",77.032425,704.14844
"4264",77.22041,704.1616
"4265",77.43282,704.1748
"4266",77.60616,704.188
"4267",77.69894,704.2012
"4268",77.71114,704.21436
"4269",77.66476,704.22754
"4270",77.56954,704.2407
"4271",77.43038,704.2539
"4272",77.23506,704.2671
"4273",76.995804,704.2803
"4274",76.71259,704.29346
"4275",76.40986,704.30664
"4276",76.138855,704.3198
"4277",75.95331,704.333
"4278",75.86786,704.3462
"4279",75.88251,704.3594
"4280",76.019226,704.37256
"4281",76.351265,704.38574
"4282",76.95918,704.3989
"4283",77.874725,704.4121
"4284",79.061264,704.4253
"4285",80.4065,704.4385
"4286",81.71755,704.45166
"4287",82.794235,704.46484
"4288",83.50225,704.478
"4289",83.81476,704.4912
"4290",83.773254,704.5044
"4291",83.458305,704.5176
"4292",82.94316,704.53076
"4293",82.30595,704.54395
"4294",81.668724,704.5571
"4295",81.126724,704.5703
"4296",80.69215,704.5835
"4297",80.31129,704.5967
"4298",79.940186,704.60986
"4299",79.54467,704.62305
"4300",79.1223,704.6362
"4301",78.73899,704.6494
"4302",78.49485,704.6626
"4303",78.44846,704.6758
"4304",78.56809,704.68896
"4305",78.7805,704.70215
"4306",79.00023,704.71533
"4307",79.15404,704.7285
"4308",79.202866,704.7417
"4309",79.14427,704.7549
"4310",78.992905,704.76807
"4311",78.77318,704.78125
"4312",78.504616,704.79443
"4313",78.204315,704.8076
"4314",77.88693,704.8208
"4315",77.56222,704.834
"4316",77.30099,704.84717
"4317",77.16914,704.86035
"4318",77.196,704.87354
"4319",77.347374,704.8867
"4320",77.6379,704.8999
"4321",78.12619,704.9131
"4322",78.85863,704.9263
"4323",79.84741,704.93945
"4324",81.058365,704.95264
"4325",82.371864,704.9658
"4326",83.56817,704.979
"4327",84.454414,704.9922
"4328",84.94026,705.0054
"4329",85.033035,705.01855
"4330",84.79378,705.03174
"4331",84.3592,705.0449
"4332",83.878235,705.0581
"4333",83.4168,705.0713
"4334",82.97978,705.0845
"4335",82.54032,705.09766
"4336",82.056915,705.11084
"4337",81.478294,705.124
"4338",80.82155,705.1372
"4339",80.16724,705.1504
"4340",79.61791,705.1636
"4341",79.23216,705.17676
"4342",79.03685,705.18994
"4343",79.03197,705.2031
"4344",79.1638,705.2163
"4345",79.35912,705.2295
"4346",79.53246,705.2427
"4347",79.62035,705.25586
"4348",79.5935,705.26904
"4349",79.45922,705.2822
"4350",79.24437,705.2954
"4351",78.97337,705.3086
"4352",78.675514,705.3218
"4353",78.37278,705.33496
"4354",78.082245,705.34814
"4355",77.81857,705.3613
"4356",77.58907,705.3745
"4357",77.38644,705.3877
"4358",77.22774,705.4009
"4359",77.19356,705.41406
"4360",77.401085,705.42725
"4361",77.960175,705.4404
"4362",78.90013,705.4536
"4363",80.15259,705.4668
"4364",81.55398,705.48
"4365",82.879684,705.49316
"4366",83.93683,705.50635
"4367",84.62287,705.51953
"4368",84.92317,705.5327
"4369",84.87923,705.5459
"4370",84.56672,705.5591
"4371",84.07355,705.57227
"4372",83.475395,705.58545
"4373",82.83086,705.59863
"4374",82.18387,705.6118
"4375",81.55154,705.625
"4376",80.938736,705.6382
"4377",80.35035,705.65137
"4378",79.81079,705.66455
"4379",79.34936,705.67773
"4380",79.009995,705.6909
"4381",78.81468,705.7041
"4382",78.77074,705.7173
"4383",78.853745,705.73047
"4384",79.01976,705.74365
"4385",79.20775,705.75684
"4386",79.37133,705.77
"4387",79.47387,705.7832
"4388",79.4934,705.7964
"4389",79.4226,705.8096
"4390",79.26391,705.82275
"4391",79.046616,705.83594
"4392",78.79515,705.8491
"4393",78.53147,705.8623
"4394",78.27512,705.8755
"4395",78.03342,705.8887
"4396",77.81125,705.90186
"4397",77.64767,705.91504
"4398",77.6379,705.9282
"4399",77.91135,705.9414
"4400",78.56077,705.9546
"4401",79.58373,705.9678
"4402",80.8777,705.98096
"4403",82.252235,705.99414
"4404",83.47784,706.0073
"4405",84.386055,706.0205
"4406",84.90608,706.0337
"4407",85.05257,706.0469
"4408",84.893875,706.06006
"4409",84.51301,706.07324
"4410",83.99054,706.0864
"4411",83.39727,706.0996
"4412",82.774704,706.1128
"4413",82.14725,706.126
"4414",81.52712,706.13916
"4415",80.91676,706.15234
"4416",80.32838,706.1655
"4417",79.79126,706.1787
"4418",79.33959,706.1919
"4419",79.009995,706.2051
"4420",78.82689,706.21826
"4421",78.79271,706.23145
"4422",78.87572,706.2446
"4423",79.03197,706.2578
"4424",79.200424,706.271
"4425",79.33959,706.2842
"4426",79.415276,706.29736
"4427",79.41039,706.31055
"4428",79.327385,706.3237
"4429",79.17357,706.3369
"4430",78.96117,706.3501
"4431",78.712135,706.3633
"4432",78.44846,706.37646
"4433",78.187225,706.38965
"4434",77.9382,706.40283
"4435",77.713585,706.416
"4436",77.56954,706.4292
"4437",77.60616,706.4424
"4438",77.945526,706.45557
"4439",78.66575,706.46875
"4440",79.73998,706.48193
"4441",81.05104,706.4951
"4442",82.39872,706.5083
"4443",83.5584,706.5215
"4444",84.37629,706.53467
"4445",84.81087,706.54785
"4446",84.88411,706.56104
"4447",84.65217,706.5742
"4448",84.2005,706.5874
"4449",83.60967,706.6006
"4450",82.948044,706.6138
"4451",82.26444,706.62695
"4452",81.59548,706.64014
"4453",80.96071,706.6533
"4454",80.35767,706.6665
"4455",79.80347,706.6797
"4456",79.310295,706.6929
"4457",78.91722,706.70605
"4458",78.65354,706.71924
"4459",78.538795,706.7324
"4460",78.56321,706.7456
"4461",78.69016,706.7588
"4462",78.86595,706.772
"4463",79.029526,706.78516
"4464",79.13939,706.79834
"4465",79.17845,706.8115
"4466",79.13939,706.8247
"4467",79.03197,706.8379
"4468",78.873276,706.8511
"4469",78.67063,706.86426
"4470",78.44114,706.87744
"4471",78.19943,706.8906
"4472",77.960175,706.9038
"4473",77.730675,706.917
"4474",77.51827,706.9302
"4475",77.37179,706.94336
"4476",77.38888,706.95654
"4477",77.696495,706.9697
"4478",78.38499,706.9829
"4479",79.43725,706.9961
"4480",80.743416,707.0093
"4481",82.09842,707.02246
"4482",83.28008,707.03564
"4483",84.119934,707.0488
"4484",84.56428,707.062
"4485",84.644844,707.0752
"4486",84.437325,707.0884
"4487",84.02228,707.10156
"4488",83.47784,707.11475
"4489",82.862595,707.1279
"4490",82.213165,707.1411
"4491",81.549095,707.1543
"4492",80.88258,707.1675
"4493",80.23071,707.18066
"4494",79.622795,707.19385
"4495",79.09056,707.20703
"4496",78.675514,707.2202
"4497",78.41428,707.2334
"4498",78.32151,707.2466
"4499",78.38743,707.25977
"4500",78.56321,707.27295
"4501",78.78294,707.28613
"4502",78.992905,707.2993
"4503",79.14427,707.3125
"4504",79.21263,707.3257
"4505",79.1931,707.33887
"4506",79.10521,707.35205
"4507",78.96117,707.36523
"4508",78.77806,707.3784
"4509",78.572975,707.3916
"4510",78.35813,707.4048
"4511",78.14328,707.41797
"4512",77.93576,707.43115
"4513",77.738,707.44434
"4514",77.576866,707.4575
"4515",77.54269,707.4707
"4516",77.769745,707.4839
"4517",78.3679,707.4971
"4518",79.35424,707.51025
"4519",80.64576,707.52344
"4520",82.05203,707.5366
"4521",83.33868,707.5498
"4522",84.30549,707.563
"4523",84.86214,707.5762
"4524",85.02815,707.58936
"4525",84.874344,707.60254
"4526",84.49348,707.6157
"4527",83.97345,707.6289
"4528",83.38018,707.6421
"4529",82.75517,707.6553
"4530",82.11307,707.66846
"4531",81.46609,707.68164
"4532",80.816666,707.6948
"4533",80.16968,707.708
"4534",79.55932,707.7212
"4535",79.029526,707.7344
"4536",78.62913,707.74756
"4537",78.40452,707.76074
"4538",78.35569,707.7739
"4539",78.45823,707.7871
"4540",78.6511,707.8003
"4541",78.85863,707.8135
"4542",79.0222,707.82666
"4543",79.10521,707.83984
"4544",79.10033,707.853
"4545",79.01732,707.8662
"4546",78.87816,707.8794
"4547",78.69749,707.8926
"4548",78.49485,707.90576
"4549",78.27512,707.91895
"4550",78.04318,707.9321
"4551",77.80881,707.9453
"4552",77.576866,707.9585
"4553",77.35958,707.9717
"4554",77.21553,707.98486
"4555",77.264366,707.99805
"4556",77.64767,708.0112
"4557",78.44602,708.0244
"4558",79.62768,708.0376
"4559",81.0486,708.0508
"4560",82.48905,708.06396
"4561",83.700005,708.07715
"4562",84.52033,708.09033
"4563",84.910965,708.1035
"4564",84.92561,708.1167
"4565",84.65705,708.1299
"4566",84.19806,708.14307
"4567",83.63409,708.15625
"4568",83.0164,708.16943
"4569",82.38163,708.1826
"4570",81.73464,708.1958
"4571",81.08034,708.209
"4572",80.41871,708.22217
"4573",79.766846,708.23535
"4574",79.15404,708.24854
"4575",78.624245,708.2617
"4576",78.23117,708.2749
"4577",78.00168,708.2881
