"","ppg","time"
"1",80.499275,428.34766
"2",80.08179,428.36084
"3",79.622795,428.37402
"4",79.15892,428.3872
"5",78.70725,428.4004
"6",78.27512,428.41357
"7",77.872284,428.42676
"8",77.49142,428.43994
"9",77.134964,428.45312
"10",76.80293,428.4663
"11",76.50263,428.4795
"12",76.243835,428.49268
"13",76.036316,428.50586
"14",75.88739,428.51904
"15",75.80194,428.53223
"16",75.77997,428.5454
"17",75.82147,428.5586
"18",75.92157,428.57178
"19",76.068054,428.58496
"20",76.243835,428.59814
"21",76.42695,428.61133
"22",76.592964,428.6245
"23",76.76631,428.6377
"24",77.03975,428.65088
"25",77.5671,428.66406
"26",78.47532,428.67725
"27",79.801025,428.69043
"28",81.446556,428.7036
"29",83.20195,428.7168
"30",84.80354,428.72998
"31",86.03647,428.74316
"32",86.800644,428.75635
"33",87.10582,428.76953
"34",87.027695,428.7827
"35",86.64683,428.7959
"36",86.03647,428.80908
"37",85.26009,428.82227
"38",84.36652,428.83545
"39",83.407036,428.84863
"40",82.41581,428.86182
"41",81.43435,428.875
"42",80.49439,428.88818
"43",79.62524,428.90137
"44",78.87572,428.91455
"45",78.30686,428.92773
"46",77.99924,428.94092
"47",77.99924,428.9541
"48",78.30686,428.9673
"49",78.8513,428.98047
"50",79.50805,428.99365
"51",80.13306,429.00684
"52",80.61158,429.02002
"53",80.86549,429.0332
"54",80.88991,429.0464
"55",80.726326,429.05957
"56",80.42359,429.07275
"57",80.03296,429.08594
"58",79.605705,429.09912
"59",79.168686,429.1123
"60",78.73655,429.1255
"61",78.31663,429.13867
"62",77.91379,429.15186
"63",77.5378,429.16504
"64",77.18623,429.17822
"65",76.86397,429.1914
"66",76.578316,429.2046
"67",76.32441,429.21777
"68",76.11688,429.23096
"69",75.965515,429.24414
"70",75.88495,429.25732
"71",75.877625,429.2705
"72",75.9411,429.2837
"73",76.05829,429.29688
"74",76.20477,429.31006
"75",76.35859,429.32324
"76",76.5539,429.33643
"77",76.90303,429.3496
"78",77.557335,429.3628
"79",78.626686,429.37598
"80",80.111084,429.38916
"81",81.88602,429.40234
"82",83.717094,429.41553
"83",85.33578,429.4287
"84",86.54185,429.4419
"85",87.25231,429.45508
"86",87.49401,429.46826
"87",87.34264,429.48145
"88",86.88609,429.49463
"89",86.20737,429.5078
"90",85.3724,429.521
"91",84.42756,429.53418
"92",83.40948,429.54736
"93",82.357216,429.56055
"94",81.29275,429.57373
"95",80.25025,429.5869
"96",79.273674,429.6001
"97",78.40696,429.61328
"98",77.71603,429.62646
"99",77.296104,429.63965
"100",77.21309,429.65283
"101",77.49386,429.66602
"102",78.082245,429.6792
"103",78.853745,429.69238
"104",79.63744,429.70557
"105",80.28199,429.71875
"106",80.68238,429.73193
"107",80.82155,429.74512
"108",80.73121,429.7583
"109",80.46998,429.77148
"110",80.096436,429.78467
"111",79.65942,429.79785
"112",79.202866,429.81104
"113",78.74143,429.82422
"114",78.2971,429.8374
"115",77.874725,429.8506
"116",77.47921,429.86377
"117",77.10567,429.87695
"118",76.754105,429.89014
"119",76.42939,429.90332
"120",76.14618,429.9165
"121",75.91669,429.9297
"122",75.757996,429.94287
"123",75.67254,429.95605
"124",75.63836,429.96924
"125",75.650566,429.98242
"126",75.73113,429.9956
"127",75.98993,430.0088
"128",76.592964,430.02197
"129",77.679405,430.03516
"130",79.24681,430.04834
"131",81.15358,430.06152
"132",83.160446,430.0747
"133",84.964676,430.0879
"134",86.33921,430.10107
"135",87.183945,430.11426
"136",87.52575,430.12744
"137",87.43542,430.14062
"138",86.99596,430.1538
"139",86.28794,430.167
"140",85.38705,430.18018
"141",84.351875,430.19336
"142",83.228806,430.20654
"143",82.06424,430.21973
"144",80.88258,430.2329
"145",79.71801,430.2461
"146",78.607155,430.25928
"147",77.60372,430.27246
"148",76.773636,430.28564
"149",76.21698,430.29883
"150",76.016785,430.312
"151",76.23895,430.3252
"152",76.86153,430.33838
"153",77.77707,430.35156
"154",78.8098,430.36475
"155",79.76929,430.37793
"156",80.49439,430.3911
"157",80.89479,430.4043
"158",80.96559,430.41748
"159",80.77028,430.43066
"160",80.39185,430.44385
"161",79.91821,430.45703
"162",79.42504,430.4702
"163",78.96605,430.4834
"164",78.57786,430.49658
"165",78.26292,430.50977
"166",78.009,430.52295
"167",77.7966,430.53613
"168",77.611046,430.54932
"169",77.43038,430.5625
"170",77.24727,430.57568
"171",77.05684,430.58887
"172",76.86641,430.60205
"173",76.6833,430.61523
"174",76.5539,430.62842
"175",76.59785,430.6416
"176",77.01045,430.6548
"177",77.9675,430.66797
"178",79.49096,430.68115
"179",81.446556,430.69434
"180",83.560844,430.70752
"181",85.49935,430.7207
"182",86.97398,430.7339
"183",87.84558,430.74707
"184",88.14343,430.76025
"185",87.974976,430.77344
"186",87.45495,430.78662
"187",86.6981,430.7998
"188",85.79721,430.813
"189",84.81331,430.82617
"190",83.78058,430.83936
"191",82.70634,430.85254
"192",81.59792,430.86572
"193",80.46754,430.8789
"194",79.3518,430.8921
"195",78.311745,430.90527
"196",77.437706,430.91846
"197",76.83223,430.93164
"198",76.59052,430.94482
"199",76.7834,430.958
"200",77.383995,430.9712
"201",78.28489,430.98438
"202",79.30785,430.99756
"203",80.2649,431.01074
"204",81.00221,431.02393
"205",81.43679,431.0371
"206",81.57351,431.0503
"207",81.46853,431.06348
"208",81.19508,431.07666
"209",80.82643,431.08984
"210",80.413826,431.10303
"211",79.9939,431.1162
"212",79.57885,431.1294
"213",79.17601,431.14258
"214",78.79027,431.15576
"215",78.42405,431.16895
"216",78.082245,431.18213
"217",77.769745,431.1953
"218",77.47677,431.2085
"219",77.20332,431.22168
"220",76.946976,431.23486
"221",76.788284,431.24805
"222",76.910355,431.26123
"223",77.53048,431.2744
"224",78.77074,431.2876
"225",80.56519,431.30078
"226",82.684364,431.31396
"227",84.79622,431.32715
"228",86.55894,431.34033
"229",87.75769,431.35352
"230",88.36561,431.3667
"231",88.47791,431.37988
"232",88.216675,431.39307
"233",87.691765,431.40625
"234",86.98375,431.41943
"235",86.153656,431.43262
"236",85.23079,431.4458
"237",84.23712,431.45898
"238",83.17998,431.47217
"239",82.07156,431.48535
"240",80.9485,431.49854
"241",79.85474,431.51172
"242",78.86839,431.5249
"243",78.08713,431.5381
"244",77.61593,431.55127
"245",77.54513,431.56445
"246",77.8967,431.57764
"247",78.60471,431.59082
"248",79.517815,431.604
"249",80.445564,431.6172
"250",81.21706,431.63037
"251",81.722435,431.64355
"252",81.92752,431.65674
"253",81.864044,431.66992
"254",81.59548,431.6831
"255",81.18532,431.6963
"256",80.68238,431.70947
"257",80.128174,431.72266
"258",79.554436,431.73584
"259",79.00023,431.74902
"260",78.485085,431.7622
"261",78.02365,431.7754
"262",77.62325,431.78857
"263",77.28878,431.80176
"264",77.00069,431.81494
"265",76.74189,431.82812
"266",76.52949,431.8413
"267",76.46357,431.8545
"268",76.75899,431.86768
"269",77.63058,431.88086
"270",79.14427,431.89404
"271",81.180435,431.90723
"272",83.44854,431.9204
"273",85.575035,431.9336
"274",87.220566,431.94678
"275",88.216675,431.95996
"276",88.59022,431.97314
"277",88.46815,431.98633
"278",87.9823,431.9995
"279",87.235214,432.0127
"280",86.3148,432.02588
"281",85.28695,432.03906
"282",84.207825,432.05225
"283",83.10918,432.06543
"284",82.01297,432.0786
"285",80.93141,432.0918
"286",79.88159,432.10498
"287",78.89281,432.11816
"288",78.02609,432.13135
"289",77.347374,432.14453
"290",76.93721,432.1577
"291",76.86153,432.1709
"292",77.13008,432.18408
"293",77.68917,432.19727
"294",78.42405,432.21045
"295",79.1931,432.22363
"296",79.8645,432.23682
"297",80.3357,432.25
"298",80.55787,432.26318
"299",80.552986,432.27637
"300",80.36988,432.28955
"301",80.062256,432.30273
"302",79.68627,432.31592
"303",79.26879,432.3291
"304",78.82201,432.3423
"305",78.348366,432.35547
"306",77.84299,432.36865
"307",77.31808,432.38184
"308",76.790726,432.39502
"309",76.28779,432.4082
"310",75.83368,432.4214
"311",75.45281,432.43457
"312",75.22575,432.44775
"313",75.338066,432.46094
"314",75.99725,432.47412
"315",77.30099,432.4873
"316",79.185776,432.5005
"317",81.43191,432.51367
"318",83.69512,432.52686
"319",85.61898,432.54004
"320",86.97887,432.55322
"321",87.73571,432.5664
"322",87.94568,432.5796
"323",87.70397,432.59277
"324",87.10338,432.60596
"325",86.25376,432.61914
"326",85.24788,432.63232
"327",84.17609,432.6455
"328",83.10185,432.6587
"329",82.06424,432.67188
"330",81.058365,432.68506
"331",80.08179,432.69824
"332",79.14671,432.71143
"333",78.2971,432.7246
"334",77.62081,432.7378
"335",77.21553,432.75098
"336",77.137405,432.76416
"337",77.37667,432.77734
"338",77.8674,432.79053
"339",78.4802,432.8037
"340",79.07347,432.8169
"341",79.54223,432.83008
"342",79.83032,432.84326
"343",79.92798,432.85645
"344",79.85474,432.86963
"345",79.63744,432.8828
"346",79.30053,432.896
"347",78.87816,432.90918
"348",78.399635,432.92236
"349",77.89914,432.93555
"350",77.38888,432.94873
"351",76.89082,432.9619
"352",76.402534,432.9751
"353",75.928894,432.98828
"354",75.47967,433.00146
"355",75.07439,433.01465
"356",74.74479,433.02783
"357",74.59098,433.04102
"358",74.79607,433.0542
"359",75.545586,433.06738
"360",76.91524,433.08057
"361",78.83421,433.09375
"362",81.06813,433.10693
"363",83.2752,433.12012
"364",85.10628,433.1333
"365",86.35142,433.14648
"366",86.97887,433.15967
"367",87.05699,433.17285
"368",86.70054,433.18604
"369",86.04379,433.19922
"370",85.20149,433.2124
"371",84.266426,433.2256
"372",83.30694,433.23877
"373",82.36454,433.25195
"374",81.446556,433.26514
"375",80.55543,433.27832
"376",79.68139,433.2915
"377",78.836655,433.3047
"378",78.07492,433.31787
"379",77.47921,433.33105
"380",77.14229,433.34424
"381",77.0959,433.35742
"382",77.32296,433.3706
"383",77.747765,433.3838
"384",78.260475,433.39697
"385",78.75365,433.41016
"386",79.14427,433.42334
"387",79.38842,433.43652
"388",79.47875,433.4497
"389",79.412834,433.4629
"390",79.20775,433.47607
"391",78.890366,433.48926
"392",78.49973,433.50244
"393",78.065155,433.51562
"394",77.61593,433.5288
"395",77.1667,433.542
"396",76.73701,433.55518
"397",76.32441,433.56836
"398",75.914246,433.58154
"399",75.511406,433.59473
"400",75.14519,433.6079
"401",74.85222,433.6211
"402",74.683754,433.63428
"403",74.78142,433.64746
"404",75.32342,433.66064
"405",76.42939,433.67383
"406",78.09689,433.687
"407",80.201416,433.7002
"408",82.49149,433.71338
"409",84.60578,433.72656
"410",86.23178,433.73975
"411",87.2108,433.75293
"412",87.555046,433.7661
"413",87.36706,433.7793
"414",86.79088,433.79248
"415",85.97299,433.80566
"416",85.033035,433.81885
"417",84.04425,433.83203
"418",83.035934,433.8452
"419",82.04471,433.8584
"420",81.08034,433.87158
"421",80.147705,433.88477
"422",79.26147,433.89795
"423",78.46555,433.91113
"424",77.8259,433.92432
"425",77.44747,433.9375
"426",77.36446,433.95068
"427",77.55245,433.96387
"428",77.94064,433.97705
"429",78.44114,433.99023
"430",78.93431,434.00342
"431",79.33471,434.0166
"432",79.5935,434.0298
"433",79.70092,434.04297
"434",79.639885,434.05615
"435",79.432365,434.06934
"436",79.10765,434.08252
"437",78.71458,434.0957
"438",78.28489,434.1089
"439",77.84787,434.12207
"440",77.418175,434.13525
"441",77.00801,434.14844
"442",76.6247,434.16162
"443",76.263374,434.1748
"444",75.914246,434.188
"445",75.577324,434.20117
"446",75.27947,434.21436
"447",75.0695,434.22754
"448",75.05974,434.24072
"449",75.4284,434.2539
"450",76.334175,434.2671
"451",77.8259,434.28027
"452",79.801025,434.29346
"453",82.03006,434.30664
"454",84.20538,434.31982
"455",86.012054,434.333
"456",87.25475,434.3462
"457",87.88953,434.35938
"458",87.96765,434.37256
"459",87.58434,434.38574
"460",86.85924,434.39893
"461",85.90463,434.4121
"462",84.81575,434.4253
"463",83.67559,434.43848
"464",82.53544,434.45166
"465",81.43191,434.46484
"466",80.38209,434.47803
"467",79.40063,434.4912
"468",78.52415,434.5044
"469",77.821014,434.51758
"470",77.37423,434.53076
"471",77.24727,434.54395
"472",77.452354,434.55713
"473",77.93576,434.5703
"474",78.56809,434.5835
"475",79.20531,434.59668
"476",79.71313,434.60986
"477",80.02075,434.62305
"478",80.111084,434.63623
"479",80.02075,434.6494
"480",79.76929,434.6626
"481",79.37621,434.67578
"482",78.87572,434.68896
"483",78.30686,434.70215
"484",77.70382,434.71533
"485",77.09102,434.72852
"486",76.51484,434.7417
"487",76.00214,434.75488
"488",75.54803,434.76807
"489",75.157394,434.78125
"490",74.85222,434.79443
"491",74.649574,434.80762
"492",74.59586,434.8208
"493",74.8156,434.83398
"494",75.457695,434.84717
"495",76.63691,434.86035
"496",78.34104,434.87354
"497",80.42603,434.88672
"498",82.63554,434.8999
"499",84.65217,434.9131
"500",86.219574,434.92627
"501",87.2108,434.93945
"502",87.62585,434.95264
"503",87.53796,434.96582
"504",87.04234,434.979
"505",86.239105,434.9922
"506",85.240555,435.00537
"507",84.15411,435.01855
"508",83.05791,435.03174
"509",82.01297,435.04492
"510",81.03883,435.0581
"511",80.147705,435.0713
"512",79.33471,435.08447
"513",78.63401,435.09766
"514",78.116425,435.11084
"515",77.857635,435.12402
"516",77.89426,435.1372
"517",78.19943,435.1504
"518",78.68284,435.16357
"519",79.219955,435.17676
"520",79.69604,435.18994
"521",80.028076,435.20312
"522",80.16968,435.2163
"523",80.11597,435.2295
"524",79.88159,435.24268
"525",79.49096,435.25586
"526",78.98558,435.26904
"527",78.40208,435.28223
"528",77.78195,435.2954
"529",77.16182,435.3086
"530",76.57099,435.32178
"531",76.02899,435.33496
"532",75.562675,435.34814
"533",75.19646,435.36133
"534",74.93523,435.3745
"535",74.77165,435.3877
"536",74.69108,435.40088
"537",74.72526,435.41406
"538",74.984055,435.42725
"539",75.62615,435.44043
"540",76.77608,435.4536
"541",78.433815,435.4668
"542",80.46021,435.47998
"543",82.58915,435.49316
"544",84.49836,435.50635
"545",85.92905,435.51953
"546",86.766464,435.5327
"547",87.027695,435.5459
"548",86.800644,435.55908
"549",86.20004,435.57227
"550",85.34554,435.58545
"551",84.34455,435.59863
"552",83.282524,435.61182
"553",82.20828,435.625
"554",81.15358,435.63818
"555",80.12573,435.65137
"556",79.11986,435.66455
"557",78.15549,435.67773
"558",77.28878,435.69092
"559",76.60761,435.7041
"560",76.20233,435.7173
"561",76.13397,435.73047
"562",76.383,435.74365
"563",76.86641,435.75684
"564",77.44259,435.77002
"565",77.9675,435.7832
"566",78.33372,435.7964
"567",78.48264,435.80957
"568",78.40208,435.82275
"569",78.12375,435.83594
"570",77.696495,435.84912
"571",77.16914,435.8623
"572",76.5832,435.8755
"573",75.9704,435.88867
"574",75.34783,435.90186
"575",74.72282,435.91504
"576",74.124664,435.92822
"577",73.58022,435.9414
"578",73.131,435.9546
"579",72.80629,435.96777
"580",72.61341,435.98096
"581",72.54261,435.99414
"582",72.57191,436.00732
"583",72.7013,436.0205
"584",73.01381,436.0337
"585",73.66567,436.04688
"586",74.82292,436.06006
"587",76.544136,436.07324
"588",78.73167,436.08643
"589",81.126724,436.0996
"590",83.389946,436.1128
"591",85.20393,436.12598
"592",86.37827,436.13916
"593",86.890976,436.15234
"594",86.84459,436.16553
"595",86.39048,436.1787
"596",85.67269,436.1919
"597",84.78401,436.20508
"598",83.792786,436.21826
"599",82.77226,436.23145
"600",81.77371,436.24463
"601",80.833755,436.2578
"602",79.954834,436.271
"603",79.1638,436.28418
"604",78.49729,436.29736
"605",78.00168,436.31055
"606",77.73556,436.32373
"607",77.75998,436.3369
"608",78.0798,436.3501
"609",78.59983,436.36328
"610",79.17845,436.37646
"611",79.68383,436.38965
"612",80.01831,436.40283
"613",80.13794,436.41602
"614",80.05249,436.4292
"615",79.783936,436.44238
"616",79.38354,436.45557
"617",78.92943,436.46875
"618",78.485085,436.48193
"619",78.082245,436.49512
"620",77.696495,436.5083
"621",77.32784,436.52148
"622",76.97627,436.53467
"623",76.646675,436.54785
"624",76.33906,436.56104
"625",76.07782,436.57422
"626",75.880066,436.5874
"627",75.71404,436.6006
"628",75.57,436.61377
"629",75.51385,436.62695
"630",75.73113,436.64014
"631",76.439156,436.65332
"632",77.7551,436.6665
"633",79.65453,436.6797
"634",81.97391,436.69287
"635",84.40559,436.70605
"636",86.57603,436.71924
"637",88.1947,436.73242
"638",89.144424,436.7456
"639",89.44228,436.7588
"640",89.15907,436.77197
"641",88.429085,436.78516
"642",87.411,436.79834
"643",86.2562,436.81152
"644",85.08186,436.8247
"645",83.95636,436.8379
"646",82.896774,436.85107
"647",81.87869,436.86426
"648",80.8777,436.87744
"649",79.906006,436.89062
"650",79.027084,436.9038
"651",78.35325,436.917
"652",77.994354,436.93018
"653",78.00412,436.94336
"654",78.348366,436.95654
"655",78.90257,436.96973
"656",79.51049,436.9829
"657",80.01343,436.9961
"658",80.29908,437.00928
"659",80.343025,437.02246
"660",80.198975,437.03564
"661",79.92798,437.04883
"662",79.57885,437.062
"663",79.17357,437.0752
"664",78.71458,437.08838
"665",78.20187,437.10156
"666",77.6379,437.11475
"667",77.05684,437.12793
"668",76.507515,437.1411
"669",76.01434,437.1543
"670",75.58953,437.16748
"671",75.23796,437.18066
"672",74.98161,437.19385
"673",74.93767,437.20703
"674",75.30633,437.2202
"675",76.27558,437.2334
"676",77.89914,437.24658
"677",80.0647,437.25977
"678",82.51591,437.27295
"679",84.87923,437.28613
"680",86.82262,437.29932
"681",88.148315,437.3125
"682",88.82216,437.32568
"683",88.90028,437.33887
"684",88.480354,437.35205
"685",87.67712,437.36523
"686",86.63462,437.37842
"687",85.50179,437.3916
"688",84.39094,437.4048
"689",83.353325,437.41797
"690",82.408485,437.43115
"691",81.55642,437.44434
"692",80.765396,437.45752
"693",80.02319,437.4707
"694",79.37621,437.4839
"695",78.91478,437.49707
"696",78.68772,437.51025
"697",78.71458,437.52344
"698",78.96849,437.53662
"699",79.364006,437.5498
"700",79.764404,437.563
"701",80.05737,437.57617
"702",80.17456,437.58936
"703",80.09888,437.60254
"704",79.85718,437.61572
"705",79.48608,437.6289
"706",79.0515,437.6421
"707",78.607155,437.65527
"708",78.18234,437.66846
"709",77.7673,437.68164
"710",77.349815,437.69482
"711",76.91524,437.708
"712",76.44892,437.7212
"713",75.98993,437.73438
"714",75.5993,437.74756
"715",75.36492,437.76074
"716",75.37957,437.77393
"717",75.77997,437.7871
"718",76.6955,437.8003
"719",78.167694,437.81348
"720",80.10864,437.82666
"721",82.31083,437.83984
"722",84.488594,437.85303
"723",86.327,437.8662
"724",87.6112,437.8794
"725",88.26795,437.89258
"726",88.33387,437.90576
"727",87.90906,437.91895
"728",87.11803,437.93213
"729",86.10727,437.9453
"730",85.033035,437.9585
"731",84.01251,437.97168
"732",83.09697,437.98486
"733",82.29374,437.99805
"734",81.58816,438.01123
"735",80.92897,438.0244
"736",80.27955,438.0376
"737",79.67162,438.05078
"738",79.18822,438.06396
"739",78.89281,438.07715
"740",78.81224,438.09033
"741",78.93919,438.10352
"742",79.20531,438.1167
"743",79.49096,438.12988
"744",79.691154,438.14307
"745",79.744865,438.15625
"746",79.62768,438.16943
"747",79.36645,438.18262
"748",79.03685,438.1958
"749",78.70481,438.20898
"750",78.39231,438.22217
"751",78.09445,438.23535
"752",77.79172,438.24854
"753",77.471886,438.26172
"754",77.12276,438.2749
"755",76.76143,438.2881
"756",76.41474,438.30127
"757",76.09979,438.31445
"758",75.82391,438.32764
"759",75.667656,438.34082
"760",75.80682,438.354
"761",76.44892,438.3672
"762",77.72335,438.38037
"763",79.605705,438.39355
"764",81.87869,438.40674
"765",84.20294,438.41992
"766",86.22446,438.4331
"767",87.68444,438.4463
"768",88.480354,438.45947
"769",88.64393,438.47266
"770",88.27039,438.48584
"771",87.481804,438.49902
"772",86.42222,438.5122
"773",85.23323,438.5254
"774",84.03693,438.53857
"775",82.913864,438.55176
"776",81.898224,438.56494
"777",80.98268,438.57812
"778",80.14282,438.5913
"779",79.38842,438.6045
"780",78.746315,438.61768
"781",78.277565,438.63086
"782",78.03342,438.64404
"783",78.02365,438.65723
"784",78.19699,438.6704
"785",78.46311,438.6836
"786",78.71458,438.69678
"787",78.85863,438.70996
"788",78.8513,438.72314
"789",78.70481,438.73633
"790",78.487526,438.7495
"791",78.24582,438.7627
"792",77.994354,438.77588
"793",77.72091,438.78906
"794",77.41329,438.80225
"795",77.04219,438.81543
"796",76.612495,438.8286
"797",76.16083,438.8418
"798",75.7409,438.85498
"799",75.37713,438.86816
"800",75.07927,438.88135
"801",74.87419,438.89453
"802",74.84978,438.9077
"803",75.159836,438.9209
"804",75.95087,438.93408
"805",77.28634,438.94727
"806",79.097885,438.96045
"807",81.18288,438.97363
"808",83.243454,438.98682
"809",84.98909,439
"810",86.22446,439.01318
"811",86.88365,439.02637
"812",86.99596,439.03955
"813",86.63706,439.05273
"814",85.92172,439.06592
"815",84.964676,439.0791
"816",83.89044,439.0923
"817",82.811325,439.10547
"818",81.83963,439.11865
"819",81.04616,439.13184
"820",80.428474,439.14502
"821",79.94751,439.1582
"822",79.55688,439.1714
"823",79.237045,439.18457
"824",78.99779,439.19775
"825",78.86351,439.21094
"826",78.86351,439.22412
"827",78.995346,439.2373
"828",79.18822,439.2505
"829",79.34692,439.26367
"830",79.40063,439.27686
"831",79.30297,439.29004
"832",79.05394,439.30322
"833",78.67307,439.3164
"834",78.19943,439.3296
"835",77.679405,439.34277
"836",77.15938,439.35596
"837",76.66865,439.36914
"838",76.22919,439.38232
"839",75.85321,439.3955
"840",75.543144,439.4087
"841",75.29656,439.42188
"842",75.11833,439.43506
"843",75.00603,439.44824
"844",74.95232,439.46143
"845",74.94499,439.4746
"846",75.001144,439.4878
"847",75.21843,439.50098
"848",75.74578,439.51416
"849",76.72724,439.52734
"850",78.20676,439.54053
"851",80.10376,439.5537
"852",82.19852,439.5669
"853",84.19806,439.58008
"854",85.82895,439.59326
"855",86.939804,439.60645
"856",87.48913,439.61963
"857",87.52087,439.6328
"858",87.12535,439.646
"859",86.414894,439.65918
"860",85.50179,439.67236
"861",84.491035,439.68555
"862",83.475395,439.69873
"863",82.50126,439.7119
"864",81.58816,439.7251
"865",80.740974,439.73828
"866",79.95972,439.75146
"867",79.26635,439.76465
"868",78.70237,439.77783
"869",78.32395,439.79102
"870",78.15793,439.8042
"871",78.19699,439.81738
"872",78.39231,439.83057
"873",78.67063,439.84375
"874",78.94652,439.85693
"875",79.15648,439.87012
"876",79.27123,439.8833
"877",79.26635,439.89648
"878",79.14183,439.90967
"879",78.90013,439.92285
"880",78.55833,439.93604
"881",78.13107,439.94922
"882",77.64767,439.9624
"883",77.14229,439.9756
"884",76.65888,439.98877
"885",76.22186,440.00195
"886",75.86542,440.01514
"887",75.60662,440.02832
"888",75.45037,440.0415
"889",75.39178,440.0547
"890",75.421074,440.06787
"891",75.52117,440.08105
"892",75.65789,440.09424
"893",75.809265,440.10742
"894",75.9704,440.1206
"895",76.2121,440.1338
"896",76.66621,440.14697
"897",77.49386,440.16016
"898",78.77318,440.17334
"899",80.47486,440.18652
"900",82.4329,440.1997
"901",84.37873,440.2129
"902",86.03891,440.22607
"903",87.220566,440.23926
"904",87.850464,440.25244
"905",87.94568,440.26562
"906",87.59167,440.2788
"907",86.88365,440.292
"908",85.93881,440.30518
"909",84.88655,440.31836
"910",83.826965,440.33154
"911",82.83086,440.34473
"912",81.93729,440.3579
"913",81.1487,440.3711
"914",80.45533,440.38428
"915",79.8645,440.39746
"916",79.40795,440.41064
"917",79.132065,440.42383
"918",79.061264,440.437
"919",79.19066,440.4502
"920",79.45678,440.46338
"921",79.76929,440.47656
"922",80.03296,440.48975
"923",80.19409,440.50293
"924",80.22339,440.5161
"925",80.130615,440.5293
"926",79.94507,440.54248
"927",79.691154,440.55566
"928",79.3933,440.56885
"929",79.05394,440.58203
"930",78.67063,440.5952
"931",78.238495,440.6084
"932",77.76242,440.62158
"933",77.2546,440.63477
"934",76.75166,440.64795
"935",76.29511,440.66113
"936",75.914246,440.67432
"937",75.63592,440.6875
"938",75.46746,440.70068
"939",75.41131,440.71387
"940",75.46502,440.72705
"941",75.61639,440.74023
"942",75.83856,440.75342
"943",76.09735,440.7666
"944",76.3708,440.7798
"945",76.697945,440.79297
"946",77.20088,440.80615
"947",78.02609,440.81934
"948",79.273674,440.83252
"949",80.94606,440.8457
"950",82.913864,440.8589
"951",84.95979,440.87207
"952",86.84215,440.88525
"953",88.36317,440.89844
"954",89.42519,440.91162
"955",90.0087,440.9248
"956",90.13077,440.938
"957",89.86221,440.95117
"958",89.27871,440.96436
"959",88.47791,440.97754
"960",87.55749,440.99072
"961",86.60532,441.0039
"962",85.66537,441.0171
"963",84.76692,441.03027
"964",83.92218,441.04346
"965",83.14824,441.05664
"966",82.47929,441.06982
"967",81.96414,441.083
"968",81.64431,441.0962
"969",81.52468,441.10938
"970",81.57107,441.12256
"971",81.7029,441.13574
"972",81.82742,441.14893
"973",81.85916,441.1621
"974",81.75662,441.1753
"975",81.50027,441.18848
"976",81.10719,441.20166
"977",80.6067,441.21484
"978",80.03784,441.22803
"979",79.429924,441.2412
"980",78.81712,441.2544
"981",78.21652,441.26758
"982",77.645226,441.28076
"983",77.11055,441.29395
"984",76.62226,441.30713
"985",76.18768,441.3203
"986",75.81171,441.3335
"987",75.49676,441.34668
"988",75.250175,441.35986
"989",75.07683,441.37305
"990",74.969406,441.38623
"991",74.93034,441.3994
"992",74.95964,441.4126
"993",75.04265,441.42578
"994",75.15251,441.43896
"995",75.26238,441.45215
"996",75.34783,441.46533
"997",75.43328,441.47852
"998",75.62371,441.4917
"999",76.053406,441.50488
"1000",76.83467,441.51807
"1001",77.994354,441.53125
"1002",79.432365,441.54443
"1003",80.970474,441.55762
"1004",82.36698,441.5708
"1005",83.44366,441.58398
"1006",84.102844,441.59717
"1007",84.34699,441.61035
"1008",84.2298,441.62354
"1009",83.826965,441.63672
"1010",83.22148,441.6499
"1011",82.496376,441.6631
"1012",81.71267,441.67627
"1013",80.919205,441.68945
"1014",80.15259,441.70264
"1015",79.42016,441.71582
"1016",78.72434,441.729
"1017",78.07004,441.7422
"1018",77.45724,441.75537
"1019",76.91768,441.76855
"1020",76.48554,441.78174
"1021",76.192566,441.79492
"1022",76.03143,441.8081
"1023",75.945984,441.8213
"1024",75.85809,441.83447
"1025",75.69207,441.84766
"1026",75.3991,441.86084
"1027",74.97185,441.87402
"1028",74.424965,441.8872
"1029",73.77554,441.9004
"1030",73.043106,441.91357
"1031",72.256966,441.92676
"1032",71.47082,441.93994
"1033",70.748146,441.95312
"1034",70.152435,441.9663
"1035",69.71053,441.9795
"1036",69.417564,441.99268
"1037",69.23445,442.00586
"1038",69.13435,442.01904
"1039",69.09773,442.03223
"1040",69.12703,442.0454
"1041",69.222244,442.0586
"1042",69.37606,442.07178
"1043",69.58846,442.08496
"1044",69.85458,442.09814
"1045",70.16708,442.11133
"1046",70.50645,442.1245
"1047",70.853134,442.1377
"1048",71.21446,442.15088
"1049",71.63195,442.16406
"1050",72.19348,442.17725
"1051",73.03578,442.19043
"1052",74.25651,442.2036
"1053",75.85077,442.2168
"1054",77.713585,442.22998
"1055",79.65942,442.24316
"1056",81.47341,442.25635
"1057",82.98711,442.26953
"1058",84.119934,442.2827
"1059",84.86214,442.2959
"1060",85.26498,442.30908
"1061",85.39193,442.32227
"1062",85.32357,442.33545
"1063",85.12581,442.34863
"1064",84.86458,442.36182
"1065",84.56916,442.375
"1066",84.26887,442.38818
"1067",83.97589,442.40137
"1068",83.719536,442.41455
"1069",83.526665,442.42773
"1070",83.458305,442.44092
"1071",83.563286,442.4541
"1072",83.878235,442.4673
"1073",84.403145,442.48047
"1074",85.101395,442.49365
"1075",85.89487,442.50684
"1076",86.678566,442.52002
"1077",87.36706,442.5332
"1078",87.8822,442.5464
"1079",88.18005,442.55957
"1080",88.23865,442.57275
"1081",88.060425,442.58594
"1082",87.674675,442.59912
"1083",87.12047,442.6123
"1084",86.44663,442.6255
"1085",85.714195,442.63867
"1086",84.98421,442.65186
"1087",84.2884,442.66504
"1088",83.64629,442.67822
"1089",83.06523,442.6914
"1090",82.53544,442.7046
"1091",82.054474,442.71777
"1092",81.61257,442.73096
"1093",81.19997,442.74414
"1094",80.81911,442.75732
"1095",80.465096,442.7705
"1096",80.147705,442.7837
"1097",79.87671,442.79688
"1098",79.66186,442.81006
"1099",79.4934,442.82324
"1100",79.3518,442.83643
"1101",79.234604,442.8496
"1102",79.200424,442.8628
"1103",79.361565,442.87598
"1104",79.83765,442.88916
"1105",80.689705,442.90234
"1106",81.87625,442.91553
"1107",83.245895,442.9287
"1108",84.576485,442.9419
"1109",85.65804,442.95508
"1110",86.37095,442.96826
"1111",86.68345,442.98145
"1112",86.641945,442.99463
"1113",86.32212,443.0078
"1114",85.79721,443.021
"1115",85.13313,443.03418
"1116",84.37629,443.04736
"1117",83.56817,443.06055
"1118",82.735634,443.07373
"1119",81.91531,443.0869
"1120",81.13893,443.1001
"1121",80.44068,443.11328
"1122",79.86694,443.12646
"1123",79.4641,443.13965
"1124",79.276115,443.15283
"1125",79.32006,443.16602
"1126",79.57885,443.1792
"1127",79.98901,443.19238
"1128",80.46021,443.20557
"1129",80.88991,443.21875
"1130",81.18532,443.23193
"1131",81.29519,443.24512
"1132",81.20485,443.2583
"1133",80.9485,443.27148
"1134",80.567635,443.28467
"1135",80.11841,443.29785
"1136",79.64721,443.31104
"1137",79.1931,443.32422
"1138",78.765854,443.3374
"1139",78.37278,443.3506
"1140",78.009,443.36377
"1141",77.67696,443.37695
"1142",77.37667,443.39014
"1143",77.10811,443.40332
"1144",76.88106,443.4165
"1145",76.700386,443.4297
"1146",76.56855,443.44287
"1147",76.48066,443.45605
"1148",76.4416,443.46924
"1149",76.44648,443.48242
"1150",76.490425,443.4956
"1151",76.56367,443.5088
"1152",76.65156,443.52197
"1153",76.754105,443.53516
"1154",76.91768,443.54834
"1155",77.239944,443.56152
"1156",77.840546,443.5747
"1157",78.78783,443.5879
"1158",80.07202,443.60107
"1159",81.56863,443.61426
"1160",83.07744,443.62744
"1161",84.38361,443.64062
"1162",85.333336,443.6538
"1163",85.86069,443.667
"1164",85.980316,443.68018
"1165",85.750824,443.69336
"1166",85.25277,443.70654
"1167",84.56184,443.71973
"1168",83.74883,443.7329
"1169",82.8748,443.7461
"1170",81.98123,443.75928
"1171",81.10719,443.77246
"1172",80.27711,443.78564
"1173",79.51537,443.79883
"1174",78.86351,443.812
"1175",78.37522,443.8252
"1176",78.11398,443.83838
"1177",78.135956,443.85156
"1178",78.45823,443.86475
"1179",79.03929,443.87793
"1180",79.77905,443.8911
"1181",80.54322,443.9043
"1182",81.19264,443.91748
"1183",81.62478,443.93066
"1184",81.79324,443.94385
"1185",81.70779,443.95703
"1186",81.42458,443.9702
"1187",81.01442,443.9834
"1188",80.54322,443.99658
"1189",80.06958,444.00977
"1190",79.622795,444.02295
"1191",79.21263,444.03613
"1192",78.836655,444.04932
"1193",78.48997,444.0625
"1194",78.15793,444.07568
"1195",77.840546,444.08887
"1196",77.540245,444.10205
"1197",77.27657,444.11523
"1198",77.05684,444.12842
"1199",76.89815,444.1416
"1200",76.8127,444.1548
"1201",76.790726,444.16797
"1202",76.80049,444.18115
"1203",76.822464,444.19434
"1204",76.84444,444.20752
"1205",76.92256,444.2207
"1206",77.16914,444.2339
"1207",77.72579,444.24707
"1208",78.66575,444.26025
"1209",79.9646,444.27344
"1210",81.49294,444.28662
"1211",83.03349,444.2998
"1212",84.35676,444.313
"1213",85.30648,444.32617
"1214",85.81674,444.33936
"1215",85.90219,444.35254
"1216",85.62386,444.36572
"1217",85.067215,444.3789
"1218",84.31281,444.3921
"1219",83.421684,444.40527
"1220",82.44999,444.41846
"1221",81.427025,444.43164
"1222",80.39185,444.44482
"1223",79.38354,444.458
"1224",78.44602,444.4712
"1225",77.62081,444.48438
"1226",76.95674,444.49756
"1227",76.51728,444.51074
"1228",76.35615,444.52393
"1229",76.50019,444.5371
"1230",76.929886,444.5503
"1231",77.55489,444.56348
"1232",78.25315,444.57666
"1233",78.88548,444.58984
"1234",79.34936,444.60303
"1235",79.5935,444.6162
"1236",79.62035,444.6294
"1237",79.46899,444.64258
"1238",79.19798,444.65576
"1239",78.86595,444.66895
"1240",78.52659,444.68213
"1241",78.21164,444.6953
"1242",77.93576,444.7085
"1243",77.68917,444.72168
"1244",77.45724,444.73486
"1245",77.225296,444.74805
"1246",76.98604,444.76123
"1247",76.749214,444.7744
"1248",76.524605,444.7876
"1249",76.334175,444.80078
"1250",76.1828,444.81396
"1251",76.070496,444.82715
"1252",75.982605,444.84033
"1253",75.92401,444.85352
"1254",75.97528,444.8667
"1255",76.28535,444.87988
"1256",76.99092,444.89307
"1257",78.14328,444.90625
"1258",79.67895,444.91943
"1259",81.41238,444.93262
"1260",83.089645,444.9458
"1261",84.46418,444.95898
"1262",85.40902,444.97217
"1263",85.889984,444.98535
"1264",85.93637,444.99854
"1265",85.61654,445.01172
"1266",85.013504,445.0249
"1267",84.2005,445.0381
"1268",83.25811,445.05127
"1269",82.23514,445.06445
"1270",81.16579,445.07764
"1271",80.08667,445.09082
"1272",79.029526,445.104
"1273",78.028534,445.1172
"1274",77.1252,445.13037
"1275",76.37812,445.14355
"1276",75.84589,445.15674
"1277",75.59441,445.16992
"1278",75.66033,445.1831
"1279",76.019226,445.1963
"1280",76.60273,445.20947
"1281",77.29366,445.22266
"1282",77.95041,445.23584
"1283",78.467995,445.24902
"1284",78.785385,445.2622
"1285",78.89525,445.2754
"1286",78.82201,445.28857
"1287",78.6096,445.30176
"1288",78.3093,445.31494
"1289",77.96994,445.32812
"1290",77.63546,445.3413
"1291",77.332726,445.3545
"1292",77.07637,445.36768
"1293",76.86397,445.38086
"1294",76.697945,445.39404
"1295",76.575874,445.40723
"1296",76.49531,445.4204
"1297",76.46601,445.4336
"1298",76.4831,445.44678
"1299",76.53925,445.45996
"1300",76.64912,445.47314
"1301",76.88106,445.48633
"1302",77.366905,445.4995
"1303",78.23605,445.5127
"1304",79.52514,445.52588
"1305",81.13893,445.53906
"1306",82.879684,445.55225
"1307",84.49592,445.56543
"1308",85.76303,445.5786
"1309",86.5687,445.5918
"1310",86.922714,445.60498
"1311",86.89586,445.61816
"1312",86.58091,445.63135
"1313",86.05844,445.64453
"1314",85.39437,445.6577
"1315",84.63996,445.6709
"1316",83.826965,445.68408
"1317",82.97002,445.69727
"1318",82.08377,445.71045
"1319",81.180435,445.72363
"1320",80.2942,445.73682
"1321",79.47143,445.75
"1322",78.785385,445.76318
"1323",78.311745,445.77637
"1324",78.12375,445.78955
"1325",78.25315,445.80273
"1326",78.66819,445.81592
"1327",79.26391,445.8291
"1328",79.906006,445.8423
"1329",80.45289,445.85547
"1330",80.814224,445.86865
"1331",80.96315,445.88184
"1332",80.92409,445.89502
"1333",80.743416,445.9082
"1334",80.4773,445.9214
"1335",80.164795,445.93457
"1336",79.83276,445.94775
"1337",79.50317,445.96094
"1338",79.19798,445.97412
"1339",78.92699,445.9873
"1340",78.70237,446.0005
"1341",78.519264,446.01367
"1342",78.37034,446.02686
"1343",78.24338,446.04004
"1344",78.13107,446.05322
"1345",78.07248,446.0664
"1346",78.18234,446.0796
"1347",78.61692,446.09277
"1348",79.49584,446.10596
"1349",80.833755,446.11914
"1350",82.50614,446.13232
"1351",84.2884,446.1455
"1352",85.892426,446.1587
"1353",87.08629,446.17188
"1354",87.76257,446.18506
"1355",87.92859,446.19824
"1356",87.674675,446.21143
"1357",87.10826,446.2246
"1358",86.33921,446.2378
"1359",85.46517,446.25098
"1360",84.54475,446.26416
"1361",83.60479,446.27734
"1362",82.65507,446.29053
"1363",81.7029,446.3037
"1364",80.762955,446.3169
"1365",79.87915,446.33008
"1366",79.097885,446.34326
"1367",78.49485,446.35645
"1368",78.1384,446.36963
"1369",78.08713,446.3828
"1370",78.3386,446.396
"1371",78.83421,446.40918
"1372",79.4641,446.42236
"1373",80.093994,446.43555
"1374",80.604256,446.44873
"1375",80.91676,446.4619
"1376",81.02174,446.4751
"1377",80.94606,446.48828
"1378",80.740974,446.50146
"1379",80.45777,446.51465
"1380",80.14282,446.52783
"1381",79.82788,446.54102
"1382",79.517815,446.5542
"1383",79.19798,446.56738
"1384",78.86351,446.58057
"1385",78.51438,446.59375
"1386",78.15793,446.60693
"1387",77.803925,446.62012
"1388",77.48165,446.6333
"1389",77.264366,446.64648
"1390",77.28634,446.65967
"1391",77.71114,446.67285
"1392",78.65354,446.68604
"1393",80.08667,446.69922
"1394",81.864044,446.7124
"1395",83.72686,446.7256
"1396",85.365074,446.73877
"1397",86.536964,446.75195
"1398",87.1693,446.76514
"1399",87.30114,446.77832
"1400",87.030136,446.7915
"1401",86.46128,446.8047
"1402",85.70199,446.81787
"1403",84.840164,446.83105
"1404",83.929504,446.84424
"1405",82.99687,446.85742
"1406",82.0618,446.8706
"1407",81.15602,446.8838
"1408",80.289314,446.89697
"1409",79.47631,446.91016
"1410",78.751205,446.92334
"1411",78.167694,446.93652
"1412",77.80881,446.9497
"1413",77.73556,446.9629
"1414",77.962616,446.97607
"1415",78.43137,446.98926
"1416",79.03929,447.00244
"1417",79.64965,447.01562
"1418",80.14282,447.0288
"1419",80.44312,447.042
"1420",80.5481,447.05518
"1421",80.48951,447.06836
"1422",80.308846,447.08154
"1423",80.042725,447.09473
"1424",79.71557,447.1079
"1425",79.3518,447.1211
"1426",78.96361,447.13428
"1427",78.57053,447.14746
"1428",78.187225,447.16064
"1429",77.823456,447.17383
"1430",77.486534,447.187
"1431",77.17403,447.2002
"1432",76.910355,447.21338
"1433",76.79805,447.22656
"1434",77.00557,447.23975
"1435",77.70138,447.25293
"1436",78.96117,447.2661
"1437",80.69459,447.2793
"1438",82.65995,447.29248
"1439",84.54719,447.30566
"1440",86.07797,447.31885
"1441",87.08385,447.33203
"1442",87.53796,447.3452
"1443",87.51598,447.3584
"1444",87.12779,447.37158
"1445",86.47349,447.38477
"1446",85.628746,447.39795
"1447",84.67658,447.41113
"1448",83.67803,447.42432
"1449",82.66483,447.4375
"1450",81.654076,447.45068
"1451",80.672615,447.46387
"1452",79.74731,447.47705
"1453",78.91966,447.49023
"1454",78.24094,447.50342
"1455",77.79904,447.5166
"1456",77.65011,447.5298
"1457",77.80881,447.54297
"1458",78.22629,447.55615
"1459",78.8098,447.56934
"1460",79.42504,447.58252
"1461",79.94263,447.5957
"1462",80.274666,447.6089
"1463",80.40406,447.62207
"1464",80.33814,447.63525
"1465",80.111084,447.64844
"1466",79.78882,447.66162
"1467",79.41772,447.6748
"1468",79.02464,447.688
"1469",78.624245,447.70117
"1470",78.23605,447.71436
"1471",77.84787,447.72754
"1472",77.44747,447.74072
"1473",77.03975,447.7539
"1474",76.63691,447.7671
"1475",76.24872,447.78027
"1476",75.92645,447.79346
"1477",75.809265,447.80664
"1478",76.09491,447.81982
"1479",76.92256,447.833
"1480",78.314186,447.8462
"1481",80.16235,447.85938
"1482",82.2327,447.87256
"1483",84.210266,447.88574
"1484",85.8143,447.89893
"1485",86.8983,447.9121
"1486",87.42321,447.9253
"1487",87.42077,447.93848
"1488",86.97398,447.95166
"1489",86.21713,447.96484
"1490",85.279625,447.97803
"1491",84.27131,447.9912
"1492",83.25567,448.0044
"1493",82.26444,448.01758
"1494",81.30007,448.03076
"1495",80.35767,448.04395
"1496",79.466545,448.05713
"1497",78.68528,448.0703
"1498",78.07248,448.0835
"1499",77.662315,448.09668
"1500",77.47677,448.10986
"1501",77.523155,448.12305
"1502",77.769745,448.13623
"1503",78.14328,448.1494
"1504",78.56809,448.1626
"1505",78.96605,448.17578
"1506",79.256584,448.18896
"1507",79.38842,448.20215
"1508",79.3518,448.21533
"1509",79.1638,448.22852
"1510",78.86351,448.2417
"1511",78.49485,448.25488
"1512",78.10422,448.26807
"1513",77.70626,448.28125
"1514",77.31075,448.29443
"1515",76.91524,448.30762
"1516",76.5124,448.3208
"1517",76.11688,448.33398
"1518",75.74822,448.34717
"1519",75.46014,448.36035
"1520",75.34783,448.37354
"1521",75.58221,448.38672
"1522",76.32197,448.3999
"1523",77.625694,448.4131
"1524",79.41039,448.42627
"1525",81.463646,448.43945
"1526",83.492485,448.45264
"1527",85.19661,448.46582
"1528",86.37095,448.479
"1529",86.97154,448.4922
"1530",87.0399,448.50537
"1531",86.68101,448.51855
"1532",86.014496,448.53174
"1533",85.169754,448.54492
"1534",84.25666,448.5581
"1535",83.346,448.5713
"1536",82.4744,448.58447
"1537",81.64919,448.59766
"1538",80.85817,448.61084
"1539",80.111084,448.62402
"1540",79.43481,448.6372
"1541",78.86839,448.6504
"1542",78.46311,448.66357
"1543",78.260475,448.67676
"1544",78.28245,448.68994
"1545",78.49729,448.70312
"1546",78.836655,448.7163
"1547",79.22728,448.7295
"1548",79.58373,448.74268
"1549",79.83032,448.75586
"1550",79.920654,448.76904
"1551",79.85718,448.78223
"1552",79.66186,448.7954
"1553",79.36889,448.8086
"1554",79.01732,448.82178
"1555",78.64866,448.83496
"1556",78.27512,448.84814
"1557",77.908905,448.86133
"1558",77.54269,448.8745
"1559",77.17403,448.8877
"1560",76.80049,448.90088
"1561",76.44892,448.91406
"1562",76.138855,448.92725
"1563",75.91669,448.94043
"1564",75.85321,448.9536
"1565",76.06561,448.9668
"1566",76.67841,448.97998
"1567",77.78195,448.99316
"1568",79.36889,449.00635
"1569",81.3196,449.01953
"1570",83.40215,449.0327
"1571",85.32601,449.0459
"1572",86.83482,449.05908
"1573",87.77722,449.07227
"1574",88.13367,449.08545
"1575",87.96521,449.09863
"1576",87.38903,449.11182
"1577",86.54185,449.125
"1578",85.55306,449.13818
"1579",84.51789,449.15137
"1580",83.49737,449.16455
"1581",82.530556,449.17773
"1582",81.617455,449.19092
"1583",80.75319,449.2041
"1584",79.937744,449.2173
"1585",79.20531,449.23047
"1586",78.61936,449.24365
"1587",78.24338,449.25684
"1588",78.118866,449.27002
"1589",78.23361,449.2832
"1590",78.51194,449.2964
"1591",78.84154,449.30957
"1592",79.11742,449.32275
"1593",79.27123,449.33594
"1594",79.26879,449.34912
"1595",79.11742,449.3623
"1596",78.836655,449.3755
"1597",78.46067,449.38867
"1598",78.01633,449.40186
"1599",77.54269,449.41504
"1600",77.06416,449.42822
"1601",76.612495,449.4414
"1602",76.20233,449.4546
"1603",75.85321,449.46777
"1604",75.577324,449.48096
"1605",75.38201,449.49414
"1606",75.27947,449.50732
"1607",75.25994,449.5205
"1608",75.31121,449.5337
"1609",75.406425,449.54688
"1610",75.53826,449.56006
"1611",75.74578,449.57324
"1612",76.15106,449.58643
"1613",76.90547,449.5996
"1614",78.10666,449.6128
"1615",79.727776,449.62598
"1616",81.617455,449.63916
"1617",83.50713,449.65234
"1618",85.11116,449.66553
"1619",86.21713,449.6787
"1620",86.746925,449.6919
"1621",86.74204,449.70508
"1622",86.30503,449.71826
"1623",85.57992,449.73145
"1624",84.68635,449.74463
"1625",83.736626,449.7578
"1626",82.79912,449.771
"1627",81.917755,449.78418
"1628",81.0901,449.79736
"1629",80.31129,449.81055
"1630",79.57641,449.82373
"1631",78.91478,449.8369
"1632",78.37278,449.8501
"1633",78.02365,449.86328
"1634",77.91623,449.87646
"1635",78.04318,449.88965
"1636",78.35325,449.90283
"1637",78.746315,449.91602
"1638",79.114975,449.9292
"1639",79.36889,449.94238
"1640",79.45678,449.95557
"1641",79.378654,449.96875
"1642",79.15404,449.98193
"1643",78.81468,449.99512
"1644",78.399635,450.0083
"1645",77.94797,450.02148
"1646",77.48165,450.03467
"1647",77.02266,450.04785
"1648",76.5832,450.06104
"1649",76.18524,450.07422
"1650",75.83856,450.0874
"1651",75.56756,450.1006
"1652",75.37469,450.11377
"1653",75.27215,450.12695
"1654",75.24284,450.14014
"1655",75.27947,450.15332
"1656",75.36248,450.1665
"1657",75.474785,450.1797
"1658",75.59441,450.19287
"1659",75.716484,450.20605
"1660",75.8996,450.21924
"1661",76.25605,450.23242
"1662",76.93477,450.2456
"1663",78.03586,450.2588
"1664",79.54711,450.27197
"1665",81.3196,450.28516
"1666",83.10918,450.29834
"1667",84.627754,450.31152
"1668",85.662926,450.3247
"1669",86.13901,450.3379
"1670",86.09506,450.35107
"1671",85.64095,450.36426
"1672",84.910965,450.37744
"1673",84.02716,450.39062
"1674",83.08476,450.4038
"1675",82.14969,450.417
"1676",81.25857,450.43018
"1677",80.413826,450.44336
"1678",79.60815,450.45654
"1679",78.84642,450.46973
"1680",78.150604,450.4829
"1681",77.57931,450.4961
"1682",77.20332,450.50928
"1683",77.08125,450.52246
"1684",77.21553,450.53564
"1685",77.54757,450.54883
"1686",77.9675,450.562
"1687",78.36057,450.5752
"1688",78.624245,450.58838
"1689",78.70725,450.60156
"1690",78.60471,450.61475
"1691",78.35081,450.62793
"1692",77.98215,450.6411
"1693",77.54513,450.6543
"1694",77.07149,450.66748
"1695",76.58808,450.68066
"1696",76.10712,450.69385
"1697",75.63836,450.70703
"1698",75.20622,450.7202
"1699",74.827805,450.7334
"1700",74.52018,450.74658
"1701",74.29801,450.75977
"1702",74.17105,450.77295
"1703",74.13199,450.78613
"1704",74.17349,450.79932
"1705",74.27116,450.8125
"1706",74.407875,450.82568
"1707",74.56657,450.83887
"1708",74.73014,450.85205
"1709",74.88396,450.86523
"1710",75.04021,450.87842
"1711",75.25262,450.8916
"1712",75.64324,450.9048
"1713",76.35371,450.91797
"1714",77.47433,450.93115
"1715",78.992905,450.94434
"1716",80.762955,450.95752
"1717",82.55497,450.9707
"1718",84.09064,450.9839
"1719",85.17708,450.99707
"1720",85.72884,451.01025
"1721",85.77524,451.02344
"1722",85.40414,451.03662
"1723",84.73762,451.0498
"1724",83.88556,451.063
"1725",82.948044,451.07617
"1726",82.01053,451.08936
"1727",81.1487,451.10254
"1728",80.394295,451.11572
"1729",79.73266,451.1289
"1730",79.13939,451.1421
"1731",78.607155,451.15527
"1732",78.167694,451.16846
"1733",77.874725,451.18164
"1734",77.79904,451.19482
"1735",77.97238,451.208
"1736",78.34104,451.2212
"1737",78.78783,451.23438
"1738",79.18089,451.24756
"1739",79.429924,451.26074
"1740",79.48119,451.27393
"1741",79.381096,451.2871
"1742",79.20775,451.3003
"1743",79.027084,451.31348
"1744",78.82689,451.32666
"1745",78.61204,451.33984
"1746",78.38499,451.35303
"1747",78.12131,451.3662
"1748",77.80148,451.3794
"1749",77.452354,451.39258
"1750",77.117874,451.40576
"1751",76.80293,451.41895
"1752",76.5124,451.43213
"1753",76.2707,451.4453
"1754",76.104675,451.4585
"1755",76.016785,451.47168
"1756",75.99237,451.48486
"1757",76.01434,451.49805
"1758",76.06073,451.51123
"1759",76.12665,451.5244
"1760",76.29511,451.5376
"1761",76.697945,451.55078
"1762",77.471886,451.56396
"1763",78.677956,451.57715
"1764",80.27711,451.59033
"1765",82.11551,451.60352
"1766",83.949036,451.6167
"1767",85.521324,451.62988
"1768",86.659035,451.64307
"1769",87.28405,451.65625
"1770",87.38659,451.66943
"1771",87.027695,451.68262
"1772",86.346535,451.6958
"1773",85.51888,451.70898
"1774",84.6717,451.72217
"1775",83.88068,451.73535
"1776",83.177536,451.74854
"1777",82.53544,451.76172
"1778",81.900665,451.7749
"1779",81.27566,451.7881
"1780",80.70435,451.80127
"1781",80.24292,451.81445
"1782",79.9353,451.82764
"1783",79.83276,451.84082
"1784",79.94995,451.854
"1785",80.218506,451.8672
"1786",80.56275,451.88037
"1787",80.89235,451.89355
"1788",81.10231,451.90674
"1789",81.126724,451.91992
"1790",80.953384,451.9331
"1791",80.61646,451.9463
"1792",80.15747,451.95947
"1793",79.67162,451.97266
"1794",79.256584,451.98584
"1795",78.95384,451.99902
"1796",78.7219,452.0122
"1797",78.51194,452.0254
"1798",78.30198,452.03857
"1799",78.082245,452.05176
"1800",77.872284,452.06494
"1801",77.69405,452.07812
"1802",77.58419,452.0913
"1803",77.51339,452.1045
"1804",77.44015,452.11768
"1805",77.36446,452.13086
"1806",77.36446,452.14404
"1807",77.58419,452.15723
"1808",78.16525,452.1704
"1809",79.18822,452.1836
"1810",80.63111,452.19678
"1811",82.35966,452.20996
"1812",84.139465,452.22314
"1813",85.69955,452.23633
"1814",86.820175,452.2495
"1815",87.396355,452.2627
"1816",87.42321,452.27588
"1817",86.97887,452.28906
"1818",86.239105,452.30225
"1819",85.40902,452.31543
"1820",84.627754,452.3286
"1821",83.9173,452.3418
"1822",83.28985,452.35498
"1823",82.74296,452.36816
"1824",82.213165,452.38135
"1825",81.651634,452.39453
"1826",81.092545,452.4077
"1827",80.60914,452.4209
"1828",80.22583,452.43408
"1829",79.98413,452.44727
"1830",79.92554,452.46045
"1831",80.062256,452.47363
"1832",80.31617,452.48682
"1833",80.57984,452.5
"1834",80.7483,452.51318
"1835",80.75807,452.52637
"1836",80.59205,452.53955
"1837",80.26734,452.55273
"1838",79.83032,452.56592
"1839",79.327385,452.5791
"1840",78.80003,452.5923
"1841",78.28733,452.60547
"1842",77.79416,452.61865
"1843",77.332726,452.63184
"1844",76.910355,452.64502
"1845",76.53681,452.6582
"1846",76.21698,452.6714
"1847",75.95575,452.68457
"1848",75.75067,452.69775
"1849",75.59441,452.71094
"1850",75.53094,452.72412
"1851",75.66277,452.7373
"1852",76.1535,452.7505
"1853",77.12276,452.76367
"1854",78.59983,452.77686
"1855",80.47242,452.79004
"1856",82.5037,452.80322
"1857",84.39094,452.8164
"1858",85.86801,452.8296
"1859",86.78844,452.84277
"1860",87.12535,452.85596
"1861",86.94469,452.86914
"1862",86.36118,452.88232
"1863",85.51156,452.8955
"1864",84.51789,452.9087
"1865",83.49004,452.92188
"1866",82.496376,452.93506
"1867",81.56863,452.94824
"1868",80.76051,452.96143
"1869",80.13306,452.9746
"1870",79.71313,452.9878
"1871",79.47875,453.00098
"1872",79.38842,453.01416
"1873",79.40063,453.02734
"1874",79.483635,453.04053
"1875",79.605705,453.0537
"1876",79.76929,453.0669
"1877",79.96948,453.08008
"1878",80.15259,453.09326
"1879",80.257576,453.10645
"1880",80.22583,453.11963
"1881",80.03784,453.1328
"1882",79.71313,453.146
"1883",79.290764,453.15918
"1884",78.80003,453.17236
"1885",78.28733,453.18555
"1886",77.77707,453.19873
"1887",77.30099,453.2119
"1888",76.876175,453.2251
"1889",76.51728,453.23828
"1890",76.226746,453.25146
"1891",75.99237,453.26465
"1892",75.80438,453.27783
"1893",75.63836,453.29102
"1894",75.508965,453.3042
"1895",75.48211,453.31738
"1896",75.70672,453.33057
"1897",76.368355,453.34375
"1898",77.56954,453.35693
"1899",79.276115,453.37012
"1900",81.31716,453.3833
"1901",83.39727,453.39648
"1902",85.19417,453.40967
"1903",86.46616,453.42285
"1904",87.12291,453.43604
"1905",87.1815,453.44922
"1906",86.751816,453.4624
"1907",85.96811,453.4756
"1908",84.97688,453.48877
"1909",83.90997,453.50195
"1910",82.87236,453.51514
"1911",81.93729,453.52832
"1912",81.13649,453.5415
"1913",80.46754,453.5547
"1914",79.903564,453.56787
"1915",79.432365,453.58105
"1916",79.061264,453.59424
"1917",78.81712,453.60742
"1918",78.72434,453.6206
"1919",78.79515,453.6338
"1920",78.995346,453.64697
"1921",79.26391,453.66016
"1922",79.52758,453.67334
"1923",79.727776,453.68652
"1924",79.83276,453.6997
"1925",79.83765,453.7129
"1926",79.7522,453.72607
"1927",79.588615,453.73926
"1928",79.361565,453.75244
"1929",79.07347,453.76562
"1930",78.729225,453.7788
"1931",78.3386,453.792
"1932",77.91135,453.80518
"1933",77.471886,453.81836
"1934",77.04463,453.83154
"1935",76.66132,453.84473
"1936",76.34882,453.8579
"1937",76.13153,453.8711
"1938",76.00946,453.88428
"1939",75.96796,453.89746
"1940",75.98016,453.91064
"1941",76.04364,453.92383
"1942",76.23163,453.937
"1943",76.67597,453.9502
"1944",77.52071,453.96338
"1945",78.83177,453.97656
"1946",80.550545,453.98975
"1947",82.48905,454.00293
"1948",84.37141,454.0161
"1949",85.92905,454.0293
"1950",86.98619,454.04248
"1951",87.48669,454.05566
"1952",87.4696,454.06885
"1953",87.03502,454.08203
"1954",86.30259,454.0952
"1955",85.40658,454.1084
"1956",84.46418,454.12158
"1957",83.56573,454.13477
"1958",82.757614,454.14795
"1959",82.04715,454.16113
"1960",81.39773,454.17432
"1961",80.78981,454.1875
"1962",80.2063,454.20068
"1963",79.68627,454.21387
"1964",79.28588,454.22705
"1965",79.06859,454.24023
"1966",79.05638,454.25342
"1967",79.2224,454.2666
"1968",79.4934,454.2798
"1969",79.77173,454.29297
"1970",79.97681,454.30615
"1971",80.05493,454.31934
"1972",79.98657,454.33252
"1973",79.781494,454.3457
"1974",79.46899,454.3589
"1975",79.078354,454.37207
"1976",78.63645,454.38525
"1977",78.167694,454.39844
"1978",77.68917,454.41162
"1979",77.22041,454.4248
"1980",76.77608,454.438
"1981",76.368355,454.45117
"1982",76.01434,454.46436
"1983",75.73113,454.47754
"1984",75.53338,454.49072
"1985",75.423515,454.5039
"1986",75.403984,454.5171
"1987",75.46014,454.53027
"1988",75.56756,454.54346
"1989",75.733574,454.55664
"1990",76.036316,454.56982
"1991",76.595406,454.583
"1992",77.52071,454.5962
"1993",78.856186,454.60938
"1994",80.52613,454.62256
"1995",82.337685,454.63574
"1996",84.03937,454.64893
"1997",85.39681,454.6621
"1998",86.278175,454.6753
"1999",86.65415,454.68848
"2000",86.5687,454.70166
"2001",86.11215,454.71484
"2002",85.38949,454.72803
"2003",84.508125,454.7412
"2004",83.5584,454.7544
"2005",82.616005,454.76758
"2006",81.73464,454.78076
"2007",80.93141,454.79395
"2008",80.21118,454.80713
"2009",79.571526,454.8203
"2010",79.01488,454.8335
"2011",78.57542,454.84668
"2012",78.29221,454.85986
"2013",78.20187,454.87305
"2014",78.30198,454.88623
"2015",78.551,454.8994
"2016",78.873276,454.9126
"2017",79.185776,454.92578
"2018",79.40795,454.93896
"2019",79.49828,454.95215
"2020",79.44213,454.96533
"2021",79.2517,454.97852
"2022",78.95628,454.9917
"2023",78.58762,455.00488
"2024",78.18234,455.01807
"2025",77.76486,455.03125
"2026",77.349815,455.04443
"2027",76.9543,455.05762
"2028",76.59052,455.0708
"2029",76.26826,455.08398
"2030",75.98749,455.09717
"2031",75.757996,455.11035
"2032",75.58465,455.12354
"2033",75.47723,455.13672
"2034",75.43572,455.1499
"2035",75.47723,455.1631
"2036",75.5993,455.17627
"2037",75.77997,455.18945
"2038",75.982605,455.20264
"2039",76.190125,455.21582
"2040",76.43427,455.229
"2041",76.83467,455.2422
"2042",77.52804,455.25537
"2043",78.624245,455.26855
"2044",80.12085,455.28174
"2045",81.8909,455.29492
"2046",83.69756,455.3081
"2047",85.279625,455.3213
"2048",86.43931,455.33447
"2049",87.096054,455.34766
"2050",87.26208,455.36084
"2051",87.01549,455.37402
"2052",86.45884,455.3872
"2053",85.69222,455.4004
"2054",84.808426,455.41357
"2055",83.878235,455.42676
"2056",82.96513,455.43994
"2057",82.10574,455.45312
"2058",81.3196,455.4663
"2059",80.618904,455.4795
"2060",80.00122,455.49268
"2061",79.47875,455.50586
"2062",79.080795,455.51904
"2063",78.84642,455.53223
"2064",78.79515,455.5454
"2065",78.91478,455.5586
"2066",79.1638,455.57178
"2067",79.46899,455.58496
"2068",79.74731,455.59814
"2069",79.93286,455.61133
"2070",79.98413,455.6245
"2071",79.8938,455.6377
"2072",79.674065,455.65088
"2073",79.35912,455.66406
"2074",78.98314,455.67725
"2075",78.572975,455.69043
"2076",78.15793,455.7036
"2077",77.75998,455.7168
"2078",77.38888,455.72998
"2079",77.05928,455.74316
"2080",76.77608,455.75635
"2081",76.55146,455.76953
"2082",76.383,455.7827
"2083",76.27314,455.7959
"2084",76.226746,455.80908
"2085",76.241394,455.82227
"2086",76.314644,455.83545
"2087",76.439156,455.84863
"2088",76.60273,455.86182
"2089",76.771194,455.875
"2090",76.925,455.88818
"2091",77.05684,455.90137
"2092",77.23018,455.91455
"2093",77.574425,455.92773
"2094",78.24582,455.94092
"2095",79.33959,455.9541
"2096",80.833755,455.9673
"2097",82.581825,455.98047
"2098",84.334785,455.99365
"2099",85.83627,456.00684
"2100",86.8983,456.02002
"2101",87.45251,456.0332
"2102",87.52575,456.0464
"2103",87.20592,456.05957
"2104",86.590675,456.07275
"2105",85.78012,456.08594
"2106",84.859695,456.09912
"2107",83.897766,456.1123
"2108",82.95293,456.1255
"2109",82.05936,456.13867
"2110",81.22926,456.15186
"2111",80.48463,456.16504
"2112",79.83765,456.17822
"2113",79.32006,456.1914
"2114",78.97337,456.2046
"2115",78.83177,456.21777
"2116",78.91234,456.23096
"2117",79.185776,456.24414
"2118",79.586174,456.25732
"2119",80.01831,456.2705
"2120",80.38697,456.2837
"2121",80.61402,456.29688
"2122",80.66285,456.31006
"2123",80.53101,456.32324
"2124",80.24536,456.33643
"2125",79.84253,456.3496
"2126",79.37377,456.3628
"2127",78.8806,456.37598
"2128",78.39475,456.38916
"2129",77.93088,456.40234
"2130",77.50851,456.41553
"2131",77.13252,456.4287
"2132",76.79805,456.4419
"2133",76.5124,456.45508
"2134",76.282906,456.46826
"2135",76.11444,456.48145
"2136",76.00946,456.49463
"2137",75.982605,456.5078
"2138",76.033875,456.521
"2139",76.14862,456.53418
"2140",76.30244,456.54736
"2141",76.46845,456.56055
"2142",76.63935,456.57373
"2143",76.87373,456.5869
"2144",77.30099,456.6001
"2145",78.07248,456.61328
"2146",79.26635,456.62646
"2147",80.84352,456.63965
"2148",82.6453,456.65283
"2149",84.420235,456.66602
"2150",85.909515,456.6792
"2151",86.939804,456.69238
"2152",87.46227,456.70557
"2153",87.51354,456.71875
"2154",87.17662,456.73193
"2155",86.54917,456.74512
"2156",85.7264,456.7583
"2157",84.79378,456.77148
"2158",83.81476,456.78467
"2159",82.83818,456.79785
"2160",81.89578,456.81104
"2161",81.007095,456.82422
"2162",80.18921,456.8374
"2163",79.466545,456.8506
"2164",78.88548,456.86377
"2165",78.504616,456.87695
"2166",78.380104,456.89014
"2167",78.53147,456.90332
"2168",78.92699,456.9165
"2169",79.48119,456.9297
"2170",80.07202,456.94287
"2171",80.57252,456.95605
"2172",80.89479,456.96924
"2173",81.00954,456.98242
"2174",80.90944,456.9956
"2175",80.635994,457.0088
"2176",80.23804,457.02197
"2177",79.766846,457.03516
"2178",79.26147,457.04834
"2179",78.75853,457.06152
"2180",78.27268,457.0747
"2181",77.83078,457.0879
"2182",77.4255,457.10107
"2183",77.06416,457.11426
"2184",76.74677,457.12744
"2185",76.473335,457.14062
"2186",76.25361,457.1538
"2187",76.09247,457.167
"2188",75.99725,457.18018
"2189",75.965515,457.19336
"2190",75.982605,457.20654
"2191",76.036316,457.21973
"2192",76.12421,457.2329
"2193",76.32685,457.2461
"2194",76.79317,457.25928
"2195",77.66476,457.27246
"2196",78.992905,457.28564
"2197",80.706795,457.29883
"2198",82.60624,457.312
"2199",84.41535,457.3252
"2200",85.86801,457.33838
"2201",86.820175,457.35156
"2202",87.24742,457.36475
"2203",87.203476,457.37793
"2204",86.785995,457.3911
"2205",86.09506,457.4043
"2206",85.21858,457.41748
"2207",84.2298,457.43066
"2208",83.18974,457.44385
"2209",82.13992,457.45703
"2210",81.109634,457.4702
"2211",80.11841,457.4834
"2212",79.1931,457.49658
"2213",78.37034,457.50977
"2214",77.71114,457.52295
"2215",77.30587,457.53613
"2216",77.2375,457.54932
"2217",77.51827,457.5625
"2218",78.09201,457.57568
"2219",78.82689,457.58887
"2220",79.5642,457.60205
"2221",80.147705,457.61523
"2222",80.48707,457.62842
"2223",80.570076,457.6416
"2224",80.4358,457.6548
"2225",80.1355,457.66797
"2226",79.73022,457.68115
"2227",79.26635,457.69434
"2228",78.78294,457.70752
"2229",78.3093,457.7207
"2230",77.86008,457.7339
"2231",77.44259,457.74707
"2232",77.0544,457.76025
"2233",76.6955,457.77344
"2234",76.368355,457.78662
"2235",76.08026,457.7998
"2236",75.84589,457.813
"2237",75.67742,457.82617
"2238",75.579765,457.83936
"2239",75.53582,457.85254
"2240",75.5407,457.86572
"2241",75.631035,457.8789
"2242",75.92645,457.8921
"2243",76.59785,457.90527
"2244",77.76242,457.91846
"2245",79.40795,457.93164
"2246",81.3782,457.94482
"2247",83.41436,457.958
"2248",85.206375,457.9712
"2249",86.52476,457.98438
"2250",87.291374,457.99756
"2251",87.53063,458.01074
"2252",87.33044,458.02393
"2253",86.77623,458.0371
"2254",85.97055,458.0503
"2255",84.99397,458.06348
"2256",83.914856,458.07666
"2257",82.78447,458.08984
"2258",81.64187,458.10303
"2259",80.51392,458.1162
"2260",79.429924,458.1294
"2261",78.41917,458.14258
"2262",77.5378,458.15576
"2263",76.87373,458.16895
"2264",76.52949,458.18213
"2265",76.58076,458.1953
"2266",77.03975,458.2085
"2267",77.81613,458.22168
"2268",78.74387,458.23486
"2269",79.62768,458.24805
"2270",80.306404,458.26123
"2271",80.69215,458.2744
"2272",80.78493,458.2876
"2273",80.64332,458.30078
"2274",80.33326,458.31396
"2275",79.91821,458.32715
"2276",79.449455,458.34033
"2277",78.96361,458.35352
"2278",78.485085,458.3667
"2279",78.02365,458.37988
"2280",77.58663,458.39307
"2281",77.17647,458.40625
"2282",76.79561,458.41943
"2283",76.44648,458.43262
"2284",76.1413,458.4458
"2285",75.87518,458.45898
"2286",75.65301,458.47217
"2287",75.47234,458.48535
"2288",75.37713,458.49854
"2289",75.4992,458.51172
"2290",76.04608,458.5249
"2291",77.17403,458.5381
"2292",78.88548,458.55127
"2293",81.01198,458.56445
"2294",83.25811,458.57764
"2295",85.27474,458.59082
"2296",86.77867,458.604
"2297",87.66491,458.6172
"2298",87.972534,458.63037
"2299",87.801636,458.64355
"2300",87.26208,458.65674
"2301",86.46128,458.66992
"2302",85.4847,458.6831
"2303",84.39826,458.6963
"2304",83.250786,458.70947
"2305",82.07889,458.72266
"2306",80.89479,458.73584
"2307",79.725334,458.74902
"2308",78.60227,458.7622
"2309",77.58663,458.7754
"2310",76.771194,458.78857
"2311",76.27558,458.80176
"2312",76.21942,458.81494
"2313",76.63935,458.82812
"2314",77.45968,458.8413
"2315",78.502174,458.8545
"2316",79.54955,458.86768
"2317",80.40406,458.88086
"2318",80.936295,458.89404
"2319",81.13161,458.90723
"2320",81.04616,458.9204
"2321",80.765396,458.9336
"2322",80.35279,458.94678
"2323",79.869385,458.95996
"2324",79.35912,458.97314
"2325",78.84642,458.98633
"2326",78.345924,458.9995
"2327",77.86496,459.0127
"2328",77.41573,459.02588
"2329",77.00313,459.03906
"2330",76.6247,459.05225
"2331",76.282906,459.06543
"2332",75.97772,459.0786
"2333",75.69695,459.0918
"2334",75.4699,459.10498
"2335",75.403984,459.11816
"2336",75.716484,459.13135
"2337",76.612495,459.14453
"2338",78.153046,459.1577
"2339",80.21118,459.1709
"2340",82.511024,459.18408
"2341",84.68635,459.19727
"2342",86.400246,459.21045
"2343",87.48669,459.22363
"2344",87.96277,459.23682
"2345",87.92615,459.25
"2346",87.49157,459.26318
"2347",86.75914,459.27637
"2348",85.81674,459.28955
"2349",84.735176,459.30273
"2350",83.56573,459.31592
"2351",82.35233,459.3291
"2352",81.12184,459.3423
"2353",79.90112,459.35547
"2354",78.73411,459.36865
"2355",77.66476,459.38184
"2356",76.773636,459.39502
"2357",76.16571,459.4082
"2358",75.96307,459.4214
"2359",76.23651,459.43457
"2360",76.94942,459.44775
"2361",77.960175,459.46094
"2362",79.061264,459.47412
"2363",80.03296,459.4873
"2364",80.709236,459.5005
"2365",81.03639,459.51367
"2366",81.05104,459.52686
"2367",80.83864,459.54004
"2368",80.4773,459.55322
"2369",80.03784,459.5664
"2370",79.5642,459.5796
"2371",79.078354,459.59277
"2372",78.59983,459.60596
"2373",78.13107,459.61914
"2374",77.68185,459.63232
"2375",77.24971,459.6455
"2376",76.84444,459.6587
"2377",76.45869,459.67188
"2378",76.09003,459.68506
"2379",75.74334,459.69824
"2380",75.474785,459.71143
"2381",75.44549,459.7246
"2382",75.894714,459.7378
"2383",76.998245,459.75098
"2384",78.74143,459.76416
"2385",80.936295,459.77734
"2386",83.25323,459.79053
"2387",85.30648,459.8037
"2388",86.803085,459.8169
"2389",87.65026,459.83008
"2390",87.90662,459.84326
"2391",87.67956,459.85645
"2392",87.09361,459.86963
"2393",86.24399,459.8828
"2394",85.2137,459.896
"2395",84.07599,459.90918
"2396",82.86992,459.92236
"2397",81.62966,459.93555
"2398",80.37965,459.94873
"2399",79.15404,459.9619
"2400",77.98703,459.9751
"2401",76.946976,459.98828
"2402",76.13153,460.00146
"2403",75.665215,460.01465
"2404",75.66277,460.02783
"2405",76.15106,460.04102
"2406",77.04463,460.0542
"2407",78.15793,460.06738
"2408",79.256584,460.08057
"2409",80.12085,460.09375
"2410",80.638435,460.10693
"2411",80.79469,460.12012
"2412",80.66285,460.1333
"2413",80.34791,460.14648
"2414",79.937744,460.15967
"2415",79.4934,460.17285
"2416",79.05882,460.18604
"2417",78.64866,460.19922
"2418",78.26536,460.2124
"2419",77.908905,460.2256
"2420",77.57198,460.23877
"2421",77.24971,460.25195
"2422",76.93233,460.26514
"2423",76.61738,460.27832
"2424",76.32197,460.2915
"2425",76.155945,460.3047
"2426",76.34394,460.31787
"2427",77.12276,460.33105
"2428",78.5803,460.34424
"2429",80.601814,460.35742
"2430",82.9041,460.3706
"2431",85.103836,460.3838
"2432",86.83482,460.39697
"2433",87.90173,460.41016
"2434",88.31678,460.42334
"2435",88.19714,460.43652
"2436",87.66491,460.4497
"2437",86.83971,460.4629
"2438",85.821625,460.47607
"2439",84.68879,460.48926
"2440",83.49737,460.50244
"2441",82.286415,460.51562
"2442",81.077896,460.5288
"2443",79.87915,460.542
"2444",78.71702,460.55518
"2445",77.63546,460.56836
"2446",76.70527,460.58154
"2447",76.0412,460.59473
"2448",75.77753,460.6079
"2449",75.98749,460.6211
"2450",76.64423,460.63428
"2451",77.61593,460.64746
"2452",78.69016,460.66064
"2453",79.64233,460.67383
"2454",80.325935,460.687
"2455",80.68482,460.7002
"2456",80.75319,460.71338
"2457",80.61646,460.72656
"2458",80.35767,460.73975
"2459",80.01831,460.75293
"2460",79.63744,460.7661
"2461",79.22728,460.7793
"2462",78.802475,460.79248
"2463",78.3679,460.80566
"2464",77.925995,460.81885
"2465",77.47433,460.83203
"2466",77.02022,460.8452
"2467",76.58076,460.8584
"2468",76.226746,460.87158
"2469",76.16327,460.88477
"2470",76.63691,460.89795
"2471",77.80148,460.91113
"2472",79.61059,460.92432
"2473",81.832306,460.9375
"2474",84.102844,460.95068
"2475",86.031586,460.96387
"2476",87.34264,460.97705
"2477",87.97742,460.99023
"2478",88.026245,461.00342
"2479",87.61852,461.0166
"2480",86.88365,461.0298
"2481",85.93393,461.04297
"2482",84.85237,461.05615
"2483",83.69512,461.06934
"2484",82.49149,461.08252
"2485",81.25857,461.0957
"2486",80.01587,461.1089
"2487",78.79027,461.12207
"2488",77.6379,461.13525
"2489",76.65888,461.14844
"2490",75.982605,461.16162
"2491",75.73846,461.1748
"2492",75.99481,461.188
"2493",76.715034,461.20117
"2494",77.74288,461.21436
"2495",78.86107,461.22754
"2496",79.84985,461.24072
"2497",80.552986,461.2539
"2498",80.921646,461.2671
"2499",80.99489,461.28027
"2500",80.84352,461.29346
"2501",80.54078,461.30664
"2502",80.14038,461.31982
"2503",79.67895,461.333
"2504",79.18089,461.3462
"2505",78.66819,461.35938
"2506",78.16037,461.37256
"2507",77.6672,461.38574
"2508",77.19112,461.39893
"2509",76.72968,461.4121
"2510",76.30732,461.4253
"2511",76.02899,461.43848
"2512",76.12665,461.45166
"2513",76.83711,461.46484
"2514",78.26536,461.47803
"2515",80.30152,461.4912
"2516",82.667274,461.5044
"2517",84.96956,461.51758
"2518",86.82262,461.53076
"2519",88.01892,461.54395
"2520",88.551155,461.55713
"2521",88.53651,461.5703
"2522",88.10193,461.5835
"2523",87.37194,461.59668
"2524",86.451515,461.60986
"2525",85.41634,461.62305
"2526",84.32014,461.63623
"2527",83.1873,461.6494
"2528",82.03494,461.6626
"2529",80.867935,461.67578
"2530",79.72045,461.68896
"2531",78.64622,461.70215
"2532",77.738,461.71533
"2533",77.13008,461.72852
"2534",76.93721,461.7417
"2535",77.196,461.75488
"2536",77.840546,461.76807
"2537",78.712135,461.78125
"2538",79.60815,461.79443
"2539",80.34547,461.80762
"2540",80.81178,461.8208
"2541",80.98512,461.83398
"2542",80.919205,461.84717
"2543",80.67506,461.86035
"2544",80.308846,461.87354
"2545",79.8645,461.88672
"2546",79.37621,461.8999
"2547",78.86107,461.9131
"2548",78.34104,461.92627
"2549",77.82834,461.93945
"2550",77.33761,461.95264
"2551",76.86885,461.96582
"2552",76.42939,461.979
"2553",76.03876,461.9922
"2554",75.80682,462.00537
"2555",75.965515,462.01855
"2556",76.73945,462.03174
"2557",78.21408,462.04492
"2558",80.291756,462.0581
"2559",82.701454,462.0713
"2560",85.05745,462.08447
"2561",86.98131,462.09766
"2562",88.25819,462.11084
"2563",88.866104,462.12402
"2564",88.89784,462.1372
"2565",88.47059,462.1504
"2566",87.708855,462.16357
"2567",86.7396,462.17676
"2568",85.65316,462.18994
"2569",84.525215,462.20312
"2570",83.39483,462.2163
"2571",82.28886,462.2295
"2572",81.20973,462.24268
"2573",80.17456,462.25586
"2574",79.217514,462.26904
"2575",78.416725,462.28223
"2576",77.872284,462.2954
"2577",77.66476,462.3086
"2578",77.81857,462.32178
"2579",78.27512,462.33496
"2580",78.90257,462.34814
"2581",79.54223,462.36133
"2582",80.05493,462.3745
"2583",80.360115,462.3877
"2584",80.44312,462.40088
"2585",80.325935,462.41406
"2586",80.059814,462.42725
"2587",79.691154,462.44043
"2588",79.256584,462.4536
"2589",78.77806,462.4668
"2590",78.27512,462.47998
"2591",77.76242,462.49316
"2592",77.25948,462.50635
"2593",76.7834,462.51953
"2594",76.34394,462.5327
"2595",75.95331,462.5459
"2596",75.60906,462.55908
"2597",75.34295,462.57227
"2598",75.25994,462.58545
"2599",75.56512,462.59863
"2600",76.439156,462.61182
"2601",77.94797,462.625
"2602",79.99634,462.63818
"2603",82.33036,462.65137
"2604",84.60334,462.66455
"2605",86.48081,462.67773
"2606",87.765015,462.69092
"2607",88.40223,462.7041
"2608",88.446175,462.7173
"2609",88.00183,462.73047
"2610",87.20592,462.74365
"2611",86.185394,462.75684
"2612",85.05745,462.77002
"2613",83.90021,462.7832
"2614",82.77226,462.7964
"2615",81.69314,462.80957
"2616",80.66041,462.82275
"2617",79.693596,462.83594
"2618",78.82445,462.84912
"2619",78.11398,462.8623
"2620",77.645226,462.8755
"2621",77.467,462.88867
"2622",77.58175,462.90186
"2623",77.92111,462.91504
"2624",78.380104,462.92822
"2625",78.839096,462.9414
"2626",79.202866,462.9546
"2627",79.4226,462.96777
"2628",79.483635,462.98096
"2629",79.395744,462.99414
"2630",79.166245,463.00732
"2631",78.82201,463.0205
"2632",78.39231,463.0337
"2633",77.91135,463.04688
"2634",77.40597,463.06006
"2635",76.90303,463.07324
"2636",76.42451,463.08643
"2637",75.98749,463.0996
"2638",75.61639,463.1128
"2639",75.29656,463.12598
"2640",75.01579,463.13916
"2641",74.77165,463.15234
"2642",74.58854,463.16553
"2643",74.56168,463.1787
"2644",74.86687,463.1919
"2645",75.68963,463.20508
"2646",77.13008,463.21826
"2647",79.1223,463.23145
"2648",81.43923,463.24463
"2649",83.76837,463.2578
"2650",85.748375,463.271
"2651",87.115585,463.28418
"2652",87.79431,463.29736
"2653",87.84802,463.31055
"2654",87.39147,463.32373
"2655",86.56138,463.3369
"2656",85.50912,463.3501
"2657",84.36408,463.36328
"2658",83.20195,463.37646
"2659",82.08621,463.38965
"2660",81.075455,463.40283
"2661",80.20386,463.41602
"2662",79.4641,463.4292
"2663",78.84398,463.44238
"2664",78.348366,463.45557
"2665",78.013885,463.46875
"2666",77.8674,463.48193
"2667",77.925995,463.49512
"2668",78.167694,463.5083
"2669",78.53147,463.52148
"2670",78.93431,463.53467
"2671",79.273674,463.54785
"2672",79.47387,463.56104
"2673",79.50317,463.57422
"2674",79.3518,463.5874
"2675",79.04173,463.6006
"2676",78.6096,463.61377
"2677",78.09445,463.62695
"2678",77.54757,463.64014
"2679",77.00313,463.65332
"2680",76.48554,463.6665
"2681",76.01434,463.6797
"2682",75.60418,463.69287
"2683",75.250175,463.70605
"2684",74.932785,463.71924
"2685",74.63981,463.73242
"2686",74.371254,463.7456
"2687",74.14908,463.7588
"2688",74.00748,463.77197
"2689",74.05875,463.78516
"2690",74.47379,463.79834
"2691",75.41375,463.81152
"2692",76.93233,463.8247
"2693",78.96361,463.8379
"2694",81.2781,463.85107
"2695",83.54864,463.86426
"2696",85.44808,463.87744
"2697",86.746925,463.89062
"2698",87.38415,463.9038
"2699",87.415886,463.917
"2700",86.97398,463.93018
"2701",86.1976,463.94336
"2702",85.22591,463.95654
"2703",84.16876,463.96973
"2704",83.104294,463.9829
"2705",82.07645,463.9961
"2706",81.112076,464.00928
"2707",80.2063,464.02246
"2708",79.34936,464.03564
"2709",78.57053,464.04883
"2710",77.92111,464.062
"2711",77.47677,464.0752
"2712",77.30099,464.08838
"2713",77.420616,464.10156
"2714",77.786835,464.11475
"2715",78.2971,464.12793
"2716",78.81712,464.1411
"2717",79.237045,464.1543
"2718",79.48608,464.16748
"2719",79.54223,464.18066
"2720",79.42016,464.19385
"2721",79.149155,464.20703
"2722",78.765854,464.2202
"2723",78.30686,464.2334
"2724",77.803925,464.24658
"2725",77.264366,464.25977
"2726",76.70283,464.27295
"2727",76.14862,464.28613
"2728",75.64568,464.29932
"2729",75.21599,464.3125
"2730",74.87663,464.32568
"2731",74.64713,464.33887
"2732",74.51774,464.35205
"2733",74.46403,464.36523
"2734",74.46891,464.37842
"2735",74.58854,464.3916
"2736",74.93523,464.4048
"2737",75.667656,464.41797
"2738",76.910355,464.43115
"2739",78.67307,464.44434
"2740",80.82643,464.45752
"2741",83.09697,464.4707
"2742",85.15022,464.4839
"2743",86.70054,464.49707
"2744",87.603874,464.51025
"2745",87.86023,464.52344
"2746",87.56237,464.53662
"2747",86.854355,464.5498
"2748",85.88266,464.563
"2749",84.78645,464.57617
"2750",83.665825,464.58936
"2751",82.59403,464.60254
"2752",81.61013,464.61572
"2753",80.723885,464.6289
"2754",79.920654,464.6421
"2755",79.20531,464.65527
"2756",78.607155,464.66846
"2757",78.1799,464.68164
"2758",77.98215,464.69482
"2759",78.04074,464.708
"2760",78.33616,464.7212
"2761",78.78294,464.73438
"2762",79.259026,464.74756
"2763",79.65942,464.76074
"2764",79.89868,464.77393
"2765",79.94751,464.7871
"2766",79.815674,464.8003
"2767",79.53002,464.81348
"2768",79.12474,464.82666
"2769",78.63645,464.83984
"2770",78.09201,464.85303
"2771",77.5256,464.8662
"2772",76.94942,464.8794
"2773",76.39521,464.89258
"2774",75.88739,464.90576
"2775",75.45037,464.91895
"2776",75.0988,464.93213
"2777",74.85222,464.9453
"2778",74.71061,464.9585
"2779",74.669106,464.97168
"2780",74.70573,464.98486
"2781",74.79851,464.99805
"2782",74.92546,465.01123
"2783",75.123215,465.0244
"2784",75.50408,465.0376
"2785",76.23651,465.05078
"2786",77.45968,465.06396
"2787",79.19554,465.07715
"2788",81.307396,465.09033
"2789",83.529106,465.10352
"2790",85.52865,465.1167
"2791",87.02525,465.12988
"2792",87.87976,465.14307
"2793",88.10193,465.15625
"2794",87.77966,465.16943
"2795",87.05455,465.18262
"2796",86.07309,465.1958
"2797",84.962234,465.20898
"2798",83.8172,465.22217
"2799",82.703896,465.23535
"2800",81.65896,465.24854
"2801",80.69459,465.26172
"2802",79.80347,465.2749
"2803",79.00511,465.2881
"2804",78.345924,465.30127
"2805",77.90158,465.31445
"2806",77.733116,465.32764
"2807",77.87717,465.34082
"2808",78.28977,465.354
"2809",78.84886,465.3672
"2810",79.42016,465.38037
"2811",79.871826,465.39355
"2812",80.12085,465.40674
"2813",80.15259,465.41992
"2814",79.98901,465.4331
"2815",79.67162,465.4463
"2816",79.24925,465.45947
"2817",78.76097,465.47266
"2818",78.23361,465.48584
"2819",77.68185,465.49902
"2820",77.12764,465.5122
"2821",76.58076,465.5254
"2822",76.06073,465.53857
"2823",75.60174,465.55176
"2824",75.228195,465.56494
"2825",74.966965,465.57812
"2826",74.827805,465.5913
"2827",74.80095,465.6045
"2828",74.86687,465.61768
"2829",75.003586,465.63086
"2830",75.19646,465.64404
"2831",75.50652,465.65723
"2832",76.0827,465.6704
"2833",77.07637,465.6836
"2834",78.56565,465.69678
"2835",80.49683,465.70996
"2836",82.67216,465.72314
"2837",84.76692,465.73633
"2838",86.468605,465.7495
"2839",87.572136,465.7627
"2840",88.01892,465.77588
"2841",87.87244,465.78906
"2842",87.26696,465.80225
"2843",86.35142,465.81543
"2844",85.25765,465.8286
"2845",84.088196,465.8418
"2846",82.916306,465.85498
"2847",81.7908,465.86816
"2848",80.72144,465.88135
"2849",79.70336,465.89453
"2850",78.72434,465.9077
"2851",77.80881,465.9209
"2852",77.032425,465.93408
"2853",76.49531,465.94727
"2854",76.280464,465.96045
"2855",76.4123,465.97363
"2856",76.83467,465.98682
"2857",77.41573,466
"2858",77.99191,466.01318
"2859",78.43137,466.02637
"2860",78.65354,466.03955
"2861",78.64622,466.05273
"2862",78.43137,466.06592
"2863",78.05539,466.0791
"2864",77.56466,466.0923
"2865",77.00069,466.10547
"2866",76.39765,466.11865
"2867",75.78485,466.13184
"2868",75.18669,466.14502
"2869",74.62516,466.1582
"2870",74.12955,466.1714
"2871",73.71938,466.18457
"2872",73.40444,466.19775
"2873",73.18715,466.21094
"2874",73.06996,466.22412
"2875",73.05043,466.2373
"2876",73.17494,466.2505
"2877",73.58755,466.26367
"2878",74.461586,466.27686
"2879",75.90692,466.29004
"2880",77.90402,466.30322
"2881",80.26978,466.3164
"2882",82.68925,466.3296
"2883",84.81331,466.34277
"2884",86.366066,466.35596
"2885",87.24254,466.36914
"2886",87.464714,466.38232
"2887",87.13756,466.3955
"2888",86.397804,466.4087
"2889",85.37728,466.42188
"2890",84.2005,466.43506
"2891",82.96269,466.44824
"2892",81.73708,466.46143
"2893",80.584724,466.4746
"2894",79.551994,466.4878
"2895",78.63401,466.50098
"2896",77.8259,466.51416
"2897",77.16182,466.52734
"2898",76.71015,466.54053
"2899",76.544136,466.5537
"2900",76.71015,466.5669
"2901",77.17891,466.58008
"2902",77.84299,466.59326
"2903",78.521706,466.60645
"2904",79.05882,466.61963
"2905",79.35424,466.6328
"2906",79.398186,466.646
"2907",79.22972,466.65918
"2908",78.91234,466.67236
"2909",78.49729,466.68555
"2910",78.01877,466.69873
"2911",77.506065,466.7119
"2912",76.96651,466.7251
"2913",76.41474,466.73828
"2914",75.8703,466.75146
"2915",75.3576,466.76465
"2916",74.896164,466.77783
"2917",74.50065,466.79102
"2918",74.2272,466.8042
"2919",74.19302,466.81738
"2920",74.57877,466.83057
"2921",75.54803,466.84375
"2922",77.1667,466.85693
"2923",79.35424,466.87012
"2924",81.87869,466.8833
"2925",84.39826,466.89648
"2926",86.57603,466.90967
"2927",88.18005,466.92285
"2928",89.110245,466.93604
"2929",89.38857,466.94922
"2930",89.09804,466.9624
"2931",88.375374,466.9756
"2932",87.35241,466.98877
"2933",86.1561,467.00195
"2934",84.88899,467.01514
"2935",83.648735,467.02832
"2936",82.54032,467.0415
"2937",81.60769,467.0547
"2938",80.82887,467.06787
"2939",80.15259,467.08105
"2940",79.571526,467.09424
"2941",79.12474,467.10742
"2942",78.887924,467.1206
"2943",78.92699,467.1338
"2944",79.276115,467.14697
"2945",79.84253,467.16016
"2946",80.45289,467.17334
"2947",80.93141,467.18652
"2948",81.18532,467.1997
"2949",81.18776,467.2129
"2950",80.96559,467.22607
"2951",80.56519,467.23926
"2952",80.04761,467.25244
"2953",79.449455,467.26562
"2954",78.802475,467.2788
"2955",78.135956,467.292
"2956",77.48165,467.30518
"2957",76.85664,467.31836
"2958",76.280464,467.33154
"2959",75.7702,467.34473
"2960",75.32342,467.3579
"2961",74.95232,467.3711
"2962",74.737465,467.38428
"2963",74.92302,467.39746
"2964",75.78485,467.41064
"2965",77.45968,467.42383
"2966",79.84741,467.437
"2967",82.66239,467.4502
"2968",85.4847,467.46338
"2969",87.86267,467.47656
"2970",89.50332,467.48975
"2971",90.36515,467.50293
"2972",90.54337,467.5161
"2973",90.15274,467.5293
"2974",89.32754,467.54248
"2975",88.21423,467.55566
"2976",86.939804,467.56885
"2977",85.6141,467.58203
"2978",84.30305,467.5952
"2979",83.035934,467.6084
"2980",81.8201,467.62158
"2981",80.66041,467.63477
"2982",79.57641,467.64795
"2983",78.643776,467.66113
"2984",77.95285,467.67432
"2985",77.58663,467.6875
"2986",77.574425,467.70068
"2987",77.86496,467.71387
"2988",78.33372,467.72705
"2989",78.82445,467.74023
"2990",79.19554,467.75342
"2991",79.381096,467.7666
"2992",79.42748,467.7798
"2993",79.40795,467.79297
"2994",79.36645,467.80615
"2995",79.276115,467.81934
"2996",79.10033,467.83252
"2997",78.80003,467.8457
"2998",78.35081,467.8589
"2999",77.789276,467.87207
"3000",77.20088,467.88525
"3001",76.65156,467.89844
"3002",76.16083,467.91162
"3003",75.71404,467.9248
"3004",75.32098,467.938
"3005",75.09148,467.95117
"3006",75.245285,467.96436
"3007",76.0119,467.97754
"3008",77.506065,467.99072
"3009",79.66186,468.0039
"3010",82.22537,468.0171
"3011",84.805984,468.03027
"3012",86.9984,468.04346
"3013",88.534065,468.05664
"3014",89.33242,468.06982
"3015",89.43984,468.083
"3016",88.973526,468.0962
"3017",88.077515,468.10938
"3018",86.908066,468.12256
"3019",85.60189,468.13574
"3020",84.27375,468.14893
"3021",82.98955,468.1621
"3022",81.78592,468.1753
"3023",80.672615,468.18848
"3024",79.70336,468.20166
"3025",78.958725,468.21484
"3026",78.47532,468.22803
"3027",78.26292,468.2412
"3028",78.311745,468.2544
"3029",78.58274,468.26758
"3030",78.975815,468.28076
"3031",79.395744,468.29395
"3032",79.77417,468.30713
"3033",80.05737,468.3203
"3034",80.177,468.3335
"3035",80.10376,468.34668
"3036",79.84253,468.35986
"3037",79.43969,468.37305
"3038",78.92699,468.38623
"3039",78.34104,468.3994
"3040",77.69894,468.4126
"3041",77.02998,468.42578
"3042",76.34882,468.43896
"3043",75.67498,468.45215
"3044",75.020676,468.46533
"3045",74.4567,468.47852
"3046",74.07095,468.4917
"3047",73.919586,468.50488
"3048",74.03677,468.51807
"3049",74.53239,468.53125
"3050",75.543144,468.54443
"3051",77.13252,468.55762
"3052",79.24925,468.5708
"3053",81.739525,468.58398
"3054",84.32014,468.59717
"3055",86.61509,468.61035
"3056",88.31922,468.62354
"3057",89.28603,468.63672
"3058",89.532616,468.6499
"3059",89.161514,468.6631
"3060",88.31678,468.67627
"3061",87.15953,468.68945
"3062",85.838715,468.70264
"3063",84.491035,468.71582
"3064",83.211716,468.729
"3065",82.04715,468.7422
"3066",80.99733,468.75537
"3067",80.045166,468.76855
"3068",79.17113,468.78174
"3069",78.40696,468.79492
"3070",77.80881,468.8081
"3071",77.44747,468.8213
"3072",77.36446,468.83447
"3073",77.5378,468.84766
"3074",77.88205,468.86084
"3075",78.28245,468.87402
"3076",78.61936,468.8872
"3077",78.80736,468.9004
"3078",78.82201,468.91357
"3079",78.675514,468.92676
"3080",78.38987,468.93994
"3081",77.99191,468.95312
"3082",77.506065,468.9663
"3083",77.01778,468.9795
"3084",76.61738,468.99268
"3085",76.32685,469.00586
"3086",76.10712,469.01904
"3087",75.90448,469.03223
"3088",75.67254,469.0454
"3089",75.36248,469.0586
"3090",74.98894,469.07178
"3091",74.6276,469.08496
"3092",74.43229,469.09814
"3093",74.581215,469.11133
"3094",75.28191,469.1245
"3095",76.654,469.1377
"3096",78.6511,469.15088
"3097",81.10475,469.16406
"3098",83.73907,469.17725
"3099",86.1976,469.19043
"3100",88.16052,469.2036
"3101",89.45693,469.2168
"3102",90.055084,469.22998
"3103",89.97696,469.24316
"3104",89.322655,469.25635
"3105",88.26551,469.26953
"3106",87.02281,469.2827
"3107",85.74105,469.2959
"3108",84.508125,469.30908
"3109",83.36065,469.32227
"3110",82.27909,469.33545
"3111",81.2195,469.34863
"3112",80.15015,469.36182
"3113",79.093,469.375
"3114",78.12375,469.38818
"3115",77.36202,469.40137
"3116",76.90791,469.41455
"3117",76.79317,469.42773
"3118",76.95674,469.44092
"3119",77.279015,469.4541
"3120",77.61349,469.4673
"3121",77.90402,469.48047
"3122",78.14816,469.49365
"3123",78.35569,469.50684
"3124",78.521706,469.52002
"3125",78.624245,469.5332
"3126",78.61448,469.5464
"3127",78.42405,469.55957
"3128",78.04562,469.57275
"3129",77.53536,469.58594
"3130",76.981155,469.59912
"3131",76.42451,469.6123
"3132",75.92645,469.6255
"3133",75.508965,469.63867
"3134",75.17204,469.65186
"3135",74.90105,469.66504
"3136",74.69596,469.67822
"3137",74.581215,469.6914
"3138",74.68864,469.7046
"3139",75.245285,469.71777
"3140",76.4416,469.73096
"3141",78.31907,469.74414
"3142",80.7483,469.75732
"3143",83.42901,469.7705
"3144",85.96567,469.7837
"3145",89.38613,469.81006
"3146",90.074615,469.82324
"3147",90.13809,469.83643
"3148",89.69131,469.8496
"3149",88.85878,469.8628
"3150",87.77234,469.87598
"3151",86.56626,469.88916
"3152",85.34554,469.90234
"3153",84.18341,469.91553
"3154",83.1165,469.9287
"3155",82.1326,469.9419
"3156",81.20729,469.95508
"3157",80.33326,469.96826
"3158",79.53246,469.98145
"3159",78.86839,469.99463
"3160",78.46555,470.0078
"3161",78.416725,470.021
"3162",78.70725,470.03418
"3163",79.217514,470.04736
"3164",79.78882,470.06055
"3165",80.26246,470.07373
"3166",80.52369,470.0869
"3167",80.53101,470.1001
"3168",80.31861,470.11328
"3169",79.92798,470.12646
"3170",79.40063,470.13965
"3171",78.7805,470.15283
"3172",78.1091,470.16602
"3173",77.42794,470.1792
"3174",76.77852,470.19238
"3175",76.173035,470.20557
"3176",75.613945,470.21875
"3177",75.11589,470.23193
"3178",74.70084,470.24512
"3179",74.373695,470.2583
"3180",74.15152,470.27148
"3181",74.03677,470.28467
"3182",74.02701,470.29785
"3183",74.18814,470.31104
"3184",74.69596,470.32422
"3185",75.74578,470.3374
"3186",77.43282,470.3506
"3187",79.69604,470.36377
"3188",82.31327,470.37695
"3189",84.93782,470.39014
"3190",87.20592,470.40332
"3191",88.86366,470.4165
"3192",89.830475,470.4297
"3193",90.16739,470.44287
"3194",89.9794,470.45605
"3195",89.38857,470.46924
"3196",88.52918,470.48242
"3197",87.518425,470.4956
"3198",86.44907,470.5088
"3199",85.384605,470.52197
"3200",84.36164,470.53516
"3201",83.38262,470.54834
"3202",82.442665,470.56152
"3203",81.53933,470.5747
"3204",80.706795,470.5879
"3205",80.02075,470.60107
"3206",79.551994,470.61426
"3207",79.34936,470.62744
"3208",79.40063,470.64062
"3209",79.64477,470.6538
"3210",79.974365,470.667
"3211",80.2942,470.68018
"3212",80.50904,470.69336
"3213",80.55787,470.70654
"3214",80.43824,470.71973
"3215",80.177,470.7329
"3216",79.81079,470.7461
"3217",79.37133,470.75928
"3218",78.86839,470.77246
"3219",78.30198,470.78564
"3220",77.67208,470.79883
"3221",76.98604,470.812
"3222",76.26093,470.8252
"3223",75.53826,470.83838
"3224",74.8571,470.85156
"3225",74.26139,470.86475
"3226",73.777985,470.87793
"3227",73.45083,470.8911
"3228",73.304344,470.9043
"3229",73.33364,470.91748
"3230",73.494774,470.93066
"3231",73.7438,470.94385
"3232",74.10513,470.95703
"3233",74.74479,470.9702
"3234",75.877625,470.9834
"3235",77.625694,470.99658
"3236",79.9353,471.00977
"3237",82.59403,471.02295
"3238",85.23811,471.03613
"3239",87.47448,471.04932
"3240",89.041885,471.0625
"3241",89.884186,471.07568
"3242",90.074615,471.08887
"3243",89.73281,471.10205
"3244",88.990616,471.11523
"3245",87.974976,471.12842
"3246",86.79576,471.1416
"3247",85.54574,471.1548
"3248",84.300606,471.16797
"3249",83.104294,471.18115
"3250",81.97635,471.19434
"3251",80.91676,471.20752
"3252",79.92798,471.2207
"3253",79.03441,471.2339
"3254",78.2971,471.24707
"3255",77.78439,471.26025
"3256",77.56222,471.27344
"3257",77.63058,471.28662
"3258",77.92844,471.2998
"3259",78.35325,471.313
"3260",78.77806,471.32617
"3261",79.10521,471.33936
"3262",79.27856,471.35254
"3263",79.28344,471.36572
"3264",79.12718,471.3789
"3265",78.82933,471.3921
"3266",78.4094,471.40527
"3267",77.88937,471.41846
"3268",77.28634,471.43164
"3269",76.6247,471.44482
"3270",75.93622,471.458
"3271",75.2575,471.4712
"3272",74.634926,471.48438
"3273",74.11246,471.49756
"3274",73.72671,471.51074
"3275",73.497215,471.52393
"3276",73.411766,471.5371
"3277",73.44106,471.5503
"3278",73.55581,471.56348
"3279",73.724266,471.57666
"3280",73.91226,471.58984
"3281",74.10513,471.60303
"3282",74.305336,471.6162
"3283",74.600746,471.6294
"3284",75.20378,471.64258
"3285",76.383,471.65576
"3286",78.27512,471.66895
"3287",80.81178,471.68213
"3288",83.717094,471.6953
"3289",86.573586,471.7085
"3290",88.94667,471.72168
"3291",90.562904,471.73486
"3292",91.37591,471.74805
"3293",91.50286,471.76123
"3294",91.07805,471.7744
"3295",90.25773,471.7876
"3296",89.15907,471.80078
"3297",87.89197,471.81396
"3298",86.536964,471.82715
"3299",85.16487,471.84033
"3300",83.81964,471.85352
"3301",82.52079,471.8667
"3302",81.270775,471.87988
"3303",80.07446,471.89307
"3304",78.96361,471.90625
"3305",78.01633,471.91943
"3306",77.34249,471.93262
"3307",77.02266,471.9458
"3308",77.07393,471.95898
"3309",77.4255,471.97217
"3310",77.9382,471.98535
"3311",78.44358,471.99854
"3312",78.79515,472.01172
"3313",78.922104,472.0249
"3314",78.80736,472.0381
"3315",78.4802,472.05127
"3316",77.98459,472.06445
"3317",77.37423,472.07764
"3318",76.6955,472.09082
"3319",75.98505,472.104
"3320",75.27215,472.1172
"3321",74.581215,472.13037
"3322",73.93179,472.14355
"3323",73.34829,472.15674
"3324",72.84535,472.16992
"3325",72.44007,472.1831
"3326",72.147095,472.1963
"3327",71.98352,472.20947
"3328",71.94934,472.22266
"3329",72.03967,472.23584
"3330",72.23743,472.24902
"3331",72.51331,472.2622
"3332",72.82338,472.2754
"3333",73.13832,472.28857
"3334",73.48257,472.30176
"3335",74.02701,472.31494
"3336",75.00603,472.32812
"3337",76.60029,472.3413
"3338",78.79759,472.3545
"3339",81.39773,472.36768
"3340",84.0589,472.38086
"3341",86.380714,472.39404
"3342",88.06775,472.40723
"3343",89.024796,472.4204
"3344",89.33486,472.4336
"3345",89.11513,472.44678
"3346",88.48768,472.45996
"3347",87.55993,472.47314
"3348",86.431984,472.48633
"3349",85.17952,472.4995
"3350",83.86359,472.5127
"3351",82.53788,472.52588
"3352",81.24635,472.53906
"3353",80.01343,472.55225
"3354",78.86595,472.56543
"3355",77.855194,472.5786
"3356",77.07393,472.5918
"3357",76.627144,472.60498
"3358",76.60273,472.61816
"3359",77.01045,472.63135
"3360",77.747765,472.64453
"3361",78.643776,472.6577
"3362",79.49096,472.6709
"3363",80.12085,472.68408
"3364",80.44068,472.69727
"3365",80.448006,472.71045
"3366",80.19409,472.72363
"3367",79.742424,472.73682
"3368",79.15892,472.75
"3369",78.49241,472.76318
"3370",77.79172,472.77637
"3371",77.08125,472.78955
"3372",76.387886,472.80273
"3373",75.73113,472.81592
"3374",75.123215,472.8291
"3375",74.58366,472.8423
"3376",74.13199,472.85547
"3377",73.7731,472.86865
"3378",73.52163,472.88184
"3379",73.38735,472.89502
"3380",73.37026,472.9082
"3381",73.46792,472.9214
"3382",73.65591,472.93457
"3383",73.900055,472.94775
"3384",74.16861,472.96094
"3385",74.46647,472.97412
"3386",74.91081,472.9873
"3387",75.7409,473.0005
"3388",77.14961,473.01367
"3389",79.18089,473.02686
"3390",81.6614,473.04004
"3391",84.27619,473.05322
"3392",86.62241,473.0664
"3393",88.36805,473.0796
"3394",89.37881,473.09277
"3395",89.71328,473.10596
"3396",89.50332,473.11914
"3397",88.87587,473.13232
"3398",87.955444,473.1455
"3399",86.82994,473.1587
"3400",85.57015,473.17188
"3401",84.23224,473.18506
"3402",82.85283,473.19824
"3403",81.45876,473.21143
"3404",80.08423,473.2246
"3405",78.76341,473.2378
"3406",77.56466,473.25098
"3407",76.60273,473.26416
"3408",76.016785,473.27734
"3409",75.93866,473.29053
"3410",76.41474,473.3037
"3411",77.35958,473.3169
"3412",78.572975,473.33008
"3413",79.78882,473.34326
"3414",80.77272,473.35645
"3415",81.3782,473.36963
"3416",81.57107,473.3828
"3417",81.41726,473.396
"3418",81.01442,473.40918
"3419",80.445564,473.42236
"3420",79.77417,473.43555
"3421",79.05394,473.44873
"3422",78.311745,473.4619
"3423",77.574425,473.4751
"3424",76.86397,473.48828
"3425",76.19989,473.50146
"3426",75.596855,473.51465
"3427",75.06706,473.52783
"3428",74.63004,473.54102
"3429",74.29557,473.5542
"3430",74.06607,473.56738
"3431",73.94156,473.58057
"3432",73.90982,473.59375
"3433",73.94644,473.60693
"3434",74.04898,473.62012
"3435",74.29557,473.6333
"3436",74.90105,473.64648
"3437",76.11688,473.65967
"3438",78.05295,473.67285
"3439",80.584724,473.68604
"3440",83.39727,473.69922
"3441",86.07065,473.7124
"3442",88.18494,473.7256
"3443",89.515526,473.73877
"3444",90.0795,473.75195
"3445",90.023346,473.76514
"3446",89.498436,473.77832
"3447",88.639046,473.7915
"3448",87.53796,473.8047
"3449",86.27329,473.81787
"3450",84.88899,473.83105
"3451",83.43389,473.84424
"3452",81.934845,473.85742
"3453",80.42359,473.8706
"3454",78.93431,473.8838
"3455",77.523155,473.89697
"3456",76.28779,473.91016
"3457",75.36248,473.92334
"3458",74.915695,473.93652
"3459",75.07927,473.9497
"3460",75.877625,473.9629
"3461",77.1667,473.97607
"3462",78.6804,473.98926
"3463",80.113525,474.00244
"3464",81.20973,474.01562
"3465",81.83475,474.0288
"3466",81.99344,474.042
"3467",81.78592,474.05518
"3468",81.32937,474.06836
"3469",80.72144,474.08154
"3470",80.0354,474.09473
"3471",79.31518,474.1079
"3472",78.59739,474.1211
"3473",77.90158,474.13428
"3474",77.2375,474.14746
"3475",76.610054,474.16064
"3476",76.036316,474.17383
"3477",75.52117,474.187
"3478",75.07927,474.2002
"3479",74.71061,474.21338
"3480",74.41276,474.22656
"3481",74.18814,474.23975
"3482",74.05875,474.25293
"3483",74.16861,474.2661
"3484",74.80095,474.2793
"3485",76.2121,474.29248
"3486",78.450905,474.30566
"3487",81.29275,474.31885
"3488",84.32014,474.33203
"3489",87.0399,474.3452
"3490",89.03212,474.3584
"3491",90.13321,474.37158
"3492",90.44816,474.38477
"3493",90.17471,474.39795
"3494",89.478905,474.41113
"3495",88.482796,474.42432
"3496",87.276726,474.4375
"3497",85.91928,474.45068
"3498",84.4593,474.46387
"3499",82.933395,474.47705
"3500",81.36843,474.49023
"3501",79.801025,474.50342
"3502",78.27512,474.5166
"3503",76.859085,474.5298
"3504",75.65301,474.54297
"3505",74.79851,474.55615
"3506",74.461586,474.56934
"3507",74.757,474.58252
"3508",75.684746,474.5957
"3509",77.0959,474.6089
"3510",78.71458,474.62207
"3511",80.22827,474.63525
"3512",81.373314,474.64844
"3513",82.022736,474.66162
"3514",82.18875,474.6748
"3515",81.97879,474.688
"3516",81.51736,474.70117
"3517",80.907,474.71436
"3518",80.22095,474.72754
"3519",79.500725,474.74072
"3520",78.77318,474.7539
"3521",78.06027,474.7671
"3522",77.37423,474.78027
"3523",76.7248,474.79346
"3524",76.12665,474.80664
"3525",75.58709,474.81982
"3526",75.0988,474.833
"3527",74.66422,474.8462
"3528",74.31754,474.85938
"3529",74.21744,474.87256
"3530",74.66422,474.88574
"3531",75.945984,474.89893
"3532",78.12619,474.9121
"3533",80.9778,474.9253
"3534",84.05646,474.93848
"3535",86.83238,474.95166
"3536",88.86122,474.96484
"3537",89.969635,474.97803
"3538",90.26017,474.9912
"3539",89.95743,475.0044
"3540",89.24208,475.01758
"3541",88.233765,475.03076
"3542",87.02281,475.04395
"3543",85.662926,475.05713
"3544",84.2005,475.0703
"3545",82.669716,475.0835
"3546",81.10231,475.09668
"3547",79.53979,475.10986
"3548",78.03342,475.12305
"3549",76.654,475.13623
"3550",75.50164,475.1494
"3551",74.71305,475.1626
"3552",74.43717,475.17578
"3553",74.776535,475.18896
"3554",75.716484,475.20215
"3555",77.100784,475.21533
"3556",78.660866,475.22852
"3557",80.08423,475.2417
"3558",81.13649,475.25488
"3559",81.70779,475.26807
"3560",81.82254,475.28125
"3561",81.58816,475.29443
"3562",81.126724,475.30762
"3563",80.533455,475.3208
"3564",79.86694,475.33398
"3565",79.15648,475.34717
"3566",78.42893,475.36035
"3567",77.70626,475.37354
"3568",77.00313,475.38672
"3569",76.33173,475.3999
"3570",75.699394,475.4131
"3571",75.106125,475.42627
"3572",74.54948,475.43945
"3573",74.04898,475.45264
"3574",73.69985,475.46582
"3575",73.760895,475.479
"3576",74.57877,475.4922
"3577",76.35615,475.50537
"3578",78.99779,475.51855
"3579",82.13504,475.53174
"3580",85.23811,475.54492
"3581",87.767456,475.5581
"3582",89.37148,475.5713
"3583",90.020905,475.58447
"3584",89.918365,475.59766
"3585",89.29336,475.61084
"3586",88.31922,475.62402
"3587",87.12291,475.6372
"3588",85.80209,475.6504
"3589",84.41779,475.66357
"3590",82.99931,475.67676
"3591",81.566185,475.68994
"3592",80.12329,475.70312
"3593",78.68284,475.7163
"3594",77.28634,475.7295
"3595",76.019226,475.74268
"3596",75.01335,475.75586
"3597",74.43717,475.76904
"3598",74.44694,475.78223
"3599",75.11101,475.7954
"3600",76.34882,475.8086
"3601",77.94064,475.82178
"3602",79.57885,475.83496
"3603",80.96559,475.84814
"3604",81.90555,475.86133
"3605",82.3328,475.8745
"3606",82.31571,475.8877
"3607",81.97635,475.90088
"3608",81.42947,475.91406
"3609",80.77028,475.92725
"3610",80.05493,475.94043
"3611",79.3225,475.9536
"3612",78.59739,475.9668
"3613",77.891815,475.97998
"3614",77.21065,475.99316
"3615",76.55634,476.00635
"3616",75.928894,476.01953
"3617",75.3576,476.0327
"3618",74.93767,476.0459
"3619",74.915695,476.05908
"3620",75.60906,476.07227
"3621",77.208206,476.08545
"3622",79.61547,476.09863
"3623",82.47929,476.11182
"3624",85.3016,476.125
"3625",87.58434,476.13818
"3626",89.005264,476.15137
"3627",89.549706,476.16455
"3628",89.410545,476.17773
"3629",88.80751,476.19092
"3630",87.90173,476.2041
"3631",86.7982,476.2173
"3632",85.56527,476.23047
"3633",84.242004,476.24365
"3634",82.85527,476.25684
"3635",81.41238,476.27002
"3636",79.93042,476.2832
"3637",78.44358,476.2964
"3638",77.01778,476.30957
"3639",75.757996,476.32275
"3640",74.81804,476.33594
"3641",74.356606,476.34912
"3642",74.495766,476.3623
"3643",75.25506,476.3755
"3644",76.50507,476.38867
"3645",78.00656,476.40186
"3646",79.46899,476.41504
"3647",80.64332,476.42822
"3648",81.39529,476.4414
"3649",81.7029,476.4546
"3650",81.63943,476.46777
"3651",81.30251,476.48096
"3652",80.78493,476.49414
"3653",80.147705,476.50732
"3654",79.43725,476.5205
"3655",78.68772,476.5337
"3656",77.93088,476.54688
"3657",77.19112,476.56006
"3658",76.48066,476.57324
"3659",75.81171,476.58643
"3660",75.1989,476.5996
"3661",74.71549,476.6128
"3662",74.58366,476.62598
"3663",75.14763,476.63916
"3664",76.654,476.65234
"3665",79.061264,476.66553
"3666",82.039825,476.6787
"3667",85.08919,476.6919
"3668",87.66491,476.70508
"3669",89.373924,476.71826
"3670",90.14542,476.73145
"3671",90.16495,476.74463
"3672",89.66689,476.7578
"3673",88.8246,476.771
"3674",87.765015,476.78418
"3675",86.573586,476.79736
"3676",85.30892,476.81055
"3677",84.000305,476.82373
"3678",82.66239,476.8369
"3679",81.30007,476.8501
"3680",79.93286,476.86328
"3681",78.58518,476.87646
"3682",77.32052,476.88965
"3683",76.24628,476.90283
"3684",75.51873,476.91602
"3685",75.29412,476.9292
"3686",75.65789,476.94238
"3687",76.55634,476.95557
"3688",77.806366,476.96875
"3689",79.13695,476.98193
"3690",80.28443,476.99512
"3691",81.07057,477.0083
"3692",81.43679,477.02148
"3693",81.446556,477.03467
"3694",81.18532,477.04785
"3695",80.743416,477.06104
"3696",80.177,477.07422
"3697",79.52758,477.0874
"3698",78.82689,477.1006
"3699",78.101776,477.11377
"3700",77.37667,477.12695
"3701",76.67109,477.14014
"3702",75.999695,477.15332
"3703",75.372246,477.1665
"3704",74.82536,477.1797
"3705",74.49821,477.19287
"3706",74.70084,477.20605
"3707",75.74578,477.21924
"3708",77.730675,477.23242
"3709",80.462654,477.2456
"3710",83.53155,477.2588
"3711",86.40269,477.27197
"3712",88.587776,477.28516
"3713",89.85489,477.29834
"3714",90.287025,477.31152
"3715",90.09415,477.3247
"3716",89.4667,477.3379
"3717",88.551155,477.35107
"3718",87.45495,477.36426
"3719",86.258644,477.37744
"3720",85.01106,477.39062
"3721",83.75128,477.4038
"3722",82.496376,477.417
"3723",81.253685,477.43018
"3724",80.025635,477.44336
"3725",78.84154,477.45654
"3726",77.77463,477.46973
"3727",76.93965,477.4829
"3728",76.47578,477.4961
"3729",76.49775,477.50928
"3730",77.00557,477.52246
"3731",77.86984,477.53564
"3732",78.88304,477.54883
"3733",79.83032,477.562
"3734",80.52857,477.5752
"3735",80.89967,477.58838
"3736",80.96315,477.60156
"3737",80.780045,477.61475
"3738",80.41871,477.62793
"3739",79.92798,477.6411
"3740",79.34692,477.6543
"3741",78.69993,477.66748
"3742",78.013885,477.68066
"3743",77.30587,477.69385
"3744",76.60761,477.70703
"3745",75.93622,477.7202
"3746",75.30877,477.7334
"3747",74.737465,477.74658
"3748",74.27116,477.75977
"3749",74.06851,477.77295
"3750",74.42741,477.78613
"3751",75.60906,477.79932
"3752",77.659874,477.8125
"3753",80.365,477.82568
"3754",83.32403,477.83887
"3755",86.03647,477.85205
"3756",88.07263,477.86523
"3757",89.249405,477.87842
"3758",89.64736,477.8916
"3759",89.444725,477.9048
"3760",88.80507,477.91797
"3761",87.87976,477.93115
"3762",86.79088,477.94434
"3763",85.61898,477.95752
"3764",84.41779,477.9707
"3765",83.22148,477.9839
"3766",82.04715,477.99707
"3767",80.89723,478.01025
"3768",79.7937,478.02344
"3769",78.76097,478.03662
"3770",77.86984,478.0498
"3771",77.22041,478.063
"3772",76.90547,478.07617
"3773",76.981155,478.08936
"3774",77.40597,478.10254
"3775",78.06271,478.11572
"3776",78.77562,478.1289
"3777",79.38598,478.1421
"3778",79.781494,478.15527
"3779",79.923096,478.16846
"3780",79.84009,478.18164
"3781",79.57397,478.19482
"3782",79.17845,478.208
"3783",78.69749,478.2212
"3784",78.15549,478.23438
"3785",77.57931,478.24756
"3786",76.99092,478.26074
"3787",76.40986,478.27393
"3788",75.860535,478.2871
"3789",75.36248,478.3003
"3790",74.92546,478.31348
"3791",74.55192,478.32666
"3792",74.25407,478.33984
"3793",74.1149,478.35303
"3794",74.33463,478.3662
"3795",75.17204,478.3794
"3796",76.74677,478.39258
"3797",78.958725,478.40576
"3798",81.53445,478.41895
"3799",84.08087,478.43213
"3800",86.204926,478.4453
"3801",87.640495,478.4585
"3802",88.360725,478.47168
"3803",88.480354,478.48486
"3804",88.12634,478.49805
"3805",87.40368,478.51123
"3806",86.4271,478.5244
"3807",85.31136,478.5376
"3808",84.139465,478.55078
"3809",82.97002,478.56396
"3810",81.83719,478.57715
"3811",80.76051,478.59033
"3812",79.744865,478.60352
"3813",78.79027,478.6167
"3814",77.943085,478.62988
"3815",77.28878,478.64307
"3816",76.91524,478.65625
"3817",76.893265,478.66943
"3818",77.21797,478.68262
"3819",77.7966,478.6958
"3820",78.485085,478.70898
"3821",79.11986,478.72217
"3822",79.57397,478.73535
"3823",79.79126,478.74854
"3824",79.77173,478.76172
"3825",79.551994,478.7749
"3826",79.18822,478.7881
"3827",78.71946,478.80127
"3828",78.18967,478.81445
"3829",77.61837,478.82764
"3830",77.032425,478.84082
"3831",76.453804,478.854
"3832",75.90692,478.8672
"3833",75.406425,478.88037
"3834",74.97429,478.89355
"3835",74.62272,478.90674
"3836",74.356606,478.91992
"3837",74.161285,478.9331
"3838",74.04898,478.9463
"3839",74.11734,478.95947
"3840",74.57633,478.97266
"3841",75.648125,478.98584
"3842",77.42306,478.99902
"3843",79.798584,479.0122
"3844",82.48905,479.0254
"3845",85.09651,479.03857
"3846",87.22301,479.05176
"3847",88.63172,479.06494
"3848",89.29336,479.07812
"3849",89.31045,479.0913
"3850",88.817276,479.1045
"3851",87.96033,479.11768
"3852",86.87633,479.13086
"3853",85.67269,479.14404
"3854",84.42756,479.15723
"3855",83.18486,479.1704
"3856",81.96658,479.1836
"3857",80.780045,479.19678
"3858",79.63012,479.20996
"3859",78.553444,479.22314
"3860",77.62081,479.23633
"3861",76.946976,479.2495
"3862",76.6247,479.2627
"3863",76.697945,479.27588
"3864",77.12276,479.28906
"3865",77.78195,479.30225
"3866",78.502174,479.31543
"3867",79.12962,479.3286
"3868",79.554436,479.3418
"3869",79.73998,479.35498
"3870",79.70336,479.36816
"3871",79.47387,479.38135
"3872",79.09544,479.39453
"3873",78.61204,479.4077
"3874",78.05295,479.4209
"3875",77.44503,479.43408
"3876",76.8127,479.44727
"3877",76.18768,479.46045
"3878",75.60174,479.47363
"3879",75.07927,479.48682
"3880",74.64713,479.5
"3881",74.322426,479.51318
"3882",74.107574,479.52637
"3883",74.00015,479.53955
"3884",73.97574,479.55273
"3885",74.005035,479.56592
"3886",74.110016,479.5791
"3887",74.43229,479.5923
"3888",75.18181,479.60547
"3889",76.54658,479.61865
"3890",78.555885,479.63184
"3891",81.058365,479.64502
"3892",83.73174,479.6582
"3893",86.170746,479.6714
"3894",88.043335,479.68457
"3895",89.19081,479.69775
"3896",89.62783,479.71094
"3897",89.4667,479.72412
"3898",88.83681,479.7373
"3899",87.87488,479.7505
"3900",86.70786,479.76367
"3901",85.4432,479.77686
"3902",84.156555,479.79004
"3903",82.90166,479.80322
"3904",81.71267,479.8164
"3905",80.59449,479.8296
"3906",79.55688,479.84277
"3907",78.63157,479.85596
"3908",77.89426,479.86914
"3909",77.435265,479.88232
"3910",77.32784,479.8955
"3911",77.576866,479.9087
"3912",78.1091,479.92188
"3913",78.78294,479.93506
"3914",79.432365,479.94824
"3915",79.91577,479.96143
"3916",80.16235,479.9746
"3917",80.15991,479.9878
"3918",79.937744,480.00098
"3919",79.54223,480.01416
"3920",79.012436,480.02734
"3921",78.382545,480.04053
"3922",77.68917,480.0537
"3923",76.95674,480.0669
"3924",76.21454,480.08008
"3925",75.4992,480.09326
"3926",74.83513,480.10645
"3927",74.25895,480.11963
"3928",73.780426,480.1328
"3929",73.41665,480.146
"3930",73.162735,480.15918
"3931",73.01869,480.17236
"3932",72.96742,480.18555
"3933",72.989395,480.19873
"3934",73.08705,480.2119
"3935",73.35073,480.2251
"3936",73.97574,480.23828
"3937",75.17204,480.25146
"3938",77.01778,480.26465
"3939",79.40307,480.27783
"3940",82.04959,480.29102
"3941",84.56672,480.3042
"3942",86.573586,480.31738
"3943",87.85535,480.33057
"3944",88.39735,480.34375
"3945",88.309456,480.35693
"3946",87.728386,480.37012
"3947",86.79088,480.3833
"3948",85.61898,480.39648
"3949",84.317696,480.40967
"3950",82.96025,480.42285
"3951",81.59304,480.43604
"3952",80.25025,480.44922
"3953",78.95628,480.4624
"3954",77.713585,480.4756
"3955",76.56367,480.48877
"3956",75.58953,480.50195
"3957",74.91081,480.51514
"3958",74.652016,480.52832
"3959",74.86687,480.5415
"3960",75.49676,480.5547
"3961",76.387886,480.56787
"3962",77.32296,480.58105
"3963",78.09689,480.59424
"3964",78.58518,480.60742
"3965",78.75853,480.6206
"3966",78.65354,480.6338
"3967",78.33372,480.64697
"3968",77.86252,480.66016
"3969",77.279015,480.67334
"3970",76.62226,480.68652
"3971",75.91913,480.6997
"3972",75.20134,480.7129
"3973",74.49821,480.72607
"3974",73.83658,480.73926
"3975",73.248184,480.75244
"3976",72.75014,480.76562
"3977",72.35706,480.7788
"3978",72.076294,480.792
"3979",71.90051,480.80518
"3980",71.82971,480.81836
"3981",71.9176,480.83154
"3982",72.33509,480.84473
"3983",73.321434,480.8579
"3984",75.03288,480.8711
"3985",77.435265,480.88428
"3986",80.31617,480.89746
"3987",83.29473,480.91064
"3988",85.94614,480.92383
"3989",87.940796,480.937
"3990",89.15907,480.9502
"3991",89.64248,480.96338
"3992",89.495995,480.97656
"3993",88.8539,480.98975
"3994",87.84558,481.00293
"3995",86.59312,481.0161
"3996",85.20393,481.0293
"3997",83.76105,481.04248
"3998",82.32304,481.05566
"3999",80.919205,481.06885
"4000",79.60815,481.08203
"4001",78.46555,481.0952
"4002",77.55245,481.1084
"4003",76.92012,481.12158
"4004",76.654,481.13477
"4005",76.81026,481.14795
"4006",77.3547,481.16113
"4007",78.17258,481.17432
"4008",79.11742,481.1875
"4009",80.00122,481.20068
"4010",80.64332,481.21387
"4011",80.953384,481.22705
"4012",80.93141,481.24023
"4013",80.63355,481.25342
"4014",80.1355,481.2666
"4015",79.49828,481.2798
"4016",78.76341,481.29297
"4017",78.01877,481.30615
"4018",77.349815,481.31934
"4019",76.788284,481.33252
"4020",76.297554,481.3457
"4021",75.83368,481.3589
"4022",75.35027,481.37207
"4023",74.80827,481.38525
"4024",74.21744,481.39844
"4025",73.73159,481.41162
"4026",73.64614,481.4248
"4027",74.285805,481.438
"4028",75.84833,481.45117
"4029",78.29954,481.46436
"4030",81.36355,481.47754
"4031",84.58137,481.49072
"4032",87.450066,481.5039
"4033",89.58144,481.5171
"4034",90.85344,481.53027
"4035",91.3222,481.54346
"4036",91.13176,481.55664
"4037",90.41886,481.56982
"4038",89.32998,481.583
"4039",87.99939,481.5962
"4040",86.539406,481.60938
"4041",85.04036,481.62256
"4042",83.55108,481.63574
"4043",82.08865,481.64893
"4044",80.66285,481.6621
"4045",79.28588,481.6753
"4046",78.00168,481.68848
"4047",76.91768,481.70166
"4048",76.17059,481.71484
"4049",75.894714,481.72803
"4050",76.13641,481.7412
"4051",76.81514,481.7544
"4052",77.75021,481.76758
"4053",78.70725,481.78076
"4054",79.483635,481.79395
"4055",79.957275,481.80713
"4056",80.1062,481.8203
"4057",79.96948,481.8335
"4058",79.61791,481.84668
"4059",79.10033,481.85986
"4060",78.46555,481.87305
"4061",77.75998,481.88623
"4062",77.01289,481.8994
"4063",76.2707,481.9126
"4064",75.55779,481.92578
"4065",74.90593,481.93896
"4066",74.319984,481.95215
"4067",73.8732,481.96533
"4068",73.66079,481.97852
"4069",73.82681,481.9917
"4070",74.55436,482.00488
"4071",76.033875,482.01807
"4072",78.30198,482.03125
"4073",81.15602,482.04443
"4074",84.24933,482.05762
"4075",87.183945,482.0708
"4076",89.579,482.08398
"4077",91.17326,482.09717
"4078",91.930115,482.11035
"4079",91.949646,482.12354
"4080",91.36614,482.13672
"4081",90.33341,482.1499
"4082",89.00038,482.1631
"4083",87.50866,482.17627
"4084",85.97543,482.18945
"4085",84.47883,482.20264
"4086",83.04326,482.21582
"4087",81.668724,482.229
"4088",80.34058,482.2422
"4089",79.078354,482.25537
"4090",77.95285,482.26855
"4091",77.09102,482.28174
"4092",76.62226,482.29492
"4093",76.610054,482.3081
"4094",77.01289,482.3213
"4095",77.68185,482.33447
"4096",78.41917,482.34766
"4097",79.03197,482.36084
"4098",79.398186,482.37402
"4099",79.55932,482.3872
"4100",79.63012,482.4004
"4101",79.68139,482.41357
"4102",79.68627,482.42676
"4103",79.57885,482.43994
"4104",79.293205,482.45312
"4105",78.77318,482.4663
"4106",78.05295,482.4795
"4107",77.242386,482.49268
"4108",76.48066,482.50586
"4109",75.809265,482.51904
"4110",75.250175,482.53223
"4111",74.881516,482.5454
"4112",74.9279,482.5586
"4113",75.67742,482.57178
"4114",77.29366,482.58496
"4115",79.7058,482.59814
"4116",82.61845,482.61133
"4117",85.59945,482.6245
"4118",88.162964,482.6377
"4119",89.986725,482.65088
"4120",90.985275,482.66406
"4121",91.251396,482.67725
"4122",90.92424,482.69043
"4123",90.1503,482.7036
"4124",89.07851,482.7168
"4125",87.84314,482.72998
"4126",86.54917,482.74316
"4127",85.26498,482.75635
"4128",84.02228,482.76953
"4129",82.811325,482.7827
"4130",81.619896,482.7959
"4131",80.45533,482.80908
"4132",79.37377,482.82227
"4133",78.47532,482.83545
"4134",77.872284,482.84863
"4135",77.645226,482.86182
"4136",77.79904,482.875
"4137",78.24826,482.88818
"4138",78.83177,482.90137
"4139",79.38842,482.91455
"4140",79.78882,482.92773
"4141",79.95972,482.94092
"4142",79.886475,482.9541
"4143",79.60082,482.9673
"4144",79.13939,482.98047
"4145",78.54612,482.99365
"4146",77.86252,483.00684
"4147",77.13008,483.02002
"4148",76.37812,483.0332
"4149",75.64568,483.0464
"4150",74.949875,483.05957
"4151",74.302895,483.07275
"4152",73.71206,483.08594
"4153",73.24574,483.09912
"4154",73.1017,483.1123
"4155",73.57046,483.1255
"4156",74.87419,483.13867
"4157",77.01778,483.15186
"4158",79.79126,483.16504
"4159",82.79668,483.17822
"4160",85.555504,483.1914
"4161",87.68932,483.2046
"4162",89.037,483.21777
"4163",89.62295,483.23096
"4164",89.55703,483.24414
"4165",88.9662,483.25732
"4166",87.989624,483.2705
"4167",86.76158,483.2837
"4168",85.418785,483.29688
"4169",84.06378,483.31006
"4170",82.76738,483.32324
"4171",81.566185,483.33643
"4172",80.462654,483.3496
"4173",79.45678,483.3628
"4174",78.57542,483.37598
"4175",77.88205,483.38916
"4176",77.44991,483.40234
"4177",77.33761,483.41553
"4178",77.540245,483.4287
"4179",77.98703,483.4419
"4180",78.54368,483.45508
"4181",79.08568,483.46826
"4182",79.50317,483.48145
"4183",79.7351,483.49463
"4184",79.77173,483.5078
"4185",79.63256,483.521
"4186",79.344475,483.53418
"4187",78.92699,483.54736
"4188",78.41184,483.56055
"4189",77.81857,483.57373
"4190",77.17891,483.5869
"4191",76.52216,483.6001
"4192",75.88983,483.61328
"4193",75.30877,483.62646
"4194",74.79607,483.63965
"4195",74.356606,483.65283
"4196",74.01724,483.66602
"4197",73.90738,483.6792
"4198",74.268715,483.69238
"4199",75.35027,483.70557
"4200",77.239944,483.71875
"4201",79.798584,483.73193
"4202",82.69657,483.74512
"4203",85.4847,483.7583
"4204",87.74059,483.77148
"4205",89.22987,483.78467
"4206",89.94278,483.79785
"4207",89.986725,483.81104
"4208",89.49111,483.82422
"4209",88.587776,483.8374
"4210",87.411,483.8506
"4211",86.082855,483.86377
"4212",84.71076,483.87695
"4213",83.36309,483.89014
"4214",82.091095,483.90332
"4215",80.89967,483.9165
"4216",79.78882,483.9297
"4217",78.768295,483.94287
"4218",77.89914,483.95605
"4219",77.27657,483.96924
"4220",76.981155,483.98242
"4221",77.03975,483.9956
"4222",77.40353,484.0088
"4223",77.94797,484.02197
"4224",78.51682,484.03516
"4225",78.96605,484.04834
"4226",79.20775,484.06152
"4227",79.2224,484.0747
"4228",79.01732,484.0879
"4229",78.643776,484.10107
"4230",78.14572,484.11426
"4231",77.56954,484.12744
"4232",76.94942,484.14062
"4233",76.317085,484.1538
"4234",75.68963,484.167
"4235",75.09148,484.18018
"4236",74.54215,484.19336
"4237",74.06607,484.20654
"4238",73.670555,484.21973
"4239",73.3605,484.2329
"4240",73.14076,484.2461
"4241",73.077286,484.25928
"4242",73.37026,484.27246
"4243",74.27116,484.28564
"4244",75.93622,484.29883
"4245",78.30442,484.312
"4246",81.12184,484.3252
"4247",83.98566,484.33838
"4248",86.45396,484.35156
"4249",88.21912,484.36475
"4250",89.20302,484.37793
"4251",89.48867,484.3911
"4252",89.2079,484.4043
"4253",88.48524,484.41748
"4254",87.450066,484.43066
"4255",86.22934,484.44385
"4256",84.91829,484.45703
"4257",83.597466,484.4702
"4258",82.32548,484.4834
"4259",81.13649,484.49658
"4260",80.03296,484.50977
"4261",79.02464,484.52295
"4262",78.14572,484.53613
"4263",77.471886,484.54932
"4264",77.07393,484.5625
"4265",77.00313,484.57568
"4266",77.24483,484.58887
"4267",77.713585,484.60205
"4268",78.27024,484.61523
"4269",78.765854,484.62842
"4270",79.093,484.6416
"4271",79.20531,484.6548
"4272",79.10033,484.66797
"4273",78.81224,484.68115
"4274",78.38499,484.69434
"4275",77.86252,484.70752
"4276",77.2839,484.7207
"4277",76.680855,484.7339
"4278",76.07782,484.74707
"4279",75.4992,484.76025
"4280",74.966965,484.77344
"4281",74.495766,484.78662
"4282",74.107574,484.7998
"4283",73.80728,484.813
"4284",73.59487,484.82617
"4285",73.45571,484.83936
"4286",73.39956,484.85254
"4287",73.54116,484.86572
"4288",74.09537,484.8789
"4289",75.28924,484.8921
"4290",77.19356,484.90527
"4291",79.68383,484.91846
"4292",82.45731,484.93164
"4293",85.09651,484.94482
"4294",87.21324,484.958
"4295",88.5951,484.9712
"4296",89.24696,484.98438
"4297",89.26894,484.99756
"4298",88.79286,485.01074
"4299",87.96033,485.02393
"4300",86.89342,485.0371
"4301",85.70199,485.0503
"4302",84.46906,485.06348
"4303",83.25567,485.07666
"4304",82.09842,485.08984
"4305",81.007095,485.10303
"4306",79.98413,485.1162
"4307",79.0515,485.1294
"4308",78.25803,485.14258
"4309",77.68673,485.15576
"4310",77.40353,485.16895
"4311",77.44503,485.18213
"4312",77.77951,485.1953
"4313",78.30686,485.2085
"4314",78.87816,485.22168
"4315",79.36889,485.23486
"4316",79.676506,485.24805
"4317",79.76196,485.26123
"4318",79.63256,485.2744
"4319",79.32494,485.2876
"4320",78.87816,485.30078
"4321",78.34348,485.31396
"4322",77.752655,485.32715
"4323",77.14229,485.34033
"4324",76.53925,485.35352
"4325",75.9704,485.3667
"4326",75.45525,485.37988
"4327",75.00603,485.39307
"4328",74.63737,485.40625
"4329",74.36393,485.41943
"4330",74.18814,485.43262
"4331",74.10513,485.4458
"4332",74.10269,485.45898
"4333",74.16373,485.47217
"4334",74.33219,485.48535
"4335",74.759445,485.49854
"4336",75.67498,485.51172
"4337",77.21065,485.5249
"4338",79.34203,485.5381
"4339",81.849396,485.55127
"4340",84.386055,485.56445
"4341",86.56382,485.57764
"4342",88.114136,485.59082
"4343",88.95888,485.604
"4344",89.17616,485.6172
"4345",88.87587,485.63037
"4346",88.18982,485.64355
"4347",87.22301,485.65674
"4348",86.07553,485.66992
"4349",84.83528,485.6831
"4350",83.57061,485.6963
"4351",82.3328,485.70947
"4352",81.15602,485.72266
"4353",80.05737,485.73584
"4354",79.06859,485.74902
"4355",78.23605,485.7622
"4356",77.64767,485.7754
"4357",77.37667,485.78857
"4358",77.469444,485.80176
"4359",77.88937,485.81494
"4360",78.52659,485.82812
"4361",79.22484,485.8413
"4362",79.82544,485.8545
"4363",80.21362,485.86768
"4364",80.34791,485.88086
"4365",80.2478,485.89404
"4366",79.94751,485.90723
"4367",79.49584,485.9204
"4368",78.94896,485.9336
"4369",78.331276,485.94678
"4370",77.67696,485.95996
"4371",77.015335,485.97314
"4372",76.383,485.98633
"4373",75.7995,485.9995
"4374",75.29168,486.0127
"4375",74.87175,486.02588
"4376",74.547035,486.03906
"4377",74.322426,486.05225
"4378",74.20523,486.06543
"4379",74.18814,486.0786
"4380",74.25651,486.0918
"4381",74.37858,486.10498
"4382",74.53727,486.11816
"4383",74.77165,486.13135
"4384",75.23796,486.14453
"4385",76.14618,486.1577
"4386",77.63058,486.1709
"4387",79.6643,486.18408
"4388",82.039825,486.19727
"4389",84.42512,486.21045
"4390",86.451515,486.22363
"4391",87.87244,486.23682
"4392",88.60975,486.25
"4393",88.73426,486.26318
"4394",88.36561,486.27637
"4395",87.63073,486.28955
"4396",86.63706,486.30273
"4397",85.48226,486.31592
"4398",84.23468,486.3291
"4399",82.950485,486.3423
"4400",81.671165,486.35547
"4401",80.42359,486.36865
"4402",79.22972,486.38184
"4403",78.14084,486.39502
"4404",77.23262,486.4082
"4405",76.61982,486.4214
"4406",76.40986,486.43457
"4407",76.64423,486.44775
"4408",77.264366,486.46094
"4409",78.12131,486.47412
"4410",79.012436,486.4873
"4411",79.75464,486.5005
"4412",80.22339,486.51367
"4413",80.39185,486.52686
"4414",80.29664,486.54004
"4415",79.99634,486.55322
"4416",79.551994,486.5664
"4417",79.01976,486.5796
"4418",78.44114,486.59277
"4419",77.840546,486.60596
"4420",77.2375,486.61914
"4421",76.65888,486.63232
"4422",76.11444,486.6455
"4423",75.62127,486.6587
"4424",75.18913,486.67188
"4425",74.83513,486.68506
"4426",74.57145,486.69824
"4427",74.407875,486.71143
"4428",74.34928,486.7246
"4429",74.37858,486.7378
"4430",74.47135,486.75098
"4431",74.60319,486.76416
"4432",74.813156,486.77734
"4433",75.250175,486.79053
"4434",76.121765,486.8037
"4435",77.56222,486.8169
"4436",79.53979,486.83008
"4437",81.8616,486.84326
"4438",84.20294,486.85645
"4439",86.204926,486.86963
"4440",87.6112,486.8828
"4441",88.35096,486.896
"4442",88.495,486.90918
"4443",88.148315,486.92236
"4444",87.4403,486.93555
"4445",86.48081,486.94873
"4446",85.35775,486.9619
"4447",84.13458,486.9751
"4448",82.85283,486.98828
"4449",81.53933,487.00146
"4450",80.22339,487.01465
"4451",78.93187,487.02783
"4452",77.72823,487.04102
"4453",76.715034,487.0542
"4454",76.02411,487.06738
"4455",75.80194,487.08057
"4456",76.12421,487.09375
"4457",76.927444,487.10693
"4458",78.030975,487.12012
"4459",79.1931,487.1333
"4460",80.16968,487.14648
"4461",80.797134,487.15967
"4462",81.04372,487.17285
"4463",80.96315,487.18604
"4464",80.64576,487.19922
"4465",80.17944,487.2124
"4466",79.635,487.2256
"4467",79.05394,487.23877
"4468",78.467995,487.25195
"4469",77.8967,487.26514
"4470",77.347374,487.27832
"4471",76.824905,487.2915
"4472",76.334175,487.3047
"4473",75.88495,487.31787
"4474",75.48943,487.33105
"4475",75.16716,487.34424
"4476",74.93034,487.35742
"4477",74.79118,487.3706
"4478",74.74479,487.3838
"4479",74.76921,487.39697
"4480",74.85466,487.41016
"4481",75.02312,487.42334
"4482",75.406425,487.43652
"4483",76.21454,487.4497
"4484",77.59884,487.4629
"4485",79.534904,487.47607
"4486",81.849396,487.48926
"4487",84.224915,487.50244
"4488",86.295265,487.51562
"4489",87.782104,487.5288
"4490",88.59998,487.542
"4491",88.80995,487.55518
"4492",88.5243,487.56836
"4493",87.852905,487.58154
"4494",86.91051,487.59473
"4495",85.77768,487.6079
"4496",84.5301,487.6211
"4497",83.2166,487.63428
"4498",81.87625,487.64746
"4499",80.5359,487.66064
"4500",79.22728,487.67383
"4501",77.98947,487.687
"4502",76.893265,487.7002
"4503",76.05585,487.71338
"4504",75.62371,487.72656
"4505",75.72137,487.73975
"4506",76.3708,487.75293
"4507",77.44747,487.7661
"4508",78.71946,487.7793
"4509",79.91821,487.79248
"4510",80.8362,487.80566
"4511",81.35378,487.81885
"4512",81.495384,487.83203
"4513",81.34402,487.8452
"4514",81.00221,487.8584
"4515",80.533455,487.87158
"4516",79.991455,487.88477
