"","ppg","time"
"1",79.30297,635.5908
"2",79.20531,635.604
"3",79.11986,635.6172
"4",79.03685,635.6304
"5",78.95628,635.64355
"6",78.87572,635.65674
"7",78.79271,635.6699
"8",78.709694,635.6831
"9",78.641335,635.6963
"10",78.58274,635.7095
"11",78.53391,635.72266
"12",78.487526,635.73584
"13",78.450905,635.749
"14",78.43137,635.7622
"15",78.47532,635.7754
"16",78.6511,635.7886
"17",79.01976,635.80176
"18",79.603264,635.81494
"19",80.36256,635.8281
"20",81.20973,635.8413
"21",82.02762,635.8545
"22",82.69657,635.8677
"23",83.14824,635.88086
"24",83.36797,635.89404
"25",83.38018,635.9072
"26",83.22392,635.9204
"27",82.950485,635.9336
"28",82.60624,635.9468
"29",82.22049,635.95996
"30",81.82498,635.97314
"31",81.43435,635.9863
"32",81.06081,635.9995
"33",80.706795,636.0127
"34",80.38209,636.0259
"35",80.09155,636.03906
"36",79.84497,636.05225
"37",79.64965,636.0654
"38",79.51049,636.0786
"39",79.42748,636.0918
"40",79.395744,636.105
"41",79.41039,636.11816
"42",79.45678,636.13135
"43",79.5227,636.14453
"44",79.59594,636.1577
"45",79.66674,636.1709
"46",79.71557,636.1841
"47",79.73998,636.19727
"48",79.7351,636.21045
"49",79.70092,636.22363
"50",79.639885,636.2368
"51",79.56176,636.25
"52",79.47143,636.2632
"53",79.37377,636.27637
"54",79.273674,636.28955
"55",79.17357,636.30273
"56",79.07591,636.3159
"57",78.98558,636.3291
"58",78.90257,636.3423
"59",78.82933,636.35547
"60",78.765854,636.36865
"61",78.709694,636.38184
"62",78.65598,636.395
"63",78.60227,636.4082
"64",78.551,636.4214
"65",78.521706,636.4346
"66",78.53147,636.44775
"67",78.63157,636.46094
"68",78.890366,636.4741
"69",79.344475,636.4873
"70",79.991455,636.5005
"71",80.76784,636.5137
"72",81.57839,636.52686
"73",82.30106,636.54004
"74",82.83818,636.5532
"75",83.1458,636.5664
"76",83.23125,636.5796
"77",83.12871,636.5928
"78",82.89189,636.60596
"79",82.56962,636.61914
"80",82.20096,636.6323
"81",81.8201,636.6455
"82",81.444115,636.6587
"83",81.08034,636.6719
"84",80.740974,636.68506
"85",80.428474,636.69824
"86",80.15015,636.7114
"87",79.903564,636.7246
"88",79.69848,636.7378
"89",79.54467,636.751
"90",79.44457,636.76416
"91",79.395744,636.77734
"92",79.40063,636.7905
"93",79.44457,636.8037
"94",79.51537,636.8169
"95",79.588615,636.8301
"96",79.65209,636.84326
"97",79.68871,636.85645
"98",79.69604,636.8696
"99",79.66918,636.8828
"100",79.61791,636.896
"101",79.54711,636.9092
"102",79.4641,636.92236
"103",79.37377,636.93555
"104",79.281,636.9487
"105",79.18822,636.9619
"106",79.10033,636.9751
"107",79.01732,636.9883
"108",78.93919,637.00146
"109",78.86595,637.01465
"110",78.79759,637.02783
"111",78.729225,637.041
"112",78.66575,637.0542
"113",78.60471,637.0674
"114",78.54612,637.08057
"115",78.49241,637.09375
"116",78.45335,637.10693
"117",78.45823,637.1201
"118",78.555885,637.1333
"119",78.80736,637.1465
"120",79.256584,637.15967
"121",79.90112,637.17285
"122",80.6775,637.18604
"123",81.48806,637.1992
"124",82.213165,637.2124
"125",82.760056,637.2256
"126",83.07988,637.2388
"127",83.17265,637.25195
"128",83.07988,637.26514
"129",82.845505,637.2783
"130",82.52567,637.2915
"131",82.159454,637.3047
"132",81.778595,637.3179
"133",81.40261,637.33105
"134",81.04616,637.34424
"135",80.71656,637.3574
"136",80.41871,637.3706
"137",80.15015,637.3838
"138",79.91821,637.397
"139",79.727776,637.41016
"140",79.586174,637.42334
"141",79.49096,637.4365
"142",79.4519,637.4497
"143",79.46166,637.4629
"144",79.51049,637.4761
"145",79.57641,637.48926
"146",79.64477,637.50244
"147",79.70336,637.5156
"148",79.73754,637.5288
"149",79.742424,637.542
"150",79.72045,637.5552
"151",79.674065,637.56836
"152",79.603264,637.58154
"153",79.517815,637.5947
"154",79.42016,637.6079
"155",79.32006,637.6211
"156",79.217514,637.6343
"157",79.11986,637.64746
"158",79.03197,637.66064
"159",78.9514,637.6738
"160",78.8806,637.687
"161",78.81468,637.7002
"162",78.74876,637.7134
"163",78.68284,637.72656
"164",78.61692,637.73975
"165",78.551,637.7529
"166",78.49241,637.7661
"167",78.45335,637.7793
"168",78.46555,637.7925
"169",78.58274,637.80566
"170",78.86351,637.81885
"171",79.34203,637.83203
"172",80.008545,637.8452
"173",80.79225,637.8584
"174",81.58572,637.8716
"175",82.27421,637.88477
"176",82.774704,637.89795
"177",83.055466,637.91113
"178",83.12138,637.9243
"179",83.01152,637.9375
"180",82.76982,637.9507
"181",82.45243,637.96387
"182",82.091095,637.97705
"183",81.72488,637.99023
"184",81.36599,638.0034
"185",81.03639,638.0166
"186",80.72877,638.0298
"187",80.445564,638.04297
"188",80.19165,638.05615
"189",79.9646,638.06934
"190",79.77417,638.0825
"191",79.62524,638.0957
"192",79.520256,638.1089
"193",79.46899,638.1221
"194",79.4641,638.13525
"195",79.49584,638.14844
"196",79.554436,638.1616
"197",79.61791,638.1748
"198",79.67162,638.188
"199",79.70092,638.2012
"200",79.70336,638.21436
"201",79.674065,638.22754
"202",79.61791,638.2407
"203",79.54467,638.2539
"204",79.4641,638.2671
"205",79.37621,638.2803
"206",79.28588,638.29346
"207",79.19554,638.30664
"208",79.11253,638.3198
"209",79.03197,638.333
"210",78.96117,638.3462
"211",78.89525,638.3594
"212",78.83177,638.37256
"213",78.765854,638.38574
"214",78.69993,638.3989
"215",78.63645,638.4121
"216",78.57542,638.4253
"217",78.521706,638.4385
"218",78.4802,638.45166
"219",78.467995,638.46484
"220",78.519264,638.478
"221",78.69993,638.4912
"222",79.063705,638.5044
"223",79.61791,638.5176
"224",80.33326,638.53076
"225",81.129166,638.54395
"226",81.89334,638.5571
"227",82.52567,638.5703
"228",82.95781,638.5835
"229",83.17021,638.5967
"230",83.177536,638.60986
"231",83.018845,638.62305
"232",82.74784,638.6362
"233",82.41093,638.6494
"234",82.04471,638.6626
"235",81.68093,638.6758
"236",81.33181,638.68896
"237",81.007095,638.70215
"238",80.706795,638.71533
"239",80.428474,638.7285
"240",80.17456,638.7417
"241",79.94751,638.7549
"242",79.76196,638.76807
"243",79.62768,638.78125
"244",79.55688,638.79443
"245",79.54223,638.8076
"246",79.57397,638.8208
"247",79.639885,638.834
"248",79.71557,638.84717
"249",79.78638,638.86035
"250",79.83276,638.87354
"251",79.84253,638.8867
"252",79.818115,638.8999
"253",79.75708,638.9131
"254",79.67162,638.9263
"255",79.57641,638.93945
"256",79.47387,638.95264
"257",79.36889,638.9658
"258",79.26879,638.979
"259",79.17113,638.9922
"260",79.080795,639.0054
"261",79.00023,639.01855
"262",78.92699,639.03174
"263",78.85863,639.0449
"264",78.79027,639.0581
"265",78.72434,639.0713
"266",78.65598,639.0845
"267",78.59251,639.09766
"268",78.536354,639.11084
"269",78.5095,639.124
"270",78.551,639.1372
"271",78.712135,639.1504
"272",79.046616,639.1636
"273",79.571526,639.17676
"274",80.25269,639.18994
"275",81.0193,639.2031
"276",81.75906,639.2163
"277",82.36942,639.2295
"278",82.78691,639.2427
"279",82.98955,639.25586
"280",82.99443,639.26904
"281",82.845505,639.2822
"282",82.58915,639.2954
"283",82.27665,639.3086
"284",81.93729,639.3218
"285",81.59792,639.33496
"286",81.26833,639.34814
"287",80.955826,639.3613
"288",80.65308,639.3745
"289",80.37232,639.3877
"290",80.11597,639.4009
"291",79.89868,639.41406
"292",79.72045,639.42725
"293",79.5935,639.4404
"294",79.52514,639.4536
"295",79.51293,639.4668
"296",79.54711,639.48
"297",79.61547,639.49316
"298",79.69604,639.50635
"299",79.764404,639.51953
"300",79.801025,639.5327
"301",79.801025,639.5459
"302",79.76929,639.5591
"303",79.710686,639.57227
"304",79.635,639.58545
"305",79.54955,639.59863
"306",79.45922,639.6118
"307",79.364006,639.625
"308",79.26879,639.6382
"309",79.17601,639.65137
"310",79.08568,639.66455
"311",79.00023,639.67773
"312",78.91722,639.6909
"313",78.839096,639.7041
"314",78.765854,639.7173
"315",78.69749,639.73047
"316",78.63401,639.74365
"317",78.57053,639.75684
"318",78.521706,639.77
"319",78.51438,639.7832
"320",78.59983,639.7964
"321",78.83421,639.8096
"322",79.259026,639.82275
"323",79.869385,639.83594
"324",80.6067,639.8491
"325",81.38064,639.8623
"326",82.08621,639.8755
"327",82.62821,639.8887
"328",82.96269,639.90186
"329",83.09453,639.91504
"330",83.04326,639.9282
"331",82.85771,639.9414
"332",82.58427,639.9546
"333",82.27177,639.9678
"334",81.94705,639.98096
"335",81.6321,639.99414
"336",81.33425,640.0073
"337",81.058365,640.0205
"338",80.797134,640.0337
"339",80.54322,640.0469
"340",80.30152,640.06006
"341",80.08423,640.07324
"342",79.90112,640.0864
"343",79.75952,640.0996
"344",79.67162,640.1128
"345",79.63744,640.126
"346",79.64721,640.13916
"347",79.68627,640.15234
"348",79.742424,640.1655
"349",79.798584,640.1787
"350",79.82788,640.1919
"351",79.823,640.2051
"352",79.781494,640.21826
"353",79.70092,640.23145
"354",79.59838,640.2446
"355",79.48119,640.2578
"356",79.361565,640.271
"357",79.24437,640.2842
"358",79.13695,640.29736
"359",79.03441,640.31055
"360",78.93919,640.3237
"361",78.856186,640.3369
"362",78.78294,640.3501
"363",78.71458,640.3633
"364",78.65598,640.37646
"365",78.60227,640.38965
"366",78.553444,640.40283
"367",78.5095,640.416
"368",78.48264,640.4292
"369",78.504616,640.4424
"370",78.626686,640.45557
"371",78.90257,640.46875
"372",79.361565,640.48193
"373",79.99634,640.4951
"374",80.740974,640.5083
"375",81.497826,640.5215
"376",82.16434,640.53467
"377",82.66239,640.54785
"378",82.96269,640.56104
"379",83.075,640.5742
"380",83.02861,640.5874
"381",82.862595,640.6006
"382",82.62577,640.6138
"383",82.354774,640.62695
"384",82.07156,640.64014
"385",81.79324,640.6533
"386",81.532005,640.6665
"387",81.27566,640.6797
"388",81.0193,640.6929
"389",80.765396,640.70605
"390",80.516365,640.71924
"391",80.28199,640.7324
"392",80.076904,640.7456
"393",79.91333,640.7588
"394",79.801025,640.772
"395",79.744865,640.78516
"396",79.73266,640.79834
"397",79.75464,640.8115
"398",79.7937,640.8247
"399",79.83032,640.8379
"400",79.84741,640.8511
"401",79.83032,640.86426
"402",79.783936,640.87744
"403",79.70336,640.8906
"404",79.60082,640.9038
"405",79.483635,640.917
"406",79.364006,640.9302
"407",79.24437,640.94336
"408",79.12962,640.95654
"409",79.01976,640.9697
"410",78.91966,640.9829
"411",78.82933,640.9961
"412",78.751205,641.0093
"413",78.68528,641.02246
"414",78.62913,641.03564
"415",78.58274,641.0488
"416",78.538795,641.062
"417",78.49485,641.0752
"418",78.45579,641.0884
"419",78.42161,641.10156
"420",78.41428,641.11475
"421",78.47532,641.1279
"422",78.66331,641.1411
"423",79.027084,641.1543
"424",79.56664,641.1675
"425",80.255135,641.18066
"426",81.00954,641.19385
"427",81.7322,641.20703
"428",82.33036,641.2202
"429",82.75029,641.2334
"430",82.9749,641.2466
"431",83.018845,641.25977
"432",82.916306,641.27295
"433",82.7161,641.28613
"434",82.45487,641.2993
"435",82.178986,641.3125
"436",81.90799,641.3257
"437",81.651634,641.33887
"438",81.40017,641.35205
"439",81.15114,641.36523
"440",80.89967,641.3784
"441",80.64088,641.3916
"442",80.38453,641.4048
"443",80.14038,641.41797
"444",79.92798,641.43115
"445",79.76196,641.44434
"446",79.64965,641.4575
"447",79.59838,641.4707
"448",79.59594,641.4839
"449",79.62768,641.4971
"450",79.66918,641.51025
"451",79.69848,641.52344
"452",79.70336,641.5366
"453",79.67162,641.5498
"454",79.603264,641.563
"455",79.50805,641.5762
"456",79.39086,641.58936
"457",79.26147,641.60254
"458",79.12718,641.6157
"459",79.00023,641.6289
"460",78.873276,641.6421
"461",78.75853,641.6553
"462",78.65354,641.66846
"463",78.56321,641.68164
"464",78.485085,641.6948
"465",78.42161,641.708
"466",78.3679,641.7212
"467",78.328835,641.7344
"468",78.30198,641.74756
"469",78.28489,641.76074
"470",78.2678,641.7739
"471",78.24826,641.7871
"472",78.22873,641.8003
"473",78.20187,641.8135
"474",78.187225,641.82666
"475",78.221405,641.83984
"476",78.35569,641.853
"477",78.63645,641.8662
"478",79.10033,641.8794
"479",79.7351,641.8926
"480",80.48951,641.90576
"481",81.26833,641.91895
"482",81.97635,641.9321
"483",82.528114,641.9453
"484",82.879684,641.9585
"485",83.038376,641.9717
"486",83.02617,641.98486
"487",82.89189,641.99805
"488",82.68192,642.0112
"489",82.43534,642.0244
"490",82.1741,642.0376
"491",81.9202,642.0508
"492",81.671165,642.06396
"493",81.43191,642.07715
"494",81.19508,642.09033
"495",80.955826,642.1035
"496",80.709236,642.1167
"497",80.46021,642.1299
"498",80.218506,642.14307
"499",79.99634,642.15625
"500",79.815674,642.16943
"501",79.68871,642.1826
"502",79.61791,642.1958
"503",79.59838,642.209
"504",79.61547,642.22217
"505",79.64965,642.23535
"506",79.674065,642.24854
"507",79.66918,642.2617
"508",79.62768,642.2749
"509",79.551994,642.2881
"510",79.447014,642.3013
"511",79.32494,642.31445
"512",79.1931,642.32764
"513",79.063705,642.3408
"514",78.93919,642.354
"515",78.82201,642.3672
"516",78.71458,642.3804
"517",78.61692,642.39355
"518",78.52659,642.40674
"519",78.44114,642.4199
"520",78.363014,642.4331
"521",78.294655,642.4463
"522",78.238495,642.4595
"523",78.20187,642.47266
"524",78.17502,642.48584
"525",78.15549,642.499
"526",78.1384,642.5122
"527",78.116425,642.5254
"528",78.09689,642.5386
"529",78.07736,642.55176
"530",78.0676,642.56494
"531",78.05783,642.5781
"532",78.05295,642.5913
"533",78.05295,642.6045
"534",78.07248,642.6177
"535",78.150604,642.63086
"536",78.34348,642.64404
"537",78.712135,642.6572
"538",79.26879,642.6704
"539",79.9939,642.6836
"540",80.81911,642.6968
"541",81.64187,642.70996
"542",82.354774,642.72314
"543",82.882126,642.7363
"544",83.19707,642.7495
"545",83.3045,642.7627
"546",83.245895,642.7759
"547",83.070114,642.78906
"548",82.83086,642.80225
"549",82.55985,642.8154
"550",82.286415,642.8286
"551",82.02518,642.8418
"552",81.77371,642.855
"553",81.532005,642.86816
"554",81.29275,642.88135
"555",81.04616,642.89453
"556",80.78737,642.9077
"557",80.52857,642.9209
"558",80.28199,642.9341
"559",80.059814,642.94727
"560",79.886475,642.96045
"561",79.77173,642.97363
"562",79.710686,642.9868
"563",79.68383,643
"564",79.676506,643.0132
"565",79.6643,643.02637
"566",79.635,643.03955
"567",79.571526,643.05273
"568",79.48119,643.0659
"569",79.36645,643.0791
"570",79.22972,643.0923
"571",79.078354,643.10547
"572",78.922104,643.11865
"573",78.76097,643.13184
"574",78.60471,643.145
"575",78.467995,643.1582
"576",78.35081,643.1714
"577",78.260475,643.1846
"578",78.19699,643.19775
"579",78.150604,643.21094
"580",78.1091,643.2241
"581",78.07248,643.2373
"582",78.030975,643.2505
"583",77.996796,643.2637
"584",77.962616,643.27686
"585",77.9382,643.29004
"586",77.93088,643.3032
"587",77.93576,643.3164
"588",77.95773,643.3296
"589",77.99191,643.3428
"590",78.0383,643.35596
"591",78.099335,643.36914
"592",78.167694,643.3823
"593",78.238495,643.3955
"594",78.30198,643.4087
"595",78.348366,643.4219
"596",78.365456,643.43506
"597",78.36057,643.44824
"598",78.3679,643.4614
"599",78.44602,643.4746
"600",78.66575,643.4878
"601",79.09056,643.501
"602",79.727776,643.51416
"603",80.54078,643.52734
"604",81.43191,643.5405
"605",82.27909,643.5537
"606",82.98222,643.5669
"607",83.47295,643.5801
"608",83.73174,643.59326
"609",83.78058,643.60645
"610",83.66827,643.6196
"611",83.44854,643.6328
"612",83.16533,643.646
"613",82.86015,643.6592
"614",82.55497,643.67236
"615",82.266884,643.68555
"616",81.99832,643.6987
"617",81.74685,643.7119
"618",81.50027,643.7251
"619",81.248795,643.7383
"620",80.987564,643.75146
"621",80.71656,643.76465
"622",80.445564,643.77783
"623",80.19409,643.791
"624",79.98169,643.8042
"625",79.82544,643.8174
"626",79.725334,643.83057
"627",79.676506,643.84375
"628",79.66186,643.85693
"629",79.66674,643.8701
"630",79.66674,643.8833
"631",79.65453,643.8965
"632",79.62035,643.90967
"633",79.554436,643.92285
"634",79.4519,643.93604
"635",79.327385,643.9492
"636",79.19066,643.9624
"637",79.046616,643.9756
"638",78.9099,643.9888
"639",78.78783,644.00195
"640",78.68772,644.01514
"641",78.59983,644.0283
"642",78.521706,644.0415
"643",78.450905,644.0547
"644",78.382545,644.0679
"645",78.32151,644.08105
"646",78.27512,644.09424
"647",78.24826,644.1074
"648",78.23605,644.1206
"649",78.23605,644.1338
"650",78.238495,644.147
"651",78.24338,644.16016
"652",78.24094,644.17334
"653",78.24094,644.1865
"654",78.24582,644.1997
"655",78.26292,644.2129
"656",78.28245,644.2261
"657",78.30686,644.23926
"658",78.33616,644.25244
"659",78.37034,644.2656
"660",78.40696,644.2788
"661",78.44114,644.292
"662",78.46311,644.3052
"663",78.470436,644.31836
"664",78.46067,644.33154
"665",78.46067,644.3447
"666",78.51194,644.3579
"667",78.68772,644.3711
"668",79.05394,644.3843
"669",79.635,644.39746
"670",80.4065,644.41064
"671",81.29519,644.4238
"672",82.19119,644.437
"673",82.97246,644.4502
"674",83.5584,644.4634
"675",83.90509,644.47656
"676",84.02472,644.48975
"677",83.949036,644.5029
"678",83.73907,644.5161
"679",83.4461,644.5293
"680",83.11894,644.5425
"681",82.78935,644.55566
"682",82.4744,644.56885
"683",82.18143,644.58203
"684",81.90311,644.5952
"685",81.634544,644.6084
"686",81.375755,644.6216
"687",81.126724,644.63477
"688",80.8777,644.64795
"689",80.64088,644.66113
"690",80.42115,644.6743
"691",80.22583,644.6875
"692",80.062256,644.7007
"693",79.94507,644.71387
"694",79.87671,644.72705
"695",79.84741,644.74023
"696",79.84741,644.7534
"697",79.86206,644.7666
"698",79.869385,644.7798
"699",79.84985,644.79297
"700",79.7937,644.80615
"701",79.71313,644.81934
"702",79.60082,644.8325
"703",79.466545,644.8457
"704",79.31762,644.8589
"705",79.168686,644.8721
"706",79.029526,644.88525
"707",78.90013,644.89844
"708",78.78783,644.9116
"709",78.69016,644.9248
"710",78.607155,644.938
"711",78.52903,644.9512
"712",78.450905,644.96436
"713",78.37766,644.97754
"714",78.3093,644.9907
"715",78.24826,645.0039
"716",78.19211,645.0171
"717",78.150604,645.0303
"718",78.12375,645.04346
"719",78.10666,645.05664
"720",78.09201,645.0698
"721",78.08957,645.083
"722",78.08957,645.0962
"723",78.08957,645.1094
"724",78.09201,645.12256
"725",78.099335,645.13574
"726",78.11398,645.1489
"727",78.133514,645.1621
"728",78.16037,645.1753
"729",78.187225,645.1885
"730",78.204315,645.20166
"731",78.21164,645.21484
"732",78.21408,645.228
"733",78.22873,645.2412
"734",78.30198,645.2544
"735",78.49973,645.2676
"736",78.8806,645.28076
"737",79.47387,645.29395
"738",80.26734,645.3071
"739",81.18288,645.3203
"740",82.11307,645.3335
"741",82.933395,645.3467
"742",83.55352,645.35986
"743",83.92706,645.37305
"744",84.06378,645.3862
"745",83.99786,645.3994
"746",83.78302,645.4126
"747",83.475395,645.4258
"748",83.13115,645.43896
"749",82.78691,645.45215
"750",82.46464,645.46533
"751",82.1741,645.4785
"752",81.90799,645.4917
"753",81.65652,645.5049
"754",81.409935,645.51807
"755",81.160904,645.53125
"756",80.91188,645.54443
"757",80.67017,645.5576
"758",80.445564,645.5708
"759",80.24292,645.584
"760",80.06958,645.59717
"761",79.937744,645.61035
"762",79.84985,645.62354
"763",79.80347,645.6367
"764",79.78638,645.6499
"765",79.79126,645.6631
"766",79.7937,645.6763
"767",79.77905,645.68945
"768",79.73998,645.70264
"769",79.676506,645.7158
"770",79.58373,645.729
"771",79.46899,645.7422
"772",79.34203,645.7554
"773",79.21263,645.76855
"774",79.08812,645.78174
"775",78.97337,645.7949
"776",78.86839,645.8081
"777",78.77074,645.8213
"778",78.67307,645.8345
"779",78.57786,645.84766
"780",78.48997,645.86084
"781",78.40696,645.874
"782",78.33616,645.8872
"783",78.28245,645.9004
"784",78.24582,645.9136
"785",78.221405,645.92676
"786",78.2092,645.93994
"787",78.20676,645.9531
"788",78.2092,645.9663
"789",78.2092,645.9795
"790",78.20676,645.9927
"791",78.20187,646.00586
"792",78.19699,646.01904
"793",78.19211,646.0322
"794",78.187225,646.0454
"795",78.187225,646.0586
"796",78.184784,646.0718
"797",78.17746,646.08496
"798",78.16281,646.09814
"799",78.14328,646.1113
"800",78.15793,646.1245
"801",78.27024,646.1377
"802",78.553444,646.1509
"803",79.063705,646.16406
"804",79.80347,646.17725
"805",80.71412,646.1904
"806",81.688255,646.2036
"807",82.59159,646.2168
"808",83.3167,646.23
"809",83.80011,646.24316
"810",84.03693,646.25635
"811",84.04425,646.26953
"812",83.87579,646.2827
"813",83.59014,646.2959
"814",83.23613,646.3091
"815",82.85527,646.32227
"816",82.48417,646.33545
"817",82.13504,646.34863
"818",81.82254,646.3618
"819",81.53689,646.375
"820",81.2781,646.3882
"821",81.02663,646.40137
"822",80.78493,646.41455
"823",80.5481,646.42773
"824",80.32838,646.4409
"825",80.1355,646.4541
"826",79.97925,646.4673
"827",79.86206,646.48047
"828",79.783936,646.49365
"829",79.744865,646.50684
"830",79.7351,646.52
"831",79.74731,646.5332
"832",79.76196,646.5464
"833",79.766846,646.5596
"834",79.74731,646.57275
"835",79.69604,646.58594
"836",79.61059,646.5991
"837",79.50317,646.6123
"838",79.38598,646.6255
"839",79.26635,646.6387
"840",79.149155,646.65186
"841",79.03685,646.66504
"842",78.93431,646.6782
"843",78.82689,646.6914
"844",78.71702,646.7046
"845",78.607155,646.7178
"846",78.49729,646.73096
"847",78.39231,646.74414
"848",78.2971,646.7573
"849",78.221405,646.7705
"850",78.16037,646.7837
"851",78.11398,646.7969
"852",78.07492,646.81006
"853",78.048065,646.82324
"854",78.03342,646.8364
"855",78.030975,646.8496
"856",78.04318,646.8628
"857",78.065155,646.876
"858",78.08957,646.88916
"859",78.1091,646.90234
"860",78.11398,646.9155
"861",78.10422,646.9287
"862",78.09445,646.9419
"863",78.11154,646.9551
"864",78.22629,646.96826
"865",78.519264,646.98145
"866",79.044174,646.9946
"867",79.801025,647.0078
"868",80.73365,647.021
"869",81.72488,647.0342
"870",82.64286,647.04736
"871",83.3753,647.06055
"872",83.86359,647.0737
"873",84.1004,647.0869
"874",84.11505,647.1001
"875",83.95392,647.1133
"876",83.67071,647.12646
"877",83.31182,647.13965
"878",82.91875,647.15283
"879",82.528114,647.166
"880",82.159454,647.1792
"881",81.8201,647.1924
"882",81.514915,647.20557
"883",81.234146,647.21875
"884",80.972916,647.23193
"885",80.72144,647.2451
"886",80.48463,647.2583
"887",80.26246,647.2715
"888",80.0647,647.28467
"889",79.90845,647.29785
"890",79.801025,647.31104
"891",79.73998,647.3242
"892",79.727776,647.3374
"893",79.744865,647.3506
"894",79.77661,647.3638
"895",79.80591,647.37695
"896",79.818115,647.39014
"897",79.801025,647.4033
"898",79.7522,647.4165
"899",79.68139,647.4297
"900",79.588615,647.4429
"901",79.48119,647.45605
"902",79.36645,647.46924
"903",79.24925,647.4824
"904",79.12962,647.4956
"905",79.012436,647.5088
"906",78.89769,647.522
"907",78.78294,647.53516
"908",78.67307,647.54834
"909",78.57053,647.5615
"910",78.47776,647.5747
"911",78.397194,647.5879
"912",78.32639,647.6011
"913",78.26536,647.61426
"914",78.2092,647.62744
"915",78.16037,647.6406
"916",78.116425,647.6538
"917",78.08469,647.667
"918",78.07004,647.6802
"919",78.06271,647.69336
"920",78.05539,647.70654
"921",78.05295,647.7197
"922",78.05783,647.7329
"923",78.09201,647.7461
"924",78.2092,647.7593
"925",78.485085,647.77246
"926",78.98314,647.78564
"927",79.710686,647.7988
"928",80.61646,647.812
"929",81.60525,647.8252
"930",82.54276,647.8384
"931",83.31182,647.85156
"932",83.84161,647.86475
"933",84.119934,647.8779
"934",84.16876,647.8911
"935",84.0296,647.9043
"936",83.74883,647.9175
"937",83.389946,647.93066
"938",82.99687,647.94385
"939",82.59647,647.95703
"940",82.213165,647.9702
"941",81.85672,647.9834
"942",81.5198,647.9966
"943",81.19997,648.00977
"944",80.89479,648.02295
"945",80.61402,648.03613
"946",80.35523,648.0493
"947",80.12573,648.0625
"948",79.937744,648.0757
"949",79.79126,648.08887
"950",79.68627,648.10205
"951",79.62768,648.11523
"952",79.60815,648.1284
"953",79.61303,648.1416
"954",79.63256,648.1548
"955",79.65453,648.16797
"956",79.65942,648.18115
"957",79.64233,648.19434
"958",79.60082,648.2075
"959",79.53246,648.2207
"960",79.44213,648.2339
"961",79.33959,648.2471
"962",79.23216,648.26025
"963",79.1223,648.27344
"964",79.009995,648.2866
"965",78.89525,648.2998
"966",78.78294,648.313
"967",78.66575,648.3262
"968",78.553444,648.33936
"969",78.44846,648.35254
"970",78.35325,648.3657
"971",78.2678,648.3789
"972",78.19455,648.3921
"973",78.133514,648.4053
"974",78.0798,648.41846
"975",78.028534,648.43164
"976",77.98703,648.4448
"977",77.94797,648.458
"978",77.91867,648.4712
"979",77.89426,648.4844
"980",77.87961,648.49756
"981",77.872284,648.51074
"982",77.88937,648.5239
"983",77.97238,648.5371
"984",78.19699,648.5503
"985",78.63889,648.5635
"986",79.32983,648.57666
"987",80.24292,648.58984
"988",81.2781,648.603
"989",82.303505,648.6162
"990",83.18242,648.6294
"991",83.81964,648.6426
"992",84.18829,648.65576
"993",84.30793,648.66895
"994",84.21515,648.6821
"995",83.97101,648.6953
"996",83.63409,648.7085
"997",83.245895,648.7217
"998",82.847946,648.73486
"999",82.45487,648.74805
"1000",82.08377,648.7612
"1001",81.7322,648.7744
"1002",81.40261,648.7876
"1003",81.08766,648.8008
"1004",80.79225,648.81396
"1005",80.52125,648.82715
"1006",80.274666,648.84033
"1007",80.05737,648.8535
"1008",79.87671,648.8667
"1009",79.73754,648.8799
"1010",79.64477,648.89307
"1011",79.59106,648.90625
"1012",79.57885,648.91943
"1013",79.59106,648.9326
"1014",79.61059,648.9458
"1015",79.62524,648.959
"1016",79.622795,648.97217
"1017",79.59838,648.98535
"1018",79.54711,648.99854
"1019",79.47875,649.0117
"1020",79.39086,649.0249
"1021",79.293205,649.0381
"1022",79.185776,649.0513
"1023",79.07591,649.06445
"1024",78.96361,649.07764
"1025",78.856186,649.0908
"1026",78.75365,649.104
"1027",78.65598,649.1172
"1028",78.56077,649.1304
"1029",78.46311,649.14355
"1030",78.3679,649.15674
"1031",78.28001,649.1699
"1032",78.19699,649.1831
"1033",78.12375,649.1963
"1034",78.06027,649.2095
"1035",78.00412,649.22266
"1036",77.95041,649.23584
"1037",77.90646,649.249
"1038",77.872284,649.2622
"1039",77.857635,649.2754
"1040",77.91135,649.2886
"1041",78.099335,649.30176
"1042",78.502174,649.31494
"1043",79.151596,649.3281
"1044",80.025635,649.3413
"1045",81.03639,649.3545
"1046",82.04471,649.3677
"1047",82.92363,649.38086
"1048",83.57549,649.39404
"1049",83.963684,649.4072
"1050",84.102844,649.4204
"1051",84.03937,649.4336
"1052",83.81476,649.4468
"1053",83.48516,649.45996
"1054",83.10185,649.47314
"1055",82.69413,649.4863
"1056",82.286415,649.4995
"1057",81.89334,649.5127
"1058",81.51736,649.5259
"1059",81.15602,649.53906
"1060",80.81178,649.55225
"1061",80.48463,649.5654
"1062",80.18921,649.5786
"1063",79.940186,649.5918
"1064",79.73998,649.605
"1065",79.60082,649.61816
"1066",79.51537,649.63135
"1067",79.483635,649.64453
"1068",79.49096,649.6577
"1069",79.520256,649.6709
"1070",79.56176,649.6841
"1071",79.603264,649.69727
"1072",79.62524,649.71045
"1073",79.62524,649.72363
"1074",79.59594,649.7368
"1075",79.53979,649.75
"1076",79.45678,649.7632
"1077",79.35912,649.77637
"1078",79.25414,649.78955
"1079",79.151596,649.80273
"1080",79.0515,649.8159
"1081",78.9514,649.8291
"1082",78.84886,649.8423
"1083",78.73655,649.85547
"1084",78.624245,649.86865
"1085",78.51194,649.88184
"1086",78.41184,649.895
"1087",78.328835,649.9082
"1088",78.25559,649.9214
"1089",78.19211,649.9346
"1090",78.135956,649.94775
"1091",78.08469,649.96094
"1092",78.03342,649.9741
"1093",77.98215,649.9873
"1094",77.943085,650.0005
"1095",77.95041,650.0137
"1096",78.07004,650.02686
"1097",78.380104,650.04004
"1098",78.92943,650.0532
"1099",79.71313,650.0664
"1100",80.65797,650.0796
"1101",81.64919,650.0928
"1102",82.55009,650.10596
"1103",83.250786,650.11914
"1104",83.69756,650.1323
"1105",83.89288,650.1455
"1106",83.86603,650.1587
"1107",83.665825,650.1719
"1108",83.34844,650.18506
"1109",82.96269,650.19824
"1110",82.55009,650.2114
"1111",82.13504,650.2246
"1112",81.73708,650.2378
"1113",81.35378,650.251
"1114",80.990005,650.26416
"1115",80.6482,650.27734
"1116",80.33082,650.2905
"1117",80.042725,650.3037
"1118",79.798584,650.3169
"1119",79.60082,650.3301
"1120",79.4641,650.34326
"1121",79.39086,650.35645
"1122",79.378654,650.3696
"1123",79.412834,650.3828
"1124",79.47631,650.396
"1125",79.54467,650.4092
"1126",79.60815,650.42236
"1127",79.64477,650.43555
"1128",79.65453,650.4487
"1129",79.63012,650.4619
"1130",79.57885,650.4751
"1131",79.50317,650.4883
"1132",79.41772,650.50146
"1133",79.31762,650.51465
"1134",79.21507,650.52783
"1135",79.10765,650.541
"1136",78.992905,650.5542
"1137",78.870834,650.5674
"1138",78.75365,650.58057
"1139",78.63889,650.59375
"1140",78.538795,650.60693
"1141",78.450905,650.6201
"1142",78.37278,650.6333
"1143",78.30198,650.6465
"1144",78.23117,650.65967
"1145",78.15793,650.67285
"1146",78.0798,650.68604
"1147",78.009,650.6992
"1148",77.95529,650.7124
"1149",77.96506,650.7256
"1150",78.10666,650.7388
"1151",78.45335,650.75195
"1152",79.04173,650.76514
"1153",79.86206,650.7783
"1154",80.82887,650.7915
"1155",81.815216,650.8047
"1156",82.686806,650.8179
"1157",83.336235,650.83105
"1158",83.72442,650.84424
"1159",83.8587,650.8574
"1160",83.78058,650.8706
"1161",83.54131,650.8838
"1162",83.19707,650.897
"1163",82.791794,650.91016
"1164",82.357216,650.92334
"1165",81.9202,650.9365
"1166",81.49294,650.9497
"1167",81.08522,650.9629
"1168",80.70191,650.9761
"1169",80.34791,650.98926
"1170",80.028076,651.00244
"1171",79.7522,651.0156
"1172",79.53246,651.0288
"1173",79.37621,651.042
"1174",79.28832,651.0552
"1175",79.26635,651.06836
"1176",79.29565,651.08154
"1177",79.364006,651.0947
"1178",79.4519,651.1079
"1179",79.53979,651.1211
"1180",79.60815,651.1343
"1181",79.64477,651.14746
"1182",79.64477,651.16064
"1183",79.60815,651.1738
"1184",79.54467,651.187
"1185",79.45922,651.2002
"1186",79.35424,651.2134
"1187",79.237045,651.22656
"1188",79.114975,651.23975
"1189",78.98802,651.2529
"1190",78.86351,651.2661
"1191",78.751205,651.2793
"1192",78.64622,651.2925
"1193",78.54612,651.30566
"1194",78.45335,651.31885
"1195",78.3679,651.33203
"1196",78.28489,651.3452
"1197",78.19699,651.3584
"1198",78.11398,651.3716
"1199",78.030975,651.38477
"1200",77.96994,651.39795
"1201",77.97238,651.41113
"1202",78.11154,651.4243
"1203",78.45823,651.4375
"1204",79.05638,651.4507
"1205",79.87671,651.46387
"1206",80.83864,651.47705
"1207",81.8201,651.49023
"1208",82.6746,651.5034
"1209",83.30694,651.5166
"1210",83.67803,651.5298
"1211",83.79523,651.54297
"1212",83.69756,651.55615
"1213",83.44366,651.56934
"1214",83.089645,651.5825
"1215",82.68192,651.5957
"1216",82.25712,651.6089
"1217",81.829865,651.6221
"1218",81.41482,651.63525
"1219",81.00954,651.64844
"1220",80.62867,651.6616
"1221",80.272224,651.6748
"1222",79.96216,651.688
"1223",79.70336,651.7012
"1224",79.50805,651.71436
"1225",79.37621,651.72754
"1226",79.30541,651.7407
"1227",79.290764,651.7539
"1228",79.327385,651.7671
"1229",79.40063,651.7803
"1230",79.49096,651.79346
"1231",79.57641,651.80664
"1232",79.639885,651.8198
"1233",79.6643,651.833
"1234",79.65209,651.8462
"1235",79.60082,651.8594
"1236",79.520256,651.87256
"1237",79.42016,651.88574
"1238",79.310295,651.8989
"1239",79.19554,651.9121
"1240",79.08324,651.9253
"1241",78.97826,651.9385
"1242",78.87816,651.95166
"1243",78.7805,651.96484
"1244",78.68528,651.978
"1245",78.58518,651.9912
"1246",78.48997,652.0044
"1247",78.39475,652.0176
"1248",78.30198,652.03076
"1249",78.21408,652.04395
"1250",78.133514,652.0571
"1251",78.07004,652.0703
"1252",78.06271,652.0835
"1253",78.18234,652.0967
"1254",78.51194,652.10986
"1255",79.080795,652.12305
"1256",79.871826,652.1362
"1257",80.80446,652.1494
"1258",81.75906,652.1626
"1259",82.59647,652.1758
"1260",83.22392,652.18896
"1261",83.59991,652.20215
"1262",83.73174,652.21533
"1263",83.65118,652.2285
"1264",83.40948,652.2417
"1265",83.06035,652.2549
"1266",82.64042,652.26807
"1267",82.193634,652.28125
"1268",81.74685,652.29443
"1269",81.31472,652.3076
"1270",80.91188,652.3208
"1271",80.5481,652.334
"1272",80.22583,652.34717
"1273",79.94507,652.36035
"1274",79.710686,652.37354
"1275",79.5227,652.3867
"1276",79.395744,652.3999
"1277",79.32983,652.4131
"1278",79.32006,652.4263
"1279",79.35912,652.43945
"1280",79.43725,652.45264
"1281",79.5227,652.4658
"1282",79.59594,652.479
"1283",79.64477,652.4922
"1284",79.65942,652.5054
"1285",79.635,652.51855
"1286",79.58129,652.53174
"1287",79.500725,652.5449
"1288",79.40307,652.5581
"1289",79.290764,652.5713
"1290",79.17113,652.5845
"1291",79.0515,652.59766
"1292",78.93675,652.61084
"1293",78.82689,652.624
"1294",78.72434,652.6372
"1295",78.62913,652.6504
"1296",78.53391,652.6636
"1297",78.44358,652.67676
"1298",78.35325,652.68994
"1299",78.2678,652.7031
"1300",78.187225,652.7163
"1301",78.12131,652.7295
"1302",78.08469,652.7427
"1303",78.12619,652.75586
"1304",78.31663,652.76904
"1305",78.71946,652.7822
"1306",79.35912,652.7954
"1307",80.198975,652.8086
"1308",81.15114,652.8218
"1309",82.08133,652.83496
"1310",82.862595,652.84814
"1311",83.4168,652.8613
"1312",83.71221,652.8745
"1313",83.76837,652.8877
"1314",83.6292,652.9009
"1315",83.34844,652.91406
"1316",82.97734,652.92725
"1317",82.564735,652.9404
"1318",82.13748,652.9536
"1319",81.71267,652.9668
"1320",81.30984,652.98
"1321",80.92653,652.99316
"1322",80.570076,653.00635
"1323",80.24536,653.01953
"1324",79.957275,653.0327
"1325",79.72289,653.0459
"1326",79.54711,653.0591
"1327",79.42748,653.07227
"1328",79.37377,653.08545
"1329",79.378654,653.09863
"1330",79.4226,653.1118
"1331",79.48852,653.125
"1332",79.56176,653.1382
"1333",79.622795,653.15137
"1334",79.66186,653.16455
"1335",79.67162,653.17773
"1336",79.64965,653.1909
"1337",79.59106,653.2041
"1338",79.50317,653.2173
"1339",79.39086,653.23047
"1340",79.26147,653.24365
"1341",79.12962,653.25684
"1342",79.00023,653.27
"1343",78.88304,653.2832
"1344",78.77562,653.2964
"1345",78.67307,653.3096
"1346",78.57542,653.32275
"1347",78.485085,653.33594
"1348",78.397194,653.3491
"1349",78.314186,653.3623
"1350",78.23605,653.3755
"1351",78.17258,653.3887
"1352",78.133514,653.40186
"1353",78.167694,653.41504
"1354",78.348366,653.4282
"1355",78.73411,653.4414
"1356",79.34936,653.4546
"1357",80.15747,653.4678
"1358",81.07301,653.48096
"1359",81.96658,653.49414
"1360",82.71366,653.5073
"1361",83.243454,653.5205
"1362",83.526665,653.5337
"1363",83.580376,653.5469
"1364",83.44854,653.56006
"1365",83.18486,653.57324
"1366",82.83818,653.5864
"1367",82.44999,653.5996
"1368",82.04959,653.6128
"1369",81.651634,653.626
"1370",81.26833,653.63916
"1371",80.89967,653.65234
"1372",80.552986,653.6655
"1373",80.23804,653.6787
"1374",79.95972,653.6919
"1375",79.73022,653.7051
"1376",79.55688,653.71826
"1377",79.4519,653.73145
"1378",79.41039,653.7446
"1379",79.42748,653.7578
"1380",79.48608,653.771
"1381",79.569084,653.7842
"1382",79.65209,653.79736
"1383",79.71313,653.81055
"1384",79.742424,653.8237
"1385",79.7351,653.8369
"1386",79.69604,653.8501
"1387",79.63012,653.8633
"1388",79.54467,653.87646
"1389",79.4519,653.88965
"1390",79.34692,653.90283
"1391",79.23949,653.916
"1392",79.12718,653.9292
"1393",79.01732,653.9424
"1394",78.9099,653.95557
"1395",78.80736,653.96875
"1396",78.709694,653.98193
"1397",78.61692,653.9951
"1398",78.521706,654.0083
"1399",78.433815,654.0215
"1400",78.35813,654.03467
"1401",78.31663,654.04785
"1402",78.365456,654.06104
"1403",78.57053,654.0742
"1404",78.9807,654.0874
"1405",79.603264,654.1006
"1406",80.394295,654.1138
"1407",81.25857,654.12695
"1408",82.07645,654.14014
"1409",82.738075,654.1533
"1410",83.18486,654.1665
"1411",83.39971,654.1797
"1412",83.39971,654.1929
"1413",83.23125,654.20605
"1414",82.9456,654.21924
"1415",82.59647,654.2324
"1416",82.210724,654.2456
"1417",81.815216,654.2588
"1418",81.42458,654.272
"1419",81.0486,654.28516
"1420",80.689705,654.29834
"1421",80.360115,654.3115
"1422",80.06714,654.3247
"1423",79.81323,654.3379
"1424",79.60815,654.3511
"1425",79.4641,654.36426
"1426",79.38598,654.37744
"1427",79.36889,654.3906
"1428",79.40551,654.4038
"1429",79.47631,654.417
"1430",79.554436,654.4302
"1431",79.622795,654.44336
"1432",79.67162,654.45654
"1433",79.68383,654.4697
"1434",79.65942,654.4829
"1435",79.59838,654.4961
"1436",79.51049,654.5093
"1437",79.395744,654.52246
"1438",79.273674,654.53564
"1439",79.14671,654.5488
"1440",79.02464,654.562
"1441",78.91478,654.5752
"1442",78.81712,654.5884
"1443",78.7219,654.60156
"1444",78.63157,654.61475
"1445",78.538795,654.6279
"1446",78.44358,654.6411
"1447",78.348366,654.6543
"1448",78.26536,654.6675
"1449",78.21408,654.68066
"1450",78.24094,654.69385
"1451",78.41184,654.70703
"1452",78.77562,654.7202
"1453",79.35668,654.7334
"1454",80.12085,654.7466
"1455",80.98512,654.75977
"1456",81.83475,654.77295
"1457",82.55497,654.78613
"1458",83.070114,654.7993
"1459",83.353325,654.8125
"1460",83.4168,654.8257
"1461",83.299614,654.83887
"1462",83.055466,654.85205
"1463",82.735634,654.86523
"1464",82.37675,654.8784
"1465",82.00809,654.8916
"1466",81.64187,654.9048
"1467",81.28298,654.91797
"1468",80.93141,654.93115
"1469",80.59693,654.94434
"1470",80.28443,654.9575
"1471",80.00366,654.9707
"1472",79.766846,654.9839
"1473",79.58373,654.9971
"1474",79.46166,655.01025
"1475",79.395744,655.02344
"1476",79.38598,655.0366
"1477",79.42016,655.0498
"1478",79.47631,655.063
"1479",79.534904,655.0762
"1480",79.57397,655.08936
"1481",79.588615,655.10254
"1482",79.5642,655.1157
"1483",79.51293,655.1289
"1484",79.44213,655.1421
"1485",79.35668,655.1553
"1486",79.256584,655.16846
"1487",79.151596,655.18164
"1488",79.03441,655.1948
"1489",78.91966,655.208
"1490",78.80492,655.2212
"1491",78.695045,655.2344
"1492",78.590065,655.24756
"1493",78.487526,655.26074
"1494",78.38743,655.2739
"1495",78.28733,655.2871
"1496",78.187225,655.3003
"1497",78.1091,655.3135
"1498",78.09689,655.32666
"1499",78.21896,655.33984
"1500",78.538795,655.353
"1501",79.08812,655.3662
"1502",79.84009,655.3794
"1503",80.71656,655.3926
"1504",81.59548,655.40576
"1505",82.36454,655.41895
"1506",82.933395,655.4321
"1507",83.27032,655.4453
"1508",83.38262,655.4585
"1509",83.3045,655.4717
"1510",83.08476,655.48486
"1511",82.77226,655.49805
"1512",82.41337,655.5112
"1513",82.037384,655.5244
"1514",81.66384,655.5376
"1515",81.30251,655.5508
"1516",80.95827,655.56396
"1517",80.62867,655.57715
"1518",80.31861,655.59033
"1519",80.04028,655.6035
"1520",79.79614,655.6167
"1521",79.59594,655.6299
"1522",79.45678,655.64307
"1523",79.37377,655.65625
"1524",79.34692,655.66943
"1525",79.364006,655.6826
"1526",79.412834,655.6958
"1527",79.47387,655.709
"1528",79.520256,655.72217
"1529",79.54711,655.73535
"1530",79.54223,655.74854
"1531",79.50317,655.7617
"1532",79.429924,655.7749
"1533",79.33227,655.7881
"1534",79.217514,655.8013
"1535",79.09544,655.81445
"1536",78.975815,655.82764
"1537",78.85863,655.8408
"1538",78.746315,655.854
"1539",78.63645,655.8672
"1540",78.53147,655.8804
"1541",78.42893,655.89355
"1542",78.32639,655.90674
"1543",78.22629,655.9199
"1544",78.13107,655.9331
"1545",78.048065,655.9463
"1546",78.01633,655.9595
"1547",78.09689,655.97266
"1548",78.35569,655.98584
"1549",78.83177,655.999
"1550",79.5227,656.0122
"1551",80.365,656.0254
"1552",81.253685,656.0386
"1553",82.06668,656.05176
"1554",82.71122,656.06494
"1555",83.12871,656.0781
"1556",83.32159,656.0913
"1557",83.31182,656.1045
"1558",83.1458,656.1177
"1559",82.86748,656.13086
"1560",82.52567,656.14404
"1561",82.161896,656.1572
"1562",81.795685,656.1704
"1563",81.44167,656.1836
"1564",81.10475,656.1968
"1565",80.780045,656.20996
"1566",80.465096,656.22314
"1567",80.16724,656.2363
"1568",79.89624,656.2495
"1569",79.66918,656.2627
"1570",79.4934,656.2759
"1571",79.378654,656.28906
"1572",79.31762,656.30225
"1573",79.31518,656.3154
"1574",79.3518,656.3286
"1575",79.40551,656.3418
"1576",79.46166,656.355
"1577",79.500725,656.36816
"1578",79.50561,656.38135
"1579",79.47387,656.39453
"1580",79.41039,656.4077
"1581",79.31762,656.4209
"1582",79.19798,656.4341
"1583",79.06615,656.44727
"1584",78.92943,656.46045
"1585",78.79515,656.47363
"1586",78.66819,656.4868
"1587",78.54856,656.5
"1588",78.44114,656.5132
"1589",78.34348,656.52637
"1590",78.24826,656.53955
"1591",78.153046,656.55273
"1592",78.06271,656.5659
"1593",77.97238,656.5791
"1594",77.90158,656.5923
"1595",77.88693,656.60547
"1596",77.99191,656.61865
"1597",78.28001,656.63184
"1598",78.78783,656.645
"1599",79.50805,656.6582
"1600",80.38209,656.6714
"1601",81.29275,656.6846
"1602",82.12039,656.69775
"1603",82.77226,656.71094
"1604",83.19707,656.7241
"1605",83.389946,656.7373
"1606",83.38018,656.7505
"1607",83.22148,656.7637
"1608",82.95781,656.77686
"1609",82.633095,656.79004
"1610",82.28153,656.8032
"1611",81.92752,656.8164
"1612",81.58083,656.8296
"1613",81.24635,656.8428
"1614",80.921646,656.85596
"1615",80.60914,656.86914
"1616",80.31373,656.8823
"1617",80.03784,656.8955
"1618",79.798584,656.9087
"1619",79.61059,656.9219
"1620",79.47875,656.93506
"1621",79.40551,656.94824
"1622",79.38842,656.9614
"1623",79.412834,656.9746
"1624",79.46166,656.9878
"1625",79.51537,657.001
"1626",79.551994,657.01416
"1627",79.55688,657.02734
"1628",79.517815,657.0405
"1629",79.43481,657.0537
"1630",79.31762,657.0669
"1631",79.183334,657.0801
"1632",79.03929,657.09326
"1633",78.90013,657.10645
"1634",78.765854,657.1196
"1635",78.641335,657.1328
"1636",78.52415,657.146
"1637",78.42161,657.1592
"1638",78.328835,657.17236
"1639",78.24094,657.18555
"1640",78.16281,657.1987
"1641",78.08469,657.2119
"1642",78.00412,657.2251
"1643",77.84299,657.25146
"1644",77.81125,657.26465
"1645",77.87717,657.27783
"1646",78.11154,657.291
"1647",78.57053,657.3042
"1648",79.256584,657.3174
"1649",80.12329,657.33057
"1650",81.06325,657.34375
"1651",81.95682,657.35693
"1652",82.69413,657.3701
"1653",83.209274,657.3833
"1654",83.48272,657.3965
"1655",83.53887,657.40967
"1656",83.41924,657.42285
"1657",83.177536,657.43604
"1658",82.862595,657.4492
"1659",82.511024,657.4624
"1660",82.15213,657.4756
"1661",81.80057,657.4888
"1662",81.461205,657.50195
"1663",81.13405,657.51514
"1664",80.81178,657.5283
"1665",80.50172,657.5415
"1666",80.20386,657.5547
"1667",79.94263,657.5679
"1668",79.72045,657.58105
"1669",79.55688,657.59424
"1670",79.449455,657.6074
"1671",79.3933,657.6206
"1672",79.381096,657.6338
"1673",79.398186,657.647
"1674",79.432365,657.66016
"1675",79.46166,657.67334
"1676",79.47387,657.6865
"1677",79.4519,657.6997
"1678",79.39086,657.7129
"1679",79.29809,657.7261
"1680",79.17845,657.73926
"1681",79.04173,657.75244
"1682",78.90013,657.7656
"1683",78.75609,657.7788
"1684",78.61448,657.792
"1685",78.4802,657.8052
"1686",78.36057,657.81836
"1687",78.25315,657.83154
"1688",78.16037,657.8447
"1689",78.08469,657.8579
"1690",78.01633,657.8711
"1691",77.95285,657.8843
"1692",77.88937,657.89746
"1693",77.82834,657.91064
"1694",77.769745,657.9238
"1695",77.71114,657.937
"1696",77.67208,657.9502
"1697",77.68429,657.9634
"1698",77.803925,657.97656
"1699",78.099335,657.98975
"1700",78.6218,658.0029
"1701",79.378654,658.0161
"1702",80.306404,658.0293
"1703",81.29275,658.0425
"1704",82.20096,658.05566
"1705",82.92607,658.06885
"1706",83.40948,658.08203
"1707",83.64385,658.0952
"1708",83.66094,658.1084
"1709",83.51202,658.1216
"1710",83.250786,658.13477
"1711",82.92119,658.14795
"1712",82.55985,658.16113
"1713",82.19119,658.1743
"1714",81.83719,658.1875
"1715",81.49294,658.2007
"1716",81.163345,658.21387
"1717",80.848404,658.22705
"1718",80.5481,658.24023
"1719",80.26246,658.2534
"1720",80.00366,658.2666
"1721",79.77417,658.2798
"1722",79.58373,658.29297
"1723",79.43969,658.30615
"1724",79.34692,658.31934
"1725",79.30785,658.3325
"1726",79.31274,658.3457
"1727",79.344475,658.3589
"1728",79.38842,658.3721
"1729",79.41772,658.38525
"1730",79.41772,658.39844
"1731",79.38354,658.4116
"1732",79.310295,658.4248
"1733",79.20775,658.438
"1734",79.08324,658.4512
"1735",78.94408,658.46436
"1736",78.80003,658.47754
"1737",78.65354,658.4907
"1738",78.50706,658.5039
"1739",78.365456,658.5171
"1740",78.23117,658.5303
"1741",78.10666,658.54346
"1742",77.99191,658.55664
"1743",77.8967,658.5698
"1744",77.823456,658.583
"1745",77.77219,658.5962
"1746",77.74044,658.6094
"1747",77.72335,658.62256
"1748",77.71603,658.63574
"1749",77.71114,658.6489
"1750",77.70138,658.6621
"1751",77.679405,658.6753
"1752",77.66964,658.6885
"1753",77.70382,658.70166
"1754",77.84299,658.71484
"1755",78.16525,658.728
"1756",78.71946,658.7412
"1757",79.50317,658.7544
"1758",80.448006,658.7676
"1759",81.45144,658.78076
"1760",82.388954,658.79395
"1761",83.13847,658.8071
"1762",83.64141,658.8203
"1763",83.89044,658.8335
"1764",83.912415,658.8467
"1765",83.75128,658.85986
"1766",83.46563,658.87305
"1767",83.11162,658.8862
"1768",82.72831,658.8994
"1769",82.34257,658.9126
"1770",81.97635,658.9258
"1771",81.636986,658.93896
"1772",81.322044,658.95215
"1773",81.02663,658.96533
"1774",80.74586,658.9785
"1775",80.46998,658.9917
"1776",80.2063,659.0049
"1777",79.96216,659.01807
"1778",79.742424,659.03125
"1779",79.56664,659.04443
"1780",79.449455,659.0576
"1781",79.38598,659.0708
"1782",79.37133,659.084
"1783",79.39086,659.09717
"1784",79.42504,659.11035
"1785",79.449455,659.12354
"1786",79.449455,659.1367
"1787",79.415276,659.1499
"1788",79.34936,659.1631
"1789",79.24925,659.1763
"1790",79.12474,659.18945
"1791",78.98314,659.20264
"1792",78.839096,659.2158
"1793",78.69749,659.229
"1794",78.56321,659.2422
"1795",78.44602,659.2554
"1796",78.33616,659.26855
"1797",78.23117,659.28174
"1798",78.13107,659.2949
"1799",78.028534,659.3081
"1800",77.925995,659.3213
"1801",77.83566,659.3345
"1802",77.76242,659.34766
"1803",77.70382,659.36084
"1804",77.6672,659.374
"1805",77.65255,659.3872
"1806",77.65743,659.4004
"1807",77.67696,659.4136
"1808",77.70626,659.42676
"1809",77.72823,659.43994
"1810",77.74044,659.4531
"1811",77.738,659.4663
"1812",77.73556,659.4795
"1813",77.77707,659.4927
"1814",77.93088,659.50586
"1815",78.28245,659.51904
"1816",78.87816,659.5322
"1817",79.71313,659.5454
"1818",80.719,659.5586
"1819",81.778595,659.5718
"1820",82.74784,659.58496
"1821",83.51446,659.59814
"1822",84.01984,659.6113
"1823",84.2591,659.6245
"1824",84.26887,659.6377
"1825",84.1004,659.6509
"1826",83.8172,659.66406
"1827",83.46807,659.67725
"1828",83.09209,659.6904
"1829",82.718544,659.7036
"1830",82.354774,659.7168
"1831",82.00809,659.73
"1832",81.67361,659.74316
"1833",81.35134,659.75635
"1834",81.03395,659.76953
"1835",80.73365,659.7827
"1836",80.45289,659.7959
"1837",80.19653,659.8091
"1838",79.974365,659.82227
"1839",79.7937,659.83545
"1840",79.656975,659.84863
"1841",79.57397,659.8618
"1842",79.53246,659.875
"1843",79.52758,659.8882
"1844",79.54223,659.90137
"1845",79.554436,659.91455
"1846",79.54711,659.92773
"1847",79.50805,659.9409
"1848",79.432365,659.9541
"1849",79.32494,659.9673
"1850",79.202866,659.98047
"1851",79.07103,659.99365
"1852",78.941635,660.00684
"1853",78.82201,660.02
"1854",78.709694,660.0332
"1855",78.60227,660.0464
"1856",78.49973,660.0596
"1857",78.39475,660.07275
"1858",78.29221,660.08594
"1859",78.19455,660.0991
"1860",78.10422,660.1123
"1861",78.02121,660.1255
"1862",77.95041,660.1387
"1863",77.89426,660.15186
"1864",77.84543,660.16504
"1865",77.806366,660.1782
"1866",77.78439,660.1914
"1867",77.77951,660.2046
"1868",77.78195,660.2178
"1869",77.786835,660.23096
"1870",77.786835,660.24414
"1871",77.769745,660.2573
"1872",77.752655,660.2705
"1873",77.76486,660.2837
"1874",77.88205,660.2969
"1875",78.184784,660.31006
"1876",78.73655,660.32324
"1877",79.537346,660.3364
"1878",80.52857,660.3496
"1879",81.59304,660.3628
"1880",82.581825,660.376
"1881",83.3753,660.38916
"1882",83.90509,660.40234
"1883",84.16388,660.4155
"1884",84.18585,660.4287
"1885",84.01984,660.4419
"1886",83.72686,660.4551
"1887",83.36309,660.46826
"1888",82.967575,660.48145
"1889",82.56718,660.4946
"1890",82.18143,660.5078
"1891",81.82498,660.521
"1892",81.497826,660.5342
"1893",81.19508,660.54736
"1894",80.91188,660.56055
"1895",80.65064,660.5737
"1896",80.40162,660.5869
"1897",80.17212,660.6001
"1898",79.96948,660.6133
"1899",79.798584,660.62646
"1900",79.6643,660.63965
"1901",79.569084,660.65283
"1902",79.51537,660.666
"1903",79.49828,660.6792
"1904",79.500725,660.6924
"1905",79.51293,660.70557
"1906",79.51049,660.71875
"1907",79.483635,660.73193
"1908",79.42504,660.7451
"1909",79.34203,660.7583
"1910",79.24925,660.7715
"1911",79.14671,660.78467
"1912",79.03929,660.79785
"1913",78.92699,660.81104
"1914",78.80736,660.8242
"1915",78.677956,660.8374
"1916",78.54368,660.8506
"1917",78.416725,660.8638
"1918",78.2971,660.87695
"1919",78.19455,660.89014
"1920",78.101776,660.9033
"1921",78.02365,660.9165
"1922",77.96506,660.9297
"1923",77.91623,660.9429
"1924",77.874725,660.95605
"1925",77.84787,660.96924
"1926",77.83078,660.9824
"1927",77.8259,660.9956
"1928",77.82834,661.0088
"1929",77.83566,661.022
"1930",77.838104,661.03516
"1931",77.83322,661.04834
"1932",77.81613,661.0615
"1933",77.81125,661.0747
"1934",77.872284,661.0879
"1935",78.09201,661.1011
"1936",78.54856,661.11426
"1937",79.281,661.12744
"1938",80.25025,661.1406
"1939",81.36355,661.1538
"1940",82.46952,661.167
"1941",83.424126,661.1802
"1942",84.122375,661.19336
"1943",84.53254,661.20654
"1944",84.66926,661.2197
"1945",84.57404,661.2329
"1946",84.315254,661.2461
"1947",83.946594,661.2593
"1948",83.52422,661.27246
"1949",83.08476,661.28564
"1950",82.65507,661.2988
"1951",82.24246,661.312
"1952",81.85916,661.3252
"1953",81.50027,661.3384
"1954",81.16579,661.35156
"1955",80.85329,661.36475
"1956",80.56519,661.3779
"1957",80.30396,661.3911
"1958",80.07446,661.4043
"1959",79.886475,661.4175
"1960",79.73754,661.43066
"1961",79.63744,661.44385
"1962",79.58129,661.45703
"1963",79.569084,661.4702
"1964",79.57885,661.4834
"1965",79.603264,661.4966
"1966",79.62035,661.50977
"1967",79.61547,661.52295
"1968",79.58129,661.53613
"1969",79.517815,661.5493
"1970",79.42748,661.5625
"1971",79.31518,661.5757
"1972",79.185776,661.58887
"1973",79.044174,661.60205
"1974",78.89525,661.61523
"1975",78.751205,661.6284
"1976",78.61936,661.6416
"1977",78.504616,661.6548
"1978",78.399635,661.66797
"1979",78.29954,661.68115
"1980",78.20676,661.69434
"1981",78.118866,661.7075
"1982",78.03586,661.7207
"1983",77.96506,661.7339
"1984",77.91135,661.7471
"1985",77.86984,661.76025
"1986",77.83566,661.77344
"1987",77.80881,661.7866
"1988",77.77951,661.7998
"1989",77.74044,661.813
"1990",77.69894,661.8262
"1991",77.65499,661.83936
"1992",77.63302,661.85254
"1993",77.69405,661.8657
"1994",77.92844,661.8789
"1995",78.40452,661.8921
"1996",79.15648,661.9053
"1997",80.15015,661.91846
"1998",81.2781,661.93164
"1999",82.391396,661.9448
"2000",83.346,661.958
"2001",84.04669,661.9712
"2002",84.44953,661.9844
"2003",84.576485,661.99756
"2004",84.473946,662.01074
"2005",84.19318,662.0239
"2006",83.79767,662.0371
"2007",83.34356,662.0503
"2008",82.86748,662.0635
"2009",82.40116,662.07666
"2010",81.969025,662.08984
"2011",81.57839,662.103
"2012",81.22194,662.1162
"2013",80.88991,662.1294
"2014",80.5774,662.1426
"2015",80.28443,662.15576
"2016",80.01587,662.16895
"2017",79.78882,662.1821
"2018",79.61303,662.1953
"2019",79.500725,662.2085
"2020",79.449455,662.2217
"2021",79.447014,662.23486
"2022",79.483635,662.24805
"2023",79.534904,662.2612
"2024",79.59106,662.2744
"2025",79.639885,662.2876
"2026",79.66186,662.3008
"2027",79.65942,662.31396
"2028",79.62524,662.32715
"2029",79.55932,662.34033
"2030",79.45678,662.3535
"2031",79.33471,662.3667
"2032",79.19554,662.3799
"2033",79.046616,662.39307
"2034",78.89769,662.40625
"2035",78.76097,662.41943
"2036",78.63157,662.4326
"2037",78.51438,662.4458
"2038",78.40208,662.459
"2039",78.29954,662.47217
"2040",78.204315,662.48535
"2041",78.12131,662.49854
"2042",78.05051,662.5117
"2043",77.994354,662.5249
"2044",77.943085,662.5381
"2045",77.89426,662.5513
"2046",77.84543,662.56445
"2047",77.79904,662.57764
"2048",77.75754,662.5908
"2049",77.738,662.604
"2050",77.78439,662.6172
"2051",77.97238,662.6304
"2052",78.37278,662.64355
"2053",79.03685,662.65674
"2054",79.94751,662.6699
"2055",81.02663,662.6831
"2056",82.13016,662.6963
"2057",83.11894,662.7095
"2058",83.87579,662.72266
"2059",84.35432,662.73584
"2060",84.55451,662.749
"2061",84.51789,662.7622
"2062",84.29572,662.7754
"2063",83.946594,662.7886
"2064",83.529106,662.80176
"2065",83.087204,662.81494
"2066",82.650185,662.8281
"2067",82.230255,662.8413
"2068",81.83719,662.8545
"2069",81.461205,662.8677
"2070",81.094986,662.88086
"2071",80.743416,662.89404
"2072",80.41627,662.9072
"2073",80.11841,662.9204
"2074",79.86206,662.9336
"2075",79.66186,662.9468
"2076",79.5227,662.95996
"2077",79.43969,662.97314
"2078",79.412834,662.9863
"2079",79.429924,662.9995
"2080",79.47387,663.0127
"2081",79.520256,663.0259
"2082",79.55932,663.03906
"2083",79.57397,663.05225
"2084",79.56176,663.0654
"2085",79.520256,663.0786
"2086",79.45678,663.0918
"2087",79.37377,663.105
"2088",79.273674,663.11816
"2089",79.1638,663.13135
"2090",79.046616,663.14453
"2091",78.92943,663.1577
"2092",78.80736,663.1709
"2093",78.68528,663.1841
"2094",78.56565,663.19727
"2095",78.44846,663.21045
"2096",78.3386,663.22363
"2097",78.23605,663.2368
"2098",78.14572,663.25
"2099",78.07004,663.2632
"2100",78.009,663.27637
"2101",77.95529,663.28955
"2102",77.90646,663.30273
"2103",77.86008,663.3159
"2104",77.81125,663.3291
"2105",77.75754,663.3423
"2106",77.70626,663.35547
"2107",77.69161,663.36865
"2108",77.7673,663.38184
"2109",78.028534,663.395
"2110",78.54124,663.4082
"2111",79.33227,663.4214
"2112",80.35279,663.4346
"2113",81.49294,663.44775
"2114",82.60136,663.46094
"2115",83.53399,663.4741
"2116",84.2005,663.4873
"2117",84.57404,663.5005
"2118",84.67902,663.5137
"2119",84.559395,663.52686
"2120",84.27619,663.54004
"2121",83.88556,663.5532
"2122",83.441216,663.5664
"2123",82.97978,663.5796
"2124",82.528114,663.5928
"2125",82.09842,663.60596
"2126",81.69558,663.61914
"2127",81.31716,663.6323
"2128",80.96315,663.6455
"2129",80.62867,663.6587
"2130",80.32105,663.6719
"2131",80.05493,663.68506
"2132",79.83032,663.69824
"2133",79.65942,663.7114
"2134",79.54223,663.7246
"2135",79.47631,663.7378
"2136",79.4519,663.751
"2137",79.4641,663.76416
"2138",79.49584,663.77734
"2139",79.53002,663.7905
"2140",79.554436,663.8037
"2141",79.554436,663.8169
"2142",79.520256,663.8301
"2143",79.4519,663.84326
"2144",79.361565,663.85645
"2145",79.256584,663.8696
"2146",79.14427,663.8828
"2147",79.029526,663.896
"2148",78.91722,663.9092
"2149",78.80736,663.92236
"2150",78.69749,663.93555
"2151",78.59495,663.9487
"2152",78.49485,663.9619
"2153",78.397194,663.9751
"2154",78.30686,663.9883
"2155",78.21896,664.00146
"2156",78.1384,664.01465
"2157",78.065155,664.02783
"2158",78.00168,664.041
"2159",77.943085,664.0542
"2160",77.89426,664.0674
"2161",77.84543,664.08057
"2162",77.80148,664.09375
"2163",77.75998,664.10693
"2164",77.738,664.1201
"2165",77.77219,664.1333
"2166",77.93088,664.1465
"2167",78.30442,664.15967
"2168",78.941635,664.17285
"2169",79.823,664.18604
"2170",80.87526,664.1992
"2171",81.97391,664.2124
"2172",82.967575,664.2256
"2173",83.73907,664.2388
"2174",84.23468,664.25195
"2175",84.454414,664.26514
"2176",84.42512,664.2783
"2177",84.19806,664.2915
"2178",83.83429,664.3047
"2179",83.39727,664.3179
"2180",82.93584,664.33105
"2181",82.476845,664.34424
"2182",82.039825,664.3574
"2183",81.619896,664.3706
"2184",81.22438,664.3838
"2185",80.84352,664.397
"2186",80.48707,664.41016
"2187",80.16968,664.42334
"2188",79.90112,664.4365
"2189",79.68871,664.4497
"2190",79.537346,664.4629
"2191",79.447014,664.4761
"2192",79.40795,664.48926
"2193",79.412834,664.50244
"2194",79.447014,664.5156
"2195",79.500725,664.5288
"2196",79.55932,664.542
"2197",79.605705,664.5552
"2198",79.63012,664.56836
"2199",79.61791,664.58154
"2200",79.5642,664.5947
"2201",79.47387,664.6079
"2202",79.361565,664.6211
"2203",79.234604,664.6343
"2204",79.10765,664.64746
"2205",78.98558,664.66064
"2206",78.86595,664.6738
"2207",78.746315,664.687
"2208",78.63645,664.7002
"2209",78.53391,664.7134
"2210",78.4387,664.72656
"2211",78.35569,664.73975
"2212",78.28001,664.7529
"2213",78.19943,664.7661
"2214",78.116425,664.7793
"2215",78.030975,664.7925
"2216",77.95285,664.80566
"2217",77.88205,664.81885
"2218",77.84543,664.83203
"2219",77.89426,664.8452
"2220",78.10422,664.8584
"2221",78.54124,664.8716
"2222",79.234604,664.88477
"2223",80.15015,664.89795
"2224",81.18776,664.91113
"2225",82.20584,664.9243
"2226",83.06279,664.9375
"2227",83.67071,664.9507
"2228",84.00275,664.96387
"2229",84.071106,664.97705
"2230",83.92462,664.99023
"2231",83.62432,665.0034
"2232",83.226364,665.0166
"2233",82.77226,665.0298
"2234",82.30106,665.04297
"2235",81.82498,665.05615
"2236",81.36111,665.06934
"2237",80.91676,665.0825
"2238",80.499275,665.0957
"2239",80.12329,665.1089
"2240",79.798584,665.1221
"2241",79.537346,665.13525
"2242",79.33471,665.14844
"2243",79.20531,665.1616
"2244",79.14427,665.1748
"2245",79.149155,665.188
"2246",79.21019,665.2012
"2247",79.310295,665.21436
"2248",79.42748,665.22754
"2249",79.537346,665.2407
"2250",79.62035,665.2539
"2251",79.66186,665.2671
"2252",79.65942,665.2803
"2253",79.62035,665.29346
"2254",79.54711,665.30664
"2255",79.449455,665.3198
"2256",79.33959,665.333
"2257",79.22484,665.3462
"2258",79.10521,665.3594
"2259",78.98314,665.37256
"2260",78.86595,665.38574
"2261",78.751205,665.3989
"2262",78.63401,665.4121
"2263",78.521706,665.4253
"2264",78.42161,665.4385
"2265",78.331276,665.45166
"2266",78.24826,665.46484
"2267",78.167694,665.478
"2268",78.08957,665.4912
"2269",78.01633,665.5044
"2270",77.97482,665.5176
"2271",78.02609,665.53076
"2272",78.25315,665.54395
"2273",78.71702,665.5571
"2274",79.432365,665.5703
"2275",80.35279,665.5835
"2276",81.36599,665.5967
"2277",82.33524,665.60986
"2278",83.12138,665.62305
"2279",83.64629,665.6362
"2280",83.89044,665.6494
"2281",83.88556,665.6626
"2282",83.682915,665.6758
"2283",83.33868,665.68896
"2284",82.91875,665.70215
"2285",82.45731,665.71533
"2286",81.986115,665.7285
"2287",81.51736,665.7417
"2288",81.06813,665.7549
"2289",80.64332,665.76807
"2290",80.257576,665.78125
"2291",79.923096,665.79443
"2292",79.65209,665.8076
"2293",79.449455,665.8208
"2294",79.32006,665.834
"2295",79.26391,665.84717
"2296",79.26391,665.86035
"2297",79.31274,665.87354
"2298",79.3933,665.8867
"2299",79.4934,665.8999
"2300",79.59594,665.9131
"2301",79.67895,665.9263
"2302",79.727776,665.93945
"2303",79.73998,665.95264
"2304",79.7058,665.9658
"2305",79.635,665.979
"2306",79.53246,665.9922
"2307",79.41772,666.0054
"2308",79.29565,666.01855
"2309",79.168686,666.03174
"2310",79.04173,666.0449
"2311",78.92699,666.0581
"2312",78.81712,666.0713
"2313",78.71946,666.0845
"2314",78.62913,666.09766
"2315",78.54612,666.11084
"2316",78.46555,666.124
"2317",78.38987,666.1372
"2318",78.32151,666.1504
"2319",78.27512,666.1636
"2320",78.28733,666.17676
"2321",78.41917,666.18994
"2322",78.73655,666.2031
"2323",79.273674,666.2163
"2324",80.02319,666.2295
"2325",80.90456,666.2427
"2326",81.815216,666.25586
"2327",82.61845,666.26904
"2328",83.22392,666.2822
"2329",83.57549,666.2954
"2330",83.682915,666.3086
"2331",83.577934,666.3218
"2332",83.31182,666.33496
"2333",82.9456,666.34814
"2334",82.52323,666.3613
"2335",82.07889,666.3745
"2336",81.6321,666.3877
"2337",81.19997,666.4009
"2338",80.78981,666.41406
"2339",80.413826,666.42725
"2340",80.08423,666.4404
"2341",79.815674,666.4536
"2342",79.61303,666.4668
"2343",79.47631,666.48
"2344",79.40551,666.49316
"2345",79.3933,666.50635
"2346",79.429924,666.51953
"2347",79.500725,666.5327
"2348",79.5935,666.5459
"2349",79.68871,666.5591
"2350",79.766846,666.57227
"2351",79.81079,666.58545
"2352",79.81323,666.59863
"2353",79.77417,666.6118
"2354",79.70092,666.625
"2355",79.603264,666.6382
"2356",79.4934,666.65137
"2357",79.378654,666.66455
"2358",79.259026,666.67773
"2359",79.13939,666.6909
"2360",79.027084,666.7041
"2361",78.922104,666.7173
"2362",78.819565,666.73047
"2363",78.72434,666.74365
"2364",78.63889,666.75684
"2365",78.555885,666.77
"2366",78.4802,666.7832
"2367",78.41428,666.7964
"2368",78.382545,666.8096
"2369",78.43626,666.82275
"2370",78.63401,666.83594
"2371",79.029526,666.8491
"2372",79.63744,666.8623
"2373",80.42115,666.8755
"2374",81.28298,666.8887
"2375",82.10574,666.90186
"2376",82.774704,666.91504
"2377",83.21904,666.9282
"2378",83.424126,666.9414
"2379",83.404594,666.9546
"2380",83.209274,666.9678
"2381",82.88945,666.98096
"2382",82.496376,666.99414
"2383",82.074005,667.0073
"2384",81.64675,667.0205
"2385",81.234146,667.0337
"2386",80.848404,667.0469
"2387",80.49439,667.06006
"2388",80.177,667.07324
"2389",79.90112,667.0864
"2390",79.676506,667.0996
"2391",79.50805,667.1128
"2392",79.40551,667.126
"2393",79.361565,667.13916
"2394",79.37621,667.15234
"2395",79.432365,667.1655
"2396",79.51537,667.1787
"2397",79.59838,667.1919
"2398",79.66186,667.2051
"2399",79.693596,667.21826
"2400",79.68871,667.23145
"2401",79.64965,667.2446
"2402",79.58129,667.2578
"2403",79.4934,667.271
"2404",79.395744,667.2842
"2405",79.29565,667.29736
"2406",79.1931,667.31055
"2407",79.09056,667.3237
"2408",78.99046,667.3369
"2409",78.890366,667.3501
"2410",78.79271,667.3633
"2411",78.70481,667.37646
"2412",78.6218,667.38965
"2413",78.54856,667.40283
"2414",78.4802,667.416
"2415",78.42893,667.4292
"2416",78.40452,667.4424
"2417",78.46067,667.45557
"2418",78.660866,667.46875
"2419",79.0515,667.48193
"2420",79.64721,667.4951
"2421",80.40894,667.5083
"2422",81.24391,667.5215
"2423",82.0325,667.53467
"2424",82.67216,667.54785
"2425",83.09209,667.56104
"2426",83.2752,667.5742
"2427",83.243454,667.5874
"2428",83.0457,667.6006
"2429",82.73319,667.6138
"2430",82.35966,667.62695
"2431",81.95926,667.64014
"2432",81.56374,667.6533
"2433",81.18532,667.6665
"2434",80.82643,667.6797
"2435",80.48951,667.6929
"2436",80.177,667.70605
"2437",79.903564,667.71924
"2438",79.67162,667.7324
"2439",79.49096,667.7456
"2440",79.37377,667.7588
"2441",79.32006,667.772
"2442",79.32006,667.78516
"2443",79.35912,667.79834
"2444",79.429924,667.8115
"2445",79.50317,667.8247
"2446",79.56176,667.8379
"2447",79.59594,667.8511
"2448",79.5935,667.86426
"2449",79.551994,667.87744
"2450",79.47631,667.8906
"2451",79.37621,667.9038
"2452",79.26147,667.917
"2453",79.14183,667.9302
"2454",79.027084,667.94336
"2455",78.924545,667.95654
"2456",78.82933,667.9697
"2457",78.74387,667.9829
"2458",78.66575,667.9961
"2459",78.59739,668.0093
"2460",78.53391,668.02246
"2461",78.47288,668.03564
"2462",78.4094,668.0488
"2463",78.345924,668.062
"2464",78.28489,668.0752
"2465",78.25071,668.0884
"2466",78.28489,668.10156
"2467",78.45579,668.11475
"2468",78.81468,668.1279
"2469",79.38354,668.1411
"2470",80.130615,668.1543
"2471",80.9778,668.1675
"2472",81.81033,668.18066
"2473",82.513466,668.19385
"2474",83.00908,668.20703
"2475",83.265434,668.2202
"2476",83.29717,668.2334
"2477",83.140915,668.2466
"2478",82.85283,668.25977
"2479",82.48173,668.27295
"2480",82.07645,668.28613
"2481",81.6614,668.2993
"2482",81.25613,668.3125
"2483",80.87038,668.3257
"2484",80.51148,668.33887
"2485",80.184326,668.35205
"2486",79.89868,668.36523
"2487",79.66186,668.3784
"2488",79.48119,668.3916
"2489",79.361565,668.4048
"2490",79.30053,668.41797
"2491",79.29809,668.43115
"2492",79.34692,668.44434
"2493",79.42748,668.4575
"2494",79.5227,668.4707
"2495",79.605705,668.4839
"2496",79.65942,668.4971
"2497",79.66674,668.51025
"2498",79.635,668.52344
"2499",79.56664,668.5366
"2500",79.47875,668.5498
"2501",79.37377,668.563
"2502",79.26391,668.5762
"2503",79.15648,668.58936
"2504",79.05394,668.60254
"2505",78.95384,668.6157
"2506",78.856186,668.6289
"2507",78.768295,668.6421
"2508",78.68284,668.6553
"2509",78.59739,668.66846
"2510",78.52415,668.68164
"2511",78.45823,668.6948
"2512",78.397194,668.708
"2513",78.3386,668.7212
"2514",78.29221,668.7344
"2515",78.277565,668.74756
"2516",78.35325,668.76074
"2517",78.58274,668.7739
"2518",79.01488,668.7871
"2519",79.65209,668.8003
"2520",80.45289,668.8135
"2521",81.31228,668.82666
"2522",82.11551,668.83984
"2523",82.757614,668.853
"2524",83.17998,668.8662
"2525",83.36309,668.8794
"2526",83.33379,668.8926
"2527",83.13115,668.90576
"2528",82.81621,668.91895
"2529",82.43534,668.9321
"2530",82.02762,668.9453
"2531",81.619896,668.9585
"2532",81.22926,668.9717
"2533",80.86305,668.98486
"2534",80.51881,668.99805
"2535",80.201416,669.0112
"2536",79.91577,669.0244
"2537",79.676506,669.0376
"2538",79.49096,669.0508
"2539",79.37133,669.06396
"2540",79.3225,669.07715
"2541",79.33715,669.09033
"2542",79.40063,669.1035
"2543",79.48852,669.1167
"2544",79.57641,669.1299
"2545",79.64721,669.14307
"2546",79.691154,669.15625
"2547",79.691154,669.16943
"2548",79.65453,669.1826
"2549",79.59106,669.1958
"2550",79.49828,669.209
"2551",79.38598,669.22217
"2552",79.26879,669.23535
"2553",79.15404,669.24854
"2554",79.04173,669.2617
"2555",78.93431,669.2749
"2556",78.83421,669.2881
"2557",78.746315,669.3013
"2558",78.66575,669.31445
"2559",78.58762,669.32764
"2560",78.51682,669.3408
"2561",78.44602,669.354
"2562",78.37766,669.3672
"2563",78.314186,669.3804
"2564",78.26292,669.39355
"2565",78.25315,669.40674
"2566",78.34348,669.4199
"2567",78.59739,669.4331
"2568",79.05882,669.4463
"2569",79.73022,669.4595
"2570",80.56031,669.47266
"2571",81.44167,669.48584
"2572",82.247345,669.499
"2573",82.879684,669.5122
"2574",83.28008,669.5254
"2575",83.438774,669.5386
"2576",83.38506,669.55176
"2577",83.16533,669.56494
"2578",82.84062,669.5781
"2579",82.44999,669.5913
"2580",82.04227,669.6045
"2581",81.64187,669.6177
"2582",81.26589,669.63086
"2583",80.919205,669.64404
"2584",80.601814,669.6572
"2585",80.31129,669.6704
"2586",80.045166,669.6836
"2587",79.81323,669.6968
"2588",79.61791,669.70996
"2589",79.47387,669.72314
"2590",79.38354,669.7363
"2591",79.34692,669.7495
"2592",79.35424,669.7627
"2593",79.395744,669.7759
"2594",79.45434,669.78906
"2595",79.51049,669.80225
"2596",79.54711,669.8154
"2597",79.55688,669.8286
"2598",79.53246,669.8418
"2599",79.47387,669.855
"2600",79.38598,669.86816
"2601",79.28344,669.88135
"2602",79.17113,669.89453
"2603",79.05638,669.9077
"2604",78.94408,669.9209
"2605",78.839096,669.9341
"2606",78.73411,669.94727
"2607",78.63645,669.96045
"2608",78.54368,669.97363
"2609",78.46311,669.9868
"2610",78.38743,670
"2611",78.32639,670.0132
"2612",78.27024,670.02637
"2613",78.22385,670.03955
"2614",78.19455,670.05273
"2615",78.23117,670.0659
"2616",78.39231,670.0791
"2617",78.73655,670.0923
"2618",79.290764,670.10547
"2619",80.03052,670.11865
"2620",80.88014,670.13184
"2621",81.722435,670.145
"2622",82.442665,670.1582
"2623",82.95537,670.1714
"2624",83.226364,670.1846
"2625",83.27032,670.19775
"2626",83.12627,670.21094
"2627",82.85527,670.2241
"2628",82.511024,670.2373
"2629",82.13748,670.2505
"2630",81.761505,670.2637
"2631",81.39773,670.27686
"2632",81.05348,670.29004
"2633",80.72877,670.3032
"2634",80.41871,670.3164
"2635",80.12329,670.3296
"2636",79.852295,670.3428
"2637",79.61303,670.35596
"2638",79.41772,670.36914
"2639",79.27856,670.3823
"2640",79.19798,670.3955
"2641",79.17601,670.4087
"2642",79.20531,670.4219
"2643",79.26391,670.43506
"2644",79.33227,670.44824
"2645",79.3933,670.4614
"2646",79.429924,670.4746
"2647",79.42748,670.4878
"2648",79.38842,670.501
"2649",79.32006,670.51416
"2650",79.23216,670.52734
"2651",79.12962,670.5405
"2652",79.01976,670.5537
"2653",78.9099,670.5669
"2654",78.79515,670.5801
"2655",78.6804,670.59326
"2656",78.57053,670.60645
"2657",78.46555,670.6196
"2658",78.37278,670.6328
"2659",78.28977,670.646
"2660",78.21652,670.6592
"2661",78.14816,670.67236
"2662",78.08957,670.68555
"2663",78.03586,670.6987
"2664",78.011444,670.7119
"2665",78.0383,670.7251
"2666",78.1799,670.7383
"2667",78.49485,670.75146
"2668",79.027084,670.76465
"2669",79.75708,670.77783
"2670",80.62623,670.791
"2671",81.52712,670.8042
"2672",82.33036,670.8174
"2673",82.933395,670.83057
"2674",83.28985,670.84375
"2675",83.404594,670.85693
"2676",83.31182,670.8701
"2677",83.06767,670.8833
"2678",82.72831,670.8965
"2679",82.340126,670.90967
"2680",81.94217,670.92285
"2681",81.55642,670.93604
"2682",81.1902,670.9492
"2683",80.850845,670.9624
"2684",80.533455,670.9756
"2685",80.235596,670.9888
"2686",79.95972,671.00195
"2687",79.71557,671.01514
"2688",79.51049,671.0283
"2689",79.36645,671.0415
"2690",79.281,671.0547
"2691",79.259026,671.0679
"2692",79.29565,671.08105
"2693",79.36889,671.09424
"2694",79.4519,671.1074
"2695",79.53002,671.1206
"2696",79.58129,671.1338
"2697",79.5935,671.147
"2698",79.5642,671.16016
"2699",79.49828,671.17334
"2700",79.398186,671.1865
"2701",79.276115,671.1997
"2702",79.13939,671.2129
"2703",79.00511,671.2261
"2704",78.87816,671.23926
"2705",78.76097,671.25244
"2706",78.65598,671.2656
"2707",78.56321,671.2788
"2708",78.4802,671.292
"2709",78.40452,671.3052
"2710",78.33616,671.31836
"2711",78.2678,671.33154
"2712",78.19943,671.3447
"2713",78.13107,671.3579
"2714",78.07004,671.3711
"2715",78.03586,671.3843
"2716",78.07736,671.39746
"2717",78.25803,671.41064
"2718",78.641335,671.4238
"2719",79.24193,671.437
"2720",80.03296,671.4502
"2721",80.92653,671.4634
"2722",81.80789,671.47656
"2723",82.55009,671.48975
"2724",83.07744,671.5029
"2725",83.353325,671.5161
"2726",83.39971,671.5293
"2727",83.25811,671.5425
"2728",82.98222,671.55566
"2729",82.62821,671.56885
"2730",82.24246,671.58203
"2731",81.849396,671.5952
"2732",81.46853,671.6084
"2733",81.10719,671.6216
"2734",80.77028,671.63477
"2735",80.448006,671.64795
"2736",80.14526,671.66113
"2737",79.86694,671.6743
"2738",79.62035,671.6875
"2739",79.42016,671.7007
"2740",79.27856,671.71387
"2741",79.19798,671.72705
"2742",79.17845,671.74023
"2743",79.21263,671.7534
"2744",79.281,671.7666
"2745",79.361565,671.7798
"2746",79.43481,671.79297
"2747",79.47875,671.80615
"2748",79.483635,671.81934
"2749",79.44457,671.8325
"2750",79.36889,671.8457
"2751",79.26879,671.8589
"2752",79.151596,671.8721
"2753",79.027084,671.88525
"2754",78.90013,671.89844
"2755",78.77562,671.9116
"2756",78.658424,671.9248
"2757",78.555885,671.938
"2758",78.46555,671.9512
"2759",78.38499,671.96436
"2760",78.31907,671.97754
"2761",78.26536,671.9907
"2762",78.21652,672.0039
"2763",78.17502,672.0171
"2764",78.133514,672.0303
"2765",78.09689,672.04346
"2766",78.06027,672.05664
"2767",78.0383,672.0698
"2768",78.07248,672.083
"2769",78.238495,672.0962
"2770",78.59983,672.1094
"2771",79.1931,672.12256
"2772",80.00122,672.13574
"2773",80.94362,672.1489
"2774",81.89334,672.1621
"2775",82.7161,672.1753
"2776",83.32403,672.1885
"2777",83.67315,672.20166
"2778",83.773254,672.21484
"2779",83.665825,672.228
"2780",83.404594,672.2412
"2781",83.05058,672.2544
"2782",82.65507,672.2676
"2783",82.25468,672.28076
"2784",81.86893,672.29395
"2785",81.512474,672.3071
"2786",81.18532,672.3203
"2787",80.8777,672.3335
"2788",80.584724,672.3467
"2789",80.30152,672.35986
"2790",80.03296,672.37305
"2791",79.79614,672.3862
"2792",79.60082,672.3994
"2793",79.45922,672.4126
"2794",79.36889,672.4258
"2795",79.33715,672.43896
"2796",79.34692,672.45215
"2797",79.38598,672.46533
"2798",79.43725,672.4785
"2799",79.48119,672.4917
"2800",79.500725,672.5049
"2801",79.48119,672.51807
"2802",79.42504,672.53125
"2803",79.33471,672.54443
"2804",79.22484,672.5576
"2805",79.10277,672.5708
"2806",78.97337,672.584
"2807",78.84154,672.59717
"2808",78.712135,672.61035
"2809",78.590065,672.62354
"2810",78.4802,672.6367
"2811",78.382545,672.6499
"2812",78.2971,672.6631
"2813",78.22629,672.6763
"2814",78.16281,672.68945
"2815",78.11154,672.70264
"2816",78.0676,672.7158
"2817",78.04074,672.729
"2818",78.02121,672.7422
"2819",78.00656,672.7554
"2820",77.99191,672.76855
"2821",77.96994,672.78174
"2822",77.95285,672.7949
"2823",77.96506,672.8081
"2824",78.05783,672.8213
"2825",78.3093,672.8345
"2826",78.77806,672.84766
"2827",79.48608,672.86084
"2828",80.39185,672.874
"2829",81.39529,672.8872
"2830",82.357216,672.9004
"2831",83.1458,672.9136
"2832",83.6878,672.92676
"2833",83.95636,672.93994
"2834",83.97101,672.9531
"2835",83.792786,672.9663
"2836",83.48516,672.9795
"2837",83.10185,672.9927
"2838",82.69657,673.00586
"2839",82.30106,673.01904
"2840",81.934845,673.0322
"2841",81.600365,673.0454
"2842",81.29519,673.0586
"2843",81.01198,673.0718
"2844",80.73853,673.08496
"2845",80.47242,673.09814
"2846",80.218506,673.1113
"2847",79.98657,673.1245
"2848",79.78882,673.1377
"2849",79.62768,673.1509
"2850",79.51537,673.16406
"2851",79.4519,673.17725
"2852",79.42504,673.1904
"2853",79.42748,673.2036
"2854",79.44213,673.2168
"2855",79.45678,673.23
"2856",79.4519,673.24316
"2857",79.41772,673.25635
"2858",79.34936,673.26953
"2859",79.24193,673.2827
"2860",79.10765,673.2959
"2861",78.95628,673.3091
"2862",78.80003,673.32227
"2863",78.6511,673.33545
"2864",78.51194,673.34863
"2865",78.38499,673.3618
"2866",78.2678,673.375
"2867",78.15793,673.3882
"2868",78.05295,673.40137
"2869",77.960175,673.41455
"2870",77.87961,673.42773
"2871",77.81857,673.4409
"2872",77.769745,673.4541
"2873",77.73556,673.4673
"2874",77.72335,673.48047
"2875",77.733116,673.49365
"2876",77.76486,673.50684
"2877",77.81613,673.52
"2878",77.874725,673.5332
"2879",77.92111,673.5464
"2880",77.94797,673.5596
"2881",77.960175,673.57275
"2882",78.009,673.58594
"2883",78.17258,673.5991
"2884",78.54368,673.6123
"2885",79.168686,673.6255
"2886",80.03784,673.6387
"2887",81.06813,673.65186
"2888",82.125275,673.66504
"2889",83.06767,673.6782
"2890",83.77814,673.6914
"2891",84.21515,673.7046
"2892",84.37385,673.7178
"2893",84.29572,673.73096
"2894",84.04181,673.74414
"2895",83.67315,673.7573
"2896",83.245895,673.7705
"2897",82.80644,673.7837
"2898",82.38651,673.7969
"2899",81.991,673.81006
"2900",81.62722,673.82324
"2901",81.28542,673.8364
"2902",80.96559,673.8496
"2903",80.65308,673.8628
"2904",80.35523,673.876
"2905",80.07446,673.88916
"2906",79.83032,673.90234
"2907",79.63256,673.9155
"2908",79.483635,673.9287
"2909",79.40307,673.9419
"2910",79.381096,673.9551
"2911",79.40551,673.96826
"2912",79.45678,673.98145
"2913",79.517815,673.9946
"2914",79.571526,674.0078
"2915",79.605705,674.021
"2916",79.605705,674.0342
"2917",79.56664,674.04736
"2918",79.48852,674.06055
"2919",79.37377,674.0737
"2920",79.23216,674.0869
"2921",79.07347,674.1001
"2922",78.91234,674.1133
"2923",78.75609,674.12646
"2924",78.61936,674.13965
"2925",78.49729,674.15283
"2926",78.38743,674.166
"2927",78.28733,674.1792
"2928",78.18967,674.1924
"2929",78.09201,674.20557
"2930",78.00412,674.21875
"2931",77.945526,674.23193
"2932",77.92111,674.2451
"2933",77.925995,674.2583
"2934",77.94797,674.2715
"2935",77.98947,674.28467
"2936",78.03586,674.29785
"2937",78.07736,674.31104
"2938",78.10666,674.3242
"2939",78.118866,674.3374
"2940",78.118866,674.3506
"2941",78.12619,674.3638
"2942",78.19699,674.37695
"2943",78.41917,674.39014
"2944",78.87572,674.4033
"2945",79.588615,674.4165
"2946",80.51881,674.4297
"2947",81.57107,674.4429
"2948",82.60136,674.45605
"2949",83.46563,674.46924
"2950",84.071106,674.4824
"2951",84.3885,674.4956
"2952",84.439766,674.5088
"2953",84.27863,674.522
"2954",83.96857,674.53516
"2955",83.57305,674.54834
"2956",83.14336,674.5615
"2957",82.71366,674.5747
"2958",82.30595,674.5879
"2959",81.92264,674.6011
"2960",81.56863,674.61426
"2961",81.24391,674.62744
"2962",80.94118,674.6406
"2963",80.65797,674.6538
"2964",80.40162,674.667
"2965",80.17212,674.6802
"2966",79.974365,674.69336
"2967",79.80835,674.70654
"2968",79.68871,674.7197
"2969",79.61547,674.7329
"2970",79.586174,674.7461
"2971",79.60082,674.7593
"2972",79.64233,674.77246
"2973",79.691154,674.78564
"2974",79.727776,674.7988
"2975",79.73998,674.812
"2976",79.708244,674.8252
"2977",79.63256,674.8384
"2978",79.51293,674.85156
"2979",79.37133,674.86475
"2980",79.21019,674.8779
"2981",79.044174,674.8911
"2982",78.88548,674.9043
"2983",78.73899,674.9175
"2984",78.60471,674.93066
"2985",78.48264,674.94385
"2986",78.37034,674.95703
"2987",78.26292,674.9702
"2988",78.16037,674.9834
"2989",78.06271,674.9966
"2990",77.97482,675.00977
"2991",77.89914,675.02295
"2992",77.838104,675.03613
"2993",77.79416,675.0493
"2994",77.769745,675.0625
"2995",77.769745,675.0757
"2996",77.7966,675.08887
"2997",77.838104,675.10205
"2998",77.88449,675.11523
"2999",77.91867,675.1284
"3000",77.93088,675.1416
"3001",77.91867,675.1548
"3002",77.91623,675.16797
"3003",77.99191,675.18115
"3004",78.24826,675.19434
"3005",78.75853,675.2075
"3006",79.54467,675.2207
"3007",80.56031,675.2339
"3008",81.685814,675.2471
"3009",82.7625,675.26025
"3010",83.648735,675.27344
"3011",84.25666,675.2866
"3012",84.56672,675.2998
"3013",84.59846,675.313
"3014",84.41535,675.3262
"3015",84.07843,675.33936
"3016",83.66094,675.35254
"3017",83.211716,675.3657
"3018",82.77226,675.3789
"3019",82.35233,675.3921
"3020",81.96658,675.4053
"3021",81.61013,675.41846
"3022",81.27566,675.43164
"3023",80.96071,675.4448
"3024",80.67017,675.458
"3025",80.40162,675.4712
"3026",80.16235,675.4844
"3027",79.957275,675.49756
"3028",79.7937,675.51074
"3029",79.67162,675.5239
"3030",79.59838,675.5371
"3031",79.57397,675.5503
"3032",79.586174,675.5635
"3033",79.622795,675.57666
"3034",79.66674,675.58984
"3035",79.69604,675.603
"3036",79.70092,675.6162
"3037",79.66674,675.6294
"3038",79.5935,675.6426
"3039",79.48852,675.65576
"3040",79.35668,675.66895
"3041",79.20775,675.6821
"3042",79.05638,675.6953
"3043",78.907455,675.7085
"3044",78.76341,675.7217
"3045",78.626686,675.73486
"3046",78.49973,675.74805
"3047",78.380104,675.7612
"3048",78.277565,675.7744
"3049",78.19211,675.7876
"3050",78.12375,675.8008
"3051",78.0676,675.81396
"3052",78.02121,675.82715
"3053",77.977264,675.84033
"3054",77.9382,675.8535
"3055",77.90402,675.8667
"3056",77.88937,675.8799
"3057",77.89426,675.89307
"3058",77.91623,675.90625
"3059",77.94797,675.91943
"3060",77.97482,675.9326
"3061",77.98215,675.9458
"3062",77.9675,675.959
"3063",77.94064,675.97217
"3064",77.960175,675.98535
"3065",78.118866,675.99854
"3066",78.51194,676.0117
"3067",79.19066,676.0249
"3068",80.13794,676.0381
"3069",81.25124,676.0513
"3070",82.38651,676.06445
"3071",83.38262,676.07764
"3072",84.12726,676.0908
"3073",84.57404,676.104
"3074",84.735176,676.1172
"3075",84.65217,676.1304
"3076",84.3885,676.14355
"3077",84.00275,676.15674
"3078",83.55596,676.1699
"3079",83.09209,676.1831
"3080",82.633095,676.1963
"3081",82.196075,676.2095
"3082",81.7908,676.22266
"3083",81.41482,676.23584
"3084",81.06569,676.249
"3085",80.44312,676.2754
"3086",80.17456,676.2886
"3087",79.94507,676.30176
"3088",79.75708,676.31494
"3089",79.61547,676.3281
"3090",79.52758,676.3413
"3091",79.49096,676.3545
"3092",79.500725,676.3677
"3093",79.54467,676.38086
"3094",79.605705,676.39404
"3095",79.65942,676.4072
"3096",79.693596,676.4204
"3097",79.69604,676.4336
"3098",79.66186,676.4468
"3099",79.59106,676.45996
"3100",79.48852,676.47314
"3101",79.364006,676.4863
"3102",79.219955,676.4995
"3103",79.07347,676.5127
"3104",78.92699,676.5259
"3105",78.78294,676.53906
"3106",78.63645,676.55225
"3107",78.49729,676.5654
"3108",78.35813,676.5786
"3109",78.21896,676.5918
"3110",78.09201,676.605
"3111",77.98703,676.61816
"3112",77.91135,676.63135
"3113",77.857635,676.64453
"3114",77.823456,676.6577
"3115",77.81125,676.6709
"3116",77.80881,676.6841
"3117",77.80881,676.69727
"3118",77.80881,676.71045
"3119",77.806366,676.72363
"3120",77.79416,676.7368
"3121",77.78195,676.75
"3122",77.80881,676.7632
"3123",77.95041,676.77637
"3124",78.30442,676.78955
"3125",78.93675,676.80273
"3126",79.84009,676.8159
"3127",80.938736,676.8291
"3128",82.09842,676.8423
"3129",83.158005,676.85547
"3130",83.98566,676.86865
"3131",84.52277,676.88184
"3132",84.76936,676.895
"3133",84.754715,676.9082
"3134",84.53498,676.9214
"3135",84.16876,676.9346
"3136",83.71221,676.94775
"3137",83.209274,676.96094
"3138",82.70634,676.9741
"3139",82.2327,676.9873
"3140",81.795685,677.0005
"3141",81.40017,677.0137
"3142",81.03883,677.02686
"3143",80.706795,677.04004
"3144",80.39185,677.0532
"3145",80.096436,677.0664
"3146",79.83276,677.0796
"3147",79.61547,677.0928
"3148",79.45678,677.10596
"3149",79.36645,677.11914
"3150",79.33959,677.1323
"3151",79.364006,677.1455
"3152",79.4226,677.1587
"3153",79.49584,677.1719
"3154",79.56176,677.18506
"3155",79.60815,677.19824
"3156",79.62035,677.2114
"3157",79.5935,677.2246
"3158",79.52758,677.2378
"3159",79.42748,677.251
"3160",79.30053,677.26416
"3161",79.15892,677.27734
"3162",79.012436,677.2905
"3163",78.86595,677.3037
"3164",78.7219,677.3169
"3165",78.58274,677.3301
"3166",78.44846,677.34326
"3167",78.311745,677.35645
"3168",78.18234,677.3696
"3169",78.05783,677.3828
"3170",77.95285,677.396
"3171",77.8674,677.4092
"3172",77.803925,677.42236
"3173",77.75998,677.43555
"3174",77.72823,677.4487
"3175",77.70138,677.4619
"3176",77.67696,677.4751
"3177",77.65255,677.4883
"3178",77.63546,677.50146
"3179",77.65255,677.51465
"3180",77.76486,677.52783
"3181",78.065155,677.541
"3182",78.62913,677.5542
"3183",79.47387,677.5674
"3184",80.54078,677.58057
"3185",81.71511,677.59375
"3186",82.84062,677.60693
"3187",83.76837,677.6201
"3188",84.41535,677.6333
"3189",84.76204,677.6465
"3190",84.83284,677.65967
"3191",84.67658,677.67285
"3192",84.351875,677.68604
"3193",83.92218,677.6992
"3194",83.4461,677.7124
"3195",82.96025,677.7256
"3196",82.49149,677.7388
"3197",82.05203,677.75195
"3198",81.64187,677.76514
"3199",81.253685,677.7783
"3200",80.88258,677.7915
"3201",80.52613,677.8047
"3202",80.19409,677.8179
"3203",79.906006,677.83105
"3204",79.68139,677.84424
"3205",79.520256,677.8574
"3206",79.42504,677.8706
"3207",79.38598,677.8838
"3208",79.395744,677.897
"3209",79.429924,677.91016
"3210",79.47875,677.92334
"3211",79.53002,677.9365
"3212",79.569084,677.9497
"3213",79.57885,677.9629
"3214",79.55688,677.9761
"3215",79.49584,677.98926
"3216",79.41039,678.00244
"3217",79.30053,678.0156
"3218",79.17601,678.0288
"3219",79.044174,678.042
"3220",78.907455,678.0552
"3221",78.768295,678.06836
"3222",78.63401,678.08154
"3223",78.50706,678.0947
"3224",78.39231,678.1079
"3225",78.28733,678.1211
"3226",78.19211,678.1343
"3227",78.10666,678.14746
"3228",78.028534,678.16064
"3229",77.95773,678.1738
"3230",77.89914,678.187
"3231",77.84299,678.2002
"3232",77.789276,678.2134
"3233",77.733116,678.22656
"3234",77.679405,678.23975
"3235",77.6379,678.2529
"3236",77.65743,678.2661
"3237",77.82834,678.2793
"3238",78.24582,678.2925
"3239",78.96117,678.30566
"3240",79.95972,678.31885
"3241",81.13649,678.33203
"3242",82.34257,678.3452
"3243",83.40948,678.3584
"3244",84.21759,678.3716
"3245",84.72053,678.38477
"3246",84.9305,678.39795
"3247",84.88899,678.41113
"3248",84.64973,678.4243
"3249",84.27619,678.4375
"3250",83.82208,678.4507
"3251",83.336235,678.46387
"3252",82.847946,678.47705
"3253",82.38163,678.49023
"3254",81.93973,678.5034
"3255",81.52712,678.5166
"3256",81.14137,678.5298
"3257",80.782486,678.54297
"3258",80.45533,678.55615
"3259",80.15991,678.56934
"3260",79.906006,678.5825
"3261",79.70336,678.5957
"3262",79.551994,678.6089
"3263",79.45678,678.6221
"3264",79.412834,678.63525
"3265",79.412834,678.64844
"3266",79.43969,678.6616
"3267",79.48119,678.6748
"3268",79.52514,678.688
"3269",79.554436,678.7012
"3270",79.55932,678.71436
"3271",79.52758,678.72754
"3272",79.45922,678.7407
"3273",79.361565,678.7539
"3274",79.24925,678.7671
"3275",79.132065,678.7803
"3276",79.012436,678.79346
"3277",78.89525,678.80664
"3278",78.77562,678.8198
"3279",78.6511,678.833
"3280",78.519264,678.8462
"3281",78.38743,678.8594
"3282",78.25559,678.87256
"3283",78.133514,678.88574
"3284",78.02365,678.8989
"3285",77.925995,678.9121
"3286",77.838104,678.9253
"3287",77.75998,678.9385
"3288",77.69161,678.95166
"3289",77.64034,678.96484
"3290",77.65743,678.978
"3291",77.823456,678.9912
"3292",78.22385,679.0044
"3293",78.905014,679.0176
"3294",79.84009,679.03076
"3295",80.94118,679.04395
"3296",82.06668,679.0571
"3297",83.06767,679.0703
"3298",83.826965,679.0835
"3299",84.30305,679.0967
"3300",84.5008,679.10986
"3301",84.456856,679.12305
"3302",84.22247,679.1362
"3303",83.8587,679.1494
"3304",83.41924,679.1626
"3305",82.950485,679.1758
"3306",82.48417,679.18896
"3307",82.0325,679.20215
"3308",81.60769,679.21533
"3309",81.21217,679.2285
"3310",80.850845,679.2417
"3311",80.516365,679.2549
"3312",80.216064,679.26807
"3313",79.957275,679.28125
"3314",79.744865,679.29443
"3315",79.57397,679.3076
"3316",79.45922,679.3208
"3317",79.395744,679.334
"3318",79.38354,679.34717
"3319",79.4226,679.36035
"3320",79.49584,679.37354
"3321",79.57397,679.3867
"3322",79.639885,679.3999
"3323",79.66674,679.4131
"3324",79.64721,679.4263
"3325",79.586174,679.43945
"3326",79.49096,679.45264
"3327",79.381096,679.4658
"3328",79.26147,679.479
"3329",79.13695,679.4922
"3330",79.01488,679.5054
"3331",78.89525,679.51855
"3332",78.77074,679.53174
"3333",78.64866,679.5449
"3334",78.52903,679.5581
"3335",78.416725,679.5713
"3336",78.3093,679.5845
"3337",78.2092,679.59766
"3338",78.1091,679.61084
"3339",78.00656,679.624
"3340",77.90158,679.6372
"3341",77.806366,679.6504
"3342",77.74044,679.6636
"3343",77.75998,679.67676
"3344",77.943085,679.68994
"3345",78.365456,679.7031
"3346",79.05638,679.7163
"3347",79.98169,679.7295
"3348",81.041275,679.7427
"3349",82.09842,679.75586
"3350",83.004196,679.76904
"3351",83.66827,679.7822
"3352",84.054016,679.7954
"3353",84.173645,679.8086
"3354",84.07355,679.8218
"3355",83.809875,679.83496
"3356",83.441216,679.84814
"3357",83.00908,679.8613
"3358",82.55009,679.8745
"3359",82.08377,679.8877
"3360",81.62966,679.9009
"3361",81.1902,679.91406
"3362",80.780045,679.92725
"3363",80.40406,679.9404
"3364",80.06714,679.9536
"3365",79.78638,679.9668
"3366",79.55688,679.98
"3367",79.38842,679.99316
"3368",79.27856,680.00635
"3369",79.22972,680.01953
"3370",79.237045,680.0327
"3371",79.28588,680.0459
"3372",79.35668,680.0591
"3373",79.43725,680.07227
"3374",79.50561,680.08545
"3375",79.54467,680.09863
"3376",79.53979,680.1118
"3377",79.49584,680.125
"3378",79.412834,680.1382
"3379",79.29565,680.15137
"3380",79.1638,680.16455
"3381",79.027084,680.17773
"3382",78.890366,680.1909
"3383",78.76341,680.2041
"3384",78.643776,680.2173
"3385",78.536354,680.23047
"3386",78.44114,680.24365
"3387",78.35569,680.25684
"3388",78.28489,680.27
"3389",78.21164,680.2832
"3390",78.14084,680.2964
"3391",78.0676,680.3096
"3392",77.99924,680.32275
"3393",77.94064,680.33594
"3394",77.9382,680.3491
"3395",78.048065,680.3623
"3396",78.35325,680.3755
"3397",78.90013,680.3887
"3398",79.691154,680.40186
"3399",80.65797,680.41504
"3400",81.68093,680.4282
"3401",82.616005,680.4414
"3402",83.35577,680.4546
"3403",83.83917,680.4678
"3404",84.06134,680.48096
"3405",84.054016,680.49414
"3406",83.86359,680.5073
"3407",83.546196,680.5205
"3408",83.15068,680.5337
"3409",82.71122,680.5469
"3410",82.247345,680.56006
"3411",81.78104,680.57324
"3412",81.32693,680.5864
"3413",80.902115,680.5996
"3414",80.52125,680.6128
"3415",80.19409,680.626
"3416",79.93042,680.63916
"3417",79.72289,680.65234
"3418",79.57397,680.6655
"3419",79.49096,680.6787
"3420",79.46899,680.6919
"3421",79.49828,680.7051
"3422",79.56176,680.71826
"3423",79.64233,680.73145
"3424",79.71313,680.7446
"3425",79.74975,680.7578
"3426",79.744865,680.771
"3427",79.70092,680.7842
"3428",79.61547,680.79736
"3429",79.50561,680.81055
"3430",79.381096,680.8237
"3431",79.25414,680.8369
"3432",79.12474,680.8501
"3433",79.00023,680.8633
"3434",78.87816,680.87646
"3435",78.76097,680.88965
"3436",78.641335,680.90283
"3437",78.52903,680.916
"3438",78.42161,680.9292
"3439",78.32151,680.9424
"3440",78.22629,680.95557
"3441",78.133514,680.96875
"3442",78.04074,680.98193
"3443",77.95041,680.9951
"3444",77.87961,681.0083
"3445",77.87717,681.0215
"3446",78.01877,681.03467
"3447",78.380104,681.04785
"3448",78.992905,681.06104
"3449",79.835205,681.0742
"3450",80.833755,681.0874
"3451",81.84451,681.1006
"3452",82.73075,681.1138
"3453",83.39239,681.12695
"3454",83.78546,681.14014
"3455",83.90509,681.1533
"3456",83.80255,681.1665
"3457",83.53399,681.1797
"3458",83.15556,681.1929
"3459",82.71366,681.20605
"3460",82.25468,681.21924
"3461",81.79813,681.2324
"3462",81.356224,681.2456
"3463",80.936295,681.2588
"3464",80.552986,681.272
"3465",80.2063,681.28516
"3466",79.903564,681.29834
"3467",79.656975,681.3115
"3468",79.47387,681.3247
"3469",79.361565,681.3379
"3470",79.31518,681.3511
"3471",79.33227,681.36426
"3472",79.395744,681.37744
"3473",79.483635,681.3906
"3474",79.569084,681.4038
"3475",79.63256,681.417
"3476",79.66186,681.4302
"3477",79.64721,681.44336
"3478",79.5935,681.45654
"3479",79.50317,681.4697
"3480",79.38354,681.4829
"3481",79.24925,681.4961
"3482",79.11009,681.5093
"3483",78.97337,681.52246
"3484",78.84642,681.53564
"3485",78.73411,681.5488
"3486",78.63645,681.562
"3487",78.551,681.5752
"3488",78.46555,681.5884
"3489",78.38743,681.60156
"3490",78.311745,681.61475
"3491",78.24094,681.6279
"3492",78.170135,681.6411
"3493",78.099335,681.6543
"3494",78.030975,681.6675
"3495",77.977264,681.68066
"3496",77.97238,681.69385
"3497",78.09201,681.70703
"3498",78.4094,681.7202
"3499",78.958725,681.7334
"3500",79.7351,681.7466
"3501",80.66285,681.75977
"3502",81.61501,681.77295
"3503",82.459755,681.78613
"3504",83.089645,681.7993
"3505",83.46319,681.8125
"3506",83.577934,681.8257
"3507",83.47295,681.83887
"3508",83.20195,681.85205
"3509",82.83086,681.86523
"3510",82.406044,681.8784
"3511",81.9617,681.8916
"3512",81.52712,681.9048
"3513",81.112076,681.91797
"3514",80.72877,681.93115
"3515",80.37965,681.94434
"3516",80.06958,681.9575
"3517",79.80591,681.9707
"3518",79.59594,681.9839
"3519",79.43969,681.9971
"3520",79.34203,682.01025
"3521",79.30297,682.02344
"3522",79.31762,682.0366
"3523",79.37133,682.0498
"3524",79.447014,682.063
"3525",79.52758,682.0762
"3526",79.5935,682.08936
"3527",79.62768,682.10254
"3528",79.62524,682.1157
"3529",79.58373,682.1289
"3530",79.50317,682.1421
"3531",79.3933,682.1553
"3532",79.26391,682.16846
"3533",79.12962,682.18164
"3534",78.995346,682.1948
"3535",78.870834,682.208
"3536",78.75609,682.2212
"3537",78.6511,682.2344
"3538",78.551,682.24756
"3539",78.45579,682.26074
"3540",78.365456,682.2739
"3541",78.28489,682.2871
"3542",78.21408,682.3003
"3543",78.153046,682.3135
"3544",78.099335,682.32666
"3545",78.04074,682.33984
"3546",77.979706,682.353
"3547",77.93332,682.3662
"3548",77.93088,682.3794
"3549",78.03342,682.3926
"3550",78.31907,682.40576
"3551",78.84398,682.41895
"3552",79.603264,682.4321
"3553",80.52857,682.4453
"3554",81.50515,682.4585
"3555",82.40116,682.4717
"3556",83.09453,682.48486
"3557",83.52422,682.49805
"3558",83.69024,682.5112
"3559",83.62432,682.5244
"3560",83.38506,682.5376
"3561",83.02373,682.5508
"3562",82.59647,682.56396
"3563",82.13504,682.57715
"3564",81.67361,682.59033
"3565",81.22194,682.6035
"3566",80.79225,682.6167
"3567",80.39918,682.6299
"3568",80.05249,682.64307
"3569",79.75952,682.65625
"3570",79.53002,682.66943
"3571",79.37133,682.6826
"3572",79.27856,682.6958
"3573",79.24925,682.709
"3574",79.273674,682.72217
"3575",79.33227,682.73535
"3576",79.40795,682.74854
"3577",79.47875,682.7617
"3578",79.53246,682.7749
"3579",79.55932,682.7881
"3580",79.56176,682.8013
"3581",79.537346,682.81445
"3582",79.49096,682.82764
"3583",79.42504,682.8408
"3584",79.33715,682.854
"3585",79.22972,682.8672
"3586",79.10765,682.8804
"3587",78.98802,682.89355
"3588",78.86839,682.90674
"3589",78.75609,682.9199
"3590",78.65354,682.9331
"3591",78.553444,682.9463
"3592",78.45823,682.9595
"3593",78.37278,682.97266
"3594",78.29954,682.98584
"3595",78.23605,682.999
"3596",78.187225,683.0122
"3597",78.14328,683.0254
"3598",78.099335,683.0386
"3599",78.05295,683.05176
"3600",78.013885,683.06494
"3601",78.013885,683.0781
"3602",78.118866,683.0913
"3603",78.40452,683.1045
"3604",78.91722,683.1177
"3605",79.67162,683.13086
"3606",80.601814,683.14404
"3607",81.59548,683.1572
"3608",82.493935,683.1704
"3609",83.194626,683.1836
"3610",83.631645,683.1968
"3611",83.80011,683.20996
"3612",83.72442,683.22314
"3613",83.47784,683.2363
"3614",83.10918,683.2495
"3615",82.6746,683.2627
"3616",82.21561,683.2759
"3617",81.75906,683.28906
"3618",81.3196,683.30225
"3619",80.90456,683.3154
"3620",80.52125,683.3286
"3621",80.16724,683.3418
"3622",79.85474,683.355
"3623",79.59106,683.36816
"3624",79.38842,683.38135
"3625",79.25414,683.39453
"3626",79.1931,683.4077
"3627",79.21019,683.4209
"3628",79.281,683.4341
"3629",79.38598,683.44727
"3630",79.4934,683.46045
"3631",79.57885,683.47363
"3632",79.62768,683.4868
"3633",79.63256,683.5
"3634",79.5935,683.5132
"3635",79.52758,683.52637
"3636",79.44213,683.53955
"3637",79.34692,683.55273
"3638",79.237045,683.5659
"3639",79.1223,683.5791
"3640",79.00267,683.5923
"3641",78.88304,683.60547
"3642",78.76341,683.61865
"3643",78.6511,683.63184
"3644",78.54612,683.645
"3645",78.450905,683.6582
"3646",78.365456,683.6714
"3647",78.28245,683.6846
"3648",78.20676,683.69775
"3649",78.133514,683.71094
"3650",78.065155,683.7241
"3651",78.011444,683.7373
"3652",78.011444,683.7505
"3653",78.133514,683.7637
"3654",78.44602,683.77686
"3655",78.99046,683.79004
"3656",79.7522,683.8032
"3657",80.66773,683.8164
"3658",81.61501,683.8296
"3659",82.46464,683.8428
"3660",83.104294,683.85596
"3661",83.492485,683.86914
"3662",83.62676,683.8823
"3663",83.54131,683.8955
"3664",83.29229,683.9087
"3665",82.930954,683.9219
"3666",82.5037,683.93506
"3667",82.04959,683.94824
"3668",81.59548,683.9614
"3669",81.15358,683.9746
"3670",80.740974,683.9878
"3671",80.35767,684.001
"3672",80.01099,684.01416
"3673",79.7058,684.02734
"3674",79.4519,684.0405
"3675",79.26635,684.0537
"3676",79.15404,684.0669
"3677",79.11742,684.0801
"3678",79.14427,684.09326
"3679",79.22484,684.10645
"3680",79.33959,684.1196
"3681",79.466545,684.1328
"3682",79.57885,684.146
"3683",79.64721,684.1592
"3684",79.66186,684.17236
"3685",79.63012,684.18555
"3686",79.5642,684.1987
"3687",79.47631,684.2119
"3688",79.378654,684.2251
"3689",79.28344,684.2383
"3690",79.18089,684.25146
"3691",79.06615,684.26465
"3692",78.941635,684.27783
"3693",78.81224,684.291
"3694",78.68772,684.3042
"3695",78.56321,684.3174
"3696",78.450905,684.33057
"3697",78.348366,684.34375
"3698",78.25315,684.35693
"3699",78.16525,684.3701
"3700",78.09201,684.3833
"3701",78.05295,684.3965
"3702",78.10422,684.40967
"3703",78.31907,684.42285
"3704",78.76097,684.43604
"3705",79.44213,684.4492
"3706",80.323494,684.4624
"3707",81.307396,684.4756
"3708",82.25712,684.4888
"3709",83.05058,684.50195
"3710",83.60723,684.51514
"3711",83.90265,684.5283
"3712",83.95148,684.5415
"3713",83.80011,684.5547
"3714",83.50469,684.5679
"3715",83.11162,684.58105
"3716",82.669716,684.59424
"3717",82.21805,684.6074
"3718",81.77371,684.6206
"3719",81.3489,684.6338
"3720",80.9485,684.647
"3721",80.57984,684.66016
"3722",80.24292,684.67334
"3723",79.94263,684.6865
"3724",79.68871,684.6997
"3725",79.4934,684.7129
"3726",79.364006,684.7261
"3727",79.30297,684.73926
"3728",79.30785,684.75244
"3729",79.36645,684.7656
"3730",79.45678,684.7788
"3731",79.54955,684.792
"3732",79.61791,684.8052
"3733",79.64965,684.81836
"3734",79.639885,684.83154
"3735",79.5935,684.8447
"3736",79.517815,684.8579
"3737",79.4226,684.8711
"3738",79.310295,684.8843
"3739",79.185776,684.89746
"3740",79.05638,684.91064
"3741",78.922104,684.9238
"3742",78.78783,684.937
"3743",78.65354,684.9502
"3744",78.52659,684.9634
"3745",78.4094,684.97656
"3746",78.30198,684.98975
"3747",78.19943,685.0029
"3748",78.099335,685.0161
"3749",78.01877,685.0293
"3750",77.99924,685.0425
"3751",78.116425,685.05566
"3752",78.450905,685.06885
"3753",79.03685,685.08203
"3754",79.85962,685.0952
"3755",80.82887,685.1084
"3756",81.812775,685.1216
"3757",82.67948,685.13477
"3758",83.32891,685.14795
"3759",83.71465,685.16113
"3760",83.844055,685.1743
"3761",83.758606,685.1875
"3762",83.50469,685.2007
"3763",83.14336,685.21387
"3764",82.72587,685.22705
"3765",82.28397,685.24023
"3766",81.84451,685.2534
"3767",81.42458,685.2666
"3768",81.03151,685.2798
"3769",80.66285,685.29297
"3770",80.32105,685.30615
"3771",80.01099,685.31934
"3772",79.73754,685.3325
"3773",79.51049,685.3457
"3774",79.34936,685.3589
"3775",79.256584,685.3721
"3776",79.23216,685.38525
"3777",79.26879,685.39844
"3778",79.34692,685.4116
"3779",79.43725,685.4248
"3780",79.51537,685.438
"3781",79.569084,685.4512
"3782",79.58129,685.46436
"3783",79.54955,685.47754
"3784",79.48608,685.4907
"3785",79.40307,685.5039
"3786",79.29565,685.5171
"3787",79.17845,685.5303
"3788",79.05638,685.54346
"3789",78.92943,685.55664
"3790",78.79515,685.5698
"3791",78.65598,685.583
"3792",78.51682,685.5962
"3793",78.382545,685.6094
"3794",78.25315,685.62256
"3795",78.133514,685.63574
"3796",78.0383,685.6489
"3797",77.98947,685.6621
"3798",78.04074,685.6753
"3799",78.25803,685.6885
"3800",78.69993,685.70166
"3801",79.378654,685.71484
"3802",80.2478,685.728
"3803",81.20485,685.7412
"3804",82.11795,685.7544
"3805",82.86992,685.7676
"3806",83.38262,685.78076
"3807",83.63653,685.79395
"3808",83.65362,685.8071
"3809",83.48272,685.8203
"3810",83.17998,685.8335
"3811",82.804,685.8467
"3812",82.39384,685.85986
"3813",81.97879,685.87305
"3814",81.57351,685.8862
"3815",81.18288,685.8994
"3816",80.80934,685.9126
"3817",80.46021,685.9258
"3818",80.13794,685.93896
"3819",79.84985,685.95215
"3820",79.605705,685.96533
"3821",79.41772,685.9785
"3822",79.29565,685.9917
"3823",79.237045,686.0049
"3824",79.24193,686.01807
"3825",79.29565,686.03125
"3826",79.37621,686.04443
"3827",79.46166,686.0576
"3828",79.53002,686.0708
"3829",79.55932,686.084
"3830",79.54467,686.09717
"3831",79.48608,686.11035
"3832",79.39086,686.12354
"3833",79.26879,686.1367
"3834",79.132065,686.1499
"3835",78.992905,686.1631
"3836",78.856186,686.1763
"3837",78.7219,686.18945
"3838",78.59251,686.20264
"3839",78.467995,686.2158
"3840",78.345924,686.229
"3841",78.22629,686.2422
"3842",78.1091,686.2554
"3843",77.99191,686.26855
"3844",77.89914,686.28174
"3845",77.88449,686.2949
"3846",78.02609,686.3081
"3847",78.397194,686.3213
"3848",79.03197,686.3345
"3849",79.89624,686.34766
"3850",80.88747,686.36084
"3851",81.87381,686.374
"3852",82.7161,686.3872
"3853",83.319145,686.4004
"3854",83.6585,686.4136
"3855",83.74395,686.42676
"3856",83.61944,686.43994
"3857",83.346,686.4531
"3858",82.98222,686.4663
"3859",82.57694,686.4795
"3860",82.159454,686.4927
"3861",81.74685,686.50586
"3862",81.356224,686.51904
"3863",80.990005,686.5322
"3864",80.65064,686.5454
"3865",80.32838,686.5586
"3866",80.03784,686.5718
"3867",79.783936,686.58496
"3868",79.569084,686.59814
"3869",79.41039,686.6113
"3870",79.31762,686.6245
"3871",79.293205,686.6377
"3872",79.32494,686.6509
"3873",79.395744,686.66406
"3874",79.47875,686.67725
"3875",79.551994,686.6904
"3876",79.59106,686.7036
"3877",79.58129,686.7168
"3878",79.52514,686.73
"3879",79.432365,686.74316
"3880",79.310295,686.75635
"3881",79.17357,686.76953
"3882",79.027084,686.7827
"3883",78.88304,686.7959
"3884",78.74387,686.8091
"3885",78.61204,686.82227
"3886",78.49241,686.83545
"3887",78.380104,686.84863
"3888",78.27268,686.8618
"3889",78.16281,686.875
"3890",78.048065,686.8882
"3891",77.92844,686.90137
"3892",77.823456,686.91455
"3893",77.786835,686.92773
"3894",77.89914,686.9409
"3895",78.24338,686.9541
"3896",78.85863,686.9673
"3897",79.71313,686.98047
"3898",80.719,686.99365
"3899",81.73464,687.00684
"3900",82.61356,687.02
"3901",83.26299,687.0332
"3902",83.64629,687.0464
"3903",83.77814,687.0596
"3904",83.702446,687.07275
"3905",83.475395,687.08594
"3906",83.15068,687.0991
"3907",82.774704,687.1123
"3908",82.374306,687.1255
"3909",81.97391,687.1387
"3910",81.58816,687.15186
"3911",81.22194,687.16504
"3912",80.88258,687.1782
"3913",80.55787,687.1914
"3914",80.255135,687.2046
"3915",79.971924,687.2178
"3916",79.71557,687.23096
"3917",79.500725,687.24414
"3918",79.34203,687.2573
"3919",79.25414,687.2705
"3920",79.22728,687.2837
"3921",79.25414,687.2969
"3922",79.31762,687.31006
"3923",79.39086,687.32324
"3924",79.44457,687.3364
"3925",79.46899,687.3496
"3926",79.4519,687.3628
"3927",79.3933,687.376
"3928",79.29565,687.38916
"3929",79.166245,687.40234
"3930",79.01732,687.4155
"3931",78.856186,687.4287
"3932",78.695045,687.4419
"3933",78.54124,687.4551
"3934",78.397194,687.46826
"3935",78.26292,687.48145
"3936",78.14084,687.4946
"3937",78.0383,687.5078
"3938",77.94797,687.521
"3939",77.86252,687.5342
"3940",77.78439,687.54736
"3941",77.71603,687.56055
"3942",77.67452,687.5737
"3943",77.7087,687.5869
"3944",77.891815,687.6001
"3945",78.30442,687.6133
"3946",78.975815,687.62646
"3947",79.87427,687.63965
"3948",80.91188,687.65283
"3949",81.951935,687.666
"3950",82.86015,687.6792
"3951",83.529106,687.6924
"3952",83.91974,687.70557
"3953",84.04181,687.71875
"3954",83.94415,687.73193
"3955",83.69024,687.7451
"3956",83.34112,687.7583
"3957",82.9456,687.7715
"3958",82.54276,687.78467
"3959",82.15213,687.79785
"3960",81.77615,687.81104
"3961",81.41482,687.8242
"3962",81.06813,687.8374
"3963",80.73121,687.8506
"3964",80.40894,687.8638
"3965",80.10132,687.87695
"3966",79.818115,687.89014
"3967",79.571526,687.9033
"3968",79.378654,687.9165
"3969",79.25414,687.9297
"3970",79.19554,687.9429
"3971",79.18822,687.95605
"3972",79.219955,687.96924
"3973",79.26635,687.9824
"3974",79.29809,687.9956
"3975",79.30785,688.0088
"3976",79.293205,688.022
"3977",79.2517,688.03516
"3978",79.17845,688.04834
"3979",79.078354,688.0615
"3980",78.9514,688.0747
"3981",78.802475,688.0879
"3982",78.63645,688.1011
"3983",78.467995,688.11426
"3984",78.30198,688.12744
"3985",78.14816,688.1406
"3986",78.009,688.1538
"3987",77.88449,688.167
"3988",77.77951,688.1802
"3989",77.69894,688.19336
"3990",77.63302,688.20654
"3991",77.58175,688.2197
"3992",77.53048,688.2329
"3993",77.47677,688.2461
"3994",77.42794,688.2593
"3995",77.40353,688.27246
"3996",77.435265,688.28564
"3997",77.58419,688.2988
"3998",77.93332,688.312
"3999",78.536354,688.3252
"4000",79.38842,688.3384
"4001",80.428474,688.35156
"4002",81.54421,688.36475
"4003",82.57694,688.3779
"4004",83.39971,688.3911
"4005",83.94415,688.4043
"4006",84.19806,688.4175
"4007",84.19562,688.43066
"4008",83.99786,688.44385
"4009",83.66827,688.45703
"4010",83.267876,688.4702
"4011",82.83818,688.4834
"4012",82.41581,688.4966
"4013",82.020294,688.50977
"4014",81.654076,688.52295
"4015",81.307396,688.53613
"4016",80.98512,688.5493
"4017",80.67017,688.5625
"4018",80.36988,688.5757
"4019",80.08667,688.58887
"4020",79.83032,688.60205
"4021",79.60815,688.61523
"4022",79.43725,688.6284
"4023",79.32494,688.6416
"4024",79.27123,688.6548
"4025",79.26635,688.66797
"4026",79.29809,688.68115
"4027",79.34692,688.69434
"4028",79.39086,688.7075
"4029",79.41039,688.7207
"4030",79.395744,688.7339
"4031",79.34692,688.7471
"4032",79.26147,688.76025
"4033",79.14427,688.77344
"4034",79.00023,688.7866
"4035",78.83421,688.7998
"4036",78.66331,688.813
"4037",78.49729,688.8262
"4038",78.348366,688.83936
"4039",78.21408,688.85254
"4040",78.09445,688.8657
"4041",77.98703,688.8789
"4042",77.88693,688.8921
"4043",77.79172,688.9053
"4044",77.7087,688.91846
"4045",77.645226,688.93164
"4046",77.60128,688.9448
"4047",77.574425,688.958
"4048",77.56954,688.9712
"4049",77.57931,688.9844
"4050",77.593956,688.99756
"4051",77.59884,689.01074
"4052",77.58663,689.0239
"4053",77.576866,689.0371
"4054",77.62081,689.0503
"4055",77.803925,689.0635
"4056",78.21652,689.07666
"4057",78.907455,689.08984
"4058",79.85718,689.103
"4059",80.9778,689.1162
"4060",82.12283,689.1294
"4061",83.140915,689.1426
"4062",83.914856,689.15576
"4063",84.386055,689.16895
"4064",84.55451,689.1821
"4065",84.471504,689.1953
"4066",84.2005,689.2085
"4067",83.8172,689.2217
"4068",83.38018,689.23486
"4069",82.933395,689.24805
"4070",82.50858,689.2612
"4071",82.11795,689.2744
"4072",81.75906,689.2876
"4073",81.4197,689.3008
"4074",81.094986,689.31396
"4075",80.7776,689.32715
"4076",80.46998,689.34033
"4077",80.17944,689.3535
"4078",79.91821,689.3667
"4079",79.70336,689.3799
"4080",79.53979,689.39307
"4081",79.42504,689.40625
"4082",79.36645,689.41943
"4083",79.3518,689.4326
"4084",79.364006,689.4458
"4085",79.38598,689.459
"4086",79.40307,689.47217
"4087",79.40551,689.48535
"4088",79.37621,689.49854
"4089",79.31518,689.5117
"4090",79.219955,689.5249
"4091",79.093,689.5381
"4092",78.94652,689.5513
"4093",78.79027,689.56445
"4094",78.63645,689.57764
"4095",78.487526,689.5908
"4096",78.35325,689.604
"4097",78.221405,689.6172
"4098",78.09445,689.6304
"4099",77.97482,689.64355
"4100",77.857635,689.65674
"4101",77.747765,689.6699
"4102",77.65255,689.6831
"4103",77.56954,689.6963
"4104",77.49874,689.7095
"4105",77.44503,689.72266
"4106",77.40841,689.73584
"4107",77.38888,689.749
"4108",77.38888,689.7622
"4109",77.41573,689.7754
"4110",77.45724,689.7886
"4111",77.4963,689.80176
"4112",77.52071,689.81494
"4113",77.523155,689.8281
"4114",77.51339,689.8413
"4115",77.540245,689.8545
"4116",77.68673,689.8677
"4117",78.05295,689.88086
"4118",78.695045,689.89404
"4119",79.605705,689.9072
"4120",80.71168,689.9204
"4121",81.881134,689.9336
"4122",82.95781,689.9468
"4123",83.809875,689.95996
"4124",84.368965,689.97314
"4125",84.62043,689.9863
"4126",84.6009,689.9995
"4127",84.368965,690.0127
"4128",83.99786,690.0259
"4129",83.55596,690.03906
"4130",83.09209,690.05225
"4131",82.64774,690.0654
"4132",82.23514,690.0786
"4133",81.85672,690.0918
"4134",81.51003,690.105
"4135",81.1902,690.11816
"4136",80.88258,690.13135
"4137",80.584724,690.14453
"4138",80.31129,690.1577
"4139",80.06714,690.1709
"4140",79.85474,690.1841
"4141",79.68627,690.19727
"4142",79.56664,690.21045
"4143",79.49828,690.22363
"4144",79.47387,690.2368
"4145",79.483635,690.25
"4146",79.51293,690.2632
"4147",79.54955,690.27637
"4148",79.56664,690.28955
"4149",79.551994,690.30273
"4150",79.49584,690.3159
"4151",79.40063,690.3291
"4152",79.26391,690.3423
"4153",79.097885,690.35547
"4154",78.924545,690.36865
"4155",78.75365,690.38184
"4156",78.59739,690.395
"4157",78.45335,690.4082
"4158",78.32151,690.4214
"4159",78.20187,690.4346
"4160",78.08713,690.44775
"4161",77.977264,690.46094
"4162",77.874725,690.4741
"4163",77.78195,690.4873
"4164",77.70382,690.5005
"4165",77.645226,690.5137
"4166",77.608604,690.52686
"4167",77.593956,690.54004
"4168",77.591515,690.5532
"4169",77.59884,690.5664
"4170",77.611046,690.5796
"4171",77.63058,690.5928
"4172",77.659874,690.60596
"4173",77.69161,690.61914
"4174",77.713585,690.6323
"4175",77.71603,690.6455
"4176",77.70382,690.6587
"4177",77.713585,690.6719
"4178",77.823456,690.68506
"4179",78.12131,690.69824
"4180",78.68772,690.7114
"4181",79.53246,690.7246
"4182",80.59205,690.7378
"4183",81.74685,690.751
"4184",82.83574,690.76416
"4185",83.72442,690.77734
"4186",84.32502,690.7905
"4187",84.62043,690.8037
"4188",84.63996,690.8169
"4189",84.44221,690.8301
"4190",84.1004,690.84326
"4191",83.66827,690.85645
"4192",83.209274,690.8696
"4193",82.7625,690.8828
"4194",82.34745,690.896
"4195",81.969025,690.9092
"4196",81.62966,690.92236
"4197",81.322044,690.93555
"4198",81.02663,690.9487
"4199",80.740974,690.9619
"4200",80.47486,690.9751
"4201",80.23071,690.9883
"4202",80.01831,691.00146
"4203",79.84253,691.01465
"4204",79.708244,691.02783
"4205",79.622795,691.041
"4206",79.59106,691.0542
"4207",79.60082,691.0674
"4208",79.64233,691.08057
"4209",79.693596,691.09375
"4210",79.73266,691.10693
"4211",79.7351,691.1201
"4212",79.69848,691.1333
"4213",79.62035,691.1465
"4214",79.50805,691.15967
"4215",79.37133,691.17285
"4216",79.22484,691.18604
"4217",79.07347,691.1992
"4218",78.922104,691.2124
"4219",78.77806,691.2256
"4220",78.63889,691.2388
"4221",78.51194,691.25195
"4222",78.38743,691.26514
"4223",78.2678,691.2783
"4224",78.15549,691.2915
"4225",78.04318,691.3047
"4226",77.93576,691.3179
"4227",77.838104,691.33105
"4228",77.747765,691.34424
"4229",77.67452,691.3574
"4230",77.62325,691.3706
"4231",77.59884,691.3838
"4232",77.60372,691.397
"4233",77.628136,691.41016
"4234",77.65255,691.42334
"4235",77.659874,691.4365
"4236",77.64034,691.4497
"4237",77.60616,691.4629
"4238",77.60372,691.4761
"4239",77.72091,691.48926
"4240",78.05539,691.50244
"4241",78.675514,691.5156
"4242",79.57641,691.5288
"4243",80.67994,691.542
"4244",81.846954,691.5552
"4245",82.92119,691.56836
"4246",83.76593,691.58154
"4247",84.32014,691.5947
"4248",84.57404,691.6079
"4249",84.559395,691.6211
"4250",84.334785,691.6343
"4251",83.95636,691.64746
"4252",83.49004,691.66064
"4253",82.98711,691.6738
"4254",82.49149,691.687
"4255",82.02518,691.7002
"4256",81.600365,691.7134
"4257",81.21706,691.72656
"4258",80.867935,691.73975
"4259",80.5481,691.7529
"4260",80.25269,691.7661
"4261",79.97925,691.7793
"4262",79.73754,691.7925
"4263",79.53979,691.80566
"4264",79.398186,691.81885
"4265",79.32006,691.83203
"4266",79.30785,691.8452
"4267",79.344475,691.8584
"4268",79.415276,691.8716
"4269",79.4934,691.88477
"4270",79.56176,691.89795
"4271",79.60082,691.91113
"4272",79.605705,691.9243
"4273",79.569084,691.9375
"4274",79.500725,691.9507
"4275",79.412834,691.96387
"4276",79.31762,691.97705
"4277",79.21507,691.99023
"4278",79.11009,692.0034
"4279",79.00267,692.0166
"4280",78.89281,692.0298
"4281",78.77318,692.04297
"4282",78.6511,692.05615
"4283",78.53147,692.06934
"4284",78.41917,692.0825
"4285",78.314186,692.0957
"4286",78.22629,692.1089
"4287",78.14816,692.1221
"4288",78.082245,692.13525
"4289",78.030975,692.14844
"4290",77.98947,692.1616
"4291",77.95285,692.1748
"4292",77.92844,692.188
"4293",77.90646,692.2012
"4294",77.88205,692.21436
"4295",77.85031,692.22754
"4296",77.823456,692.2407
"4297",77.81369,692.2539
"4298",77.88205,692.2671
"4299",78.116425,692.2803
"4300",78.59495,692.29346
"4301",79.34692,692.30664
"4302",80.33814,692.3198
"4303",81.463646,692.333
"4304",82.57206,692.3462
"4305",83.51202,692.3594
"4306",84.18341,692.37256
"4307",84.55207,692.38574
"4308",84.6424,692.3989
"4309",84.51057,692.4121
"4310",84.21515,692.4253
"4311",83.824524,692.4385
"4312",83.387505,692.45166
"4313",82.930954,692.46484
"4314",82.47196,692.478
"4315",82.02762,692.4912
"4316",81.600365,692.5044
"4317",81.19508,692.5176
"4318",80.82155,692.53076
"4319",80.4773,692.54395
"4320",80.16968,692.5571
"4321",79.89868,692.5703
"4322",79.676506,692.5835
"4323",79.517815,692.5967
"4324",79.42016,692.60986
"4325",79.38354,692.62305
"4326",79.40063,692.6362
"4327",79.4519,692.6494
"4328",79.51537,692.6626
"4329",79.57885,692.6758
"4330",79.62768,692.68896
"4331",79.65453,692.70215
"4332",79.64965,692.71533
"4333",79.61303,692.7285
"4334",79.537346,692.7417
"4335",79.429924,692.7549
"4336",79.30541,692.76807
"4337",79.17601,692.78125
"4338",79.04906,692.79443
"4339",78.922104,692.8076
"4340",78.80003,692.8208
"4341",78.67307,692.834
"4342",78.54368,692.84717
"4343",78.416725,692.86035
"4344",78.2971,692.87354
"4345",78.18967,692.8867
"4346",78.09445,692.8999
"4347",78.013885,692.9131
"4348",77.94797,692.9263
"4349",77.89426,692.93945
"4350",77.85275,692.95264
"4351",77.821014,692.9658
"4352",77.79172,692.979
"4353",77.7551,692.9922
"4354",77.71847,693.0054
"4355",77.696495,693.01855
"4356",77.730675,693.03174
"4357",77.90402,693.0449
"4358",78.3093,693.0581
"4359",78.98802,693.0713
"4360",79.92554,693.0845
"4361",81.03883,693.09766
"4362",82.18387,693.11084
"4363",83.20683,693.124
"4364",83.9881,693.1372
"4365",84.473946,693.1504
"4366",84.6717,693.1636
"4367",84.61799,693.17676
"4368",84.368965,693.18994
"4369",83.983215,693.2031
"4370",83.51934,693.2163
"4371",83.02373,693.2295
"4372",82.533,693.2427
"4373",82.06912,693.25586
"4374",81.63943,693.26904
"4375",81.24635,693.2822
"4376",80.885025,693.2954
"4377",80.55543,693.3086
"4378",80.25269,693.3218
"4379",79.98413,693.33496
"4380",79.75708,693.34814
"4381",79.58129,693.3613
"4382",79.45922,693.3745
"4383",79.40063,693.3877
"4384",79.40307,693.4009
"4385",79.449455,693.41406
"4386",79.52758,693.42725
"4387",79.61059,693.4404
"4388",79.68139,693.4536
"4389",79.72045,693.4668
"4390",79.72289,693.48
"4391",79.68871,693.49316
"4392",79.62035,693.50635
"4393",79.52514,693.51953
"4394",79.412834,693.5327
"4395",79.290764,693.5459
"4396",79.168686,693.5591
"4397",79.046616,693.57227
"4398",78.922104,693.58545
"4399",78.79759,693.59863
"4400",78.67063,693.6118
"4401",78.54368,693.625
"4402",78.42405,693.6382
"4403",78.314186,693.65137
"4404",78.221405,693.66455
"4405",78.14328,693.67773
"4406",78.08469,693.6909
"4407",78.030975,693.7041
"4408",77.977264,693.7173
"4409",77.92355,693.73047
"4410",77.874725,693.74365
"4411",77.85275,693.75684
"4412",77.90402,693.77
"4413",78.116425,693.7832
"4414",78.56077,693.7964
"4415",79.26147,693.8096
"4416",80.18921,693.82275
"4417",81.24391,693.83594
"4418",82.2913,693.8491
"4419",83.18486,693.8623
"4420",83.83185,693.8755
"4421",84.19806,693.8887
"4422",84.300606,693.90186
"4423",84.18097,693.91504
"4424",83.89288,693.9282
"4425",83.49493,693.9414
"4426",83.038376,693.9546
"4427",82.55985,693.9678
"4428",82.08377,693.98096
"4429",81.62722,693.99414
"4430",81.19997,694.0073
"4431",80.8069,694.0205
"4432",80.448006,694.0337
"4433",80.12085,694.0469
"4434",79.83276,694.06006
"4435",79.59838,694.07324
"4436",79.42016,694.0864
"4437",79.310295,694.0996
"4438",79.27123,694.1128
"4439",79.290764,694.126
"4440",79.35424,694.13916
"4441",79.4519,694.15234
"4442",79.554436,694.1655
"4443",79.639885,694.1787
"4444",79.69604,694.1919
"4445",79.71801,694.2051
"4446",79.70092,694.21826
"4447",79.64721,694.23145
"4448",79.56664,694.2446
"4449",79.46899,694.2578
"4450",79.364006,694.271
"4451",79.24925,694.2842
"4452",79.13451,694.29736
"4453",79.01732,694.31055
"4454",78.90013,694.3237
"4455",78.79027,694.3369
"4456",78.677956,694.3501
"4457",78.57053,694.3633
"4458",78.47288,694.37646
"4459",78.38743,694.38965
"4460",78.30686,694.40283
"4461",78.23605,694.416
"4462",78.167694,694.4292
"4463",78.099335,694.4424
"4464",78.03586,694.45557
"4465",77.99191,694.46875
"4466",78.011444,694.48193
"4467",78.184784,694.4951
"4468",78.57786,694.5083
"4469",79.2224,694.5215
"4470",80.08911,694.53467
"4471",81.08766,694.54785
"4472",82.08133,694.56104
"4473",82.933395,694.5742
"4474",83.55108,694.5874
"4475",83.897766,694.6006
"4476",83.99298,694.6138
"4477",83.87335,694.62695
"4478",83.5877,694.64014
"4479",83.18974,694.6533
"4480",82.73319,694.6665
"4481",82.25712,694.6797
"4482",81.79324,694.6929
"4483",81.358665,694.70605
"4484",80.95827,694.71924
"4485",80.58961,694.7324
"4486",80.25269,694.7456
"4487",79.94995,694.7588
"4488",79.68383,694.772
"4489",79.47387,694.78516
"4490",79.32983,694.79834
"4491",79.25414,694.8115
"4492",79.23949,694.8247
"4493",79.28344,694.8379
"4494",79.36645,694.8511
"4495",79.46899,694.86426
"4496",79.571526,694.87744
"4497",79.65453,694.8906
"4498",79.70092,694.9038
"4499",79.708244,694.917
"4500",79.67895,694.9302
"4501",79.61791,694.94336
"4502",79.53979,694.95654
"4503",79.447014,694.9697
"4504",79.3518,694.9829
"4505",79.24925,694.9961
"4506",79.14183,695.0093
"4507",79.027084,695.02246
"4508",78.9099,695.03564
"4509",78.79515,695.0488
"4510",78.68772,695.062
"4511",78.58762,695.0752
"4512",78.49485,695.0884
"4513",78.41184,695.10156
"4514",78.33616,695.11475
"4515",78.260475,695.1279
"4516",78.19211,695.1411
"4517",78.150604,695.1543
"4518",78.18234,695.1675
"4519",78.35813,695.18066
"4520",78.74387,695.19385
"4521",79.364006,695.20703
"4522",80.184326,695.2202
"4523",81.11696,695.2334
"4524",82.03006,695.2466
"4525",82.79912,695.25977
"4526",83.346,695.27295
"4527",83.64141,695.28613
"4528",83.700005,695.2993
"4529",83.55596,695.3125
"4530",83.267876,695.3257
"4531",82.882126,695.33887
"4532",82.44511,695.35205
"4533",81.986115,695.36523
"4534",81.52468,695.3784
"4535",81.08278,695.3916
"4536",80.66285,695.4048
"4537",80.274666,695.41797
"4538",79.93042,695.43115
"4539",79.63744,695.44434
"4540",79.398186,695.4575
"4541",79.2224,695.4707
"4542",79.11253,695.4839
"4543",79.07103,695.4971
"4544",79.09056,695.51025
"4545",79.16136,695.52344
"4546",79.26879,695.5366
"4547",79.39086,695.5498
"4548",79.51049,695.563
"4549",79.605705,695.5762
"4550",79.6643,695.58936
"4551",79.67895,695.60254
"4552",79.65209,695.6157
"4553",79.58373,695.6289
"4554",79.49096,695.6421
"4555",79.38598,695.6553
"4556",79.273674,695.66846
"4557",79.16136,695.68164
"4558",79.05638,695.6948
"4559",78.95628,695.708
"4560",78.86351,695.7212
"4561",78.785385,695.7344
"4562",78.71458,695.74756
"4563",78.6511,695.76074
"4564",78.58274,695.7739
"4565",78.5095,695.7871
"4566",78.42649,695.8003
"4567",78.348366,695.8135
"4568",78.30442,695.82666
"4569",78.35325,695.83984
"4570",78.56077,695.853
"4571",78.98802,695.8662
"4572",79.635,695.8794
"4573",80.45289,695.8926
"4574",81.35378,695.90576
"4575",82.21561,695.91895
