"","ppg","time"
"1",82.7625,100.65332
"2",82.62821,100.666504
"3",82.39628,100.67969
"4",82.11063,100.69287
"5",81.81766,100.706055
"6",81.54177,100.71924
"7",81.29763,100.73242
"8",81.08766,100.745605
"9",80.89967,100.75879
"10",80.72144,100.77197
"11",80.550545,100.78516
"12",80.37965,100.79834
"13",80.21362,100.81152
"14",80.0647,100.82471
"15",79.94751,100.83789
"16",79.869385,100.851074
"17",79.82788,100.86426
"18",79.82056,100.87744
"19",79.83765,100.890625
"20",79.86206,100.90381
"21",79.88159,100.91699
"22",79.886475,100.930176
"23",79.86694,100.94336
"24",79.82544,100.95654
"25",79.75952,100.96973
"26",79.67895,100.98291
"27",79.588615,100.99609
"28",79.4934,101.00928
"29",79.398186,101.02246
"30",79.30785,101.035645
"31",79.2224,101.04883
"32",79.14183,101.06201
"33",79.07347,101.075195
"34",79.01732,101.08838
"35",78.97093,101.10156
"36",78.92943,101.114746
"37",78.89525,101.12793
"38",78.86595,101.14111
"39",78.836655,101.1543
"40",78.81224,101.16748
"41",78.79271,101.180664
"42",78.78294,101.19385
"43",78.77074,101.20703
"44",78.765854,101.220215
"45",78.765854,101.2334
"46",78.77074,101.24658
"47",78.77562,101.259766
"48",78.77806,101.27295
"49",78.7805,101.28613
"50",78.77806,101.29932
"51",78.77806,101.3125
"52",78.785385,101.32568
"53",78.81468,101.33887
"54",78.90257,101.35205
"55",79.08812,101.365234
"56",79.41039,101.37842
"57",79.87427,101.3916
"58",80.448006,101.404785
"59",81.075455,101.41797
"60",81.668724,101.43115
"61",82.13992,101.444336
"62",82.442665,101.45752
"63",82.564735,101.4707
"64",82.52079,101.48389
"65",82.34745,101.49707
"66",82.09354,101.510254
"67",81.80545,101.52344
"68",81.512474,101.53662
"69",81.231705,101.549805
"70",80.98024,101.56299
"71",80.75319,101.57617
"72",80.5481,101.589355
"73",80.36256,101.60254
"74",80.198975,101.61572
"75",80.05493,101.62891
"76",79.937744,101.64209
"77",79.85474,101.65527
"78",79.80591,101.66846
"79",79.79126,101.68164
"80",79.80347,101.694824
"81",79.84009,101.70801
"82",79.88403,101.72119
"83",79.923096,101.734375
"84",79.94751,101.74756
"85",79.94751,101.76074
"86",79.920654,101.773926
"87",79.86694,101.78711
"88",79.79614,101.80029
"89",79.71557,101.81348
"90",79.63012,101.82666
"91",79.54223,101.83984
"92",79.466545,101.85303
"93",79.40307,101.86621
"94",79.34936,101.879395
"95",79.30297,101.89258
"96",79.26635,101.90576
"97",79.234604,101.918945
"98",79.202866,101.93213
"99",79.17357,101.94531
"100",79.14427,101.958496
"101",79.114975,101.97168
"102",79.08324,101.98486
"103",79.05638,101.99805
"104",79.03197,102.01123
"105",79.012436,102.024414
"106",78.995346,102.0376
"107",78.98314,102.05078
"108",78.9807,102.063965
"109",79.009995,102.07715
"110",79.10765,102.09033
"111",79.31274,102.103516
"112",79.65453,102.1167
"113",80.130615,102.12988
"114",80.709236,102.14307
"115",81.31472,102.15625
"116",81.87625,102.16943
"117",82.31327,102.18262
"118",82.58427,102.1958
"119",82.67948,102.208984
"120",82.61845,102.22217
"121",82.4329,102.23535
"122",82.17166,102.248535
"123",81.87625,102.26172
"124",81.57839,102.2749
"125",81.29763,102.288086
"126",81.03639,102.30127
"127",80.80202,102.31445
"128",80.584724,102.32764
"129",80.37965,102.34082
"130",80.19409,102.354004
"131",80.0354,102.36719
"132",79.90845,102.38037
"133",79.82788,102.393555
"134",79.7937,102.40674
"135",79.80347,102.41992
"136",79.84497,102.433105
"137",79.903564,102.44629
"138",79.9646,102.45947
"139",80.01587,102.47266
"140",80.04028,102.48584
"141",80.04028,102.49902
"142",80.008545,102.51221
"143",79.954834,102.52539
"144",79.88403,102.538574
"145",79.798584,102.55176
"146",79.708244,102.56494
"147",79.61547,102.578125
"148",79.5227,102.59131
"149",79.43481,102.60449
"150",79.35912,102.617676
"151",79.29565,102.63086
"152",79.24437,102.64404
"153",79.20531,102.65723
"154",79.17357,102.67041
"155",79.14427,102.68359
"156",79.114975,102.69678
"157",79.08568,102.70996
"158",79.061264,102.723145
"159",79.04173,102.73633
"160",79.03441,102.74951
"161",79.063705,102.762695
"162",79.166245,102.77588
"163",79.38354,102.78906
"164",79.742424,102.802246
"165",80.2478,102.81543
"166",80.85817,102.82861
"167",81.50271,102.8418
"168",82.09354,102.85498
"169",82.55497,102.868164
"170",82.84062,102.88135
"171",82.948044,102.89453
"172",82.896774,102.907715
"173",82.720985,102.9209
"174",82.46708,102.93408
"175",82.18143,102.947266
"176",81.8909,102.96045
"177",81.61257,102.97363
"178",81.36355,102.98682
"179",81.13649,103
"180",80.93141,103.01318
"181",80.73853,103.02637
"182",80.552986,103.03955
"183",80.38453,103.052734
"184",80.23804,103.06592
"185",80.12329,103.0791
"186",80.04761,103.092285
"187",80.01099,103.10547
"188",80.01343,103.11865
"189",80.03784,103.131836
"190",80.06958,103.14502
"191",80.093994,103.1582
"192",80.10376,103.17139
"193",80.08667,103.18457
"194",80.042725,103.197754
"195",79.971924,103.21094
"196",79.886475,103.22412
"197",79.78638,103.237305
"198",79.68383,103.25049
"199",79.57885,103.26367
"200",79.47875,103.276855
"201",79.39086,103.29004
"202",79.310295,103.30322
"203",79.237045,103.31641
"204",79.17357,103.32959
"205",79.11986,103.34277
"206",79.06859,103.35596
"207",79.0222,103.36914
"208",78.9807,103.382324
"209",78.93919,103.39551
"210",78.90013,103.40869
"211",78.87816,103.421875
"212",78.90013,103.43506
"213",79.00267,103.44824
"214",79.237045,103.461426
"215",79.62524,103.47461
"216",80.164795,103.48779
"217",80.8069,103.50098
"218",81.47585,103.51416
"219",82.07889,103.52734
"220",82.54032,103.54053
"221",82.82353,103.55371
"222",82.91875,103.566895
"223",82.86015,103.58008
"224",82.68192,103.59326
"225",82.4329,103.606445
"226",82.15701,103.61963
"227",81.883575,103.63281
"228",81.62722,103.645996
"229",81.39529,103.65918
"230",81.18776,103.67236
"231",80.99245,103.68555
"232",80.8069,103.69873
"233",80.62379,103.711914
"234",80.448006,103.7251
"235",80.28687,103.73828
"236",80.14282,103.751465
"237",80.028076,103.76465
"238",79.94751,103.77783
"239",79.89868,103.791016
"240",79.88159,103.8042
"241",79.87671,103.81738
"242",79.88403,103.83057
"243",79.886475,103.84375
"244",79.87671,103.85693
"245",79.83765,103.87012
"246",79.77661,103.8833
"247",79.691154,103.896484
"248",79.586174,103.90967
"249",79.47387,103.92285
"250",79.361565,103.936035
"251",79.2517,103.94922
"252",79.14671,103.9624
"253",79.04906,103.975586
"254",78.958725,103.98877
"255",78.88304,104.00195
"256",78.82445,104.01514
"257",78.77562,104.02832
"258",78.73167,104.041504
"259",78.69016,104.05469
"260",78.643776,104.06787
"261",78.60227,104.081055
"262",78.56321,104.09424
"263",78.53391,104.10742
"264",78.53391,104.120605
"265",78.59739,104.13379
"266",78.77074,104.14697
"267",79.093,104.16016
"268",79.57885,104.17334
"269",80.198975,104.18652
"270",80.89479,104.19971
"271",81.56863,104.21289
"272",82.13748,104.226074
"273",82.54276,104.23926
"274",82.7625,104.25244
"275",82.80644,104.265625
"276",82.70634,104.27881
"277",82.511024,104.29199
"278",82.27177,104.305176
"279",82.022736,104.31836
"280",81.78836,104.33154
"281",81.57839,104.34473
"282",81.392845,104.35791
"283",81.214615,104.37109
"284",81.03883,104.38428
"285",80.850845,104.39746
"286",80.65308,104.410645
"287",80.448006,104.42383
"288",80.2478,104.43701
"289",80.06714,104.450195
"290",79.920654,104.46338
"291",79.82056,104.47656
"292",79.764404,104.489746
"293",79.73754,104.50293
"294",79.73022,104.51611
"295",79.725334,104.5293
"296",79.710686,104.54248
"297",79.67895,104.555664
"298",79.62768,104.56885
"299",79.55688,104.58203
"300",79.466545,104.595215
"301",79.364006,104.6084
"302",79.2517,104.62158
"303",79.13939,104.634766
"304",79.027084,104.64795
"305",78.91722,104.66113
"306",78.819565,104.67432
"307",78.729225,104.6875
"308",78.64622,104.70068
"309",78.57542,104.71387
"310",78.51438,104.72705
"311",78.46067,104.740234
"312",78.416725,104.75342
"313",78.37766,104.7666
"314",78.345924,104.779785
"315",78.31907,104.79297
"316",78.29954,104.80615
"317",78.29221,104.819336
"318",78.29221,104.83252
"319",78.2971,104.8457
"320",78.30198,104.85889
"321",78.30198,104.87207
"322",78.30198,104.885254
"323",78.2971,104.89844
"324",78.29221,104.91162
"325",78.29954,104.924805
"326",78.33616,104.93799
"327",78.44846,104.95117
"328",78.68528,104.964355
"329",79.09056,104.97754
"330",79.66186,104.99072
"331",80.36256,105.00391
"332",81.11452,105.01709
"333",81.812775,105.03027
"334",82.371864,105.04346
"335",82.74052,105.05664
"336",82.90898,105.069824
"337",82.899216,105.08301
"338",82.757614,105.09619
"339",82.53544,105.109375
"340",82.28153,105.12256
"341",82.02518,105.13574
"342",81.795685,105.148926
"343",81.59792,105.16211
"344",81.43191,105.17529
"345",81.28298,105.18848
"346",81.126724,105.20166
"347",80.953384,105.21484
"348",80.76051,105.22803
"349",80.550545,105.24121
"350",80.34058,105.254395
"351",80.15015,105.26758
"352",79.99878,105.28076
"353",79.886475,105.293945
"354",79.81323,105.30713
"355",79.766846,105.32031
"356",79.73754,105.333496
"357",79.71801,105.34668
"358",79.693596,105.35986
"359",79.65453,105.37305
"360",79.59838,105.38623
"361",79.5227,105.399414
"362",79.432365,105.4126
"363",79.32983,105.42578
"364",79.22484,105.438965
"365",79.11986,105.45215
"366",79.01488,105.46533
"367",78.91478,105.478516
"368",78.81468,105.4917
"369",78.729225,105.50488
"370",78.64866,105.51807
"371",78.5803,105.53125
"372",78.519264,105.54443
"373",78.47288,105.55762
"374",78.433815,105.5708
"375",78.399635,105.583984
"376",78.3679,105.59717
"377",78.34348,105.61035
"378",78.32151,105.623535
"379",78.30686,105.63672
"380",78.30198,105.6499
"381",78.30198,105.663086
"382",78.3093,105.67627
"383",78.31663,105.68945
"384",78.32395,105.70264
"385",78.33616,105.71582
"386",78.345924,105.729004
"387",78.35813,105.74219
"388",78.3679,105.75537
"389",78.37278,105.768555
"390",78.37034,105.78174
"391",78.37034,105.79492
"392",78.37278,105.808105
"393",78.38987,105.82129
"394",78.46067,105.83447
"395",78.626686,105.84766
"396",78.93187,105.86084
"397",79.40307,105.87402
"398",80.025635,105.88721
"399",80.73853,105.90039
"400",81.461205,105.913574
"401",82.08621,105.92676
"402",82.545204,105.93994
"403",82.80644,105.953125
"404",82.8748,105.96631
"405",82.78447,105.97949
"406",82.58427,105.992676
"407",82.32792,106.00586
"408",82.05936,106.01904
"409",81.80057,106.03223
"410",81.57107,106.04541
"411",81.37087,106.05859
"412",81.19264,106.07178
"413",81.02174,106.08496
"414",80.850845,106.098145
"415",80.66773,106.11133
"416",80.482185,106.12451
"417",80.29908,106.137695
"418",80.13306,106.15088
"419",79.9939,106.16406
"420",79.89136,106.177246
"421",79.82056,106.19043
"422",79.783936,106.20361
"423",79.766846,106.2168
"424",79.75464,106.22998
"425",79.73998,106.243164
"426",79.71313,106.25635
"427",79.674065,106.26953
"428",79.61547,106.282715
"429",79.54467,106.2959
"430",79.45922,106.30908
"431",79.36645,106.322266
"432",79.26391,106.33545
"433",79.15892,106.34863
"434",79.05882,106.36182
"435",78.96605,106.375
"436",78.88548,106.38818
"437",78.81468,106.40137
"438",78.75365,106.41455
"439",78.69749,106.427734
"440",78.64866,106.44092
"441",78.6096,106.4541
"442",78.572975,106.467285
"443",78.54368,106.48047
"444",78.51438,106.49365
"445",78.48997,106.506836
"446",78.47288,106.52002
"447",78.45823,106.5332
"448",78.45823,106.54639
"449",78.46555,106.55957
"450",78.47288,106.572754
"451",78.4802,106.58594
"452",78.487526,106.59912
"453",78.49729,106.612305
"454",78.5095,106.62549
"455",78.52415,106.63867
"456",78.538795,106.651855
"457",78.551,106.66504
"458",78.55833,106.67822
"459",78.56077,106.69141
"460",78.55833,106.70459
"461",78.55833,106.71777
"462",78.56565,106.73096
"463",78.58274,106.74414
"464",78.63889,106.757324
"465",78.77806,106.77051
"466",79.044174,106.78369
"467",79.47631,106.796875
"468",80.05737,106.81006
"469",80.7483,106.82324
"470",81.45632,106.836426
"471",82.08377,106.84961
"472",82.55497,106.86279
"473",82.83086,106.87598
"474",82.90898,106.88916
"475",82.82353,106.90234
"476",82.62333,106.91553
"477",82.36454,106.92871
"478",82.07889,106.941895
"479",81.79813,106.95508
"480",81.54177,106.96826
"481",81.31472,106.981445
"482",81.11452,106.99463
"483",80.938736,107.00781
"484",80.7776,107.020996
"485",80.62379,107.03418
"486",80.47242,107.04736
"487",80.325935,107.06055
"488",80.19409,107.07373
"489",80.08667,107.086914
"490",80.01099,107.1001
"491",79.9646,107.11328
"492",79.94263,107.126465
"493",79.93286,107.13965
"494",79.92798,107.15283
"495",79.91821,107.166016
"496",79.89868,107.1792
"497",79.8645,107.19238
"498",79.81323,107.20557
"499",79.74731,107.21875
"500",79.6643,107.23193
"501",79.571526,107.24512
"502",79.47631,107.2583
"503",79.378654,107.271484
"504",79.28832,107.28467
"505",79.20775,107.29785
"506",79.13451,107.311035
"507",79.07103,107.32422
"508",79.01732,107.3374
"509",78.97337,107.350586
"510",78.93431,107.36377
"511",78.90013,107.37695
"512",78.86351,107.39014
"513",78.82689,107.40332
"514",78.79759,107.416504
"515",78.77562,107.42969
"516",78.75609,107.44287
"517",78.746315,107.456055
"518",78.74387,107.46924
"519",78.74143,107.48242
"520",78.74387,107.495605
"521",78.751205,107.50879
"522",78.76341,107.52197
"523",78.77562,107.53516
"524",78.79271,107.54834
"525",78.81224,107.56152
"526",78.82933,107.57471
"527",78.84642,107.58789
"528",78.86107,107.601074
"529",78.870834,107.61426
"530",78.87816,107.62744
"531",78.890366,107.640625
"532",78.94408,107.65381
"533",79.093,107.66699
"534",79.37377,107.680176
"535",79.81323,107.69336
"536",80.394295,107.70654
"537",81.05348,107.71973
"538",81.70046,107.73291
"539",82.252235,107.74609
"540",82.6453,107.75928
"541",82.845505,107.77246
"542",82.865036,107.785645
"543",82.74052,107.79883
"544",82.513466,107.81201
"545",82.2327,107.825195
"546",81.93729,107.83838
"547",81.64431,107.85156
"548",81.373314,107.864746
"549",81.12428,107.87793
"550",80.89723,107.89111
"551",80.689705,107.9043
"552",80.5066,107.91748
"553",80.33814,107.930664
"554",80.19409,107.94385
"555",80.07202,107.95703
"556",79.98169,107.970215
"557",79.92798,107.9834
"558",79.903564,107.99658
"559",79.903564,108.009766
"560",79.920654,108.02295
"561",79.94263,108.03613
"562",79.95972,108.04932
"563",79.96216,108.0625
"564",79.94995,108.07568
"565",79.91577,108.08887
"566",79.86694,108.10205
"567",79.80591,108.115234
"568",79.73266,108.12842
"569",79.64965,108.1416
"570",79.5642,108.154785
"571",79.47631,108.16797
"572",79.39086,108.18115
"573",79.31518,108.194336
"574",79.24437,108.20752
"575",79.183334,108.2207
"576",79.12962,108.23389
"577",79.08324,108.24707
"578",79.03929,108.260254
"579",79.00267,108.27344
"580",78.97093,108.28662
"581",78.94896,108.299805
"582",78.93187,108.31299
"583",78.91966,108.32617
"584",78.91478,108.339355
"585",78.91234,108.35254
"586",78.91722,108.36572
"587",78.924545,108.37891
"588",78.93431,108.39209
"589",78.941635,108.40527
"590",78.94408,108.41846
"591",78.94896,108.43164
"592",78.94896,108.444824
"593",78.96117,108.45801
"594",79.00023,108.47119
"595",79.10521,108.484375
"596",79.31518,108.49756
"597",79.66186,108.51074
"598",80.14526,108.523926
"599",80.72877,108.53711
"600",81.34402,108.55029
"601",81.90311,108.56348
"602",82.337685,108.57666
"603",82.60624,108.58984
"604",82.69657,108.60303
"605",82.633095,108.61621
"606",82.45243,108.629395
"607",82.196075,108.64258
"608",81.898224,108.65576
"609",81.59304,108.668945
"610",81.30007,108.68213
"611",81.02174,108.69531
"612",80.76784,108.708496
"613",80.54078,108.72168
"614",80.33814,108.73486
"615",80.16235,108.74805
"616",80.01587,108.76123
"617",79.906006,108.774414
"618",79.83276,108.7876
"619",79.80347,108.80078
"620",79.815674,108.813965
"621",79.8645,108.82715
"622",79.937744,108.84033
"623",80.01831,108.853516
"624",80.093994,108.8667
"625",80.15259,108.87988
"626",80.177,108.89307
"627",80.16968,108.90625
"628",80.130615,108.91943
"629",80.062256,108.93262
"630",79.971924,108.9458
"631",79.869385,108.958984
"632",79.764404,108.97217
"633",79.66186,108.98535
"634",79.571526,108.998535
"635",79.49584,109.01172
"636",79.42748,109.0249
"637",79.37133,109.038086
"638",79.3225,109.05127
"639",79.281,109.06445
"640",79.24681,109.07764
"641",79.217514,109.09082
"642",79.19066,109.104004
"643",79.166245,109.11719
"644",79.13695,109.13037
"645",79.11253,109.143555
"646",79.09056,109.15674
"647",79.07103,109.16992
"648",79.063705,109.183105
"649",79.080795,109.19629
"650",79.15404,109.20947
"651",79.32494,109.22266
"652",79.62524,109.23584
"653",80.06714,109.24902
"654",80.62379,109.26221
"655",81.23903,109.27539
"656",81.83475,109.288574
"657",82.33036,109.30176
"658",82.6746,109.31494
"659",82.85283,109.328125
"660",82.86992,109.34131
"661",82.757614,109.35449
"662",82.55009,109.367676
"663",82.28886,109.38086
"664",81.99588,109.39404
"665",81.69802,109.40723
"666",81.40505,109.42041
"667",81.13405,109.43359
"668",80.88747,109.44678
"669",80.66285,109.45996
"670",80.46754,109.473145
"671",80.30152,109.48633
"672",80.16235,109.49951
"673",80.05737,109.512695
"674",79.9939,109.52588
"675",79.974365,109.53906
"676",79.99634,109.552246
"677",80.04761,109.56543
"678",80.11841,109.57861
"679",80.184326,109.5918
"680",80.235596,109.60498
"681",80.255135,109.618164
"682",80.24048,109.63135
"683",80.18921,109.64453
"684",80.10864,109.657715
"685",80.01343,109.6709
"686",79.91089,109.68408
"687",79.80591,109.697266
"688",79.70092,109.71045
"689",79.603264,109.72363
"690",79.51293,109.73682
"691",79.429924,109.75
"692",79.364006,109.76318
"693",79.310295,109.77637
"694",79.27123,109.78955
"695",79.237045,109.802734
"696",79.20531,109.81592
"697",79.166245,109.8291
"698",79.1223,109.842285
"699",79.078354,109.85547
"700",79.04906,109.86865
"701",79.046616,109.881836
"702",79.11009,109.89502
"703",79.28344,109.9082
"704",79.60082,109.92139
"705",80.062256,109.93457
"706",80.64576,109.947754
"707",81.29519,109.96094
"708",81.92264,109.97412
"709",82.45487,109.987305
"710",82.82597,110.00049
"711",83.021286,110.01367
"712",83.0457,110.026855
"713",82.933395,110.04004
"714",82.720985,110.05322
"715",82.44999,110.06641
"716",82.159454,110.07959
"717",81.866486,110.09277
"718",81.58816,110.10596
"719",81.33181,110.11914
"720",81.094986,110.132324
"721",80.87526,110.14551
"722",80.67017,110.15869
"723",80.48463,110.171875
"724",80.31861,110.18506
"725",80.184326,110.19824
"726",80.08911,110.211426
"727",80.0354,110.22461
"728",80.02319,110.23779
"729",80.03784,110.25098
"730",80.06958,110.26416
"731",80.09888,110.27734
"732",80.11597,110.29053
"733",80.10376,110.30371
"734",80.0647,110.316895
"735",79.99634,110.33008
"736",79.90845,110.34326
"737",79.80591,110.356445
"738",79.70092,110.36963
"739",79.5935,110.38281
"740",79.49096,110.395996
"741",79.38842,110.40918
"742",79.293205,110.42236
"743",79.202866,110.43555
"744",79.12474,110.44873
"745",79.05882,110.461914
"746",79.00023,110.4751
"747",78.94896,110.48828
"748",78.9099,110.501465
"749",78.873276,110.51465
"750",78.836655,110.52783
"751",78.8098,110.541016
"752",78.80003,110.5542
"753",78.839096,110.56738
"754",78.96849,110.58057
"755",79.22972,110.59375
"756",79.64721,110.60693
"757",80.20386,110.62012
"758",80.848404,110.6333
"759",81.49294,110.646484
"760",82.05936,110.65967
"761",82.476845,110.67285
"762",82.720985,110.686035
"763",82.78935,110.69922
"764",82.71122,110.7124
"765",82.528114,110.725586
"766",82.28397,110.73877
"767",82.01541,110.75195
"768",81.74685,110.76514
"769",81.497826,110.77832
"770",81.26833,110.791504
"771",81.06081,110.80469
"772",80.86549,110.81787
"773",80.67506,110.831055
"774",80.48707,110.84424
"775",80.308846,110.85742
"776",80.15015,110.870605
"777",80.02075,110.88379
"778",79.93042,110.89697
"779",79.87671,110.91016
"780",79.85474,110.92334
"781",79.852295,110.93652
"782",79.85962,110.94971
"783",79.869385,110.96289
"784",79.8645,110.976074
"785",79.84253,110.98926
"786",79.7937,111.00244
"787",79.72045,111.015625
"788",79.622795,111.02881
"789",79.51049,111.04199
"790",79.39086,111.055176
"791",79.276115,111.06836
"792",79.168686,111.08154
"793",79.06615,111.09473
"794",78.975815,111.10791
"795",78.89769,111.12109
"796",78.82933,111.13428
"797",78.768295,111.14746
"798",78.71702,111.160645
"799",78.66819,111.17383
"800",78.626686,111.18701
"801",78.58762,111.200195
"802",78.551,111.21338
"803",78.519264,111.22656
"804",78.49485,111.239746
"805",78.502174,111.25293
"806",78.57542,111.26611
"807",78.76341,111.2793
"808",79.10521,111.29248
"809",79.60082,111.305664
"810",80.22339,111.31885
"811",80.89967,111.33203
"812",81.54177,111.345215
"813",82.06668,111.3584
"814",82.42802,111.37158
"815",82.6038,111.384766
"816",82.61356,111.39795
"817",82.48905,111.41113
"818",82.28153,111.42432
"819",82.0325,111.4375
"820",81.778595,111.45068
"821",81.53689,111.46387
"822",81.3196,111.47705
"823",81.12184,111.490234
"824",80.938736,111.50342
"825",80.762955,111.5166
"826",80.58228,111.529785
"827",80.39185,111.54297
"828",80.20386,111.55615
"829",80.028076,111.569336
"830",79.88159,111.58252
"831",79.77173,111.5957
"832",79.69848,111.60889
"833",79.65942,111.62207
"834",79.65209,111.635254
"835",79.65209,111.64844
"836",79.656975,111.66162
"837",79.64965,111.674805
"838",79.62035,111.68799
"839",79.55688,111.70117
"840",79.47143,111.714355
"841",79.36645,111.72754
"842",79.2517,111.74072
"843",79.13695,111.75391
"844",79.027084,111.76709
"845",78.922104,111.78027
"846",78.82689,111.79346
"847",78.73411,111.80664
"848",78.64866,111.819824
"849",78.57053,111.83301
"850",78.50706,111.84619
"851",78.45335,111.859375
"852",78.416725,111.87256
"853",78.38743,111.88574
"854",78.3679,111.898926
"855",78.35813,111.91211
"856",78.35325,111.92529
"857",78.345924,111.93848
"858",78.345924,111.95166
"859",78.3386,111.96484
"860",78.328835,111.97803
"861",78.31907,111.99121
"862",78.32151,112.004395
"863",78.348366,112.01758
"864",78.44114,112.03076
"865",78.63645,112.043945
"866",78.975815,112.05713
"867",79.47387,112.07031
"868",80.1062,112.083496
"869",80.81178,112.09668
"870",81.50027,112.10986
"871",82.08865,112.12305
"872",82.511024,112.13623
"873",82.74784,112.149414
"874",82.804,112.1626
"875",82.718544,112.17578
"876",82.53788,112.188965
"877",82.30595,112.20215
"878",82.054474,112.21533
"879",81.815216,112.228516
"880",81.59792,112.2417
"881",81.40017,112.25488
"882",81.22438,112.26807
"883",81.05348,112.28125
"884",80.87526,112.29443
"885",80.68726,112.30762
"886",80.49439,112.3208
"887",80.308846,112.333984
"888",80.14282,112.34717
"889",80.008545,112.36035
"890",79.91333,112.373535
"891",79.85474,112.38672
"892",79.82544,112.3999
"893",79.81323,112.413086
"894",79.80591,112.42627
"895",79.79614,112.43945
"896",79.77173,112.45264
"897",79.727776,112.46582
"898",79.66674,112.479004
"899",79.586174,112.49219
"900",79.49096,112.50537
"901",79.381096,112.518555
"902",79.26391,112.53174
"903",79.14427,112.54492
"904",79.027084,112.558105
"905",78.91966,112.57129
"906",78.819565,112.58447
"907",78.73899,112.59766
"908",78.66819,112.61084
"909",78.6096,112.62402
"910",78.56321,112.63721
"911",78.52415,112.65039
"912",78.48997,112.663574
"913",78.45579,112.67676
"914",78.42649,112.68994
"915",78.399635,112.703125
"916",78.380104,112.71631
"917",78.365456,112.72949
"918",78.36057,112.742676
"919",78.36057,112.75586
"920",78.36057,112.76904
"921",78.36057,112.78223
"922",78.36057,112.79541
"923",78.363014,112.80859
"924",78.3679,112.82178
"925",78.37766,112.83496
"926",78.38987,112.848145
"927",78.397194,112.86133
"928",78.40696,112.87451
"929",78.41184,112.887695
"930",78.416725,112.90088
"931",78.42161,112.91406
"932",78.433815,112.927246
"933",78.46311,112.94043
"934",78.54612,112.95361
"935",78.73655,112.9668
"936",79.08324,112.97998
"937",79.603264,112.993164
"938",80.28199,113.00635
"939",81.058365,113.01953
"940",81.82498,113.032715
"941",82.48905,113.0459
"942",82.97246,113.05908
"943",83.250786,113.072266
"944",83.33135,113.08545
"945",83.25567,113.09863
"946",83.06767,113.11182
"947",82.81865,113.125
"948",82.55009,113.13818
"949",82.2913,113.15137
"950",82.056915,113.16455
"951",81.84451,113.177734
"952",81.65896,113.19092
"953",81.48318,113.2041
"954",81.304955,113.217285
"955",81.11696,113.23047
"956",80.92409,113.24365
"957",80.72877,113.256836
"958",80.54078,113.27002
"959",80.37476,113.2832
"960",80.24048,113.29639
"961",80.14038,113.30957
"962",80.07446,113.322754
"963",80.03296,113.33594
"964",80.00122,113.34912
"965",79.96704,113.362305
"966",79.91577,113.37549
"967",79.83765,113.38867
"968",79.744865,113.401855
"969",79.64477,113.41504
"970",79.54467,113.42822
"971",79.44457,113.44141
"972",79.34203,113.45459
"973",79.23216,113.46777
"974",79.11742,113.48096
"975",79.00267,113.49414
"976",78.90013,113.507324
"977",78.81224,113.52051
"978",78.73899,113.53369
"979",78.677956,113.546875
"980",78.626686,113.56006
"981",78.58274,113.57324
"982",78.54368,113.586426
"983",78.51438,113.59961
"984",78.49241,113.61279
"985",78.47776,113.62598
"986",78.470436,113.63916
"987",78.46555,113.65234
"988",78.46555,113.66553
"989",78.467995,113.67871
"990",78.4802,113.691895
"991",78.49973,113.70508
"992",78.52903,113.71826
"993",78.55833,113.731445
"994",78.590065,113.74463
"995",78.61448,113.75781
"996",78.63645,113.770996
"997",78.65354,113.78418
"998",78.67063,113.79736
"999",78.68528,113.81055
"1000",78.69993,113.82373
"1001",78.70725,113.836914
"1002",78.70725,113.8501
"1003",78.70725,113.86328
"1004",78.72678,113.876465
"1005",78.8098,113.88965
"1006",79.00023,113.90283
"1007",79.344475,113.916016
"1008",79.85962,113.9292
"1009",80.52369,113.94238
"1010",81.26589,113.95557
"1011",81.99832,113.96875
"1012",82.62821,113.98193
"1013",83.09209,113.99512
"1014",83.35088,114.0083
"1015",83.4168,114.021484
"1016",83.32403,114.03467
"1017",83.1165,114.04785
"1018",82.84306,114.061035
"1019",82.55253,114.07422
"1020",82.266884,114.0874
"1021",82.005646,114.100586
"1022",81.76883,114.11377
"1023",81.55886,114.12695
"1024",81.358665,114.14014
"1025",81.163345,114.15332
"1026",80.972916,114.166504
"1027",80.78493,114.17969
"1028",80.6067,114.19287
"1029",80.445564,114.206055
"1030",80.31129,114.21924
"1031",80.20874,114.23242
"1032",80.14038,114.245605
"1033",80.096436,114.25879
"1034",80.06958,114.27197
"1035",80.04761,114.28516
"1036",80.02075,114.29834
"1037",79.97925,114.31152
"1038",79.91089,114.32471
"1039",79.81079,114.33789
"1040",79.68383,114.351074
"1041",79.534904,114.36426
"1042",79.378654,114.37744
"1043",79.2224,114.390625
"1044",79.078354,114.40381
"1045",78.9514,114.41699
"1046",78.84398,114.430176
"1047",78.75853,114.44336
"1048",78.692604,114.45654
"1049",78.63889,114.46973
"1050",78.60227,114.48291
"1051",78.57053,114.49609
"1052",78.538795,114.50928
"1053",78.51194,114.52246
"1054",78.49241,114.535645
"1055",78.47776,114.54883
"1056",78.467995,114.56201
"1057",78.46311,114.575195
"1058",78.467995,114.58838
"1059",78.4802,114.60156
"1060",78.502174,114.614746
"1061",78.53147,114.62793
"1062",78.56321,114.64111
"1063",78.59251,114.6543
"1064",78.61936,114.66748
"1065",78.643776,114.680664
"1066",78.658424,114.69385
"1067",78.67063,114.70703
"1068",78.68284,114.720215
"1069",78.695045,114.7334
"1070",78.70481,114.74658
"1071",78.71458,114.759766
"1072",78.7219,114.77295
"1073",78.73411,114.78613
"1074",78.77074,114.79932
"1075",78.86107,114.8125
"1076",79.063705,114.82568
"1077",79.42016,114.83887
"1078",79.94507,114.85205
"1079",80.61646,114.865234
"1080",81.36599,114.87842
"1081",82.10086,114.8916
"1082",82.72587,114.904785
"1083",83.175095,114.91797
"1084",83.41924,114.93115
"1085",83.46807,114.944336
"1086",83.35577,114.95752
"1087",83.123825,114.9707
"1088",82.82597,114.98389
"1089",82.5037,114.99707
"1090",82.18631,115.010254
"1091",81.89334,115.02344
"1092",81.634544,115.03662
"1093",81.40017,115.049805
"1094",81.180435,115.06299
"1095",80.970474,115.07617
"1096",80.76784,115.089355
"1097",80.57496,115.10254
"1098",80.40162,115.11572
"1099",80.26246,115.12891
"1100",80.164795,115.14209
"1101",80.10132,115.15527
"1102",80.07446,115.16846
"1103",80.06958,115.18164
"1104",80.07446,115.194824
"1105",80.076904,115.20801
"1106",80.06958,115.22119
"1107",80.042725,115.234375
"1108",79.99634,115.24756
"1109",79.92554,115.26074
"1110",79.84009,115.273926
"1111",79.742424,115.28711
"1112",79.63744,115.30029
"1113",79.53002,115.31348
"1114",79.4226,115.32666
"1115",79.31518,115.33984
"1116",79.21263,115.35303
"1117",79.114975,115.36621
"1118",79.029526,115.379395
"1119",78.95628,115.39258
"1120",78.887924,115.40576
"1121",78.82201,115.418945
"1122",78.765854,115.43213
"1123",78.71702,115.44531
"1124",78.6804,115.458496
"1125",78.65354,115.47168
"1126",78.63889,115.48486
"1127",78.626686,115.49805
"1128",78.61692,115.51123
"1129",78.607155,115.524414
"1130",78.59739,115.5376
"1131",78.59251,115.55078
"1132",78.59495,115.563965
"1133",78.60227,115.57715
"1134",78.61204,115.59033
"1135",78.61936,115.603516
"1136",78.626686,115.6167
"1137",78.63645,115.62988
"1138",78.677956,115.64307
"1139",78.785385,115.65625
"1140",79.012436,115.66943
"1141",79.395744,115.68262
"1142",79.93286,115.6958
"1143",80.59449,115.708984
"1144",81.307396,115.72217
"1145",81.97391,115.73535
"1146",82.513466,115.748535
"1147",82.87724,115.76172
"1148",83.04814,115.7749
"1149",83.04082,115.788086
"1150",82.88701,115.80127
"1151",82.633095,115.81445
"1152",82.320595,115.82764
"1153",81.98367,115.84082
"1154",81.64919,115.854004
"1155",81.32937,115.86719
"1156",81.03151,115.88037
"1157",80.75807,115.893555
"1158",80.50904,115.90674
"1159",80.28687,115.91992
"1160",80.096436,115.933105
"1161",79.94751,115.94629
"1162",79.84497,115.95947
"1163",79.79126,115.97266
"1164",79.78882,115.98584
"1165",79.82788,115.99902
"1166",79.8938,116.01221
"1167",79.96216,116.02539
"1168",80.02319,116.038574
"1169",80.05737,116.05176
"1170",80.0647,116.06494
"1171",80.0354,116.078125
"1172",79.97681,116.09131
"1173",79.89624,116.10449
"1174",79.798584,116.117676
"1175",79.691154,116.13086
"1176",79.57885,116.14404
"1177",79.4641,116.15723
"1178",79.35668,116.17041
"1179",79.259026,116.18359
"1180",79.17357,116.19678
"1181",79.093,116.20996
"1182",79.02464,116.223145
"1183",78.96361,116.23633
"1184",78.9099,116.24951
"1185",78.86107,116.262695
"1186",78.81712,116.27588
"1187",78.77806,116.28906
"1188",78.74876,116.302246
"1189",78.72434,116.31543
"1190",78.70725,116.32861
"1191",78.69993,116.3418
"1192",78.69993,116.35498
"1193",78.71702,116.368164
"1194",78.77074,116.38135
"1195",78.91234,116.39453
"1196",79.185776,116.407715
"1197",79.61791,116.4209
"1198",80.201416,116.43408
"1199",80.89235,116.447266
"1200",81.60525,116.46045
"1201",82.25712,116.47363
"1202",82.76494,116.48682
"1203",83.089645,116.5
"1204",83.226364,116.51318
"1205",83.18974,116.52637
"1206",83.01396,116.53955
"1207",82.7454,116.552734
"1208",82.43046,116.56592
"1209",82.09598,116.5791
"1210",81.761505,116.592285
"1211",81.444115,116.60547
"1212",81.14137,116.61865
"1213",80.85817,116.631836
"1214",80.59937,116.64502
"1215",80.37232,116.6582
"1216",80.17944,116.67139
"1217",80.03296,116.68457
"1218",79.9353,116.697754
"1219",79.89136,116.71094
"1220",79.89624,116.72412
"1221",79.937744,116.737305
"1222",80.0061,116.75049
"1223",80.079346,116.76367
"1224",80.14038,116.776855
"1225",80.17456,116.79004
"1226",80.177,116.80322
"1227",80.13794,116.81641
"1228",80.06714,116.82959
"1229",79.971924,116.84277
"1230",79.86206,116.85596
"1231",79.742424,116.86914
"1232",79.62035,116.882324
"1233",79.500725,116.89551
"1234",79.38598,116.90869
"1235",79.27856,116.921875
"1236",79.183334,116.93506
"1237",79.10033,116.94824
"1238",79.029526,116.961426
"1239",78.97093,116.97461
"1240",78.924545,116.98779
"1241",78.88548,117.00098
"1242",78.8513,117.01416
"1243",78.81468,117.02734
"1244",78.77562,117.04053
"1245",78.74143,117.05371
"1246",78.73167,117.066895
"1247",78.78294,117.08008
"1248",78.94896,117.09326
"1249",79.273674,117.106445
"1250",79.766846,117.11963
"1251",80.413826,117.13281
"1252",81.15114,117.145996
"1253",81.89334,117.15918
"1254",82.55253,117.17236
"1255",83.055466,117.18555
"1256",83.36553,117.19873
"1257",83.48272,117.211914
"1258",83.42901,117.2251
"1259",83.24834,117.23828
"1260",82.97734,117.251465
"1261",82.65751,117.26465
"1262",82.32792,117.27783
"1263",82.00809,117.291016
"1264",81.70779,117.3042
"1265",81.42947,117.31738
"1266",81.17067,117.33057
"1267",80.919205,117.34375
"1268",80.68238,117.35693
"1269",80.46754,117.37012
"1270",80.28199,117.3833
"1271",80.1355,117.396484
"1272",80.03784,117.40967
"1273",79.98657,117.42285
"1274",79.971924,117.436035
"1275",79.98169,117.44922
"1276",80.01099,117.4624
"1277",80.0354,117.475586
"1278",80.042725,117.48877
"1279",80.01831,117.50195
"1280",79.96704,117.51514
"1281",79.888916,117.52832
"1282",79.783936,117.541504
"1283",79.66918,117.55469
"1284",79.54711,117.56787
"1285",79.4226,117.581055
"1286",79.29565,117.59424
"1287",79.17601,117.60742
"1288",79.063705,117.620605
"1289",78.96361,117.63379
"1290",78.8806,117.64697
"1291",78.8098,117.66016
"1292",78.751205,117.67334
"1293",78.695045,117.68652
"1294",78.63889,117.69971
"1295",78.58518,117.71289
"1296",78.53147,117.726074
"1297",78.485085,117.73926
"1298",78.46555,117.75244
"1299",78.51682,117.765625
"1300",78.69016,117.77881
"1301",79.029526,117.79199
"1302",79.55932,117.805176
"1303",80.25269,117.81836
"1304",81.03883,117.83154
"1305",81.8201,117.84473
"1306",82.50614,117.85791
"1307",83.02861,117.87109
"1308",83.346,117.88428
"1309",83.46563,117.89746
"1310",83.41192,117.910645
"1311",83.226364,117.92383
"1312",82.95537,117.93701
"1313",82.6453,117.950195
"1314",82.33036,117.96338
"1315",82.0325,117.97656
"1316",81.75662,117.989746
"1317",81.50515,118.00293
"1318",81.26345,118.01611
"1319",81.03151,118.0293
"1320",80.80446,118.04248
"1321",80.587166,118.055664
"1322",80.38453,118.06885
"1323",80.21362,118.08203
"1324",80.08423,118.095215
"1325",79.9939,118.1084
"1326",79.94507,118.12158
"1327",79.920654,118.134766
"1328",79.91333,118.14795
"1329",79.903564,118.16113
"1330",79.88403,118.17432
"1331",79.84741,118.1875
"1332",79.78882,118.20068
"1333",79.7058,118.21387
"1334",79.59594,118.22705
"1335",79.47387,118.240234
"1336",79.33471,118.25342
"1337",79.19798,118.2666
"1338",79.05882,118.279785
"1339",78.92943,118.29297
"1340",78.8098,118.30615
"1341",78.69993,118.319336
"1342",78.59983,118.33252
"1343",78.51438,118.3457
"1344",78.44358,118.35889
"1345",78.380104,118.37207
"1346",78.32151,118.385254
"1347",78.27512,118.39844
"1348",78.23117,118.41162
"1349",78.18967,118.424805
"1350",78.153046,118.43799
"1351",78.13107,118.45117
"1352",78.15549,118.464355
"1353",78.54856,118.49072
"1354",79.00755,118.50391
"1355",79.64721,118.51709
"1356",80.428474,118.53027
"1357",81.25857,118.54346
"1358",82.04471,118.55664
"1359",82.69413,118.569824
"1360",83.15556,118.58301
"1361",83.41192,118.59619
"1362",83.47295,118.609375
"1363",83.37774,118.62256
"1364",83.17265,118.63574
"1365",82.90654,118.648926
"1366",82.62333,118.66211
"1367",82.34989,118.67529
"1368",82.10086,118.68848
"1369",81.87625,118.70166
"1370",81.6614,118.71484
"1371",81.444115,118.72803
"1372",81.214615,118.74121
"1373",80.972916,118.754395
"1374",80.73121,118.76758
"1375",80.50172,118.78076
"1376",80.30396,118.793945
"1377",80.147705,118.80713
"1378",80.03052,118.82031
"1379",79.94995,118.833496
"1380",79.89136,118.84668
"1381",79.852295,118.85986
"1382",79.81079,118.87305
"1383",79.76196,118.88623
"1384",79.69848,118.899414
"1385",79.61547,118.9126
"1386",79.50805,118.92578
"1387",79.38354,118.938965
"1388",79.24681,118.95215
"1389",79.10033,118.96533
"1390",78.94896,118.978516
"1391",78.802475,118.9917
"1392",78.658424,119.00488
"1393",78.52415,119.01807
"1394",78.40452,119.03125
"1395",78.294655,119.04443
"1396",78.19943,119.05762
"1397",78.11398,119.0708
"1398",78.03342,119.083984
"1399",77.96506,119.09717
"1400",77.908905,119.11035
"1401",77.86496,119.123535
"1402",77.838104,119.13672
"1403",77.81857,119.1499
"1404",77.80881,119.163086
"1405",77.79904,119.17627
"1406",77.786835,119.18945
"1407",77.77707,119.20264
"1408",77.769745,119.21582
"1409",77.77707,119.229004
"1410",77.821014,119.24219
"1411",77.95041,119.25537
"1412",78.21408,119.268555
"1413",78.65598,119.28174
"1414",79.28588,119.29492
"1415",80.06958,119.308105
"1416",80.92653,119.32129
"1417",81.75662,119.33447
"1418",82.4622,119.34766
"1419",82.97978,119.36084
"1420",83.284966,119.37402
"1421",83.38262,119.38721
"1422",83.30938,119.40039
"1423",83.123825,119.413574
"1424",82.86992,119.42676
"1425",82.59159,119.43994
"1426",82.320595,119.453125
"1427",82.07156,119.46631
"1428",81.84451,119.47949
"1429",81.62722,119.492676
"1430",81.40749,119.50586
"1431",81.18288,119.51904
"1432",80.95094,119.53223
"1433",80.71412,119.54541
"1434",80.48707,119.55859
"1435",80.28443,119.57178
"1436",80.11841,119.58496
"1437",79.991455,119.598145
"1438",79.90845,119.61133
"1439",79.85474,119.62451
"1440",79.823,119.637695
"1441",79.7937,119.65088
"1442",79.75708,119.66406
"1443",79.70336,119.677246
"1444",79.62524,119.69043
"1445",79.52758,119.70361
"1446",79.40795,119.7168
"1447",79.26879,119.72998
"1448",79.11742,119.743164
"1449",78.96605,119.75635
"1450",78.81468,119.76953
"1451",78.66819,119.782715
"1452",78.53391,119.7959
"1453",78.41428,119.80908
"1454",78.30686,119.822266
"1455",78.21408,119.83545
"1456",78.133514,119.84863
"1457",78.06027,119.86182
"1458",77.994354,119.875
"1459",77.9382,119.88818
"1460",77.88937,119.90137
"1461",77.85275,119.91455
"1462",77.83566,119.927734
"1463",77.83078,119.94092
"1464",77.82834,119.9541
"1465",77.83322,119.967285
"1466",77.840546,119.98047
"1467",77.84299,119.99365
"1468",77.84543,120.006836
"1469",77.85031,120.02002
"1470",77.85275,120.0332
"1471",77.85275,120.04639
"1472",77.85031,120.05957
"1473",77.857635,120.072754
"1474",77.88937,120.08594
"1475",77.99191,120.09912
"1476",78.22385,120.112305
"1477",78.63157,120.12549
"1478",79.23216,120.13867
"1479",80.00122,120.151855
"1480",80.86305,120.16504
"1481",81.71511,120.17822
"1482",82.45487,120.19141
"1483",83.00908,120.20459
"1484",83.346,120.21777
"1485",83.46319,120.23096
"1486",83.40215,120.24414
"1487",83.20195,120.257324
"1488",82.92119,120.27051
"1489",82.60624,120.28369
"1490",82.28886,120.296875
"1491",81.99588,120.31006
"1492",81.73464,120.32324
"1493",81.495384,120.336426
"1494",81.27322,120.34961
"1495",81.05592,120.36279
"1496",80.82887,120.37598
"1497",80.604256,120.38916
"1498",80.39185,120.40234
"1499",80.2063,120.41553
"1500",80.062256,120.42871
"1501",79.96948,120.441895
"1502",79.91821,120.45508
"1503",79.89624,120.46826
"1504",79.89136,120.481445
"1505",79.886475,120.49463
"1506",79.86694,120.50781
"1507",79.82544,120.520996
"1508",79.75708,120.53418
"1509",79.6643,120.54736
"1510",79.554436,120.56055
"1511",79.42504,120.57373
"1512",79.290764,120.586914
"1513",79.149155,120.6001
"1514",79.009995,120.61328
"1515",78.87572,120.626465
"1516",78.75609,120.63965
"1517",78.64866,120.65283
"1518",78.555885,120.666016
"1519",78.47288,120.6792
"1520",78.40208,120.69238
"1521",78.33616,120.70557
"1522",78.28001,120.71875
"1523",78.23117,120.73193
"1524",78.19455,120.74512
"1525",78.167694,120.7583
"1526",78.14816,120.771484
"1527",78.133514,120.78467
"1528",78.12131,120.79785
"1529",78.11398,120.811035
"1530",78.116425,120.82422
"1531",78.12131,120.8374
"1532",78.12863,120.850586
"1533",78.135956,120.86377
"1534",78.14328,120.87695
"1535",78.14816,120.89014
"1536",78.15793,120.90332
"1537",78.170135,120.916504
"1538",78.17746,120.92969
"1539",78.18234,120.94287
"1540",78.184784,120.956055
"1541",78.187225,120.96924
"1542",78.21896,120.98242
"1543",78.328835,120.995605
"1544",78.57542,121.00879
"1545",79.009995,121.02197
"1546",79.639885,121.03516
"1547",80.430916,121.04834
"1548",81.30007,121.06152
"1549",82.13748,121.07471
"1550",82.83818,121.08789
"1551",83.336235,121.101074
"1552",83.59991,121.11426
"1553",83.64629,121.12744
"1554",83.51446,121.140625
"1555",83.25811,121.15381
"1556",82.93584,121.16699
"1557",82.59159,121.180176
"1558",82.25712,121.19336
"1559",81.94949,121.20654
"1560",81.671165,121.21973
"1561",81.41726,121.23291
"1562",81.17799,121.24609
"1563",80.9485,121.25928
"1564",80.72877,121.27246
"1565",80.52857,121.285645
"1566",80.35523,121.29883
"1567",80.218506,121.31201
"1568",80.11841,121.325195
"1569",80.05737,121.33838
"1570",80.0354,121.35156
"1571",80.03296,121.364746
"1572",80.045166,121.37793
"1573",80.05005,121.39111
"1574",80.0354,121.4043
"1575",79.98901,121.41748
"1576",79.91577,121.430664
"1577",79.818115,121.44385
"1578",79.7058,121.45703
"1579",79.57885,121.470215
"1580",79.447014,121.4834
"1581",79.310295,121.49658
"1582",79.17601,121.509766
"1583",79.046616,121.52295
"1584",78.92943,121.53613
"1585",78.83177,121.54932
"1586",78.746315,121.5625
"1587",78.66819,121.57568
"1588",78.59983,121.58887
"1589",78.54124,121.60205
"1590",78.487526,121.615234
"1591",78.44114,121.62842
"1592",78.40452,121.6416
"1593",78.37278,121.654785
"1594",78.345924,121.66797
"1595",78.32639,121.68115
"1596",78.314186,121.694336
"1597",78.30198,121.70752
"1598",78.294655,121.7207
"1599",78.29221,121.73389
"1600",78.29221,121.74707
"1601",78.294655,121.760254
"1602",78.29954,121.77344
"1603",78.30686,121.78662
"1604",78.3386,121.799805
"1605",78.42649,121.81299
"1606",78.626686,121.82617
"1607",78.995346,121.839355
"1608",79.54711,121.85254
"1609",80.255135,121.86572
"1610",81.04616,121.87891
"1611",81.82254,121.89209
"1612",82.47929,121.90527
"1613",82.94072,121.91846
"1614",83.17998,121.93164
"1615",83.20683,121.944824
"1616",83.055466,121.95801
"1617",82.777145,121.97119
"1618",82.43046,121.984375
"1619",82.054474,121.99756
"1620",81.68093,122.01074
"1621",81.32937,122.023926
"1622",81.004654,122.03711
"1623",80.709236,122.05029
"1624",80.44068,122.06348
"1625",80.198975,122.07666
"1626",79.9939,122.08984
"1627",79.82056,122.10303
"1628",79.693596,122.11621
"1629",79.622795,122.129395
"1630",79.60815,122.14258
"1631",79.64233,122.15576
"1632",79.710686,122.168945
"1633",79.79614,122.18213
"1634",79.87427,122.19531
"1635",79.923096,122.208496
"1636",79.93286,122.22168
"1637",79.90112,122.23486
"1638",79.83032,122.24805
"1639",79.7351,122.26123
"1640",79.62035,122.274414
"1641",79.49828,122.2876
"1642",79.37377,122.30078
"1643",79.2517,122.313965
"1644",79.13451,122.32715
"1645",79.0222,122.34033
"1646",78.922104,122.353516
"1647",78.84154,122.3667
"1648",78.77562,122.37988
"1649",78.72434,122.39307
"1650",78.6804,122.40625
"1651",78.64622,122.41943
"1652",78.61448,122.43262
"1653",78.58762,122.4458
"1654",78.56321,122.458984
"1655",78.54612,122.47217
"1656",78.53391,122.48535
"1657",78.521706,122.498535
"1658",78.51438,122.51172
"1659",78.51194,122.5249
"1660",78.521706,122.538086
"1661",78.56809,122.55127
"1662",78.69993,122.56445
"1663",78.97337,122.57764
"1664",79.42016,122.59082
"1665",80.04028,122.604004
"1666",80.79469,122.61719
"1667",81.59548,122.63037
"1668",82.3328,122.643555
"1669",82.913864,122.65674
"1670",83.282524,122.66992
"1671",83.424126,122.683105
"1672",83.36309,122.69629
"1673",83.14336,122.70947
"1674",82.82109,122.72266
"1675",82.44755,122.73584
"1676",82.0618,122.74902
"1677",81.6907,122.76221
"1678",81.34646,122.77539
"1679",81.03395,122.788574
"1680",80.75319,122.80176
"1681",80.49439,122.81494
"1682",80.26002,122.828125
"1683",80.05249,122.84131
"1684",79.888916,122.85449
"1685",79.77417,122.867676
"1686",79.72045,122.88086
"1687",79.72289,122.89404
"1688",79.77173,122.90723
"1689",79.84985,122.92041
"1690",79.9353,122.93359
"1691",80.0061,122.94678
"1692",80.04761,122.95996
"1693",80.04761,122.973145
"1694",80.0061,122.98633
"1695",79.923096,122.99951
"1696",79.81079,123.012695
"1697",79.67895,123.02588
"1698",79.53979,123.03906
"1699",79.40307,123.052246
"1700",79.27856,123.06543
"1701",79.166245,123.07861
"1702",79.07347,123.0918
"1703",78.99046,123.10498
"1704",78.922104,123.118164
"1705",78.86595,123.13135
"1706",78.82201,123.14453
"1707",78.7805,123.157715
"1708",78.74143,123.1709
"1709",78.70481,123.18408
"1710",78.67063,123.197266
"1711",78.63889,123.21045
"1712",78.61448,123.22363
"1713",78.607155,123.23682
"1714",78.63157,123.25
"1715",78.729225,123.26318
"1716",78.94896,123.27637
"1717",79.33959,123.28955
"1718",79.920654,123.302734
"1719",80.655525,123.31592
"1720",81.461205,123.3291
"1721",82.23514,123.342285
"1722",82.865036,123.35547
"1723",83.282524,123.36865
"1724",83.46807,123.381836
"1725",83.44366,123.39502
"1726",83.25323,123.4082
"1727",82.95293,123.42139
"1728",82.59647,123.43457
"1729",82.230255,123.447754
"1730",81.883575,123.46094
"1731",81.5613,123.47412
"1732",81.270775,123.487305
"1733",81.00954,123.50049
"1734",80.77028,123.51367
"1735",80.54566,123.526855
"1736",80.33326,123.54004
"1737",80.14282,123.55322
"1738",79.98413,123.56641
"1739",79.86206,123.57959
"1740",79.78638,123.59277
"1741",79.76196,123.60596
"1742",79.781494,123.61914
"1743",79.82544,123.632324
"1744",79.87915,123.64551
"1745",79.920654,123.65869
"1746",79.93042,123.671875
"1747",79.89868,123.68506
"1748",79.82788,123.69824
"1749",79.72045,123.711426
"1750",79.5935,123.72461
"1751",79.45678,123.73779
"1752",79.3225,123.75098
"1753",79.19066,123.76416
"1754",79.07591,123.77734
"1755",78.97337,123.79053
"1756",78.88304,123.80371
"1757",78.80492,123.816895
"1758",78.74143,123.83008
"1759",78.69016,123.84326
"1760",78.6511,123.856445
"1761",78.6218,123.86963
"1762",78.59739,123.88281
"1763",78.57542,123.895996
"1764",78.555885,123.90918
"1765",78.54124,123.92236
"1766",78.521706,123.93555
"1767",78.519264,123.94873
"1768",78.56321,123.961914
"1769",78.70481,123.9751
"1770",78.992905,123.98828
"1771",79.47143,124.001465
"1772",80.128174,124.01465
"1773",80.90456,124.02783
"1774",81.705345,124.041016
"1775",82.41337,124.0542
"1776",82.93828,124.06738
"1777",83.23857,124.08057
"1778",83.31426,124.09375
"1779",83.194626,124.10693
"1780",82.94316,124.12012
"1781",82.61356,124.1333
"1782",82.25712,124.146484
"1783",81.91531,124.15967
"1784",81.60525,124.17285
"1785",81.32937,124.186035
"1786",81.08522,124.19922
"1787",80.86305,124.2124
"1788",80.6482,124.225586
"1789",80.4358,124.23877
"1790",80.233154,124.25195
"1791",80.042725,124.26514
"1792",79.87671,124.27832
"1793",79.7522,124.291504
"1794",79.66918,124.30469
"1795",79.63012,124.31787
"1796",79.63012,124.331055
"1797",79.65209,124.34424
"1798",79.674065,124.35742
"1799",79.68627,124.370605
"1800",79.676506,124.38379
"1801",79.635,124.39697
"1802",79.5642,124.41016
"1803",79.47143,124.42334
"1804",79.35912,124.43652
"1805",79.24437,124.44971
"1806",79.12474,124.46289
"1807",79.009995,124.476074
"1808",78.907455,124.48926
"1809",78.81468,124.50244
"1810",78.73167,124.515625
"1811",78.66331,124.52881
"1812",78.61204,124.54199
"1813",78.56077,124.555176
"1814",78.51438,124.56836
"1815",78.47288,124.58154
"1816",78.43626,124.59473
"1817",78.40452,124.60791
"1818",78.382545,124.62109
"1819",78.365456,124.63428
"1820",78.35325,124.64746
"1821",78.34104,124.660645
"1822",78.34104,124.67383
"1823",78.36057,124.68701
"1824",78.44114,124.700195
"1825",78.63889,124.71338
"1826",79.00023,124.72656
"1827",79.54223,124.739746
"1828",80.235596,124.75293
"1829",81.007095,124.76611
"1830",81.74685,124.7793
"1831",82.354774,124.79248
"1832",82.757614,124.805664
"1833",82.9456,124.81885
"1834",82.933395,124.83203
"1835",82.76982,124.845215
"1836",82.5037,124.8584
"1837",82.193634,124.87158
"1838",81.87869,124.884766
"1839",81.583275,124.89795
"1840",81.322044,124.91113
"1841",81.09743,124.92432
"1842",80.89967,124.9375
"1843",80.71168,124.95068
"1844",80.52125,124.96387
"1845",80.32838,124.97705
"1846",80.13306,124.990234
"1847",79.954834,125.00342
"1848",79.79614,125.0166
"1849",79.67895,125.029785
"1850",79.60082,125.04297
"1851",79.56176,125.05615
"1852",79.55688,125.069336
"1853",79.569084,125.08252
"1854",79.586174,125.0957
"1855",79.59106,125.10889
"1856",79.57641,125.12207
"1857",79.53979,125.135254
"1858",79.47875,125.14844
"1859",79.395744,125.16162
"1860",79.30297,125.174805
"1861",79.19798,125.18799
"1862",79.08568,125.20117
"1863",78.97826,125.214355
"1864",78.8806,125.22754
"1865",78.79027,125.24072
"1866",78.709694,125.25391
"1867",78.63645,125.26709
"1868",78.57786,125.28027
"1869",78.52903,125.29346
"1870",78.48997,125.30664
"1871",78.46067,125.319824
"1872",78.44114,125.33301
"1873",78.42649,125.34619
"1874",78.41184,125.359375
"1875",78.399635,125.37256
"1876",78.397194,125.38574
"1877",78.397194,125.398926
"1878",78.40452,125.41211
"1879",78.4094,125.42529
"1880",78.41917,125.43848
"1881",78.42161,125.45166
"1882",78.42161,125.46484
"1883",78.41428,125.47803
"1884",78.416725,125.49121
"1885",78.44846,125.504395
"1886",78.56565,125.51758
"1887",78.819565,125.53076
"1888",79.256584,125.543945
"1889",79.87671,125.55713
"1890",80.618904,125.57031
"1891",81.3904,125.583496
"1892",82.08133,125.59668
"1893",82.598915,125.60986
"1894",82.899216,125.62305
"1895",82.984665,125.63623
"1896",82.89189,125.649414
"1897",82.67948,125.6626
"1898",82.39628,125.67578
"1899",82.091095,125.688965
"1900",81.80057,125.70215
"1901",81.53689,125.71533
"1902",81.307396,125.728516
"1903",81.112076,125.7417
"1904",80.936295,125.75488
"1905",80.76784,125.76807
"1906",80.59449,125.78125
"1907",80.41871,125.79443
"1908",80.24292,125.80762
"1909",80.076904,125.8208
"1910",79.93042,125.833984
"1911",79.82056,125.84717
"1912",79.744865,125.86035
"1913",79.70336,125.873535
"1914",79.691154,125.88672
"1915",79.70092,125.8999
"1916",79.71313,125.913086
"1917",79.71313,125.92627
"1918",79.68871,125.93945
"1919",79.64233,125.95264
"1920",79.571526,125.96582
"1921",79.47631,125.979004
"1922",79.36889,125.99219
"1923",79.259026,126.00537
"1924",79.15648,126.018555
"1925",79.05638,126.03174
"1926",78.96849,126.04492
"1927",78.89281,126.058105
"1928",78.82201,126.07129
"1929",78.75609,126.08447
"1930",78.69993,126.09766
"1931",78.65354,126.11084
"1932",78.61936,126.12402
"1933",78.58762,126.13721
"1934",78.56321,126.15039
"1935",78.54856,126.163574
"1936",78.53391,126.17676
"1937",78.521706,126.18994
"1938",78.5095,126.203125
"1939",78.49729,126.21631
"1940",78.485085,126.22949
"1941",78.4802,126.242676
"1942",78.4802,126.25586
"1943",78.48997,126.26904
"1944",78.504616,126.28223
"1945",78.521706,126.29541
"1946",78.536354,126.30859
"1947",78.54612,126.32178
"1948",78.553444,126.33496
"1949",78.55833,126.348145
"1950",78.555885,126.36133
"1951",78.555885,126.37451
"1952",78.55833,126.387695
"1953",78.572975,126.40088
"1954",78.6218,126.41406
"1955",78.76341,126.427246
"1956",79.04906,126.44043
"1957",79.5227,126.45361
"1958",80.16968,126.4668
"1959",80.93385,126.47998
"1960",81.705345,126.493164
"1961",82.36698,126.50635
"1962",82.83574,126.51953
"1963",83.070114,126.532715
"1964",83.08476,126.5459
"1965",82.91875,126.55908
"1966",82.63554,126.572266
"1967",82.29618,126.58545
"1968",81.94949,126.59863
"1969",81.62966,126.61182
"1970",81.35378,126.625
"1971",81.13161,126.63818
"1972",80.94362,126.65137
"1973",80.780045,126.66455
"1974",80.621346,126.677734
"1975",80.465096,126.69092
"1976",80.306404,126.7041
"1977",80.15015,126.717285
"1978",80.01099,126.73047
"1979",79.90112,126.74365
"1980",79.823,126.756836
"1981",79.77661,126.77002
"1982",79.76196,126.7832
"1983",79.766846,126.79639
"1984",79.77905,126.80957
"1985",79.79126,126.822754
"1986",79.78638,126.83594
"1987",79.764404,126.84912
"1988",79.71557,126.862305
"1989",79.64721,126.87549
"1990",79.55932,126.88867
"1991",79.4641,126.901855
"1992",79.361565,126.91504
"1993",79.26147,126.92822
"1994",79.168686,126.94141
"1995",79.08812,126.95459
"1996",79.01732,126.96777
"1997",78.95384,126.98096
"1998",78.90013,126.99414
"1999",78.8513,127.007324
"2000",78.8098,127.02051
"2001",78.7805,127.03369
"2002",78.751205,127.046875
"2003",78.72678,127.06006
"2004",78.70481,127.07324
"2005",78.68772,127.086426
"2006",78.67307,127.09961
"2007",78.66819,127.11279
"2008",78.675514,127.12598
"2009",78.69016,127.13916
"2010",78.70481,127.15234
"2011",78.71702,127.16553
"2012",78.73411,127.17871
"2013",78.74876,127.191895
"2014",78.765854,127.20508
"2015",78.78294,127.21826
"2016",78.79759,127.231445
"2017",78.81224,127.24463
"2018",78.82201,127.25781
"2019",78.82689,127.270996
"2020",78.83177,127.28418
"2021",78.839096,127.29736
"2022",78.84642,127.31055
"2023",78.856186,127.32373
"2024",78.90013,127.336914
"2025",79.02464,127.3501
"2026",79.28588,127.36328
"2027",79.71801,127.376465
"2028",80.31861,127.38965
"2029",81.03883,127.40283
"2030",81.77615,127.416016
"2031",82.42069,127.4292
"2032",82.88457,127.44238
"2033",83.123825,127.45557
"2034",83.14336,127.46875
"2035",82.97978,127.48193
"2036",82.684364,127.49512
"2037",82.320595,127.5083
"2038",81.93729,127.521484
"2039",81.57107,127.53467
"2040",81.248795,127.54785
"2041",80.9778,127.561035
"2042",80.75075,127.57422
"2043",80.55787,127.5874
"2044",80.38941,127.600586
"2045",80.235596,127.61377
"2046",80.08911,127.62695
"2047",79.954834,127.64014
"2048",79.84009,127.65332
"2049",79.708244,127.67969
"2050",79.69604,127.69287
"2051",79.71557,127.706055
"2052",79.74975,127.71924
"2053",79.783936,127.73242
"2054",79.80835,127.745605
"2055",79.81079,127.75879
"2056",79.79126,127.77197
"2057",79.7522,127.78516
"2058",79.691154,127.79834
"2059",79.61547,127.81152
"2060",79.52758,127.82471
"2061",79.432365,127.83789
"2062",79.33715,127.851074
"2063",79.25414,127.86426
"2064",79.17601,127.87744
"2065",79.114975,127.890625
"2066",79.063705,127.90381
"2067",79.02464,127.91699
"2068",78.99046,127.930176
"2069",78.96117,127.94336
"2070",78.93431,127.95654
"2071",78.91234,127.96973
"2072",78.89281,127.98291
"2073",78.87816,127.99609
"2074",78.873276,128.00928
"2075",78.8806,128.02246
"2076",78.89281,128.03564
"2077",78.905014,128.04883
"2078",78.91966,128.06201
"2079",78.93431,128.0752
"2080",78.9514,128.08838
"2081",78.96605,128.10156
"2082",78.98558,128.11475
"2083",79.009995,128.12793
"2084",79.03197,128.14111
"2085",79.044174,128.1543
"2086",79.04906,128.16748
"2087",79.0515,128.18066
"2088",79.046616,128.19385
"2089",79.046616,128.20703
"2090",79.080795,128.22021
"2091",79.19798,128.2334
"2092",79.447014,128.24658
"2093",79.85962,128.25977
"2094",80.43336,128.27295
"2095",81.109634,128.28613
"2096",81.7908,128.29932
"2097",82.37675,128.3125
"2098",82.78447,128.32568
"2099",82.97002,128.33887
"2100",82.9456,128.35205
"2101",82.75273,128.36523
"2102",82.43778,128.37842
"2103",82.0618,128.3916
"2104",81.67361,128.40479
"2105",81.30007,128.41797
"2106",80.96315,128.43115
"2107",80.66773,128.44434
"2108",80.42115,128.45752
"2109",80.20874,128.4707
"2110",80.03296,128.48389
"2111",79.886475,128.49707
"2112",79.77661,128.51025
"2113",79.70336,128.52344
"2114",79.66918,128.53662
"2115",79.68139,128.5498
"2116",79.73266,128.56299
"2117",79.80835,128.57617
"2118",79.90112,128.58936
"2119",79.98901,128.60254
"2120",80.059814,128.61572
"2121",80.09888,128.6289
"2122",80.10376,128.64209
"2123",80.07202,128.65527
"2124",80.01099,128.66846
"2125",79.93042,128.68164
"2126",79.835205,128.69482
"2127",79.742424,128.70801
"2128",79.64721,128.72119
"2129",79.554436,128.73438
"2130",79.47143,128.74756
"2131",79.40063,128.76074
"2132",79.34203,128.77393
"2133",79.290764,128.78711
"2134",79.24681,128.8003
"2135",79.21019,128.81348
"2136",79.17601,128.82666
"2137",79.14427,128.83984
"2138",79.11986,128.85303
"2139",79.10765,128.86621
"2140",79.10277,128.8794
"2141",79.10033,128.89258
"2142",79.10033,128.90576
"2143",79.097885,128.91895
"2144",79.097885,128.93213
"2145",79.09544,128.94531
"2146",79.093,128.9585
"2147",79.10033,128.97168
"2148",79.1223,128.98486
"2149",79.1931,128.99805
"2150",79.364006,129.01123
"2151",79.67895,129.02441
"2152",80.15259,129.0376
"2153",80.762955,129.05078
"2154",81.44167,129.06396
"2155",82.08865,129.07715
"2156",82.6038,129.09033
"2157",82.930954,129.10352
"2158",83.0457,129.1167
"2159",82.967575,129.12988
"2160",82.74296,129.14307
"2161",82.42069,129.15625
"2162",82.04959,129.16943
"2163",81.67605,129.18262
"2164",81.324486,129.1958
"2165",81.01198,129.20898
"2166",80.73609,129.22217
"2167",80.49439,129.23535
"2168",80.28687,129.24854
"2169",80.10376,129.26172
"2170",79.94751,129.2749
"2171",79.823,129.28809
"2172",79.73998,129.30127
"2173",79.69848,129.31445
"2174",79.70336,129.32764
"2175",79.74731,129.34082
"2176",79.82056,129.354
"2177",79.906006,129.36719
"2178",79.98901,129.38037
"2179",80.05493,129.39355
"2180",80.09155,129.40674
"2181",80.09155,129.41992
"2182",80.05737,129.4331
"2183",79.99634,129.44629
"2184",79.923096,129.45947
"2185",79.84009,129.47266
"2186",79.7522,129.48584
"2187",79.66186,129.49902
"2188",79.571526,129.5122
"2189",79.483635,129.52539
"2190",79.40307,129.53857
"2191",79.33715,129.55176
"2192",79.28832,129.56494
"2193",79.2517,129.57812
"2194",79.22728,129.59131
"2195",79.217514,129.60449
"2196",79.21019,129.61768
"2197",79.202866,129.63086
"2198",79.19554,129.64404
"2199",79.185776,129.65723
"2200",79.17113,129.67041
"2201",79.16136,129.6836
"2202",79.17113,129.69678
"2203",79.22972,129.70996
"2204",79.38598,129.72314
"2205",79.68627,129.73633
"2206",80.147705,129.74951
"2207",80.75075,129.7627
"2208",81.43191,129.77588
"2209",82.09842,129.78906
"2210",82.650185,129.80225
"2211",83.02373,129.81543
"2212",83.18974,129.82861
"2213",83.158005,129.8418
"2214",82.967575,129.85498
"2215",82.669716,129.86816
"2216",82.31327,129.88135
"2217",81.94217,129.89453
"2218",81.58083,129.90771
"2219",81.248795,129.9209
"2220",80.95827,129.93408
"2221",80.709236,129.94727
"2222",80.49195,129.96045
"2223",80.30152,129.97363
"2224",80.13306,129.98682
"2225",79.991455,130
"2226",79.87915,130.01318
"2227",79.80835,130.02637
"2228",79.781494,130.03955
"2229",79.798584,130.05273
"2230",79.84741,130.06592
"2231",79.91577,130.0791
"2232",79.991455,130.09229
"2233",80.05737,130.10547
"2234",80.09888,130.11865
"2235",80.111084,130.13184
"2236",80.08911,130.14502
"2237",80.03784,130.1582
"2238",79.96216,130.17139
"2239",79.86694,130.18457
"2240",79.764404,130.19775
"2241",79.66186,130.21094
"2242",79.5642,130.22412
"2243",79.47875,130.2373
"2244",79.40551,130.25049
"2245",79.344475,130.26367
"2246",79.29809,130.27686
"2247",79.26147,130.29004
"2248",79.22728,130.30322
"2249",79.200424,130.3164
"2250",79.17357,130.32959
"2251",79.149155,130.34277
"2252",79.11986,130.35596
"2253",79.093,130.36914
"2254",79.080795,130.38232
"2255",79.114975,130.39551
"2256",79.24437,130.40869
"2257",79.520256,130.42188
"2258",79.974365,130.43506
"2259",80.59205,130.44824
"2260",81.304955,130.46143
"2261",82.01541,130.47461
"2262",82.61356,130.4878
"2263",83.021286,130.50098
"2264",83.211716,130.51416
"2265",83.19951,130.52734
"2266",83.021286,130.54053
"2267",82.738075,130.55371
"2268",82.39872,130.5669
"2269",82.039825,130.58008
"2270",81.69558,130.59326
"2271",81.38064,130.60645
"2272",81.10719,130.61963
"2273",80.87038,130.63281
"2274",80.66041,130.646
"2275",80.46754,130.65918
"2276",80.289314,130.67236
"2277",80.12573,130.68555
"2278",79.98657,130.69873
"2279",79.886475,130.71191
"2280",79.83032,130.7251
"2281",79.82056,130.73828
"2282",79.84741,130.75146
"2283",79.89624,130.76465
"2284",79.954834,130.77783
"2285",80.00122,130.79102
"2286",80.028076,130.8042
"2287",80.025635,130.81738
"2288",79.9939,130.83057
"2289",79.93042,130.84375
"2290",79.84497,130.85693
"2291",79.74731,130.87012
"2292",79.64477,130.8833
"2293",79.53979,130.89648
"2294",79.44213,130.90967
"2295",79.34936,130.92285
"2296",79.26635,130.93604
"2297",79.1931,130.94922
"2298",79.132065,130.9624
"2299",79.08812,130.97559
"2300",79.0515,130.98877
"2301",79.02464,131.00195
"2302",79.00267,131.01514
"2303",78.9807,131.02832
"2304",78.95384,131.0415
"2305",78.93187,131.05469
"2306",78.93675,131.06787
"2307",79.009995,131.08105
"2308",79.21263,131.09424
"2309",79.586174,131.10742
"2310",80.14038,131.1206
"2311",80.831314,131.13379
"2312",81.566185,131.14697
"2313",82.24002,131.16016
"2314",82.75517,131.17334
"2315",83.055466,131.18652
"2316",83.13603,131.1997
"2317",83.02861,131.21289
"2318",82.78691,131.22607
"2319",82.46708,131.23926
"2320",82.11551,131.25244
"2321",81.77127,131.26562
"2322",81.45632,131.27881
"2323",81.17799,131.29199
"2324",80.93385,131.30518
"2325",80.719,131.31836
"2326",80.52125,131.33154
"2327",80.33326,131.34473
"2328",80.15503,131.35791
"2329",79.99634,131.3711
"2330",79.8645,131.38428
"2331",79.76929,131.39746
"2332",79.71313,131.41064
"2333",79.69604,131.42383
"2334",79.710686,131.43701
"2335",79.74731,131.4502
"2336",79.783936,131.46338
"2337",79.80591,131.47656
"2338",79.80347,131.48975
"2339",79.77173,131.50293
"2340",79.71801,131.51611
"2341",79.64965,131.5293
"2342",79.56664,131.54248
"2343",79.47387,131.55566
"2344",79.37133,131.56885
"2345",79.26391,131.58203
"2346",79.15892,131.59521
"2347",79.061264,131.6084
"2348",78.975815,131.62158
"2349",78.905014,131.63477
"2350",78.84886,131.64795
"2351",78.802475,131.66113
"2352",78.768295,131.67432
"2353",78.73899,131.6875
"2354",78.712135,131.70068
"2355",78.69016,131.71387
"2356",78.67063,131.72705
"2357",78.6511,131.74023
"2358",78.63645,131.75342
"2359",78.63401,131.7666
"2360",78.658424,131.77979
"2361",78.75609,131.79297
"2362",78.98314,131.80615
"2363",79.38354,131.81934
"2364",79.96216,131.83252
"2365",80.6775,131.8457
"2366",81.444115,131.85889
"2367",82.15213,131.87207
"2368",82.70634,131.88525
"2369",83.04814,131.89844
"2370",83.17021,131.91162
"2371",83.09697,131.9248
"2372",82.879684,131.93799
"2373",82.579384,131.95117
"2374",82.247345,131.96436
"2375",81.92508,131.97754
"2376",81.636986,131.99072
"2377",81.38796,132.0039
"2378",81.17311,132.01709
"2379",80.9778,132.03027
"2380",80.78493,132.04346
"2381",80.59205,132.05664
"2382",80.396736,132.06982
"2383",80.201416,132.08301
"2384",80.02075,132.09619
"2385",79.871826,132.10938
"2386",79.764404,132.12256
"2387",79.69848,132.13574
"2388",79.66918,132.14893
"2389",79.674065,132.16211
"2390",79.691154,132.1753
"2391",79.7058,132.18848
"2392",79.70336,132.20166
"2393",79.674065,132.21484
"2394",79.62524,132.22803
"2395",79.551994,132.24121
"2396",79.466545,132.2544
"2397",79.37133,132.26758
"2398",79.273674,132.28076
"2399",79.17113,132.29395
"2400",79.07103,132.30713
"2401",78.97093,132.32031
"2402",78.87816,132.3335
"2403",78.79515,132.34668
"2404",78.729225,132.35986
"2405",78.675514,132.37305
"2406",78.63645,132.38623
"2407",78.60471,132.39941
"2408",78.58274,132.4126
"2409",78.56321,132.42578
"2410",78.54856,132.43896
"2411",78.53391,132.45215
"2412",78.52415,132.46533
"2413",78.51194,132.47852
"2414",78.49973,132.4917
"2415",78.48997,132.50488
"2416",78.487526,132.51807
"2417",78.487526,132.53125
"2418",78.50706,132.54443
"2419",78.5803,132.55762
"2420",78.75853,132.5708
"2421",79.09056,132.58398
"2422",79.60815,132.59717
"2423",80.28199,132.61035
"2424",81.04372,132.62354
"2425",81.78836,132.63672
"2426",82.406044,132.6499
"2427",82.82353,132.66309
"2428",83.021286,132.67627
"2429",83.01396,132.68945
"2430",82.847946,132.70264
"2431",82.579384,132.71582
"2432",82.25956,132.729
"2433",81.93973,132.74219
"2434",81.64431,132.75537
"2435",81.38552,132.76855
"2436",81.16823,132.78174
"2437",80.98268,132.79492
"2438",80.814224,132.8081
"2439",80.6482,132.82129
"2440",80.47486,132.83447
"2441",80.2942,132.84766
"2442",80.113525,132.86084
"2443",79.94263,132.87402
"2444",79.801025,132.8872
"2445",79.70092,132.90039
"2446",79.639885,132.91357
"2447",79.61303,132.92676
"2448",79.61303,132.93994
"2449",79.62524,132.95312
"2450",79.63012,132.96631
"2451",79.61791,132.97949
"2452",79.57885,132.99268
"2453",79.517815,133.00586
"2454",79.43481,133.01904
"2455",79.33715,133.03223
"2456",79.22972,133.04541
"2457",79.11986,133.0586
"2458",79.01732,133.07178
"2459",78.91722,133.08496
"2460",78.82689,133.09814
"2461",78.74876,133.11133
"2462",78.6804,133.12451
"2463",78.61692,133.1377
"2464",78.56321,133.15088
"2465",78.51682,133.16406
"2466",78.47776,133.17725
"2467",78.44602,133.19043
"2468",78.42161,133.20361
"2469",78.40696,133.2168
"2470",78.399635,133.22998
"2471",78.399635,133.24316
"2472",78.40452,133.25635
"2473",78.42161,133.26953
"2474",78.4387,133.28271
"2475",78.45579,133.2959
"2476",78.47532,133.30908
"2477",78.49485,133.32227
"2478",78.51438,133.33545
"2479",78.53147,133.34863
"2480",78.54856,133.36182
"2481",78.56077,133.375
"2482",78.56565,133.38818
"2483",78.57542,133.40137
"2484",78.61204,133.41455
"2485",78.71946,133.42773
"2486",78.96117,133.44092
"2487",79.381096,133.4541
"2488",79.98169,133.46729
"2489",80.709236,133.48047
"2490",81.480736,133.49365
"2491",82.178986,133.50684
"2492",82.70634,133.52002
"2493",83.01152,133.5332
"2494",83.09453,133.54639
"2495",82.99199,133.55957
"2496",82.75273,133.57275
"2497",82.43778,133.58594
"2498",82.09598,133.59912
"2499",81.761505,133.6123
"2500",81.461205,133.62549
"2501",81.20729,133.63867
"2502",80.990005,133.65186
"2503",80.8069,133.66504
"2504",80.638435,133.67822
"2505",80.4773,133.6914
"2506",80.31129,133.70459
"2507",80.147705,133.71777
"2508",79.991455,133.73096
"2509",79.85474,133.74414
"2510",79.74975,133.75732
"2511",79.68139,133.77051
"2512",79.64721,133.78369
"2513",79.64233,133.79688
"2514",79.64965,133.81006
"2515",79.656975,133.82324
"2516",79.64965,133.83643
"2517",79.622795,133.84961
"2518",79.569084,133.8628
"2519",79.49096,133.87598
"2520",79.40063,133.88916
"2521",79.30297,133.90234
"2522",79.20775,133.91553
"2523",79.114975,133.92871
"2524",79.03197,133.9419
"2525",78.9514,133.95508
"2526",78.873276,133.96826
"2527",78.80736,133.98145
"2528",78.751205,133.99463
"2529",78.70725,134.00781
"2530",78.675514,134.021
"2531",78.65354,134.03418
"2532",78.63401,134.04736
"2533",78.61936,134.06055
"2534",78.6096,134.07373
"2535",78.60471,134.08691
"2536",78.59983,134.1001
"2537",78.59495,134.11328
"2538",78.59251,134.12646
"2539",78.59251,134.13965
"2540",78.59251,134.15283
"2541",78.59495,134.16602
"2542",78.607155,134.1792
"2543",78.6218,134.19238
"2544",78.63401,134.20557
"2545",78.64866,134.21875
"2546",78.66331,134.23193
"2547",78.675514,134.24512
"2548",78.68528,134.2583
"2549",78.695045,134.27148
"2550",78.70481,134.28467
"2551",78.712135,134.29785
"2552",78.73899,134.31104
"2553",78.819565,134.32422
"2554",79.01732,134.3374
"2555",79.381096,134.35059
"2556",79.92798,134.36377
"2557",80.618904,134.37695
"2558",81.375755,134.39014
"2559",82.08621,134.40332
"2560",82.64286,134.4165
"2561",82.98711,134.42969
"2562",83.10918,134.44287
"2563",83.02617,134.45605
"2564",82.791794,134.46924
"2565",82.46708,134.48242
"2566",82.10086,134.4956
"2567",81.739525,134.50879
"2568",81.41482,134.52197
"2569",81.13405,134.53516
"2570",80.89479,134.54834
"2571",80.69215,134.56152
"2572",80.50904,134.5747
"2573",80.34058,134.58789
"2574",80.18677,134.60107
"2575",80.042725,134.61426
"2576",79.91333,134.62744
"2577",79.81079,134.64062
"2578",79.744865,134.65381
"2579",79.708244,134.66699
"2580",79.70336,134.68018
"2581",79.71557,134.69336
"2582",79.744865,134.70654
"2583",79.766846,134.71973
"2584",79.77417,134.73291
"2585",79.76196,134.7461
"2586",79.727776,134.75928
"2587",79.66918,134.77246
"2588",79.586174,134.78564
"2589",79.48852,134.79883
"2590",79.38842,134.81201
"2591",79.293205,134.8252
"2592",79.20531,134.83838
"2593",79.12962,134.85156
"2594",79.06615,134.86475
"2595",79.012436,134.87793
"2596",78.96361,134.89111
"2597",78.91722,134.9043
"2598",78.87816,134.91748
"2599",78.84642,134.93066
"2600",78.819565,134.94385
"2601",78.79759,134.95703
"2602",78.7805,134.97021
"2603",78.77074,134.9834
"2604",78.76341,134.99658
"2605",78.76097,135.00977
"2606",78.76341,135.02295
"2607",78.77562,135.03613
"2608",78.79027,135.04932
"2609",78.80736,135.0625
"2610",78.83177,135.07568
"2611",78.856186,135.08887
"2612",78.87572,135.10205
"2613",78.89769,135.11523
"2614",78.91722,135.12842
"2615",78.93187,135.1416
"2616",78.93675,135.15479
"2617",78.93919,135.16797
"2618",78.93675,135.18115
"2619",78.93675,135.19434
"2620",78.96605,135.20752
"2621",79.06615,135.2207
"2622",79.29809,135.23389
"2623",79.69848,135.24707
"2624",80.26978,135.26025
"2625",80.96071,135.27344
"2626",81.6907,135.28662
"2627",82.34501,135.2998
"2628",82.83574,135.31299
"2629",83.11406,135.32617
"2630",83.175095,135.33936
"2631",83.04814,135.35254
"2632",82.78691,135.36572
"2633",82.44511,135.3789
"2634",82.07156,135.39209
"2635",81.70779,135.40527
"2636",81.37087,135.41846
"2637",81.075455,135.43164
"2638",80.81911,135.44482
"2639",80.59449,135.45801
"2640",80.39918,135.47119
"2641",80.22583,135.48438
"2642",80.076904,135.49756
"2643",79.957275,135.51074
"2644",79.86694,135.52393
"2645",79.815674,135.53711
"2646",79.798584,135.5503
"2647",79.818115,135.56348
"2648",79.85962,135.57666
"2649",79.91821,135.58984
"2650",79.971924,135.60303
"2651",80.008545,135.61621
"2652",80.01343,135.6294
"2653",79.98657,135.64258
"2654",79.93042,135.65576
"2655",79.852295,135.66895
"2656",79.75952,135.68213
"2657",79.65942,135.69531
"2658",79.55688,135.7085
"2659",79.45678,135.72168
"2660",79.361565,135.73486
"2661",79.276115,135.74805
"2662",79.20775,135.76123
"2663",79.15404,135.77441
"2664",79.10277,135.7876
"2665",79.061264,135.80078
"2666",79.02464,135.81396
"2667",78.98558,135.82715
"2668",78.94896,135.84033
"2669",78.922104,135.85352
"2670",78.907455,135.8667
"2671",78.90257,135.87988
"2672",78.907455,135.89307
"2673",78.91722,135.90625
"2674",78.92699,135.91943
"2675",78.93431,135.93262
"2676",78.941635,135.9458
"2677",78.94408,135.95898
"2678",78.9514,135.97217
"2679",78.96117,135.98535
"2680",78.975815,135.99854
"2681",79.00511,136.01172
"2682",79.09056,136.0249
"2683",79.281,136.03809
"2684",79.622795,136.05127
"2685",80.12573,136.06445
"2686",80.75807,136.07764
"2687",81.43679,136.09082
"2688",82.06424,136.104
"2689",82.55009,136.11719
"2690",82.83818,136.13037
"2691",82.92607,136.14355
"2692",82.8333,136.15674
"2693",82.598915,136.16992
"2694",82.27665,136.1831
"2695",81.91531,136.19629
"2696",81.54421,136.20947
"2697",81.197525,136.22266
"2698",80.8777,136.23584
"2699",80.59937,136.24902
"2700",80.35279,136.2622
"2701",80.14038,136.27539
"2702",79.95972,136.28857
"2703",79.818115,136.30176
"2704",79.71557,136.31494
"2705",79.6643,136.32812
"2706",79.65942,136.34131
"2707",79.693596,136.35449
"2708",79.764404,136.36768
"2709",79.85718,136.38086
"2710",79.95239,136.39404
"2711",80.03296,136.40723
"2712",80.08667,136.42041
"2713",80.10864,136.4336
"2714",80.093994,136.44678
"2715",80.042725,136.45996
"2716",79.971924,136.47314
"2717",79.88403,136.48633
"2718",79.78882,136.49951
"2719",79.68627,136.5127
"2720",79.59106,136.52588
"2721",79.50561,136.53906
"2722",79.42748,136.55225
"2723",79.35912,136.56543
"2724",79.310295,136.57861
"2725",79.26635,136.5918
"2726",79.234604,136.60498
"2727",79.20775,136.61816
"2728",79.185776,136.63135
"2729",79.1638,136.64453
"2730",79.149155,136.65771
"2731",79.13695,136.6709
"2732",79.12718,136.68408
"2733",79.11742,136.69727
"2734",79.11009,136.71045
"2735",79.16136,136.73682
"2736",79.30297,136.75
"2737",79.588615,136.76318
"2738",80.04028,136.77637
"2739",80.64088,136.78955
"2740",81.33425,136.80273
"2741",82.020294,136.81592
"2742",82.60136,136.8291
"2743",83.00908,136.84229
"2744",83.209274,136.85547
"2745",83.211716,136.86865
"2746",83.05058,136.88184
"2747",82.77226,136.89502
"2748",82.42802,136.9082
"2749",82.05936,136.92139
"2750",81.69802,136.93457
"2751",81.36843,136.94775
"2752",81.077896,136.96094
"2753",80.81911,136.97412
"2754",80.59205,136.9873
"2755",80.38941,137.00049
"2756",80.21118,137.01367
"2757",80.0647,137.02686
"2758",79.95972,137.04004
"2759",79.89868,137.05322
"2760",79.886475,137.0664
"2761",79.920654,137.07959
"2762",79.98657,137.09277
"2763",80.0647,137.10596
"2764",80.13794,137.11914
"2765",80.18677,137.13232
"2766",80.20386,137.14551
"2767",80.177,137.15869
"2768",80.11597,137.17188
"2769",80.028076,137.18506
"2770",79.923096,137.19824
"2771",79.81079,137.21143
"2772",79.70092,137.22461
"2773",79.5935,137.2378
"2774",79.500725,137.25098
"2775",79.412834,137.26416
"2776",79.33715,137.27734
"2777",79.26635,137.29053
"2778",79.20531,137.30371
"2779",79.15648,137.3169
"2780",79.11009,137.33008
"2781",79.07591,137.34326
"2782",79.044174,137.35645
"2783",79.012436,137.36963
"2784",78.97826,137.38281
"2785",78.9514,137.396
"2786",78.95384,137.40918
"2787",79.03929,137.42236
"2788",79.26147,137.43555
"2789",79.65453,137.44873
"2790",80.22339,137.46191
"2791",80.91676,137.4751
"2792",81.651634,137.48828
"2793",82.32548,137.50146
"2794",82.847946,137.51465
"2795",83.16777,137.52783
"2796",83.27764,137.54102
"2797",83.19951,137.5542
"2798",82.97734,137.56738
"2799",82.66483,137.58057
"2800",82.31327,137.59375
"2801",81.9617,137.60693
"2802",81.636986,137.62012
"2803",81.3489,137.6333
"2804",81.09743,137.64648
"2805",80.8777,137.65967
"2806",80.67994,137.67285
"2807",80.50172,137.68604
"2808",80.34791,137.69922
"2809",80.218506,137.7124
"2810",80.12329,137.72559
"2811",80.06958,137.73877
"2812",80.05249,137.75195
"2813",80.07202,137.76514
"2814",80.12329,137.77832
"2815",80.18921,137.7915
"2816",80.24536,137.80469
"2817",80.28199,137.81787
"2818",80.289314,137.83105
"2819",80.26002,137.84424
"2820",80.201416,137.85742
"2821",80.12573,137.8706
"2822",80.03784,137.88379
"2823",79.940186,137.89697
"2824",79.835205,137.91016
"2825",79.727776,137.92334
"2826",79.62035,137.93652
"2827",79.517815,137.9497
"2828",79.42504,137.96289
"2829",79.34203,137.97607
"2830",79.26147,137.98926
"2831",79.18822,138.00244
"2832",79.11986,138.01562
"2833",79.05394,138.02881
"2834",78.992905,138.04199
"2835",78.941635,138.05518
"2836",78.91478,138.06836
"2837",78.95384,138.08154
"2838",79.10765,138.09473
"2839",79.42504,138.10791
"2840",79.91821,138.1211
"2841",80.55787,138.13428
"2842",81.27322,138.14746
"2843",81.9617,138.16064
"2844",82.533,138.17383
"2845",82.92607,138.18701
"2846",83.1165,138.2002
"2847",83.11894,138.21338
"2848",82.9749,138.22656
"2849",82.735634,138.23975
"2850",82.44999,138.25293
"2851",82.15701,138.26611
"2852",81.88602,138.2793
"2853",81.64431,138.29248
"2854",81.427025,138.30566
"2855",81.22926,138.31885
"2856",81.03639,138.33203
"2857",80.83864,138.34521
"2858",80.635994,138.3584
"2859",80.44068,138.37158
"2860",80.26246,138.38477
"2861",80.11597,138.39795
"2862",80.008545,138.41113
"2863",79.94507,138.42432
"2864",79.92798,138.4375
"2865",79.94507,138.45068
"2866",79.98169,138.46387
"2867",80.01099,138.47705
"2868",80.01343,138.49023
"2869",79.96948,138.50342
"2870",79.87427,138.5166
"2871",79.742424,138.52979
"2872",79.59106,138.54297
"2873",79.43725,138.55615
"2874",79.290764,138.56934
"2875",79.15892,138.58252
"2876",79.04173,138.5957
"2877",78.93431,138.60889
"2878",78.839096,138.62207
"2879",78.751205,138.63525
"2880",78.66575,138.64844
"2881",78.58274,138.66162
"2882",78.50706,138.6748
"2883",78.44114,138.68799
"2884",78.39231,138.70117
"2885",78.36057,138.71436
"2886",78.34104,138.72754
"2887",78.345924,138.74072
"2888",78.40696,138.7539
"2889",78.5803,138.76709
"2890",78.907455,138.78027
"2891",79.415276,138.79346
"2892",80.07446,138.80664
"2893",80.82155,138.81982
"2894",81.55642,138.83301
"2895",82.18387,138.84619
"2896",82.633095,138.85938
"2897",82.879684,138.87256
"2898",82.93584,138.88574
"2899",82.83818,138.89893
"2900",82.63065,138.91211
"2901",82.374306,138.9253
"2902",82.108185,138.93848
"2903",81.85916,138.95166
"2904",81.63943,138.96484
"2905",81.44167,138.97803
"2906",81.253685,138.99121
"2907",81.06081,139.0044
"2908",80.85329,139.01758
"2909",80.63111,139.03076
"2910",80.39918,139.04395
"2911",80.181885,139.05713
"2912",79.9939,139.07031
"2913",79.84741,139.0835
"2914",79.75464,139.09668
"2915",79.708244,139.10986
"2916",79.69848,139.12305
"2917",79.7058,139.13623
"2918",79.71313,139.14941
"2919",79.69848,139.1626
"2920",79.66186,139.17578
"2921",79.59594,139.18896
"2922",79.51049,139.20215
"2923",79.40063,139.21533
"2924",79.27856,139.22852
"2925",79.14671,139.2417
"2926",79.00511,139.25488
"2927",78.86107,139.26807
"2928",78.72678,139.28125
"2929",78.59983,139.29443
"2930",78.485085,139.30762
"2931",78.38743,139.3208
"2932",78.30198,139.33398
"2933",78.23361,139.34717
"2934",78.1799,139.36035
"2935",78.14328,139.37354
"2936",78.118866,139.38672
"2937",78.09689,139.3999
"2938",78.07248,139.41309
"2939",78.05051,139.42627
"2940",78.02365,139.43945
"2941",77.99924,139.45264
"2942",77.98947,139.46582
"2943",78.011444,139.479
"2944",78.09445,139.49219
"2945",78.277565,139.50537
"2946",78.60471,139.51855
"2947",79.097885,139.53174
"2948",79.73754,139.54492
"2949",80.462654,139.5581
"2950",81.18288,139.57129
"2951",81.80545,139.58447
"2952",82.252235,139.59766
"2953",82.496376,139.61084
"2954",82.55009,139.62402
"2955",82.45487,139.6372
"2956",82.26444,139.65039
"2957",82.03006,139.66357
"2958",81.7908,139.67676
"2959",81.57107,139.68994
"2960",81.38064,139.70312
"2961",81.20973,139.71631
"2962",81.04616,139.72949
"2963",80.87282,139.74268
"2964",80.68238,139.75586
"2965",80.46998,139.76904
"2966",80.24536,139.78223
"2967",80.025635,139.79541
"2968",79.823,139.8086
"2969",79.65453,139.82178
"2970",79.534904,139.83496
"2971",79.4641,139.84814
"2972",79.43725,139.86133
"2973",79.4519,139.87451
"2974",79.48119,139.8877
"2975",79.50317,139.90088
"2976",79.50317,139.91406
"2977",79.466545,139.92725
"2978",79.395744,139.94043
"2979",79.30053,139.95361
"2980",79.185776,139.9668
"2981",79.06615,139.97998
"2982",78.9514,139.99316
"2983",78.839096,140.00635
"2984",78.73411,140.01953
"2985",78.63889,140.03271
"2986",78.555885,140.0459
"2987",78.47532,140.05908
"2988",78.40696,140.07227
"2989",78.345924,140.08545
"2990",78.294655,140.09863
"2991",78.25315,140.11182
"2992",78.22385,140.125
"2993",78.20187,140.13818
"2994",78.187225,140.15137
"2995",78.17746,140.16455
"2996",78.17502,140.17773
"2997",78.17502,140.19092
"2998",78.17746,140.2041
"2999",78.187225,140.21729
"3000",78.19699,140.23047
"3001",78.2092,140.24365
"3002",78.22385,140.25684
"3003",78.238495,140.27002
"3004",78.25071,140.2832
"3005",78.2678,140.29639
"3006",78.28245,140.30957
"3007",78.29221,140.32275
"3008",78.2971,140.33594
"3009",78.2971,140.34912
"3010",78.28733,140.3623
"3011",78.27512,140.37549
"3012",78.27268,140.38867
"3013",78.311745,140.40186
"3014",78.44602,140.41504
"3015",78.73167,140.42822
"3016",79.19798,140.4414
"3017",79.84009,140.45459
"3018",80.601814,140.46777
"3019",81.38308,140.48096
"3020",82.06668,140.49414
"3021",82.57206,140.50732
"3022",82.85527,140.52051
"3023",82.92363,140.53369
"3024",82.82353,140.54688
"3025",82.61112,140.56006
"3026",82.34745,140.57324
"3027",82.08377,140.58643
"3028",81.84451,140.59961
"3029",81.64187,140.6128
"3030",81.47097,140.62598
"3031",81.31716,140.63916
"3032",81.16579,140.65234
"3033",80.99977,140.66553
"3034",80.81178,140.67871
"3035",80.604256,140.6919
"3036",80.38697,140.70508
"3037",80.17944,140.71826
"3038",80.00366,140.73145
"3039",79.871826,140.74463
"3040",79.79126,140.75781
"3041",79.75464,140.771
"3042",79.744865,140.78418
"3043",79.74731,140.79736
"3044",79.73998,140.81055
"3045",79.71557,140.82373
"3046",79.66918,140.83691
"3047",79.59838,140.8501
"3048",79.51049,140.86328
"3049",79.40795,140.87646
"3050",79.29565,140.88965
"3051",79.17845,140.90283
"3052",79.07103,140.91602
"3053",78.97093,140.9292
"3054",78.887924,140.94238
"3055",78.81468,140.95557
"3056",78.75365,140.96875
"3057",78.70237,140.98193
"3058",78.658424,140.99512
"3059",78.61936,141.0083
"3060",78.58762,141.02148
"3061",78.56565,141.03467
"3062",78.551,141.04785
"3063",78.536354,141.06104
"3064",78.52659,141.07422
"3065",78.51682,141.0874
"3066",78.504616,141.10059
"3067",78.49485,141.11377
"3068",78.48997,141.12695
"3069",78.49241,141.14014
"3070",78.49729,141.15332
"3071",78.50706,141.1665
"3072",78.519264,141.17969
"3073",78.53147,141.19287
"3074",78.54368,141.20605
"3075",78.555885,141.21924
"3076",78.56565,141.23242
"3077",78.572975,141.2456
"3078",78.57786,141.25879
"3079",78.58274,141.27197
"3080",78.58762,141.28516
"3081",78.59251,141.29834
"3082",78.59983,141.31152
"3083",78.61204,141.3247
"3084",78.6511,141.33789
"3085",78.75365,141.35107
"3086",78.97826,141.36426
"3087",79.37133,141.37744
"3088",79.937744,141.39062
"3089",80.635994,141.40381
"3090",81.38064,141.41699
"3091",82.0618,141.43018
"3092",82.581825,141.44336
"3093",82.89189,141.45654
"3094",82.984665,141.46973
"3095",82.89189,141.48291
"3096",82.667274,141.4961
"3097",82.36698,141.50928
"3098",82.04471,141.52246
"3099",81.73464,141.53564
"3100",81.46609,141.54883
"3101",81.24147,141.56201
"3102",81.058365,141.5752
"3103",80.902115,141.58838
"3104",80.75319,141.60156
"3105",80.59937,141.61475
"3106",80.43824,141.62793
"3107",80.26734,141.64111
"3108",80.10864,141.6543
"3109",79.974365,141.66748
"3110",79.88159,141.68066
"3111",79.82788,141.69385
"3112",79.81079,141.70703
"3113",79.818115,141.72021
"3114",79.83032,141.7334
"3115",79.83765,141.74658
"3116",79.83032,141.75977
"3117",79.80347,141.77295
"3118",79.75464,141.78613
"3119",79.68627,141.79932
"3120",79.603264,141.8125
"3121",79.51293,141.82568
"3122",79.42016,141.83887
"3123",79.33227,141.85205
"3124",79.24925,141.86523
"3125",79.17601,141.87842
"3126",79.10521,141.8916
"3127",79.044174,141.90479
"3128",78.992905,141.91797
"3129",78.94896,141.93115
"3130",78.9099,141.94434
"3131",78.8806,141.95752
"3132",78.86107,141.9707
"3133",78.84154,141.98389
"3134",78.82933,141.99707
"3135",78.82445,142.01025
"3136",78.82689,142.02344
"3137",78.83421,142.03662
"3138",78.84642,142.0498
"3139",78.86107,142.06299
"3140",78.873276,142.07617
"3141",78.88548,142.08936
"3142",78.89525,142.10254
"3143",78.905014,142.11572
"3144",78.91478,142.1289
"3145",78.924545,142.14209
"3146",78.93187,142.15527
"3147",78.94408,142.16846
"3148",78.975815,142.18164
"3149",79.06859,142.19482
"3150",79.27123,142.20801
"3151",79.622795,142.22119
"3152",80.128174,142.23438
"3153",80.74586,142.24756
"3154",81.392845,142.26074
"3155",81.97391,142.27393
"3156",82.406044,142.28711
"3157",82.63798,142.3003
"3158",82.6746,142.31348
"3159",82.545204,142.32666
"3160",82.30106,142.33984
"3161",81.986115,142.35303
"3162",81.651634,142.36621
"3163",81.32693,142.3794
"3164",81.03883,142.39258
"3165",80.78981,142.40576
"3166",80.57984,142.41895
"3167",80.39918,142.43213
"3168",80.235596,142.44531
"3169",80.079346,142.4585
"3170",79.93286,142.47168
"3171",79.80347,142.48486
"3172",79.710686,142.49805
"3173",79.65942,142.51123
"3174",79.65209,142.52441
"3175",79.68383,142.5376
"3176",79.742424,142.55078
"3177",79.81079,142.56396
"3178",79.871826,142.57715
"3179",79.91089,142.59033
"3180",79.91821,142.60352
"3181",79.8938,142.6167
"3182",79.84009,142.62988
"3183",79.76929,142.64307
"3184",79.68139,142.65625
"3185",79.5935,142.66943
"3186",79.50317,142.68262
"3187",79.41772,142.6958
"3188",79.344475,142.70898
"3189",79.27856,142.72217
"3190",79.22484,142.73535
"3191",79.18089,142.74854
"3192",79.14427,142.76172
"3193",79.114975,142.7749
"3194",79.093,142.78809
"3195",79.078354,142.80127
"3196",79.06615,142.81445
"3197",79.063705,142.82764
"3198",79.063705,142.84082
"3199",79.06859,142.854
"3200",79.07347,142.86719
"3201",79.080795,142.88037
"3202",79.09056,142.89355
"3203",79.09544,142.90674
"3204",79.10277,142.91992
"3205",79.1223,142.9331
"3206",79.18089,142.94629
"3207",79.31518,142.95947
"3208",79.57885,142.97266
"3209",79.991455,142.98584
"3210",80.54078,142.99902
"3211",81.16823,143.0122
"3212",81.78592,143.02539
"3213",82.29862,143.03857
"3214",82.63065,143.05176
"3215",82.7625,143.06494
"3216",82.703896,143.07812
"3217",82.49882,143.09131
"3218",82.19852,143.10449
"3219",81.85672,143.11768
"3220",81.5198,143.13086
"3221",81.20729,143.14404
"3222",80.936295,143.15723
"3223",80.70435,143.17041
"3224",80.499275,143.1836
"3225",80.31617,143.19678
"3226",80.15259,143.20996
"3227",80.0061,143.22314
"3228",79.87671,143.23633
"3229",79.77905,143.24951
"3230",79.71557,143.2627
"3231",79.68871,143.27588
"3232",79.69848,143.28906
"3233",79.73754,143.30225
"3234",79.7937,143.31543
"3235",79.852295,143.32861
"3236",79.8938,143.3418
"3237",79.90845,143.35498
"3238",79.89868,143.36816
"3239",79.85718,143.38135
"3240",79.79126,143.39453
"3241",79.708244,143.40771
"3242",79.62524,143.4209
"3243",79.54223,143.43408
"3244",79.46166,143.44727
"3245",79.38598,143.46045
"3246",79.32006,143.47363
"3247",79.26879,143.48682
"3248",79.22972,143.5
"3249",79.19554,143.51318
"3250",79.17601,143.52637
"3251",79.15404,143.53955
"3252",79.132065,143.55273
"3253",79.10521,143.56592
"3254",79.080795,143.5791
"3255",79.05394,143.59229
"3256",79.03685,143.60547
"3257",79.029526,143.61865
"3258",79.03197,143.63184
"3259",79.044174,143.64502
"3260",79.07591,143.6582
"3261",79.168686,143.67139
"3262",79.37377,143.68457
"3263",79.73022,143.69775
"3264",80.2478,143.71094
"3265",80.88747,143.72412
"3266",81.5613,143.7373
"3267",82.16678,143.75049
"3268",82.61845,143.76367
"3269",82.865036,143.77686
"3270",82.90654,143.79004
"3271",82.77226,143.80322
"3272",82.50858,143.8164
"3273",82.17166,143.82959
"3274",81.812775,143.84277
"3275",81.47585,143.85596
"3276",81.180435,143.86914
"3277",80.93385,143.88232
"3278",80.73121,143.89551
"3279",80.55787,143.90869
"3280",80.40162,143.92188
"3281",80.255135,143.93506
"3282",80.12085,143.94824
"3283",79.99634,143.96143
"3284",79.89136,143.97461
"3285",79.80835,143.9878
"3286",79.74731,144.00098
"3287",79.71557,144.01416
"3288",79.71557,144.02734
"3289",79.73754,144.04053
"3290",79.77173,144.05371
"3291",79.80591,144.0669
"3292",79.823,144.08008
"3293",79.815674,144.09326
"3294",79.77905,144.10645
"3295",79.72289,144.11963
"3296",79.65209,144.13281
"3297",79.57641,144.146
"3298",79.4934,144.15918
"3299",79.412834,144.17236
"3300",79.32983,144.18555
"3301",79.25414,144.19873
"3302",79.183334,144.21191
"3303",79.12962,144.2251
"3304",79.08568,144.23828
"3305",79.05638,144.25146
"3306",79.03685,144.26465
"3307",79.02464,144.27783
"3308",79.01488,144.29102
"3309",79.00267,144.3042
"3310",78.99046,144.31738
"3311",78.97826,144.33057
"3312",78.96849,144.34375
"3313",78.97337,144.35693
"3314",79.01732,144.37012
"3315",79.14427,144.3833
"3316",79.40551,144.39648
"3317",79.83032,144.40967
"3318",80.413826,144.42285
"3319",81.094986,144.43604
"3320",81.7908,144.44922
"3321",82.391396,144.4624
"3322",82.81865,144.47559
"3323",83.03105,144.48877
"3324",83.035934,144.50195
"3325",82.8748,144.51514
"3326",82.60136,144.52832
"3327",82.266884,144.5415
"3328",81.9202,144.55469
"3329",81.59304,144.56787
"3330",81.30007,144.58105
"3331",81.04372,144.59424
"3332",80.831314,144.60742
"3333",80.6482,144.6206
"3334",80.48463,144.63379
"3335",80.33082,144.64697
"3336",80.177,144.66016
"3337",80.025635,144.67334
"3338",79.888916,144.68652
"3339",79.77417,144.6997
"3340",79.691154,144.71289
"3341",79.64233,144.72607
"3342",79.622795,144.73926
"3343",79.62768,144.75244
"3344",79.64477,144.76562
"3345",79.6643,144.77881
"3346",79.674065,144.79199
"3347",79.66674,144.80518
"3348",79.63744,144.81836
"3349",79.58373,144.83154
"3350",79.520256,144.84473
"3351",79.447014,144.85791
"3352",79.37133,144.8711
"3353",79.293205,144.88428
"3354",79.21507,144.89746
"3355",79.14427,144.91064
"3356",79.08324,144.92383
"3357",79.029526,144.93701
"3358",78.9807,144.9502
"3359",78.93919,144.96338
"3360",78.90257,144.97656
"3361",78.86839,144.98975
"3362",78.839096,145.00293
"3363",78.819565,145.01611
"3364",78.80736,145.0293
"3365",78.79515,145.04248
"3366",78.785385,145.05566
"3367",78.77806,145.06885
"3368",78.78294,145.08203
"3369",78.8098,145.09521
"3370",78.90257,145.1084
"3371",79.1223,145.12158
"3372",79.50805,145.13477
"3373",80.06714,145.14795
"3374",80.765396,145.16113
"3375",81.514915,145.17432
"3376",82.2034,145.1875
"3377",82.735634,145.20068
"3378",83.053024,145.21387
"3379",83.15068,145.22705
"3380",83.055466,145.24023
"3381",82.81865,145.25342
"3382",82.50126,145.2666
"3383",82.15213,145.27979
"3384",81.80789,145.29297
"3385",81.497826,145.30615
"3386",81.22926,145.31934
"3387",80.99977,145.33252
"3388",80.8069,145.3457
"3389",80.64088,145.35889
"3390",80.48463,145.37207
"3391",80.32838,145.38525
"3392",80.177,145.39844
"3393",80.03052,145.41162
"3394",79.89868,145.4248
"3395",79.79126,145.43799
"3396",79.71557,145.45117
"3397",79.66918,145.46436
"3398",79.65209,145.47754
"3399",79.65453,145.49072
"3400",79.6643,145.5039
"3401",79.674065,145.51709
"3402",79.66918,145.53027
"3403",79.64965,145.54346
"3404",79.61303,145.55664
"3405",79.56176,145.56982
"3406",79.500725,145.58301
"3407",79.42504,145.59619
"3408",79.344475,145.60938
"3409",79.259026,145.62256
"3410",79.17601,145.63574
"3411",79.097885,145.64893
"3412",79.03685,145.66211
"3413",78.98802,145.6753
"3414",78.94652,145.68848
"3415",78.907455,145.70166
"3416",78.870834,145.71484
"3417",78.84154,145.72803
"3418",78.81468,145.74121
"3419",78.79515,145.7544
"3420",78.78294,145.76758
"3421",78.77806,145.78076
"3422",78.77074,145.79395
"3423",78.75853,145.80713
"3424",78.75365,145.82031
"3425",78.77318,145.8335
"3426",78.86595,145.84668
"3427",79.09056,145.85986
"3428",79.49584,145.87305
"3429",80.079346,145.88623
"3430",80.80202,145.89941
"3431",81.56863,145.9126
"3432",82.26444,145.92578
"3433",82.78691,145.93896
"3434",83.08476,145.95215
"3435",83.158005,145.96533
"3436",83.04082,145.97852
"3437",82.78203,145.9917
"3438",82.44511,146.00488
"3439",82.08133,146.01807
"3440",81.72732,146.03125
"3441",81.40505,146.04443
"3442",81.13161,146.05762
"3443",80.90456,146.0708
"3444",80.71412,146.08398
"3445",80.54078,146.09717
"3446",80.37476,146.11035
"3447",80.2063,146.12354
"3448",80.03296,146.13672
"3449",79.869385,146.1499
"3450",79.73022,146.16309
"3451",79.62524,146.17627
"3452",79.56176,146.18945
"3453",79.534904,146.20264
"3454",79.54223,146.21582
"3455",79.56664,146.229
"3456",79.59106,146.24219
"3457",79.603264,146.25537
"3458",79.60082,146.26855
"3459",79.57641,146.28174
"3460",79.53246,146.29492
"3461",79.46899,146.3081
"3462",79.39086,146.32129
"3463",79.30541,146.33447
"3464",79.21507,146.34766
"3465",79.12474,146.36084
"3466",79.03929,146.37402
"3467",78.96117,146.3872
"3468",78.88548,146.40039
"3469",78.82201,146.41357
"3470",78.768295,146.42676
"3471",78.72678,146.43994
"3472",78.692604,146.45312
"3473",78.67063,146.46631
"3474",78.65354,146.47949
"3475",78.63889,146.49268
"3476",78.624245,146.50586
"3477",78.607155,146.51904
"3478",78.59495,146.53223
"3479",78.58518,146.54541
"3480",78.5803,146.5586
"3481",78.58274,146.57178
"3482",78.60227,146.58496
"3483",78.675514,146.59814
"3484",78.856186,146.61133
"3485",79.19798,146.62451
"3486",79.72045,146.6377
"3487",80.40894,146.65088
"3488",81.18532,146.66406
"3489",81.93973,146.67725
"3490",82.564735,146.69043
"3491",82.97978,146.70361
"3492",83.16533,146.7168
"3493",83.13603,146.72998
"3494",82.94072,146.74316
"3495",82.633095,146.75635
"3496",82.27421,146.76953
"3497",81.898224,146.78271
"3498",81.549095,146.7959
"3499",81.23903,146.80908
"3500",80.972916,146.82227
"3501",80.74586,146.83545
"3502",80.54322,146.84863
"3503",80.35767,146.86182
"3504",80.17944,146.875
"3505",80.01343,146.88818
"3506",79.86694,146.90137
"3507",79.75464,146.91455
"3508",79.676506,146.92773
"3509",79.635,146.94092
"3510",79.62768,146.9541
"3511",79.639885,146.96729
"3512",79.66186,146.98047
"3513",79.68383,146.99365
"3514",79.691154,147.00684
"3515",79.67895,147.02002
"3516",79.64721,147.0332
"3517",79.59838,147.04639
"3518",79.53979,147.05957
"3519",79.47387,147.07275
"3520",79.40307,147.08594
"3521",79.327385,147.09912
"3522",79.23949,147.1123
"3523",79.149155,147.12549
"3524",79.05882,147.13867
"3525",78.97337,147.15186
"3526",78.89769,147.16504
"3527",78.836655,147.17822
"3528",78.78783,147.1914
"3529",78.751205,147.20459
"3530",78.7219,147.21777
"3531",78.69749,147.23096
"3532",78.677956,147.24414
"3533",78.66331,147.25732
"3534",78.6511,147.27051
"3535",78.63889,147.28369
"3536",78.624245,147.29688
"3537",78.6096,147.31006
"3538",78.59739,147.32324
"3539",78.61204,147.33643
"3540",78.70237,147.34961
"3541",78.92943,147.3628
"3542",79.344475,147.37598
"3543",79.94751,147.38916
"3544",80.69459,147.40234
"3545",81.4905,147.41553
"3546",82.21805,147.42871
"3547",82.77226,147.4419
"3548",83.09453,147.45508
"3549",83.18242,147.46826
"3550",83.072556,147.48145
"3551",82.80888,147.49463
"3552",82.459755,147.50781
"3553",82.074005,147.521
"3554",81.69314,147.53418
"3555",81.341576,147.54736
"3556",81.03151,147.56055
"3557",80.762955,147.57373
"3558",80.533455,147.58691
"3559",80.32105,147.6001
"3560",80.128174,147.61328
"3561",79.954834,147.62646
"3562",79.80591,147.63965
"3563",79.68383,147.65283
"3564",79.605705,147.66602
"3565",79.569084,147.6792
"3566",79.56664,147.69238
"3567",79.58129,147.70557
"3568",79.61303,147.71875
"3569",79.64233,147.73193
"3570",79.66186,147.74512
"3571",79.6643,147.7583
"3572",79.64965,147.77148
"3573",79.61059,147.78467
"3574",79.54955,147.79785
"3575",79.47143,147.81104
"3576",79.381096,147.82422
"3577",79.28588,147.8374
"3578",79.19066,147.85059
"3579",79.10033,147.86377
"3580",79.0222,147.87695
"3581",78.95384,147.89014
"3582",78.89769,147.90332
"3583",78.84398,147.9165
"3584",78.79515,147.92969
"3585",78.746315,147.94287
"3586",78.70481,147.95605
"3587",78.67307,147.96924
"3588",78.64866,147.98242
"3589",78.63401,147.9956
"3590",78.6218,148.00879
"3591",78.6096,148.02197
"3592",78.59495,148.03516
"3593",78.58274,148.04834
"3594",78.5803,148.06152
"3595",78.624245,148.0747
"3596",78.77074,148.08789
"3597",79.07347,148.10107
"3598",79.56664,148.11426
"3599",80.235596,148.12744
"3600",81.01442,148.14062
"3601",81.79813,148.15381
"3602",82.47196,148.16699
"3603",82.95293,148.18018
"3604",83.20439,148.19336
"3605",83.23125,148.20654
"3606",83.075,148.21973
"3607",82.78935,148.23291
"3608",82.42802,148.2461
"3609",82.039825,148.25928
"3610",81.65896,148.27246
"3611",81.307396,148.28564
"3612",80.99245,148.29883
"3613",80.71168,148.31201
"3614",80.46021,148.3252
"3615",80.233154,148.33838
"3616",80.028076,148.35156
"3617",79.84741,148.36475
"3618",79.70092,148.37793
"3619",79.60082,148.39111
"3620",79.54711,148.4043
"3621",79.534904,148.41748
"3622",79.56176,148.43066
"3623",79.61059,148.44385
"3624",79.66674,148.45703
"3625",79.71801,148.47021
"3626",79.7522,148.4834
"3627",79.75708,148.49658
"3628",79.73266,148.50977
"3629",79.68139,148.52295
"3630",79.605705,148.53613
"3631",79.51537,148.54932
"3632",79.42016,148.5625
"3633",79.3225,148.57568
"3634",79.23216,148.58887
"3635",79.14427,148.60205
"3636",79.061264,148.61523
"3637",78.98558,148.62842
"3638",78.922104,148.6416
"3639",78.86595,148.65479
"3640",78.81468,148.66797
"3641",78.77318,148.68115
"3642",78.73899,148.69434
"3643",78.70725,148.70752
"3644",78.68284,148.7207
"3645",78.66575,148.73389
"3646",78.65598,148.74707
"3647",78.65354,148.76025
"3648",78.68284,148.77344
"3649",78.78783,148.78662
"3650",79.027084,148.7998
"3651",79.447014,148.81299
"3652",80.04761,148.82617
"3653",80.782486,148.83936
"3654",81.5613,148.85254
"3655",82.269325,148.86572
"3656",82.80888,148.8789
"3657",83.12871,148.89209
"3658",83.22148,148.90527
"3659",83.1165,148.91846
"3660",82.862595,148.93164
"3661",82.51591,148.94482
"3662",82.13016,148.95801
"3663",81.74197,148.97119
"3664",81.3782,148.98438
"3665",81.0486,148.99756
"3666",80.75563,149.01074
"3667",80.48707,149.02393
"3668",80.24292,149.03711
"3669",80.02319,149.0503
"3670",79.82788,149.06348
"3671",79.674065,149.07666
"3672",79.56664,149.08984
"3673",79.51293,149.10303
"3674",79.50561,149.11621
"3675",79.534904,149.1294
"3676",79.57885,149.14258
"3677",79.62524,149.15576
"3678",79.65942,149.16895
"3679",79.67162,149.18213
"3680",79.656975,149.19531
"3681",79.61791,149.2085
"3682",79.554436,149.22168
"3683",79.46899,149.23486
"3684",79.37133,149.24805
"3685",79.26635,149.26123
"3686",79.16136,149.27441
"3687",79.05394,149.2876
"3688",78.95628,149.30078
"3689",78.870834,149.31396
"3690",78.79515,149.32715
"3691",78.73655,149.34033
"3692",78.68772,149.35352
"3693",78.64866,149.3667
"3694",78.61448,149.37988
"3695",78.58518,149.39307
"3696",78.55833,149.40625
"3697",78.53391,149.41943
"3698",78.51438,149.43262
"3699",78.49973,149.4458
"3700",78.51194,149.45898
"3701",78.59251,149.47217
"3702",78.79759,149.48535
"3703",79.17601,149.49854
"3704",79.742424,149.51172
"3705",80.465096,149.5249
"3706",81.253685,149.53809
"3707",81.99832,149.55127
"3708",82.59403,149.56445
"3709",82.9749,149.57764
"3710",83.123825,149.59082
"3711",83.06767,149.604
"3712",82.85283,149.61719
"3713",82.53788,149.63037
"3714",82.16434,149.64355
"3715",81.77615,149.65674
"3716",81.39773,149.66992
"3717",81.04616,149.6831
"3718",80.72877,149.69629
"3719",80.44312,149.70947
"3720",80.19653,149.72266
"3721",79.97681,149.73584
"3722",79.79126,149.74902
"3723",79.65209,149.7622
"3724",79.5642,149.77539
"3725",79.52758,149.78857
"3726",79.53979,149.80176
"3727",79.59106,149.81494
"3728",79.66186,149.82812
"3729",79.744865,149.84131
"3730",79.81323,149.85449
"3731",79.85718,149.86768
"3732",79.871826,149.88086
"3733",79.85474,149.89404
"3734",79.80347,149.90723
"3735",79.72289,149.92041
"3736",79.63012,149.9336
"3737",79.52514,149.94678
"3738",79.41772,149.95996
"3739",79.31518,149.97314
"3740",79.2224,149.98633
"3741",79.13939,149.99951
"3742",79.06615,150.0127
"3743",79.00267,150.02588
"3744",78.94652,150.03906
"3745",78.89769,150.05225
"3746",78.8513,150.06543
"3747",78.8098,150.07861
"3748",78.77074,150.0918
"3749",78.73655,150.10498
"3750",78.72678,150.11816
"3751",78.7805,150.13135
"3752",78.95628,150.14453
"3753",79.29565,150.15771
"3754",79.82056,150.1709
"3755",80.49683,150.18408
"3756",81.248795,150.19727
"3757",81.96414,150.21045
"3758",82.54276,150.22363
"3759",82.916306,150.23682
"3760",83.06279,150.25
"3761",82.99931,150.26318
"3762",82.76982,150.27637
"3763",82.44022,150.28955
"3764",82.054474,150.30273
"3765",81.65896,150.31592
"3766",81.28298,150.3291
"3767",80.94118,150.34229
"3768",80.62867,150.35547
"3769",80.34791,150.36865
"3770",80.096436,150.38184
"3771",79.88403,150.39502
"3772",79.708244,150.4082
"3773",79.58373,150.42139
"3774",79.520256,150.43457
"3775",79.51293,150.44775
"3776",79.554436,150.46094
"3777",79.635,150.47412
"3778",79.73266,150.4873
"3779",79.82788,150.50049
"3780",79.89624,150.51367
"3781",79.92554,150.52686
"3782",79.91333,150.54004
"3783",79.85962,150.55322
"3784",79.77661,150.5664
"3785",79.674065,150.57959
"3786",79.5642,150.59277
"3787",79.45434,150.60596
"3788",79.34936,150.61914
"3789",79.24925,150.63232
"3790",79.16136,150.64551
"3791",79.080795,150.65869
"3792",79.01488,150.67188
"3793",78.95384,150.68506
"3794",78.89769,150.69824
"3795",78.84642,150.71143
"3796",78.802475,150.72461
"3797",78.76097,150.7378
"3798",78.73655,150.75098
"3799",78.746315,150.76416
"3800",78.836655,150.77734
"3801",79.061264,150.79053
"3802",79.46166,150.80371
"3803",80.04028,150.8169
"3804",80.75807,150.83008
"3805",81.52468,150.84326
"3806",82.22781,150.85645
"3807",82.774704,150.86963
"3808",83.104294,150.88281
"3809",83.211716,150.896
"3810",83.11894,150.90918
"3811",82.87724,150.92236
"3812",82.547646,150.93555
"3813",82.18631,150.94873
"3814",81.82742,150.96191
"3815",81.49294,150.9751
"3816",81.1902,150.98828
"3817",80.90944,151.00146
"3818",80.65308,151.01465
"3819",80.413826,151.02783
"3820",80.201416,151.04102
"3821",80.02075,151.0542
"3822",79.87915,151.06738
"3823",79.79126,151.08057
"3824",79.75464,151.09375
"3825",79.76196,151.10693
"3826",79.801025,151.12012
"3827",79.85962,151.1333
"3828",79.91577,151.14648
"3829",79.95239,151.15967
"3830",79.96216,151.17285
"3831",79.940186,151.18604
"3832",79.886475,151.19922
"3833",79.80347,151.2124
"3834",79.7058,151.22559
"3835",79.5935,151.23877
"3836",79.47387,151.25195
"3837",79.35668,151.26514
"3838",79.24681,151.27832
"3839",79.14671,151.2915
"3840",79.05394,151.30469
"3841",78.97337,151.31787
"3842",78.89769,151.33105
"3843",78.83177,151.34424
"3844",78.77318,151.35742
"3845",78.71946,151.3706
"3846",78.675514,151.38379
"3847",78.64622,151.39697
"3848",78.65354,151.41016
"3849",78.74876,151.42334
"3850",78.99046,151.43652
"3851",79.4226,151.4497
"3852",80.042725,151.46289
"3853",80.797134,151.47607
"3854",81.600365,151.48926
"3855",82.3328,151.50244
"3856",82.899216,151.51562
"3857",83.23857,151.52881
"3858",83.35577,151.54199
"3859",83.2752,151.55518
"3860",83.055466,151.56836
"3861",82.760056,151.58154
"3862",82.43778,151.59473
"3863",82.11795,151.60791
"3864",81.82498,151.6211
"3865",81.55886,151.63428
"3866",81.31228,151.64746
"3867",81.075455,151.66064
"3868",80.84352,151.67383
"3869",80.61646,151.68701
"3870",80.39918,151.7002
"3871",80.201416,151.71338
"3872",80.04028,151.72656
"3873",79.92798,151.73975
"3874",79.85962,151.75293
"3875",79.83765,151.76611
"3876",79.84741,151.7793
"3877",79.869385,151.79248
"3878",79.886475,151.80566
"3879",79.886475,151.81885
"3880",79.85962,151.83203
"3881",79.7937,151.84521
"3882",79.693596,151.8584
"3883",79.57397,151.87158
"3884",79.44457,151.88477
"3885",79.30785,151.89795
"3886",79.17845,151.91113
"3887",79.05882,151.92432
"3888",78.95384,151.9375
"3889",78.86107,151.95068
"3890",78.77806,151.96387
"3891",78.70725,151.97705
"3892",78.641335,151.99023
"3893",78.58518,152.00342
"3894",78.52903,152.0166
"3895",78.4802,152.02979
"3896",78.44114,152.04297
"3897",78.41917,152.05615
"3898",78.42405,152.06934
"3899",78.49973,152.08252
"3900",78.70237,152.0957
"3901",79.07591,152.10889
"3902",79.63744,152.12207
"3903",80.35767,152.13525
"3904",81.15602,152.14844
"3905",81.92752,152.16162
"3906",82.56718,152.1748
"3907",83.00664,152.18799
"3908",83.22148,152.20117
"3909",83.23369,152.21436
"3910",83.08232,152.22754
"3911",82.82109,152.24072
"3912",82.511024,152.2539
"3913",82.196075,152.26709
"3914",81.900665,152.28027
"3915",81.634544,152.29346
"3916",81.39529,152.30664
"3917",81.17067,152.31982
"3918",80.9485,152.33301
"3919",80.72144,152.34619
"3920",80.48951,152.35938
"3921",80.26734,152.37256
"3922",80.0647,152.38574
"3923",79.8938,152.39893
"3924",79.76929,152.41211
"3925",79.693596,152.4253
"3926",79.656975,152.43848
"3927",79.64965,152.45166
"3928",79.65453,152.46484
"3929",79.65209,152.47803
"3930",79.63256,152.49121
"3931",79.58373,152.5044
"3932",79.500725,152.51758
"3933",79.38842,152.53076
"3934",79.26147,152.54395
"3935",79.12474,152.55713
"3936",78.98314,152.57031
"3937",78.84886,152.5835
"3938",78.72434,152.59668
"3939",78.60471,152.60986
"3940",78.49729,152.62305
"3941",78.399635,152.63623
"3942",78.314186,152.64941
"3943",78.24582,152.6626
"3944",78.19455,152.67578
"3945",78.16281,152.68896
"3946",78.14328,152.70215
"3947",78.13107,152.71533
"3948",78.12131,152.72852
"3949",78.10666,152.7417
"3950",78.09445,152.75488
"3951",78.082245,152.76807
"3952",78.0798,152.78125
"3953",78.07736,152.79443
"3954",78.082245,152.80762
"3955",78.12375,152.8208
"3956",78.25071,152.83398
"3957",78.521706,152.84717
"3958",78.98558,152.86035
"3959",79.64477,152.87354
"3960",80.44312,152.88672
"3961",81.28298,152.8999
"3962",82.05203,152.91309
"3963",82.650185,152.92627
"3964",83.02861,152.93945
"3965",83.18486,152.95264
"3966",83.14336,152.96582
"3967",82.96269,152.979
"3968",82.69901,152.99219
"3969",82.40116,153.00537
"3970",82.11063,153.01855
"3971",81.849396,153.03174
"3972",81.619896,153.04492
"3973",81.41238,153.0581
"3974",81.214615,153.07129
"3975",81.00954,153.08447
"3976",80.78981,153.09766
"3977",80.55787,153.11084
"3978",80.325935,153.12402
"3979",80.111084,153.1372
"3980",79.92554,153.15039
"3981",79.77905,153.16357
"3982",79.68383,153.17676
"3983",79.63256,153.18994
"3984",79.61303,153.20312
"3985",79.61547,153.21631
"3986",79.622795,153.22949
"3987",79.61547,153.24268
"3988",79.58129,153.25586
"3989",79.51537,153.26904
"3990",79.42016,153.28223
"3991",79.30297,153.29541
"3992",79.168686,153.3086
"3993",79.0222,153.32178
"3994",78.88548,153.33496
"3995",78.75365,153.34814
"3996",78.63157,153.36133
"3997",78.519264,153.37451
"3998",78.42161,153.3877
"3999",78.33372,153.40088
"4000",78.25803,153.41406
"4001",78.19699,153.42725
"4002",78.150604,153.44043
"4003",78.11398,153.45361
"4004",78.082245,153.4668
"4005",78.05051,153.47998
"4006",78.01877,153.49316
"4007",77.994354,153.50635
"4008",77.98215,153.51953
"4009",77.977264,153.53271
"4010",77.98215,153.5459
"4011",77.994354,153.55908
"4012",78.009,153.57227
"4013",78.02365,153.58545
"4014",78.04074,153.59863
"4015",78.06027,153.61182
"4016",78.08469,153.625
"4017",78.10666,153.63818
"4018",78.12619,153.65137
"4019",78.14328,153.66455
"4020",78.153046,153.67773
"4021",78.153046,153.69092
"4022",78.150604,153.7041
"4023",78.167694,153.71729
"4024",78.24094,153.73047
"4025",78.4387,153.74365
"4026",78.81224,153.75684
"4027",79.38598,153.77002
"4028",80.13794,153.7832
"4029",80.990005,153.79639
"4030",81.832306,153.80957
"4031",82.545204,153.82275
"4032",83.04814,153.83594
"4033",83.31426,153.84912
"4034",83.36065,153.8623
"4035",83.228806,153.87549
"4036",82.97978,153.88867
"4037",82.67704,153.90186
"4038",82.36942,153.91504
"4039",82.091095,153.92822
"4040",81.849396,153.9414
"4041",81.64675,153.95459
"4042",81.46853,153.96777
"4043",81.29519,153.98096
"4044",81.10719,153.99414
"4045",80.90456,154.00732
"4046",80.68482,154.02051
"4047",80.465096,154.03369
"4048",80.2649,154.04688
"4049",80.096436,154.06006
"4050",79.97681,154.07324
"4051",79.903564,154.08643
"4052",79.86694,154.09961
"4053",79.85718,154.1128
"4054",79.85474,154.12598
"4055",79.84253,154.13916
"4056",79.81079,154.15234
"4057",79.75708,154.16553
"4058",79.67895,154.17871
"4059",79.57641,154.1919
"4060",79.45922,154.20508
"4061",79.33715,154.21826
"4062",79.21019,154.23145
"4063",79.08812,154.24463
"4064",78.97826,154.25781
"4065",78.87572,154.271
"4066",78.7805,154.28418
"4067",78.69749,154.29736
"4068",78.626686,154.31055
"4069",78.56321,154.32373
"4070",78.51438,154.33691
"4071",78.47288,154.3501
"4072",78.43626,154.36328
"4073",78.40452,154.37646
"4074",78.380104,154.38965
"4075",78.35813,154.40283
"4076",78.34348,154.41602
"4077",78.34104,154.4292
"4078",78.34348,154.44238
"4079",78.35081,154.45557
"4080",78.36057,154.46875
"4081",78.37034,154.48193
"4082",78.380104,154.49512
"4083",78.38743,154.5083
"4084",78.39231,154.52148
"4085",78.399635,154.53467
"4086",78.40452,154.54785
"4087",78.41184,154.56104
"4088",78.41917,154.57422
"4089",78.42405,154.5874
"4090",78.43137,154.60059
"4091",78.433815,154.61377
"4092",78.43137,154.62695
"4093",78.42405,154.64014
"4094",78.42649,154.65332
"4095",78.470436,154.6665
"4096",78.61204,154.67969
"4097",78.90257,154.69287
"4098",79.38598,154.70605
"4099",80.05005,154.71924
"4100",80.8362,154.73242
"4101",81.64187,154.7456
"4102",82.354774,154.75879
"4103",82.879684,154.77197
"4104",83.17265,154.78516
"4105",83.24101,154.79834
"4106",83.123825,154.81152
"4107",82.8748,154.8247
"4108",82.55741,154.83789
"4109",82.22537,154.85107
"4110",81.91043,154.86426
"4111",81.62966,154.87744
"4112",81.392845,154.89062
"4113",81.18532,154.90381
"4114",80.99733,154.91699
"4115",80.814224,154.93018
"4116",80.62623,154.94336
"4117",80.43824,154.95654
"4118",80.26002,154.96973
"4119",80.096436,154.98291
"4120",79.9646,154.9961
"4121",79.87427,155.00928
"4122",79.82544,155.02246
"4123",79.81079,155.03564
"4124",79.815674,155.04883
"4125",79.82544,155.06201
"4126",79.82788,155.0752
"4127",79.81079,155.08838
"4128",79.76929,155.10156
"4129",79.710686,155.11475
"4130",79.635,155.12793
"4131",79.54223,155.14111
"4132",79.44457,155.1543
"4133",79.344475,155.16748
"4134",79.24925,155.18066
"4135",79.15648,155.19385
"4136",79.07103,155.20703
"4137",78.992905,155.22021
"4138",78.91966,155.2334
"4139",78.853745,155.24658
"4140",78.79515,155.25977
"4141",78.751205,155.27295
"4142",78.71702,155.28613
"4143",78.692604,155.29932
"4144",78.6804,155.3125
"4145",78.675514,155.32568
"4146",78.67063,155.33887
"4147",78.660866,155.35205
"4148",78.64622,155.36523
"4149",78.62913,155.37842
"4150",78.61448,155.3916
"4151",78.607155,155.40479
"4152",78.607155,155.41797
"4153",78.61936,155.43115
"4154",78.63401,155.44434
"4155",78.64866,155.45752
"4156",78.66331,155.4707
"4157",78.67063,155.48389
"4158",78.67307,155.49707
"4159",78.675514,155.51025
"4160",78.67307,155.52344
"4161",78.67063,155.53662
"4162",78.67307,155.5498
"4163",78.68284,155.56299
"4164",78.709694,155.57617
"4165",78.79271,155.58936
"4166",78.99046,155.60254
"4167",79.3518,155.61572
"4168",79.89624,155.6289
"4169",80.59449,155.64209
"4170",81.37087,155.65527
"4171",82.11063,155.66846
"4172",82.703896,155.68164
"4173",83.07988,155.69482
"4174",83.226364,155.70801
"4175",83.16533,155.72119
"4176",82.94316,155.73438
"4177",82.62089,155.74756
"4178",82.25956,155.76074
"4179",81.898224,155.77393
"4180",81.56863,155.78711
"4181",81.28542,155.8003
"4182",81.05104,155.81348
"4183",80.85573,155.82666
"4184",80.68482,155.83984
"4185",80.52857,155.85303
"4186",80.37232,155.86621
"4187",80.22095,155.8794
"4188",80.08667,155.89258
"4189",79.97681,155.90576
"4190",79.8938,155.91895
"4191",79.84985,155.93213
"4192",79.84009,155.94531
"4193",79.852295,155.9585
"4194",79.869385,155.97168
"4195",79.88159,155.98486
"4196",79.87671,155.99805
"4197",79.852295,156.01123
"4198",79.801025,156.02441
"4199",79.725334,156.0376
"4200",79.635,156.05078
"4201",79.53246,156.06396
"4202",79.429924,156.07715
"4203",79.33471,156.09033
"4204",79.24925,156.10352
"4205",79.17357,156.1167
"4206",79.10033,156.12988
"4207",79.03441,156.14307
"4208",78.97337,156.15625
"4209",78.91966,156.16943
"4210",78.87816,156.18262
"4211",78.84886,156.1958
"4212",78.82445,156.20898
"4213",78.80492,156.22217
"4214",78.78783,156.23535
"4215",78.77074,156.24854
"4216",78.75853,156.26172
"4217",78.751205,156.2749
"4218",78.75609,156.28809
"4219",78.77318,156.30127
"4220",78.79759,156.31445
"4221",78.82933,156.32764
"4222",78.85863,156.34082
"4223",78.88304,156.354
"4224",78.907455,156.36719
"4225",78.92943,156.38037
"4226",78.94652,156.39355
"4227",78.96605,156.40674
"4228",78.97826,156.41992
"4229",78.992905,156.4331
"4230",79.03441,156.44629
"4231",79.15892,156.45947
"4232",79.42504,156.47266
"4233",79.8645,156.48584
"4234",80.46998,156.49902
"4235",81.18532,156.5122
"4236",81.91043,156.52539
"4237",82.54032,156.53857
"4238",82.99199,156.55176
"4239",83.23369,156.56494
"4240",83.26055,156.57812
"4241",83.11162,156.59131
"4242",82.828415,156.60449
"4243",82.46952,156.61768
"4244",82.08377,156.63086
"4245",81.71023,156.64404
"4246",81.37087,156.65723
"4247",81.075455,156.67041
"4248",80.82155,156.6836
"4249",80.604256,156.69678
"4250",80.413826,156.70996
"4251",80.25025,156.72314
"4252",80.1062,156.73633
"4253",79.991455,156.74951
"4254",79.90845,156.7627
"4255",79.86206,156.77588
"4256",79.852295,156.78906
"4257",79.87427,156.80225
"4258",79.920654,156.81543
"4259",79.971924,156.82861
"4260",80.01343,156.8418
"4261",80.04028,156.85498
"4262",80.042725,156.86816
"4263",80.02075,156.88135
"4264",79.971924,156.89453
"4265",79.91089,156.90771
"4266",79.835205,156.9209
"4267",79.75464,156.93408
"4268",79.66674,156.94727
"4269",79.57885,156.96045
"4270",79.49584,156.97363
"4271",79.415276,156.98682
"4272",79.34203,157
"4273",79.273674,157.01318
"4274",79.217514,157.02637
"4275",79.17357,157.03955
"4276",79.13939,157.05273
"4277",79.114975,157.06592
"4278",79.10277,157.0791
"4279",79.097885,157.09229
"4280",79.093,157.10547
"4281",79.09544,157.11865
"4282",79.10277,157.13184
"4283",79.10765,157.14502
"4284",79.10765,157.1582
"4285",79.10521,157.17139
"4286",79.097885,157.18457
"4287",79.093,157.19775
"4288",79.10033,157.21094
"4289",79.166245,157.22412
"4290",79.33959,157.2373
"4291",79.66186,157.25049
"4292",80.15015,157.26367
"4293",80.782486,157.27686
"4294",81.48318,157.29004
"4295",82.14969,157.30322
"4296",82.684364,157.3164
"4297",83.0164,157.32959
"4298",83.12627,157.34277
"4299",83.035934,157.35596
"4300",82.794235,157.36914
"4301",82.459755,157.38232
"4302",82.08865,157.39551
"4303",81.71755,157.40869
"4304",81.3782,157.42188
"4305",81.075455,157.43506
"4306",80.81178,157.44824
"4307",80.57496,157.46143
"4308",80.36256,157.47461
"4309",80.16968,157.4878
"4310",80.00366,157.50098
"4311",79.86694,157.51416
"4312",79.76929,157.52734
"4313",79.71801,157.54053
"4314",79.710686,157.55371
"4315",79.742424,157.5669
"4316",79.801025,157.58008
"4317",79.87671,157.59326
"4318",79.940186,157.60645
"4319",79.98413,157.61963
"4320",79.99878,157.63281
"4321",79.97925,157.646
"4322",79.93042,157.65918
"4323",79.85962,157.67236
"4324",79.77173,157.68555
"4325",79.676506,157.69873
"4326",79.57641,157.71191
"4327",79.47875,157.7251
"4328",79.381096,157.73828
"4329",79.293205,157.75146
"4330",79.21263,157.76465
"4331",79.14427,157.77783
"4332",79.093,157.79102
"4333",79.05882,157.8042
"4334",79.03197,157.81738
"4335",79.012436,157.83057
"4336",78.99779,157.84375
"4337",78.9807,157.85693
"4338",78.96117,157.87012
"4339",78.941635,157.8833
"4340",78.92699,157.89648
"4341",78.91722,157.90967
"4342",78.91234,157.92285
"4343",78.9099,157.93604
"4344",78.91478,157.94922
"4345",78.93919,157.9624
"4346",79.009995,157.97559
"4347",79.17601,157.98877
"4348",79.49828,158.00195
"4349",79.99634,158.01514
"4350",80.65797,158.02832
"4351",81.4197,158.0415
"4352",82.18143,158.05469
"4353",82.828415,158.06787
"4354",83.28008,158.08105
"4355",83.49981,158.09424
"4356",83.50225,158.10742
"4357",83.32891,158.1206
"4358",83.035934,158.13379
"4359",82.67704,158.14697
"4360",82.28886,158.16016
"4361",81.91287,158.17334
"4362",81.56863,158.18652
"4363",81.270775,158.1997
"4364",81.02174,158.21289
"4365",80.814224,158.22607
"4366",80.638435,158.23926
"4367",80.47486,158.25244
"4368",80.325935,158.26562
"4369",80.19409,158.27881
"4370",80.09155,158.29199
"4371",80.02075,158.30518
"4372",79.98657,158.31836
"4373",79.98657,158.33154
"4374",80.01343,158.34473
"4375",80.045166,158.35791
"4376",80.07202,158.3711
"4377",80.07202,158.38428
"4378",80.045166,158.39746
"4379",79.98901,158.41064
"4380",79.91333,158.42383
"4381",79.82056,158.43701
"4382",79.72045,158.4502
"4383",79.61791,158.46338
"4384",79.51293,158.47656
"4385",79.41039,158.48975
"4386",79.310295,158.50293
"4387",79.22728,158.51611
"4388",79.16136,158.5293
"4389",79.11253,158.54248
"4390",79.07347,158.55566
"4391",79.03929,158.56885
"4392",79.00267,158.58203
"4393",78.96361,158.59521
"4394",78.922104,158.6084
"4395",78.88548,158.62158
"4396",78.856186,158.63477
"4397",78.83421,158.64795
"4398",78.81712,158.66113
"4399",78.80003,158.67432
"4400",78.79027,158.6875
"4401",78.802475,158.70068
"4402",78.86595,158.71387
"4403",79.03685,158.72705
"4404",79.364006,158.74023
"4405",79.86694,158.75342
"4406",80.52857,158.7666
"4407",81.28054,158.77979
"4408",82.02518,158.79297
"4409",82.65507,158.80615
"4410",83.09209,158.81934
"4411",83.302055,158.83252
"4412",83.299614,158.8457
"4413",83.123825,158.85889
"4414",82.83086,158.87207
"4415",82.47929,158.88525
"4416",82.12039,158.89844
"4417",81.78104,158.91162
"4418",81.478294,158.9248
"4419",81.21706,158.93799
"4420",80.99733,158.95117
"4421",80.81178,158.96436
"4422",80.64088,158.97754
"4423",80.479744,158.99072
"4424",80.32838,159.0039
"4425",80.18921,159.01709
"4426",80.07446,159.03027
"4427",79.99634,159.04346
"4428",79.95972,159.05664
"4429",79.95972,159.06982
"4430",79.98413,159.08301
"4431",80.01587,159.09619
"4432",80.04028,159.10938
"4433",80.045166,159.12256
"4434",80.01831,159.13574
"4435",79.96216,159.14893
"4436",79.87671,159.16211
"4437",79.77173,159.1753
"4438",79.65453,159.18848
"4439",79.53002,159.20166
"4440",79.40795,159.21484
"4441",79.293205,159.22803
"4442",79.19066,159.24121
"4443",79.10033,159.2544
"4444",79.027084,159.26758
"4445",78.96117,159.28076
"4446",78.907455,159.29395
"4447",78.856186,159.30713
"4448",78.8098,159.32031
"4449",78.77074,159.3335
"4450",78.73899,159.34668
"4451",78.712135,159.35986
"4452",78.695045,159.37305
"4453",78.677956,159.38623
"4454",78.66331,159.39941
"4455",78.6511,159.4126
"4456",78.64866,159.42578
"4457",78.67307,159.43896
"4458",78.77074,159.45215
"4459",78.99779,159.46533
"4460",79.3933,159.47852
"4461",79.9646,159.4917
