"","ppg","time"
"1",79.398186,879.13135
"2",79.3933,879.14453
"3",79.40551,879.1577
"4",79.42504,879.1709
"5",79.43725,879.1841
"6",79.43725,879.19727
"7",79.41772,879.21045
"8",79.37621,879.22363
"9",79.31762,879.2368
"10",79.24681,879.25
"11",79.168686,879.2632
"12",79.08812,879.27637
"13",79.00755,879.28955
"14",78.92699,879.30273
"15",78.853745,879.3159
"16",78.785385,879.3291
"17",78.7219,879.3423
"18",78.66575,879.35547
"19",78.607155,879.36865
"20",78.54856,879.38184
"21",78.49485,879.395
"22",78.45579,879.4082
"23",78.46555,879.4214
"24",78.57053,879.4346
"25",78.82445,879.44775
"26",79.26879,879.46094
"27",79.89624,879.4741
"28",80.655525,879.4873
"29",81.446556,879.5005
"30",82.15701,879.5137
"31",82.69413,879.52686
"32",83.0164,879.54004
"33",83.11894,879.5532
"34",83.035934,879.5664
"35",82.82597,879.5796
"36",82.533,879.5928
"37",82.2034,879.60596
"38",81.8616,879.61914
"39",81.52468,879.6323
"40",81.197525,879.6455
"41",80.88747,879.6587
"42",80.58961,879.6719
"43",80.31129,879.68506
"44",80.062256,879.69824
"45",79.84741,879.7114
"46",79.676506,879.7246
"47",79.551994,879.7378
"48",79.47631,879.751
"49",79.44457,879.76416
"50",79.447014,879.77734
"51",79.46899,879.7905
"52",79.500725,879.8037
"53",79.5227,879.8169
"54",79.52758,879.8301
"55",79.50561,879.84326
"56",79.4641,879.85645
"57",79.40063,879.8696
"58",79.33227,879.8828
"59",79.256584,879.896
"60",79.17845,879.9092
"61",79.10277,879.92236
"62",79.02464,879.93555
"63",78.94896,879.9487
"64",78.87572,879.9619
"65",78.80736,879.9751
"66",78.746315,879.9883
"67",78.69016,880.00146
"68",78.641335,880.01465
"69",78.59983,880.02783
"70",78.58274,880.041
"71",78.624245,880.0542
"72",78.78294,880.0674
"73",79.10521,880.08057
"74",79.62035,880.09375
"75",80.29908,880.10693
"76",81.06813,880.1201
"77",81.82254,880.1333
"78",82.45731,880.1465
"79",82.899216,880.15967
"80",83.12871,880.17285
"81",83.16533,880.18604
"82",83.05058,880.1992
"83",82.83086,880.2124
"84",82.55009,880.2256
"85",82.247345,880.2388
"86",81.93729,880.25195
"87",81.62722,880.26514
"88",81.324486,880.2783
"89",81.024185,880.2915
"90",80.73121,880.3047
"91",80.45045,880.3179
"92",80.18677,880.33105
"93",79.95239,880.34424
"94",79.75464,880.3574
"95",79.605705,880.3706
"96",79.50561,880.3838
"97",79.45434,880.397
"98",79.43481,880.41016
"99",79.43969,880.42334
"100",79.45434,880.4365
"101",79.466545,880.4497
"102",79.4641,880.4629
"103",79.44213,880.4761
"104",79.398186,880.48926
"105",79.33471,880.50244
"106",79.256584,880.5156
"107",79.17357,880.5288
"108",79.09056,880.542
"109",79.012436,880.5552
"110",78.93675,880.56836
"111",78.856186,880.58154
"112",78.78294,880.5947
"113",78.709694,880.6079
"114",78.643776,880.6211
"115",78.5803,880.6343
"116",78.52659,880.64746
"117",78.502174,880.66064
"118",78.54368,880.6738
"119",78.709694,880.687
"120",79.046616,880.7002
"121",79.569084,880.7134
"122",80.24536,880.72656
"123",81.00954,880.73975
"124",81.75174,880.7529
"125",82.38163,880.7661
"126",82.828415,880.7793
"127",83.075,880.7925
"128",83.13115,880.80566
"129",83.03349,880.81885
"130",82.828415,880.83203
"131",82.562294,880.8452
"132",82.269325,880.8584
"133",81.969025,880.8716
"134",81.67361,880.88477
"135",81.38064,880.89795
"136",81.092545,880.91113
"137",80.799576,880.9243
"138",80.50416,880.9375
"139",80.216064,880.9507
"140",79.94263,880.96387
"141",79.70336,880.97705
"142",79.50805,880.99023
"143",79.36645,881.0034
"144",79.28588,881.0166
"145",79.26147,881.0298
"146",79.28344,881.04297
"147",79.33227,881.05615
"148",79.38598,881.06934
"149",79.429924,881.0825
"150",79.449455,881.0957
"151",79.44457,881.1089
"152",79.40795,881.1221
"153",79.344475,881.13525
"154",79.26635,881.14844
"155",79.17113,881.1616
"156",79.06615,881.1748
"157",78.9514,881.188
"158",78.83421,881.2012
"159",78.71946,881.21436
"160",78.61204,881.22754
"161",78.51438,881.2407
"162",78.42649,881.2539
"163",78.35325,881.2671
"164",78.2971,881.2803
"165",78.27268,881.29346
"166",78.31907,881.30664
"167",78.49485,881.3198
"168",78.84398,881.333
"169",79.38598,881.3462
"170",80.08423,881.3594
"171",80.86305,881.37256
"172",81.61501,881.38574
"173",82.23514,881.3989
"174",82.66239,881.4121
"175",82.882126,881.4253
"176",82.91142,881.4385
"177",82.79668,881.45166
"178",82.58427,881.46484
"179",82.320595,881.478
"180",82.039825,881.4912
"181",81.761505,881.5044
"182",81.48806,881.5176
"183",81.2195,881.53076
"184",80.95094,881.54395
"185",80.6775,881.5571
"186",80.394295,881.5703
"187",80.11597,881.5835
"188",79.852295,881.5967
"189",79.61303,881.60986
"190",79.412834,881.62305
"191",79.26391,881.6362
"192",79.168686,881.6494
"193",79.12474,881.6626
"194",79.11742,881.6758
"195",79.13451,881.68896
"196",79.15404,881.70215
"197",79.1638,881.71533
"198",79.15404,881.7285
"199",79.12474,881.7417
"200",79.07591,881.7549
"201",79.012436,881.76807
"202",78.93919,881.78125
"203",78.856186,881.79443
"204",78.77074,881.8076
"205",78.68284,881.8208
"206",78.59739,881.834
"207",78.519264,881.84717
"208",78.45335,881.86035
"209",78.399635,881.87354
"210",78.35081,881.8867
"211",78.30198,881.8999
"212",78.25071,881.9131
"213",78.19943,881.9263
"214",78.170135,881.93945
"215",78.21164,881.95264
"216",78.38743,881.9658
"217",78.746315,881.979
"218",79.30297,881.9922
"219",80.028076,882.0054
"220",80.84108,882.01855
"221",81.62722,882.03174
"222",82.28153,882.0449
"223",82.738075,882.0581
"224",82.97734,882.0713
"225",83.018845,882.0845
"226",82.9041,882.09766
"227",82.686806,882.11084
"228",82.41581,882.124
"229",82.125275,882.1372
"230",81.83719,882.1504
"231",81.55886,882.1636
"232",81.287865,882.17676
"233",81.01442,882.18994
"234",80.73365,882.2031
"235",80.44068,882.2163
"236",80.13794,882.2295
"237",79.84741,882.2427
"238",79.586174,882.25586
"239",79.37621,882.26904
"240",79.22484,882.2822
"241",79.13695,882.2954
"242",79.097885,882.3086
"243",79.09544,882.3218
"244",79.11253,882.33496
"245",79.132065,882.34814
"246",79.14427,882.3613
"247",79.13939,882.3745
"248",79.114975,882.3877
"249",79.07347,882.4009
"250",79.012436,882.41406
"251",78.94408,882.42725
"252",78.870834,882.4404
"253",78.79027,882.4536
"254",78.712135,882.4668
"255",78.62913,882.48
"256",78.54856,882.49316
"257",78.470436,882.50635
"258",78.40208,882.51953
"259",78.33616,882.5327
"260",78.27512,882.5459
"261",78.21896,882.5591
"262",78.16037,882.57227
"263",78.10422,882.58545
"264",78.0676,882.59863
"265",78.09689,882.6118
"266",78.24826,882.625
"267",78.57786,882.6382
"268",79.11009,882.65137
"269",79.82056,882.66455
"270",80.64088,882.67773
"271",81.45632,882.6909
"272",82.16434,882.7041
"273",82.67704,882.7173
"274",82.967575,882.73047
"275",83.0457,882.74365
"276",82.95537,882.75684
"277",82.74784,882.77
"278",82.476845,882.7832
"279",82.178986,882.7964
"280",81.881134,882.8096
"281",81.5906,882.82275
"282",81.30984,882.83594
"283",81.03151,882.8491
"284",80.75075,882.8623
"285",80.45533,882.8755
"286",80.15503,882.8887
"287",79.86206,882.90186
"288",79.59838,882.91504
"289",79.381096,882.9282
"290",79.22484,882.9414
"291",79.12962,882.9546
"292",79.08812,882.9678
"293",79.08812,882.98096
"294",79.11253,882.99414
"295",79.14427,883.0073
"296",79.166245,883.0205
"297",79.17113,883.0337
"298",79.14671,883.0469
"299",79.10033,883.06006
"300",79.03441,883.07324
"301",78.95628,883.0864
"302",78.870834,883.0996
"303",78.78783,883.1128
"304",78.70237,883.126
"305",78.6218,883.13916
"306",78.54368,883.15234
"307",78.470436,883.1655
"308",78.40696,883.1787
"309",78.35081,883.1919
"310",78.30198,883.2051
"311",78.25803,883.21826
"312",78.21164,883.23145
"313",78.170135,883.2446
"314",78.150604,883.2578
"315",78.19699,883.271
"316",78.37522,883.2842
"317",78.73655,883.29736
"318",79.29565,883.31055
"319",80.02319,883.3237
"320",80.833755,883.3369
"321",81.617455,883.3501
"322",82.27421,883.3633
"323",82.73075,883.37646
"324",82.97246,883.38965
"325",83.01152,883.40283
"326",82.90166,883.416
"327",82.686806,883.4292
"328",82.41337,883.4424
"329",82.12039,883.45557
"330",81.82742,883.46875
"331",81.53445,883.48193
"332",81.24391,883.4951
"333",80.953384,883.5083
"334",80.66041,883.5215
"335",80.365,883.53467
"336",80.07446,883.54785
"337",79.801025,883.56104
"338",79.55932,883.5742
"339",79.35912,883.5874
"340",79.21507,883.6006
"341",79.12962,883.6138
"342",79.097885,883.62695
"343",79.10521,883.64014
"344",79.14183,883.6533
"345",79.18089,883.6665
"346",79.20775,883.6797
"347",79.217514,883.6929
"348",79.20531,883.70605
"349",79.166245,883.71924
"350",79.11009,883.7324
"351",79.03441,883.7456
"352",78.94896,883.7588
"353",78.853745,883.772
"354",78.76097,883.78516
"355",78.67063,883.79834
"356",78.590065,883.8115
"357",78.521706,883.8247
"358",78.46555,883.8379
"359",78.41917,883.8511
"360",78.382545,883.86426
"361",78.345924,883.87744
"362",78.30442,883.8906
"363",78.26292,883.9038
"364",78.22873,883.917
"365",78.24582,883.9302
"366",78.36057,883.94336
"367",78.63645,883.95654
"368",79.10521,883.9697
"369",79.76196,883.9829
"370",80.54566,883.9961
"371",81.356224,884.0093
"372",82.07645,884.02246
"373",82.61356,884.03564
"374",82.92607,884.0488
"375",83.021286,884.062
"376",82.93828,884.0752
"377",82.73319,884.0884
"378",82.46464,884.10156
"379",82.16922,884.11475
"380",81.87381,884.1279
"381",81.58816,884.1411
"382",81.31228,884.1543
"383",81.03883,884.1675
"384",80.762955,884.18066
"385",80.4773,884.19385
"386",80.19165,884.20703
"387",79.91577,884.2202
"388",79.66186,884.2334
"389",79.44213,884.2466
"390",79.26391,884.25977
"391",79.13695,884.27295
"392",79.06615,884.28613
"393",79.044174,884.2993
"394",79.061264,884.3125
"395",79.097885,884.3257
"396",79.13695,884.33887
"397",79.15892,884.35205
"398",79.15648,884.36523
"399",79.12962,884.3784
"400",79.080795,884.3916
"401",79.012436,884.4048
"402",78.92699,884.41797
"403",78.836655,884.43115
"404",78.74143,884.44434
"405",78.64866,884.4575
"406",78.55833,884.4707
"407",78.4802,884.4839
"408",78.4094,884.4971
"409",78.35081,884.51025
"410",78.30686,884.52344
"411",78.27512,884.5366
"412",78.24826,884.5498
"413",78.22385,884.563
"414",78.19455,884.5762
"415",78.170135,884.58936
"416",78.15549,884.60254
"417",78.19455,884.6157
"418",78.34348,884.6289
"419",78.66575,884.6421
"420",79.19066,884.6553
"421",79.90112,884.66846
"422",80.72877,884.68164
"423",81.55398,884.6948
"424",82.262,884.708
"425",82.76982,884.7212
"426",83.0457,884.7344
"427",83.104294,884.74756
"428",82.99443,884.76074
"429",82.774704,884.7739
"430",82.493935,884.7871
"431",82.19119,884.8003
"432",81.8909,884.8135
"433",81.60525,884.82666
"434",81.33425,884.83984
"435",81.06813,884.853
"436",80.80202,884.8662
"437",80.5359,884.8794
"438",80.2649,884.8926
"439",79.99634,884.90576
"440",79.744865,884.91895
"441",79.52514,884.9321
"442",79.344475,884.9453
"443",79.21507,884.9585
"444",79.13939,884.9717
"445",79.11742,884.98486
"446",79.132065,884.99805
"447",79.17113,885.0112
"448",79.21019,885.0244
"449",79.23949,885.0376
"450",79.24437,885.0508
"451",79.2224,885.06396
"452",79.17357,885.07715
"453",79.10277,885.09033
"454",79.0222,885.1035
"455",78.92699,885.1167
"456",78.83177,885.1299
"457",78.73899,885.14307
"458",78.64866,885.15625
"459",78.56321,885.16943
"460",78.48997,885.1826
"461",78.42405,885.1958
"462",78.37034,885.209
"463",78.328835,885.22217
"464",78.29954,885.23535
"465",78.28245,885.24854
"466",78.27024,885.2617
"467",78.25315,885.2749
"468",78.23605,885.2881
"469",78.22629,885.3013
"470",78.26292,885.31445
"471",78.397194,885.32764
"472",78.695045,885.3408
"473",79.19066,885.354
"474",79.87427,885.3672
"475",80.68238,885.3804
"476",81.51736,885.39355
"477",82.25956,885.40674
"478",82.81621,885.4199
"479",83.1458,885.4331
"480",83.245895,885.4463
"481",83.158005,885.4595
"482",82.93828,885.47266
"483",82.64042,885.48584
"484",81.98367,885.5122
"485",81.67361,885.5254
"486",81.38552,885.5386
"487",81.11696,885.55176
"488",80.86305,885.56494
"489",80.60914,885.5781
"490",80.34791,885.5913
"491",80.08667,885.6045
"492",79.835205,885.6177
"493",79.60815,885.63086
"494",79.42504,885.64404
"495",79.293205,885.6572
"496",79.21507,885.6704
"497",79.18822,885.6836
"498",79.200424,885.6968
"499",79.234604,885.70996
"500",79.276115,885.72314
"501",79.30785,885.7363
"502",79.31762,885.7495
"503",79.30297,885.7627
"504",79.259026,885.7759
"505",79.19798,885.78906
"506",79.11742,885.80225
"507",79.03197,885.8154
"508",78.93919,885.8286
"509",78.84886,885.8418
"510",78.76341,885.855
"511",78.68528,885.86816
"512",78.6096,885.88135
"513",78.536354,885.89453
"514",78.46555,885.9077
"515",78.40696,885.9209
"516",78.35569,885.9341
"517",78.32395,885.94727
"518",78.311745,885.96045
"519",78.3093,885.97363
"520",78.311745,885.9868
"521",78.30686,886
"522",78.28977,886.0132
"523",78.28001,886.02637
"524",78.311745,886.03955
"525",78.450905,886.05273
"526",78.765854,886.0659
"527",79.28588,886.0791
"528",79.99634,886.0923
"529",80.82887,886.10547
"530",81.67849,886.11865
"531",82.425575,886.13184
"532",82.97978,886.145
"533",83.29473,886.1582
"534",83.38506,886.1714
"535",83.28741,886.1846
"536",83.055466,886.19775
"537",82.75029,886.21094
"538",82.42069,886.2241
"539",82.09598,886.2373
"540",81.78836,886.2505
"541",81.50515,886.2637
"542",81.23903,886.27686
"543",80.98024,886.29004
"544",80.719,886.3032
"545",80.45533,886.3164
"546",80.19409,886.3296
"547",79.94751,886.3428
"548",79.725334,886.35596
"549",79.54711,886.36914
"550",79.41772,886.3823
"551",79.33471,886.3955
"552",79.29565,886.4087
"553",79.28832,886.4219
"554",79.30541,886.43506
"555",79.33715,886.44824
"556",79.364006,886.4614
"557",79.37621,886.4746
"558",79.36889,886.4878
"559",79.33715,886.501
"560",79.28344,886.51416
"561",79.21263,886.52734
"562",79.13451,886.5405
"563",79.04906,886.5537
"564",78.96117,886.5669
"565",78.873276,886.5801
"566",78.785385,886.59326
"567",78.70481,886.60645
"568",78.62913,886.6196
"569",78.56565,886.6328
"570",78.5095,886.646
"571",78.46311,886.6592
"572",78.42649,886.67236
"573",78.399635,886.68555
"574",78.380104,886.6987
"575",78.37034,886.7119
"576",78.36057,886.7251
"577",78.35081,886.7383
"578",78.345924,886.75146
"579",78.37278,886.76465
"580",78.485085,886.77783
"581",78.75365,886.791
"582",79.22484,886.8042
"583",79.89868,886.8174
"584",80.719,886.83057
"585",81.58083,886.84375
"586",82.36454,886.85693
"587",82.967575,886.8701
"588",83.336235,886.8833
"589",83.47295,886.8965
"590",83.40948,886.90967
"591",83.19707,886.92285
"592",82.896774,886.93604
"593",82.55985,886.9492
"594",82.213165,886.9624
"595",81.881134,886.9756
"596",81.56863,886.9888
"597",81.27566,887.00195
"598",80.99245,887.01514
"599",80.723885,887.0283
"600",80.465096,887.0415
"601",80.21362,887.0547
"602",79.974365,887.0679
"603",79.75952,887.08105
"604",79.57885,887.09424
"605",79.43969,887.1074
"606",79.344475,887.1206
"607",79.293205,887.1338
"608",79.27856,887.147
"609",79.28832,887.16016
"610",79.31274,887.17334
"611",79.33471,887.1865
"612",79.34692,887.1997
"613",79.34203,887.2129
"614",79.3225,887.2261
"615",79.281,887.23926
"616",79.22484,887.25244
"617",79.15648,887.2656
"618",79.08324,887.2788
"619",79.00511,887.292
"620",78.924545,887.3052
"621",78.84398,887.31836
"622",78.77074,887.33154
"623",78.70237,887.3447
"624",78.63889,887.3579
"625",78.57786,887.3711
"626",78.52415,887.3843
"627",78.47776,887.39746
"628",78.44358,887.41064
"629",78.41428,887.4238
"630",78.39231,887.437
"631",78.37278,887.4502
"632",78.35569,887.4634
"633",78.35081,887.47656
"634",78.397194,887.48975
"635",78.553444,887.5029
"636",78.8806,887.5161
"637",79.42016,887.5293
"638",80.14526,887.5425
"639",80.990005,887.55566
"640",81.849396,887.56885
"641",82.59403,887.58203
"642",83.13847,887.5952
"643",83.44854,887.6084
"644",83.53155,887.6216
"645",83.42901,887.63477
"646",83.194626,887.64795
"647",82.88457,887.66113
"648",82.54276,887.6743
"649",82.20096,887.6875
"650",81.87625,887.7007
"651",81.57351,887.71387
"652",81.290306,887.72705
"653",81.01198,887.74023
"654",80.73609,887.7534
"655",80.462654,887.7666
"656",80.198975,887.7798
"657",79.95239,887.79297
"658",79.73998,887.80615
"659",79.56664,887.81934
"660",79.44213,887.8325
"661",79.35668,887.8457
"662",79.30785,887.8589
"663",79.28832,887.8721
"664",79.290764,887.88525
"665",79.30297,887.89844
"666",79.31762,887.9116
"667",79.32494,887.9248
"668",79.32006,887.938
"669",79.30297,887.9512
"670",79.26879,887.96436
"671",79.21507,887.97754
"672",79.149155,887.9907
"673",79.07103,888.0039
"674",78.98558,888.0171
"675",78.90013,888.0303
"676",78.81712,888.04346
"677",78.74143,888.05664
"678",78.67307,888.0698
"679",78.61204,888.083
"680",78.553444,888.0962
"681",78.49973,888.1094
"682",78.450905,888.12256
"683",78.416725,888.13574
"684",78.39231,888.1489
"685",78.37766,888.1621
"686",78.363014,888.1753
"687",78.348366,888.1885
"688",78.328835,888.20166
"689",78.311745,888.21484
"690",78.314186,888.228
"691",78.38743,888.2412
"692",78.59251,888.2544
"693",78.98558,888.2676
"694",79.59106,888.28076
"695",80.38209,888.29395
"696",81.2781,888.3071
"697",82.161896,888.3203
"698",82.916306,888.3335
"699",83.46319,888.3467
"700",83.76593,888.35986
"701",83.84161,888.37305
"702",83.72686,888.3862
"703",83.475395,888.3994
"704",83.1458,888.4126
"705",82.77959,888.4258
"706",82.41581,888.43896
"707",82.06668,888.45215
"708",81.73708,888.46533
"709",81.42214,888.4785
"710",81.12184,888.4917
"711",80.833755,888.5049
"712",80.55787,888.51807
"713",80.29664,888.53125
"714",80.05737,888.54443
"715",79.84741,888.5576
"716",79.676506,888.5708
"717",79.54223,888.584
"718",79.4519,888.59717
"719",79.3933,888.61035
"720",79.364006,888.62354
"721",79.3518,888.6367
"722",79.3518,888.6499
"723",79.35668,888.6631
"724",79.35668,888.6763
"725",79.344475,888.68945
"726",79.31518,888.70264
"727",79.26391,888.7158
"728",79.200424,888.729
"729",79.12474,888.7422
"730",79.04173,888.7554
"731",78.95628,888.76855
"732",78.873276,888.78174
"733",78.78783,888.7949
"734",78.70481,888.8081
"735",78.61936,888.8213
"736",78.538795,888.8345
"737",78.46555,888.84766
"738",78.399635,888.86084
"739",78.348366,888.874
"740",78.30686,888.8872
"741",78.27512,888.9004
"742",78.24582,888.9136
"743",78.221405,888.92676
"744",78.20187,888.93994
"745",78.19211,888.9531
"746",78.2092,888.9663
"747",78.294655,888.9795
"748",78.51194,888.9927
"749",78.91966,889.00586
"750",79.54711,889.01904
"751",80.36256,889.0322
"752",81.28298,889.0454
"753",82.18631,889.0586
"754",82.95537,889.0718
"755",83.49981,889.08496
"756",83.792786,889.09814
"757",83.85138,889.1113
"758",83.72442,889.1245
"759",83.46075,889.1377
"760",83.12138,889.1509
"761",82.7454,889.16406
"762",82.36454,889.17725
"763",81.99344,889.1904
"764",81.64187,889.2036
"765",81.31228,889.2168
"766",80.99489,889.23
"767",80.69215,889.24316
"768",80.40162,889.25635
"769",80.128174,889.26953
"770",79.88159,889.2827
"771",79.674065,889.2959
"772",79.51293,889.3091
"773",79.39086,889.32227
"774",79.31274,889.33545
"775",79.26879,889.34863
"776",79.256584,889.3618
"777",79.259026,889.375
"778",79.27123,889.3882
"779",79.27856,889.40137
"780",79.27856,889.41455
"781",79.26879,889.42773
"782",79.23949,889.4409
"783",79.19554,889.4541
"784",79.13939,889.4673
"785",79.07347,889.48047
"786",79.00267,889.49365
"787",78.93187,889.50684
"788",78.86107,889.52
"789",78.79027,889.5332
"790",78.71458,889.5464
"791",78.643776,889.5596
"792",78.57542,889.57275
"793",78.51438,889.58594
"794",78.46555,889.5991
"795",78.42893,889.6123
"796",78.397194,889.6255
"797",78.37034,889.6387
"798",78.34348,889.65186
"799",78.314186,889.66504
"800",78.29221,889.6782
"801",78.3093,889.6914
"802",78.42649,889.7046
"803",78.70481,889.7178
"804",79.19798,889.73096
"805",79.906006,889.74414
"806",80.77516,889.7573
"807",81.69558,889.7705
"808",82.54276,889.7837
"809",83.211716,889.7969
"810",83.64629,889.81006
"811",83.83917,889.82324
"812",83.824524,889.8364
"813",83.65118,889.8496
"814",83.372856,889.8628
"815",83.03105,889.876
"816",82.65995,889.88916
"817",82.28153,889.90234
"818",81.90799,889.9155
"819",81.54665,889.9287
"820",81.197525,889.9419
"821",80.86305,889.9551
"822",80.5481,889.96826
"823",80.257576,889.98145
"824",79.99634,889.9946
"825",79.77173,890.0078
"826",79.588615,890.021
"827",79.449455,890.0342
"828",79.35668,890.04736
"829",79.310295,890.06055
"830",79.293205,890.0737
"831",79.30053,890.0869
"832",79.31762,890.1001
"833",79.32983,890.1133
"834",79.327385,890.12646
"835",79.30785,890.13965
"836",79.273674,890.15283
"837",79.23216,890.166
"838",79.19066,890.1792
"839",79.14671,890.1924
"840",79.093,890.20557
"841",79.03685,890.21875
"842",78.97093,890.23193
"843",78.90013,890.2451
"844",78.82689,890.2583
"845",78.75609,890.2715
"846",78.695045,890.28467
"847",78.63645,890.29785
"848",78.58518,890.31104
"849",78.53147,890.3242
"850",78.47776,890.3374
"851",78.41917,890.3506
"852",78.365456,890.3638
"853",78.32395,890.37695
"854",78.328835,890.39014
"855",78.43137,890.4033
"856",78.70237,890.4165
"857",79.183334,890.4297
"858",79.871826,890.4429
"859",80.71412,890.45605
"860",81.602806,890.46924
"861",82.41337,890.4824
"862",83.0457,890.4956
"863",83.44854,890.5088
"864",83.614555,890.522
"865",83.577934,890.53516
"866",83.38506,890.54834
"867",83.09209,890.5615
"868",82.738075,890.5747
"869",82.3621,890.5879
"870",81.98367,890.6011
"871",81.61013,890.61426
"872",81.24635,890.62744
"873",80.89723,890.6406
"874",80.567635,890.6538
"875",80.26002,890.667
"876",79.98169,890.6802
"877",79.73998,890.69336
"878",79.54223,890.70654
"879",79.39086,890.7197
"880",79.290764,890.7329
"881",79.23949,890.7461
"882",79.22484,890.7593
"883",79.234604,890.77246
"884",79.259026,890.78564
"885",79.281,890.7988
"886",79.290764,890.812
"887",79.28588,890.8252
"888",79.26879,890.8384
"889",79.23949,890.85156
"890",79.19798,890.86475
"891",79.149155,890.8779
"892",79.097885,890.8911
"893",79.04173,890.9043
"894",78.98802,890.9175
"895",78.92943,890.93066
"896",78.86595,890.94385
"897",78.802475,890.95703
"898",78.73411,890.9702
"899",78.66331,890.9834
"900",78.59251,890.9966
"901",78.52415,891.00977
"902",78.45579,891.02295
"903",78.397194,891.03613
"904",78.37034,891.0493
"905",78.42405,891.0625
"906",78.6218,891.0757
"907",79.01488,891.08887
"908",79.61791,891.10205
"909",80.38941,891.11523
"910",81.24147,891.1284
"911",82.0618,891.1416
"912",82.738075,891.1548
"913",83.20195,891.16797
"914",83.43145,891.18115
"915",83.44366,891.19434
"916",83.282524,891.2075
"917",82.99687,891.2207
"918",82.64286,891.2339
"919",82.25712,891.2471
"920",81.866486,891.26025
"921",81.48318,891.27344
"922",81.11452,891.2866
"923",80.762955,891.2998
"924",80.428474,891.313
"925",80.11841,891.3262
"926",79.835205,891.33936
"927",79.5935,891.35254
"928",79.40307,891.3657
"929",79.26391,891.3789
"930",79.183334,891.3921
"931",79.149155,891.4053
"932",79.15404,891.41846
"933",79.18089,891.43164
"934",79.21507,891.4448
"935",79.24681,891.458
"936",79.27123,891.4712
"937",79.27856,891.4844
"938",79.26879,891.49756
"939",79.23949,891.51074
"940",79.19798,891.5239
"941",79.14671,891.5371
"942",79.093,891.5503
"943",79.03441,891.5635
"944",78.97337,891.57666
"945",78.9099,891.58984
"946",78.84398,891.603
"947",78.77318,891.6162
"948",78.70237,891.6294
"949",78.641335,891.6426
"950",78.5803,891.65576
"951",78.52659,891.66895
"952",78.49241,891.6821
"953",78.52415,891.6953
"954",78.675514,891.7085
"955",79.00511,891.7217
"956",79.537346,891.73486
"957",80.2478,891.74805
"958",81.06081,891.7612
"959",81.8616,891.7744
"960",82.53788,891.7876
"961",83.00664,891.8008
"962",83.24834,891.81396
"963",83.27276,891.82715
"964",83.123825,891.84033
"965",82.85527,891.8535
"966",82.51591,891.8667
"967",82.13992,891.8799
"968",81.75662,891.89307
"969",81.37087,891.90625
"970",80.990005,891.91943
"971",80.621346,891.9326
"972",80.274666,891.9458
"973",79.957275,891.959
"974",79.67895,891.97217
"975",79.4519,891.98535
"976",79.28344,891.99854
"977",79.17113,892.0117
"978",79.10765,892.0249
"979",79.09056,892.0381
"980",79.10521,892.0513
"981",79.13939,892.06445
"982",79.18089,892.07764
"983",79.21507,892.0908
"984",79.23949,892.104
"985",79.24437,892.1172
"986",79.22972,892.1304
"987",79.19554,892.14355
"988",79.14671,892.15674
"989",79.09544,892.1699
"990",79.04173,892.1831
"991",78.99046,892.1963
"992",78.93675,892.2095
"993",78.8806,892.22266
"994",78.81712,892.23584
"995",78.751205,892.249
"996",78.68528,892.2622
"997",78.61936,892.2754
"998",78.56321,892.2886
"999",78.52659,892.30176
"1000",78.54612,892.31494
"1001",78.68772,892.3281
"1002",79.00267,892.3413
"1003",79.51537,892.3545
"1004",80.2063,892.3677
"1005",80.99977,892.38086
"1006",81.78348,892.39404
"1007",82.44511,892.4072
"1008",82.913864,892.4204
"1009",83.158005,892.4336
"1010",83.1873,892.4468
"1011",83.04814,892.45996
"1012",82.78691,892.47314
"1013",82.44755,892.4863
"1014",82.07156,892.4995
"1015",81.68093,892.5127
"1016",81.29275,892.5259
"1017",80.90944,892.53906
"1018",80.54078,892.55225
"1019",80.19409,892.5654
"1020",79.88159,892.5786
"1021",79.61303,892.5918
"1022",79.3933,892.605
"1023",79.237045,892.61816
"1024",79.13939,892.63135
"1025",79.093,892.64453
"1026",79.08812,892.6577
"1027",79.11253,892.6709
"1028",79.16136,892.6841
"1029",79.21263,892.69727
"1030",79.26147,892.71045
"1031",79.30053,892.72363
"1032",79.31762,892.7368
"1033",79.30785,892.75
"1034",79.273674,892.7632
"1035",79.22484,892.77637
"1036",79.16136,892.78955
"1037",79.08812,892.80273
"1038",79.01488,892.8159
"1039",78.941635,892.8291
"1040",78.86595,892.8423
"1041",78.79515,892.85547
"1042",78.72678,892.86865
"1043",78.66331,892.88184
"1044",78.607155,892.895
"1045",78.55833,892.9082
"1046",78.54368,892.9214
"1047",78.6096,892.9346
"1048",78.819565,892.94775
"1049",79.217514,892.96094
"1050",79.80835,892.9741
"1051",80.550545,892.9873
"1052",81.3489,893.0005
"1053",82.08621,893.0137
"1054",82.66483,893.02686
"1055",83.02373,893.04004
"1056",83.15556,893.0532
"1057",83.087204,893.0664
"1058",82.865036,893.0796
"1059",82.545204,893.0928
"1060",82.176544,893.10596
"1061",81.78592,893.11914
"1062",81.392845,893.1323
"1063",81.00954,893.1455
"1064",80.64576,893.1587
"1065",80.308846,893.1719
"1066",80.00122,893.18506
"1067",79.73266,893.19824
"1068",79.51049,893.2114
"1069",79.33959,893.2246
"1070",79.21263,893.2378
"1071",79.13451,893.251
"1072",79.10033,893.26416
"1073",79.097885,893.27734
"1074",79.114975,893.2905
"1075",79.14671,893.3037
"1076",79.17845,893.3169
"1077",79.19554,893.3301
"1078",79.19798,893.34326
"1079",79.18822,893.35645
"1080",79.166245,893.3696
"1081",79.13451,893.3828
"1082",79.09544,893.396
"1083",79.04906,893.4092
"1084",79.00023,893.42236
"1085",78.941635,893.43555
"1086",78.88548,893.4487
"1087",78.82445,893.4619
"1088",78.76097,893.4751
"1089",78.69749,893.4883
"1090",78.63401,893.50146
"1091",78.57542,893.51465
"1092",78.55833,893.52783
"1093",78.63401,893.541
"1094",78.853745,893.5542
"1095",79.26391,893.5674
"1096",79.85962,893.58057
"1097",80.59449,893.59375
"1098",81.375755,893.60693
"1099",82.08621,893.6201
"1100",82.62821,893.6333
"1101",82.95537,893.6465
"1102",83.05791,893.65967
"1103",82.97246,893.67285
"1104",82.7454,893.68604
"1105",82.4329,893.6992
"1106",82.074005,893.7124
"1107",81.70046,893.7256
"1108",81.322044,893.7388
"1109",80.9485,893.75195
"1110",80.584724,893.76514
"1111",80.24048,893.7783
"1112",79.923096,893.7915
"1113",79.64721,893.8047
"1114",79.4226,893.8179
"1115",79.25414,893.83105
"1116",79.14671,893.84424
"1117",79.09056,893.8574
"1118",79.078354,893.8706
"1119",79.10521,893.8838
"1120",79.15404,893.897
"1121",79.20531,893.91016
"1122",79.25414,893.92334
"1123",79.28588,893.9365
"1124",79.29565,893.9497
"1125",79.28344,893.9629
"1126",79.256584,893.9761
"1127",79.219955,893.98926
"1128",79.17113,894.00244
"1129",79.11742,894.0156
"1130",79.05882,894.0288
"1131",78.99779,894.042
"1132",78.93431,894.0552
"1133",78.86839,894.06836
"1134",78.80492,894.08154
"1135",78.74143,894.0947
"1136",78.692604,894.1079
"1137",78.69016,894.1211
"1138",78.78294,894.1343
"1139",79.029526,894.14746
"1140",79.46899,894.16064
"1141",80.08423,894.1738
"1142",80.814224,894.187
"1143",81.5613,894.2002
"1144",82.213165,894.2134
"1145",82.686806,894.22656
"1146",82.94072,894.23975
"1147",82.99199,894.2529
"1148",82.86992,894.2661
"1149",82.62821,894.2793
"1150",82.30839,894.2925
"1151",81.94705,894.30566
"1152",81.56863,894.31885
"1153",81.18532,894.33203
"1154",80.80934,894.3452
"1155",80.448006,894.3584
"1156",80.113525,894.3716
"1157",79.818115,894.38477
"1158",79.56664,894.39795
"1159",79.36889,894.41113
"1160",79.22484,894.4243
"1161",79.13939,894.4375
"1162",79.10765,894.4507
"1163",79.11742,894.46387
"1164",79.15892,894.47705
"1165",79.219955,894.49023
"1166",79.281,894.5034
"1167",79.33227,894.5166
"1168",79.36889,894.5298
"1169",79.38598,894.54297
"1170",79.381096,894.55615
"1171",79.35668,894.56934
"1172",79.31274,894.5825
"1173",79.256584,894.5957
"1174",79.19066,894.6089
"1175",79.12474,894.6221
"1176",79.05394,894.63525
"1177",78.98314,894.64844
"1178",78.91478,894.6616
"1179",78.84642,894.6748
"1180",78.78783,894.688
"1181",78.765854,894.7012
"1182",78.839096,894.71436
"1183",79.05882,894.72754
"1184",79.4641,894.7407
"1185",80.05005,894.7539
"1186",80.76051,894.7671
"1187",81.497826,894.7803
"1188",82.15701,894.79346
"1189",82.652626,894.80664
"1190",82.94316,894.8198
"1191",83.03105,894.833
"1192",82.948044,894.8462
"1193",82.73319,894.8594
"1194",82.43534,894.87256
"1195",82.08865,894.88574
"1196",81.722435,894.8989
"1197",81.356224,894.9121
"1198",80.99977,894.9253
"1199",80.65797,894.9385
"1200",80.34058,894.95166
"1201",80.045166,894.96484
"1202",79.783936,894.978
"1203",79.56664,894.9912
"1204",79.398186,895.0044
"1205",79.28832,895.0176
"1206",79.23216,895.03076
"1207",79.22484,895.04395
"1208",79.25414,895.0571
"1209",79.30297,895.0703
"1210",79.35912,895.0835
"1211",79.40795,895.0967
"1212",79.44457,895.10986
"1213",79.45678,895.12305
"1214",79.449455,895.1362
"1215",79.42504,895.1494
"1216",79.38354,895.1626
"1217",79.327385,895.1758
"1218",79.26391,895.18896
"1219",79.185776,895.20215
"1220",79.10277,895.21533
"1221",79.01488,895.2285
"1222",78.93919,895.2417
"1223",78.870834,895.2549
"1224",78.83177,895.26807
"1225",78.853745,895.28125
"1226",78.992905,895.29443
"1227",79.29565,895.3076
"1228",79.781494,895.3208
"1229",80.42115,895.334
"1230",81.13893,895.34717
"1231",81.82742,895.36035
"1232",82.391396,895.37354
"1233",82.76494,895.3867
"1234",82.933395,895.3999
"1235",82.90898,895.4131
"1236",82.738075,895.4263
"1237",82.46952,895.43945
"1238",82.14725,895.45264
"1239",81.81766,895.4658
"1240",81.497826,895.479
"1241",81.19264,895.4922
"1242",80.902115,895.5054
"1243",80.618904,895.51855
"1244",80.33814,895.53174
"1245",80.06958,895.5449
"1246",79.82788,895.5581
"1247",79.63256,895.5713
"1248",79.48852,895.5845
"1249",79.40795,895.59766
"1250",79.37377,895.61084
"1251",79.378654,895.624
"1252",79.40551,895.6372
"1253",79.44213,895.6504
"1254",79.47387,895.6636
"1255",79.4934,895.67676
"1256",79.49096,895.68994
"1257",79.47143,895.7031
"1258",79.43481,895.7163
"1259",79.381096,895.7295
"1260",79.31762,895.7427
"1261",79.2517,895.75586
"1262",79.18089,895.76904
"1263",79.11009,895.7822
"1264",79.03197,895.7954
"1265",78.95384,895.8086
"1266",78.87572,895.8218
"1267",78.802475,895.83496
"1268",78.75853,895.84814
"1269",78.79759,895.8613
"1270",78.975815,895.8745
"1271",79.32983,895.8877
"1272",79.85962,895.9009
"1273",80.52857,895.91406
"1274",81.248795,895.92725
"1275",81.917755,895.9404
"1276",82.44511,895.9536
"1277",82.78203,895.9668
"1278",82.91875,895.98
"1279",82.88457,895.99316
"1280",82.7161,896.00635
"1281",82.46708,896.01953
"1282",82.1741,896.0327
"1283",81.86893,896.0459
"1284",81.55886,896.0591
"1285",81.25613,896.07227
"1286",80.96071,896.08545
"1287",80.66773,896.09863
"1288",80.38209,896.1118
"1289",80.10376,896.125
"1290",79.84741,896.1382
"1291",79.622795,896.15137
"1292",79.44213,896.16455
"1293",79.31762,896.17773
"1294",79.2517,896.1909
"1295",79.237045,896.2041
"1296",79.256584,896.2173
"1297",79.29565,896.23047
"1298",79.33715,896.24365
"1299",79.36645,896.25684
"1300",79.36889,896.27
"1301",79.3518,896.2832
"1302",79.31274,896.2964
"1303",79.26147,896.3096
"1304",79.19798,896.32275
"1305",79.13451,896.33594
"1306",79.06615,896.3491
"1307",78.995346,896.3623
"1308",78.91722,896.3755
"1309",78.84154,896.3887
"1310",78.765854,896.40186
"1311",78.69749,896.41504
"1312",78.65598,896.4282
"1313",78.6804,896.4414
"1314",78.82445,896.4546
"1315",79.12962,896.4678
"1316",79.605705,896.48096
"1317",80.22827,896.49414
"1318",80.92897,896.5073
"1319",81.61257,896.5205
"1320",82.19119,896.5337
"1321",82.598915,896.5469
"1322",82.81865,896.56006
"1323",82.862595,896.57324
"1324",82.760056,896.5864
"1325",82.55741,896.5996
"1326",82.28886,896.6128
"1327",81.99588,896.626
"1328",81.69558,896.63916
"1329",81.39773,896.65234
"1330",81.10475,896.6655
"1331",80.816666,896.6787
"1332",80.52857,896.6919
"1333",80.25025,896.7051
"1334",79.97925,896.71826
"1335",79.7351,896.73145
"1336",79.5227,896.7446
"1337",79.35912,896.7578
"1338",79.24437,896.771
"1339",79.183334,896.7842
"1340",79.1638,896.79736
"1341",79.183334,896.81055
"1342",79.219955,896.8237
"1343",79.25414,896.8369
"1344",79.273674,896.8501
"1345",79.273674,896.8633
"1346",79.2517,896.87646
"1347",79.20531,896.88965
"1348",79.14427,896.90283
"1349",79.07347,896.916
"1350",78.995346,896.9292
"1351",78.91722,896.9424
"1352",78.84154,896.95557
"1353",78.77074,896.96875
"1354",78.695045,896.98193
"1355",78.6218,896.9951
"1356",78.54856,897.0083
"1357",78.48264,897.0215
"1358",78.45579,897.03467
"1359",78.51682,897.04785
"1360",78.71946,897.06104
"1361",79.10033,897.0742
"1362",79.66186,897.0874
"1363",80.36256,897.1006
"1364",81.10719,897.1138
"1365",81.79813,897.12695
"1366",82.34501,897.14014
"1367",82.701454,897.1533
"1368",82.86015,897.1665
"1369",82.85039,897.1797
"1370",82.70878,897.1929
"1371",82.48661,897.20605
"1372",82.21805,897.21924
"1373",81.9324,897.2324
"1374",81.64675,897.2456
"1375",81.36111,897.2588
"1376",81.077896,897.272
"1377",80.79225,897.28516
"1378",80.50416,897.29834
"1379",80.218506,897.3115
"1380",79.94263,897.3247
"1381",79.691154,897.3379
"1382",79.47631,897.3511
"1383",79.30785,897.36426
"1384",79.19554,897.37744
"1385",79.13451,897.3906
"1386",79.11986,897.4038
"1387",79.13451,897.417
"1388",79.16136,897.4302
"1389",79.18822,897.44336
"1390",79.200424,897.45654
"1391",79.19066,897.4697
"1392",79.15648,897.4829
"1393",79.10277,897.4961
"1394",79.04173,897.5093
"1395",78.97337,897.52246
"1396",78.90257,897.53564
"1397",78.83421,897.5488
"1398",78.765854,897.562
"1399",78.69749,897.5752
"1400",78.626686,897.5884
"1401",78.555885,897.60156
"1402",78.485085,897.61475
"1403",78.41428,897.6279
"1404",78.35081,897.6411
"1405",78.31907,897.6543
"1406",78.348366,897.6675
"1407",78.49973,897.68066
"1408",78.81712,897.69385
"1409",79.327385,897.70703
"1410",79.99878,897.7202
"1411",80.76784,897.7334
"1412",81.529564,897.7466
"1413",82.18387,897.75977
"1414",82.65507,897.77295
"1415",82.92119,897.78613
"1416",82.98955,897.7993
"1417",82.9041,897.8125
"1418",82.71122,897.8257
"1419",82.44999,897.83887
"1420",82.159454,897.85205
"1421",81.8616,897.86523
"1422",81.57107,897.8784
"1423",81.290306,897.8916
"1424",81.01442,897.9048
"1425",80.72877,897.91797
"1426",80.43336,897.93115
"1427",80.14038,897.94434
"1428",79.85718,897.9575
"1429",79.603264,897.9707
"1430",79.395744,897.9839
"1431",79.24437,897.9971
"1432",79.14671,898.01025
"1433",79.10033,898.02344
"1434",79.097885,898.0366
"1435",79.1223,898.0498
"1436",79.15892,898.063
"1437",79.18089,898.0762
"1438",79.185776,898.08936
"1439",79.16136,898.10254
"1440",79.11253,898.1157
"1441",79.044174,898.1289
"1442",78.96849,898.1421
"1443",78.88548,898.1553
"1444",78.80003,898.16846
"1445",78.71702,898.18164
"1446",78.63889,898.1948
"1447",78.56565,898.208
"1448",78.504616,898.2212
"1449",78.450905,898.2344
"1450",78.399635,898.24756
"1451",78.35081,898.26074
"1452",78.29954,898.2739
"1453",78.24582,898.2871
"1454",78.19943,898.3003
"1455",78.19943,898.3135
"1456",78.28977,898.32666
"1457",78.53147,898.33984
"1458",78.96361,898.353
"1459",79.58129,898.3662
"1460",80.33082,898.3794
"1461",81.11696,898.3926
"1462",81.84207,898.40576
"1463",82.41337,898.41895
"1464",82.77959,898.4321
"1465",82.94072,898.4453
"1466",82.92363,898.4585
"1467",82.774704,898.4717
"1468",82.54276,898.48486
"1469",82.269325,898.49805
"1470",81.98367,898.5112
"1471",81.705345,898.5244
"1472",81.43191,898.5376
"1473",81.15846,898.5508
"1474",80.885025,898.56396
"1475",80.59937,898.57715
"1476",80.308846,898.59033
"1477",80.02075,898.6035
"1478",79.7522,898.6167
"1479",79.517815,898.6299
"1480",79.32983,898.64307
"1481",79.19798,898.65625
"1482",79.12474,898.66943
"1483",79.093,898.6826
"1484",79.097885,898.6958
"1485",79.12474,898.709
"1486",79.149155,898.72217
"1487",79.16136,898.73535
"1488",79.151596,898.74854
"1489",79.11986,898.7617
"1490",79.06859,898.7749
"1491",79.00267,898.7881
"1492",78.922104,898.8013
"1493",78.83177,898.81445
"1494",78.74143,898.82764
"1495",78.6511,898.8408
"1496",78.56809,898.854
"1497",78.49241,898.8672
"1498",78.42649,898.8804
"1499",78.3679,898.89355
"1500",78.31663,898.90674
"1501",78.27268,898.9199
"1502",78.23361,898.9331
"1503",78.20187,898.9463
"1504",78.17502,898.9595
"1505",78.14572,898.97266
"1506",78.116425,898.98584
"1507",78.10666,898.999
"1508",78.16525,899.0122
"1509",78.35569,899.0254
"1510",78.72678,899.0386
"1511",79.29809,899.05176
"1512",80.03296,899.06494
"1513",80.84352,899.0781
"1514",81.617455,899.0913
"1515",82.247345,899.1045
"1516",82.6746,899.1177
"1517",82.88945,899.13086
"1518",82.913864,899.14404
"1519",82.791794,899.1572
"1520",82.5745,899.1704
"1521",82.30839,899.1836
"1522",82.02518,899.1968
"1523",81.74197,899.20996
"1524",81.47097,899.22314
"1525",81.21217,899.2363
"1526",80.96315,899.2495
"1527",80.709236,899.2627
"1528",80.45045,899.2759
"1529",80.18677,899.28906
"1530",79.920654,899.30225
"1531",79.676506,899.3154
"1532",79.466545,899.3286
"1533",79.30541,899.3418
"1534",79.19798,899.355
"1535",79.13939,899.36816
"1536",79.1223,899.38135
"1537",79.13451,899.39453
"1538",79.15404,899.4077
"1539",79.168686,899.4209
"1540",79.17357,899.4341
"1541",79.15404,899.44727
"1542",79.11253,899.46045
"1543",79.0515,899.47363
"1544",78.9807,899.4868
"1545",78.90013,899.5
"1546",78.81224,899.5132
"1547",78.71946,899.52637
"1548",78.62913,899.53955
"1549",78.538795,899.55273
"1550",78.45823,899.5659
"1551",78.38987,899.5791
"1552",78.328835,899.5923
"1553",78.28245,899.60547
"1554",78.24338,899.61865
"1555",78.21408,899.63184
"1556",78.19211,899.645
"1557",78.17258,899.6582
"1558",78.15549,899.6714
"1559",78.133514,899.6846
"1560",78.118866,899.69775
"1561",78.1384,899.71094
"1562",78.24582,899.7241
"1563",78.49485,899.7373
"1564",78.93187,899.7505
"1565",79.54467,899.7637
"1566",80.291756,899.77686
"1567",81.07301,899.79004
"1568",81.78348,899.8032
"1569",82.32792,899.8164
"1570",82.669716,899.8296
"1571",82.80644,899.8428
"1572",82.774704,899.85596
"1573",82.61845,899.86914
"1574",82.388954,899.8823
"1575",82.11795,899.8955
"1576",81.83475,899.9087
"1577",81.55398,899.9219
"1578",81.28542,899.93506
"1579",81.02907,899.94824
"1580",80.78493,899.9614
"1581",80.54322,899.9746
"1582",80.29664,899.9878
"1583",80.05005,900.001
"1584",79.815674,900.01416
"1585",79.59594,900.02734
"1586",79.41039,900.0405
"1587",79.27123,900.0537
"1588",79.17845,900.0669
"1589",79.12962,900.0801
"1590",79.11986,900.09326
"1591",79.13451,900.10645
"1592",79.15892,900.1196
"1593",79.17357,900.1328
"1594",79.17113,900.146
"1595",79.149155,900.1592
"1596",79.11009,900.17236
"1597",79.05394,900.18555
"1598",78.99046,900.1987
"1599",78.91966,900.2119
"1600",78.84642,900.2251
"1601",78.77074,900.2383
"1602",78.695045,900.25146
"1603",78.61936,900.26465
"1604",78.553444,900.27783
"1605",78.49241,900.291
"1606",78.433815,900.3042
"1607",78.382545,900.3174
"1608",78.3386,900.33057
"1609",78.30198,900.34375
"1610",78.27512,900.35693
"1611",78.25803,900.3701
"1612",78.25071,900.3833
"1613",78.25071,900.3965
"1614",78.25315,900.40967
"1615",78.24826,900.42285
"1616",78.24582,900.43604
"1617",78.260475,900.4492
"1618",78.34104,900.4624
"1619",78.54368,900.4756
"1620",78.924545,900.4888
"1621",79.4934,900.50195
"1622",80.216064,900.51514
"1623",81.01198,900.5283
"1624",81.77127,900.5415
"1625",82.388954,900.5547
"1626",82.80156,900.5679
"1627",82.99931,900.58105
"1628",83.001755,900.59424
"1629",82.86015,900.6074
"1630",82.62333,900.6206
"1631",82.34501,900.6338
"1632",82.04959,900.647
"1633",81.75906,900.66016
"1634",81.4905,900.67334
"1635",81.23903,900.6865
"1636",80.99489,900.6997
"1637",80.75319,900.7129
"1638",80.50904,900.7261
"1639",80.26246,900.73926
"1640",80.02319,900.75244
"1641",79.801025,900.7656
"1642",79.61303,900.7788
"1643",79.4641,900.792
"1644",79.35912,900.8052
"1645",79.29565,900.81836
"1646",79.273674,900.83154
"1647",79.27856,900.8447
"1648",79.293205,900.8579
"1649",79.30785,900.8711
"1650",79.310295,900.8843
"1651",79.29809,900.89746
"1652",79.27123,900.91064
"1653",79.23216,900.9238
"1654",79.185776,900.937
"1655",79.132065,900.9502
"1656",79.06615,900.9634
"1657",78.992905,900.97656
"1658",78.91722,900.98975
"1659",78.836655,901.0029
"1660",78.76097,901.0161
"1661",78.68772,901.0293
"1662",78.61936,901.0425
"1663",78.555885,901.05566
"1664",78.49973,901.06885
"1665",78.45579,901.08203
"1666",78.42649,901.0952
"1667",78.40696,901.1084
"1668",78.397194,901.1216
"1669",78.38743,901.13477
"1670",78.382545,901.14795
"1671",78.37522,901.16113
"1672",78.37522,901.1743
"1673",78.37766,901.1875
"1674",78.397194,901.2007
"1675",78.46555,901.21387
"1676",78.643776,901.22705
"1677",78.975815,901.24023
"1678",79.4934,901.2534
"1679",80.177,901.2666
"1680",80.95827,901.2798
"1681",81.72976,901.29297
"1682",82.388954,901.30615
"1683",82.85771,901.31934
"1684",83.104294,901.3325
"1685",83.1458,901.3457
"1686",83.02373,901.3589
"1687",82.791794,901.3721
"1688",82.50614,901.38525
"1689",82.2034,901.39844
"1690",81.90311,901.4116
"1691",81.62234,901.4248
"1692",81.36111,901.438
"1693",81.1194,901.4512
"1694",80.88258,901.46436
"1695",80.6482,901.47754
"1696",80.411385,901.4907
"1697",80.17456,901.5039
"1698",79.94751,901.5171
"1699",79.74975,901.5303
"1700",79.588615,901.54346
"1701",79.47387,901.55664
"1702",79.40551,901.5698
"1703",79.37621,901.583
"1704",79.37377,901.5962
"1705",79.38842,901.6094
"1706",79.40795,901.62256
"1707",79.4226,901.63574
"1708",79.429924,901.6489
"1709",79.42016,901.6621
"1710",79.3933,901.6753
"1711",79.3518,901.6885
"1712",79.293205,901.70166
"1713",79.2224,901.71484
"1714",79.149155,901.728
"1715",79.07347,901.7412
"1716",78.99779,901.7544
"1717",78.92699,901.7676
"1718",78.86107,901.78076
"1719",78.79515,901.79395
"1720",78.73655,901.8071
"1721",78.6804,901.8203
"1722",78.62913,901.8335
"1723",78.58274,901.8467
"1724",78.54368,901.85986
"1725",78.51682,901.87305
"1726",78.49973,901.8862
"1727",78.49241,901.8994
"1728",78.48997,901.9126
"1729",78.49241,901.9258
"1730",78.49241,901.93896
"1731",78.48997,901.95215
"1732",78.49485,901.96533
"1733",78.52659,901.9785
"1734",78.641335,901.9917
"1735",78.89525,902.0049
"1736",79.33715,902.01807
"1737",79.96704,902.03125
"1738",80.73853,902.04443
"1739",81.55886,902.0576
"1740",82.31083,902.0708
"1741",82.896774,902.084
"1742",83.267876,902.09717
"1743",83.4168,902.11035
"1744",83.3753,902.12354
"1745",83.1873,902.1367
"1746",82.916306,902.1499
"1747",82.60136,902.1631
"1748",82.28153,902.1763
"1749",81.97391,902.18945
"1750",81.688255,902.20264
"1751",81.4197,902.2158
"1752",81.163345,902.229
"1753",80.90944,902.2422
"1754",80.655525,902.2554
"1755",80.40894,902.26855
"1756",80.17212,902.28174
"1757",79.954834,902.2949
"1758",79.77661,902.3081
"1759",79.639885,902.3213
"1760",79.54223,902.3345
"1761",79.48608,902.34766
"1762",79.4641,902.36084
"1763",79.46166,902.374
"1764",79.46899,902.3872
"1765",79.47875,902.4004
"1766",79.48852,902.4136
"1767",79.48852,902.42676
"1768",79.47387,902.43994
"1769",79.447014,902.4531
"1770",79.40063,902.4663
"1771",79.33959,902.4795
"1772",79.26879,902.4927
"1773",79.19066,902.50586
"1774",79.11253,902.51904
"1775",79.03197,902.5322
"1776",78.958725,902.5454
"1777",78.88304,902.5586
"1778",78.81224,902.5718
"1779",78.74876,902.58496
"1780",78.695045,902.59814
"1781",78.64866,902.6113
"1782",78.61204,902.6245
"1783",78.58274,902.6377
"1784",78.55833,902.6509
"1785",78.538795,902.66406
"1786",78.52415,902.67725
"1787",78.51682,902.6904
"1788",78.51682,902.7036
"1789",78.51682,902.7168
"1790",78.519264,902.73
"1791",78.53391,902.74316
"1792",78.59983,902.75635
"1793",78.77562,902.76953
"1794",79.1223,902.7827
"1795",79.66186,902.7959
"1796",80.37476,902.8091
"1797",81.19264,902.82227
"1798",82.00809,902.83545
"1799",82.70634,902.84863
"1800",83.21904,902.8618
"1801",83.50713,902.875
"1802",83.5877,902.8882
"1803",83.492485,902.90137
"1804",83.27032,902.91455
"1805",82.97002,902.92773
"1806",82.633095,902.9409
"1807",82.2913,902.9541
"1808",81.95926,902.9673
"1809",81.64919,902.98047
"1810",81.36111,902.99365
"1811",81.092545,903.00684
"1812",80.8362,903.02
"1813",80.59205,903.0332
"1814",80.35767,903.0464
"1815",80.14282,903.0596
"1816",79.94995,903.07275
"1817",79.783936,903.08594
"1818",79.656975,903.0991
"1819",79.569084,903.1123
"1820",79.51537,903.1255
"1821",79.49096,903.1387
"1822",79.48852,903.15186
"1823",79.49096,903.16504
"1824",79.49828,903.1782
"1825",79.49584,903.1914
"1826",79.483635,903.2046
"1827",79.45434,903.2178
"1828",79.41039,903.23096
"1829",79.3518,903.24414
"1830",79.27856,903.2573
"1831",79.200424,903.2705
"1832",79.1223,903.2837
"1833",79.046616,903.2969
"1834",78.97337,903.31006
"1835",78.905014,903.32324
"1836",78.836655,903.3364
"1837",78.77074,903.3496
"1838",78.70725,903.3628
"1839",78.643776,903.376
"1840",78.590065,903.38916
"1841",78.54612,903.40234
"1842",78.5095,903.4155
"1843",78.4802,903.4287
"1844",78.46067,903.4419
"1845",78.450905,903.4551
"1846",78.44114,903.46826
"1847",78.43626,903.48145
"1848",78.433815,903.4946
"1849",78.4387,903.5078
"1850",78.4802,903.521
"1851",78.61692,903.5342
"1852",78.91478,903.54736
"1853",79.4226,903.56055
"1854",80.130615,903.5737
"1855",80.96803,903.5869
"1856",81.83475,903.6001
"1857",82.60624,903.6133
"1858",83.192184,903.62646
"1859",83.54864,903.63965
"1860",83.682915,903.65283
"1861",83.62432,903.666
"1862",83.42657,903.6792
"1863",83.13603,903.6924
"1864",82.80156,903.70557
"1865",82.44999,903.71875
"1866",82.10574,903.73193
"1867",81.77371,903.7451
"1868",81.45876,903.7583
"1869",81.160904,903.7715
"1870",80.88258,903.78467
"1871",80.61402,903.79785
"1872",80.365,903.81104
"1873",80.13794,903.8242
"1874",79.93286,903.8374
"1875",79.75952,903.8506
"1876",79.62768,903.8638
"1877",79.53979,903.87695
"1878",79.4934,903.89014
"1879",79.47875,903.9033
"1880",79.49096,903.9165
"1881",79.51049,903.9297
"1882",79.53002,903.9429
"1883",79.53002,903.95605
"1884",79.51293,903.96924
"1885",79.47875,903.9824
"1886",79.42748,903.9956
"1887",79.36889,904.0088
"1888",79.30541,904.022
"1889",79.237045,904.03516
"1890",79.15892,904.04834
"1891",79.07591,904.0615
"1892",78.992905,904.0747
"1893",78.9099,904.0879
"1894",78.82689,904.1011
"1895",78.751205,904.11426
"1896",78.677956,904.12744
"1897",78.6096,904.1406
"1898",78.54856,904.1538
"1899",78.49973,904.167
"1900",78.46311,904.1802
"1901",78.43626,904.19336
"1902",78.41184,904.20654
"1903",78.38987,904.2197
"1904",78.37034,904.2329
"1905",78.37278,904.2461
"1906",78.450905,904.2593
"1907",78.67307,904.27246
"1908",79.09056,904.28564
"1909",79.71313,904.2988
"1910",80.50172,904.312
"1911",81.356224,904.3252
"1912",82.161896,904.3384
"1913",82.80888,904.35156
"1914",83.24101,904.36475
"1915",83.44854,904.3779
"1916",83.45342,904.3911
"1917",83.3045,904.4043
"1918",83.04814,904.4175
"1919",82.73075,904.43066
"1920",82.37919,904.44385
"1921",82.01785,904.45703
"1922",81.65652,904.4702
"1923",81.304955,904.4834
"1924",80.96559,904.4966
"1925",80.6482,904.50977
"1926",80.34791,904.52295
"1927",80.07446,904.53613
"1928",79.82788,904.5493
"1929",79.622795,904.5625
"1930",79.466545,904.5757
"1931",79.36645,904.58887
"1932",79.31274,904.60205
"1933",79.30297,904.61523
"1934",79.32006,904.6284
"1935",79.34936,904.6416
"1936",79.38354,904.6548
"1937",79.412834,904.66797
"1938",79.42504,904.68115
"1939",79.42504,904.69434
"1940",79.41039,904.7075
"1941",79.381096,904.7207
"1942",79.33959,904.7339
"1943",79.293205,904.7471
"1944",79.23949,904.76025
"1945",79.183334,904.77344
"1946",79.1223,904.7866
"1947",79.05882,904.7998
"1948",78.995346,904.813
"1949",78.93187,904.8262
"1950",78.86595,904.83936
"1951",78.79759,904.85254
"1952",78.73655,904.8657
"1953",78.677956,904.8789
"1954",78.626686,904.8921
"1955",78.57786,904.9053
"1956",78.54612,904.91846
"1957",78.54124,904.93164
"1958",78.61692,904.9448
"1959",78.83177,904.958
"1960",79.23216,904.9712
"1961",79.82544,904.9844
"1962",80.5774,904.99756
"1963",81.3904,905.01074
"1964",82.15457,905.0239
"1965",82.77226,905.0371
"1966",83.18242,905.0503
"1967",83.37774,905.0635
"1968",83.370415,905.07666
"1969",83.209274,905.08984
"1970",82.93828,905.103
"1971",82.60624,905.1162
"1972",82.247345,905.1294
"1973",81.883575,905.1426
"1974",81.52468,905.15576
"1975",81.17799,905.16895
"1976",80.84108,905.1821
"1977",80.51392,905.1953
"1978",80.2063,905.2085
"1979",79.92798,905.2217
"1980",79.68871,905.23486
"1981",79.49584,905.24805
"1982",79.35668,905.2612
"1983",79.26879,905.2744
"1984",79.22728,905.2876
"1985",79.2224,905.3008
"1986",79.24437,905.31396
"1987",79.27856,905.32715
"1988",79.31518,905.34033
"1989",79.34936,905.3535
"1990",79.36889,905.3667
"1991",79.37133,905.3799
"1992",79.3518,905.39307
"1993",79.32006,905.40625
"1994",79.281,905.41943
"1995",79.23216,905.4326
"1996",79.18089,905.4458
"1997",79.12474,905.459
"1998",79.06615,905.47217
"1999",79.00755,905.48535
"2000",78.94896,905.49854
"2001",78.890366,905.5117
"2002",78.83421,905.5249
"2003",78.77806,905.5381
"2004",78.71458,905.5513
"2005",78.65354,905.56445
"2006",78.590065,905.57764
"2007",78.536354,905.5908
"2008",78.51438,905.604
"2009",78.572975,905.6172
"2010",78.77806,905.6304
"2011",79.18089,905.64355
"2012",79.781494,905.65674
"2013",80.54322,905.6699
"2014",81.3782,905.6831
"2015",82.16922,905.6963
"2016",82.81377,905.7095
"2017",83.250786,905.72266
"2018",83.46807,905.73584
"2019",83.49004,905.749
"2020",83.346,905.7622
"2021",83.08476,905.7754
"2022",82.75517,905.7886
"2023",82.38651,905.80176
"2024",82.01053,905.81494
"2025",81.636986,905.8281
"2026",81.27566,905.8413
"2027",80.92653,905.8545
"2028",80.59449,905.8677
"2029",80.27955,905.88086
"2030",79.9939,905.89404
"2031",79.744865,905.9072
"2032",79.54223,905.9204
"2033",79.39086,905.9336
"2034",79.28832,905.9468
"2035",79.234604,905.95996
"2036",79.22484,905.97314
"2037",79.24437,905.9863
"2038",79.276115,905.9995
"2039",79.31518,906.0127
"2040",79.3518,906.0259
"2041",79.37377,906.03906
"2042",79.37621,906.05225
"2043",79.361565,906.0654
"2044",79.33227,906.0786
"2045",79.28588,906.0918
"2046",79.22728,906.105
"2047",79.1638,906.11816
"2048",79.10033,906.13135
"2049",79.03441,906.14453
"2050",78.96605,906.1577
"2051",78.905014,906.1709
"2052",78.84642,906.1841
"2053",78.785385,906.19727
"2054",78.71946,906.21045
"2055",78.65598,906.22363
"2056",78.590065,906.2368
"2057",78.536354,906.25
"2058",78.521706,906.2632
"2059",78.59495,906.27637
"2060",78.81712,906.28955
"2061",79.23216,906.30273
"2062",79.84253,906.3159
"2063",80.601814,906.3291
"2064",81.41482,906.3423
"2065",82.17166,906.35547
"2066",82.76982,906.36865
"2067",83.160446,906.38184
"2068",83.32891,906.395
"2069",83.30938,906.4082
"2070",83.13847,906.4214
"2071",82.86992,906.4346
"2072",82.54276,906.44775
"2073",82.193634,906.46094
"2074",81.83719,906.4741
"2075",81.478294,906.4873
"2076",81.12428,906.5005
"2077",80.780045,906.5137
"2078",80.448006,906.52686
"2079",80.14038,906.54004
"2080",79.869385,906.5532
"2081",79.64965,906.5664
"2082",79.47875,906.5796
"2083",79.364006,906.5928
"2084",79.29565,906.60596
"2085",79.26635,906.61914
"2086",79.26635,906.6323
"2087",79.28344,906.6455
"2088",79.30785,906.6587
"2089",79.33471,906.6719
"2090",79.35668,906.68506
"2091",79.361565,906.69824
"2092",79.34936,906.7114
"2093",79.32006,906.7246
"2094",79.276115,906.7378
"2095",79.2224,906.751
"2096",79.166245,906.76416
"2097",79.11009,906.77734
"2098",79.04906,906.7905
"2099",78.98558,906.8037
"2100",78.91722,906.8169
"2101",78.84886,906.8301
"2102",78.77806,906.84326
"2103",78.712135,906.85645
"2104",78.64622,906.8696
"2105",78.58518,906.8828
"2106",78.538795,906.896
"2107",78.52415,906.9092
"2108",78.59495,906.92236
"2109",78.81468,906.93555
"2110",79.22484,906.9487
"2111",79.82544,906.9619
"2112",80.570076,906.9751
"2113",81.36599,906.9883
"2114",82.09842,907.00146
"2115",82.667274,907.01465
"2116",83.02373,907.02783
"2117",83.158005,907.041
"2118",83.104294,907.0542
"2119",82.9041,907.0674
"2120",82.61356,907.08057
"2121",82.27177,907.09375
"2122",81.91531,907.10693
"2123",81.55642,907.1201
"2124",81.20485,907.1333
"2125",80.86305,907.1465
"2126",80.53834,907.15967
"2127",80.235596,907.17285
"2128",79.95972,907.18604
"2129",79.71557,907.1992
"2130",79.51049,907.2124
"2131",79.35912,907.2256
"2132",79.256584,907.2388
"2133",79.20531,907.25195
"2134",79.202866,907.26514
"2135",79.22728,907.2783
"2136",79.26391,907.2915
"2137",79.30053,907.3047
"2138",79.32983,907.3179
"2139",79.34203,907.33105
"2140",79.33471,907.34424
"2141",79.31274,907.3574
"2142",79.273674,907.3706
"2143",79.22972,907.3838
"2144",79.18089,907.397
"2145",79.12718,907.41016
"2146",79.07103,907.42334
"2147",79.012436,907.4365
"2148",78.95384,907.4497
"2149",78.890366,907.4629
"2150",78.82445,907.4761
"2151",78.75609,907.48926
"2152",78.68772,907.50244
"2153",78.624245,907.5156
"2154",78.57542,907.5288
"2155",78.572975,907.542
"2156",78.675514,907.5552
"2157",78.93431,907.56836
"2158",79.37621,907.58154
"2159",79.99634,907.5947
"2160",80.73609,907.6079
"2161",81.497826,907.6211
"2162",82.18143,907.6343
"2163",82.69901,907.64746
"2164",83.01152,907.66064
"2165",83.11162,907.6738
"2166",83.03349,907.687
"2167",82.82109,907.7002
"2168",82.528114,907.7134
"2169",82.19119,907.72656
"2170",81.84207,907.73975
"2171",81.495384,907.7529
"2172",81.15358,907.7661
"2173",80.81911,907.7793
"2174",80.499275,907.7925
"2175",80.201416,907.80566
"2176",79.92798,907.81885
"2177",79.69848,907.83203
"2178",79.51537,907.8452
"2179",79.38598,907.8584
"2180",79.30785,907.8716
"2181",79.276115,907.88477
"2182",79.276115,907.89795
"2183",79.29809,907.91113
"2184",79.327385,907.9243
"2185",79.35668,907.9375
"2186",79.37621,907.9507
"2187",79.38354,907.96387
"2188",79.37377,907.97705
"2189",79.34936,907.99023
"2190",79.30541,908.0034
"2191",79.24925,908.0166
"2192",79.183334,908.0298
"2193",79.11253,908.04297
"2194",79.044174,908.05615
"2195",78.975815,908.06934
"2196",78.9099,908.0825
"2197",78.84886,908.0957
"2198",78.79271,908.1089
"2199",78.73411,908.1221
"2200",78.6804,908.13525
"2201",78.63645,908.14844
"2202",78.626686,908.1616
"2203",78.69016,908.1748
"2204",78.89769,908.188
"2205",79.28588,908.2012
"2206",79.85962,908.21436
"2207",80.57496,908.22754
"2208",81.34646,908.2407
"2209",82.056915,908.2539
"2210",82.61845,908.2671
"2211",82.97734,908.2803
"2212",83.123825,908.29346
"2213",83.08232,908.30664
"2214",82.89189,908.3198
"2215",82.598915,908.333
"2216",82.25468,908.3462
"2217",81.88602,908.3594
"2218",81.52224,908.37256
"2219",81.17311,908.38574
"2220",80.84352,908.3989
"2221",80.533455,908.4121
"2222",80.25025,908.4253
"2223",79.991455,908.4385
"2224",79.766846,908.45166
"2225",79.586174,908.46484
"2226",79.4519,908.478
"2227",79.35912,908.4912
"2228",79.30297,908.5044
"2229",79.28344,908.5176
"2230",79.293205,908.53076
"2231",79.32006,908.54395
"2232",79.3518,908.5571
"2233",79.37621,908.5703
"2234",79.38354,908.5835
"2235",79.36645,908.5967
"2236",79.32494,908.60986
"2237",79.26879,908.62305
"2238",79.200424,908.6362
"2239",79.12718,908.6494
"2240",79.0515,908.6626
"2241",78.98314,908.6758
"2242",78.91966,908.68896
"2243",78.85863,908.70215
"2244",78.80492,908.71533
"2245",78.751205,908.7285
"2246",78.69993,908.7417
"2247",78.64866,908.7549
"2248",78.59983,908.76807
"2249",78.56077,908.78125
"2250",78.56077,908.79443
"2251",78.641335,908.8076
"2252",78.86351,908.8208
"2253",79.27123,908.834
"2254",79.86206,908.84717
"2255",80.587166,908.86035
"2256",81.35134,908.87354
"2257",82.04715,908.8867
"2258",82.581825,908.8999
"2259",82.90654,908.9131
"2260",83.021286,908.9263
"2261",82.95781,908.93945
"2262",82.76494,908.95264
"2263",82.48905,908.9658
"2264",82.17166,908.979
"2265",81.84207,908.9922
"2266",81.514915,909.0054
"2267",81.19264,909.01855
"2268",80.88258,909.03174
"2269",80.58961,909.0449
"2270",80.31861,909.0581
"2271",80.07446,909.0713
"2272",79.86206,909.0845
"2273",79.68871,909.09766
"2274",79.55932,909.11084
"2275",79.47387,909.124
"2276",79.432365,909.1372
"2277",79.42016,909.1504
"2278",79.429924,909.1636
"2279",79.447014,909.17676
"2280",79.45922,909.18994
"2281",79.45922,909.2031
"2282",79.44213,909.2163
"2283",79.41039,909.2295
"2284",79.36645,909.2427
"2285",79.30785,909.25586
"2286",79.24193,909.26904
"2287",79.17357,909.2822
"2288",79.11009,909.2954
"2289",79.03929,909.3086
"2290",78.97337,909.3218
"2291",78.905014,909.33496
"2292",78.839096,909.34814
"2293",78.77562,909.3613
"2294",78.71702,909.3745
"2295",78.66331,909.3877
"2296",78.6096,909.4009
"2297",78.56321,909.41406
"2298",78.53147,909.42725
"2299",78.54612,909.4404
"2300",78.65354,909.4536
"2301",78.91478,909.4668
"2302",79.3518,909.48
"2303",79.954834,909.49316
"2304",80.67506,909.50635
"2305",81.42458,909.51953
"2306",82.09598,909.5327
"2307",82.6038,909.5459
"2308",82.90898,909.5591
"2309",83.00908,909.57227
"2310",82.92851,909.58545
"2311",82.70878,909.59863
"2312",82.408485,909.6118
"2313",82.06668,909.625
"2314",81.71999,909.6382
"2315",81.392845,909.65137
"2316",81.08522,909.66455
"2317",80.797134,909.67773
"2318",80.52369,909.6909
"2319",80.2649,909.7041
"2320",80.02075,909.7173
"2321",79.80591,909.73047
"2322",79.62768,909.74365
"2323",79.4934,909.75684
"2324",79.40307,909.77
"2325",79.34692,909.7832
"2326",79.32983,909.7964
"2327",79.33227,909.8096
"2328",79.34936,909.82275
"2329",79.364006,909.83594
"2330",79.37133,909.8491
"2331",79.364006,909.8623
"2332",79.33715,909.8755
"2333",79.29565,909.8887
"2334",79.23949,909.90186
"2335",79.17357,909.91504
"2336",79.10033,909.9282
"2337",79.027084,909.9414
"2338",78.9514,909.9546
"2339",78.8806,909.9678
"2340",78.81224,909.98096
"2341",78.74876,909.99414
"2342",78.692604,910.0073
"2343",78.641335,910.0205
"2344",78.590065,910.0337
"2345",78.54368,910.0469
"2346",78.49729,910.06006
"2347",78.44846,910.07324
"2348",78.41428,910.0864
"2349",78.416725,910.0996
"2350",78.504616,910.1128
"2351",78.73167,910.126
"2352",79.13939,910.13916
"2353",79.727776,910.15234
"2354",80.448006,910.1655
"2355",81.214615,910.1787
"2356",81.917755,910.1919
"2357",82.47196,910.2051
"2358",82.82109,910.21826
"2359",82.96269,910.23145
"2360",82.92119,910.2446
"2361",82.74052,910.2578
"2362",82.46708,910.271
"2363",82.14725,910.2842
"2364",81.80789,910.29736
"2365",81.47097,910.31055
"2366",81.146255,910.3237
"2367",80.83864,910.3369
"2368",80.550545,910.3501
"2369",80.28687,910.3633
"2370",80.04761,910.37646
"2371",79.83765,910.38965
"2372",79.66186,910.40283
"2373",79.52514,910.416
"2374",79.42748,910.4292
"2375",79.37133,910.4424
"2376",79.3518,910.45557
"2377",79.35424,910.46875
"2378",79.36889,910.48193
"2379",79.38354,910.4951
"2380",79.39086,910.5083
"2381",79.38842,910.5215
"2382",79.37133,910.53467
"2383",79.33471,910.54785
"2384",79.281,910.56104
"2385",79.21263,910.5742
"2386",79.13939,910.5874
"2387",79.05638,910.6006
"2388",78.975815,910.6138
"2389",78.90013,910.62695
"2390",78.83177,910.64014
"2391",78.765854,910.6533
"2392",78.70237,910.6665
"2393",78.63889,910.6797
"2394",78.58518,910.6929
"2395",78.53391,910.70605
"2396",78.487526,910.71924
"2397",78.44358,910.7324
"2398",78.40452,910.7456
"2399",78.37034,910.7588
"2400",78.365456,910.772
"2401",78.42649,910.78516
"2402",78.61448,910.79834
"2403",78.98314,910.8115
"2404",79.54467,910.8247
"2405",80.26246,910.8379
"2406",81.05592,910.8511
"2407",81.8201,910.86426
"2408",82.442665,910.87744
"2409",82.86015,910.8906
"2410",83.06035,910.9038
"2411",83.05791,910.917
"2412",82.896774,910.9302
"2413",82.633095,910.94336
"2414",82.31327,910.95654
"2415",81.969025,910.9697
"2416",81.62966,910.9829
"2417",81.304955,910.9961
"2418",80.99489,911.0093
"2419",80.69947,911.02246
"2420",80.42115,911.03564
"2421",80.164795,911.0488
"2422",79.93042,911.062
"2423",79.727776,911.0752
"2424",79.5642,911.0884
"2425",79.449455,911.10156
"2426",79.37621,911.11475
"2427",79.344475,911.1279
"2428",79.34692,911.1411
"2429",79.37133,911.1543
"2430",79.398186,911.1675
"2431",79.415276,911.18066
"2432",79.415276,911.19385
"2433",79.39086,911.20703
"2434",79.3518,911.2202
"2435",79.29809,911.2334
"2436",79.237045,911.2466
"2437",79.17113,911.25977
"2438",79.10521,911.27295
"2439",79.03441,911.28613
"2440",78.96849,911.2993
"2441",78.90257,911.3125
"2442",78.84154,911.3257
"2443",78.785385,911.33887
"2444",78.73411,911.35205
"2445",78.68772,911.36523
"2446",78.643776,911.3784
"2447",78.59983,911.3916
"2448",78.553444,911.4048
"2449",78.504616,911.41797
"2450",78.45823,911.43115
"2451",78.44358,911.44434
"2452",78.51194,911.4575
"2453",78.71946,911.4707
"2454",79.11009,911.4839
"2455",79.69604,911.4971
"2456",80.430916,911.51025
"2457",81.21706,911.52344
"2458",81.94705,911.5366
"2459",82.52323,911.5498
"2460",82.88457,911.563
"2461",83.02373,911.5762
"2462",82.9749,911.58936
"2463",82.777145,911.60254
"2464",82.48173,911.6157
"2465",82.13992,911.6289
"2466",81.7908,911.6421
"2467",81.449,911.6553
"2468",81.12184,911.66846
"2469",80.816666,911.68164
"2470",80.52857,911.6948
"2471",80.25269,911.708
"2472",79.99634,911.7212
"2473",79.766846,911.7344
"2474",79.57641,911.74756
"2475",79.429924,911.76074
"2476",79.33715,911.7739
"2477",79.29565,911.7871
"2478",79.29809,911.8003
"2479",79.32983,911.8135
"2480",79.37377,911.82666
"2481",79.41772,911.83984
"2482",79.447014,911.853
"2483",79.4519,911.8662
"2484",79.43481,911.8794
"2485",79.40063,911.8926
"2486",79.34936,911.90576
"2487",79.28588,911.91895
"2488",79.217514,911.9321
"2489",79.14671,911.9453
"2490",79.07591,911.9585
"2491",79.00755,911.9717
"2492",78.94408,911.98486
"2493",78.87816,911.99805
"2494",78.81224,912.0112
"2495",78.74387,912.0244
"2496",78.677956,912.0376
"2497",78.61448,912.0508
"2498",78.56077,912.06396
"2499",78.53147,912.07715
"2500",78.56077,912.09033
"2501",78.70237,912.1035
"2502",79.00755,912.1167
"2503",79.49828,912.1299
"2504",80.15015,912.14307
"2505",80.89235,912.15625
"2506",81.61501,912.16943
"2507",82.22049,912.1826
"2508",82.64042,912.1958
"2509",82.845505,912.209
"2510",82.85039,912.22217
"2511",82.703896,912.23535
"2512",82.45243,912.24854
"2513",82.144806,912.2617
"2514",81.81033,912.2749
"2515",81.478294,912.2881
"2516",81.15846,912.3013
"2517",80.848404,912.31445
"2518",80.550545,912.32764
"2519",80.2649,912.3408
"2520",79.99878,912.354
"2521",79.76196,912.3672
"2522",79.55932,912.3804
"2523",79.40307,912.39355
"2524",79.29809,912.40674
"2525",79.24681,912.4199
"2526",79.23949,912.4331
"2527",79.26391,912.4463
"2528",79.30541,912.4595
"2529",79.3518,912.47266
"2530",79.38354,912.48584
"2531",79.398186,912.499
"2532",79.395744,912.5122
"2533",79.37621,912.5254
"2534",79.33715,912.5386
"2535",79.28588,912.55176
"2536",79.22484,912.56494
"2537",79.15892,912.5781
"2538",79.09056,912.5913
"2539",79.0222,912.6045
"2540",78.9514,912.6177
"2541",78.887924,912.63086
"2542",78.82445,912.64404
"2543",78.75853,912.6572
"2544",78.695045,912.6704
"2545",78.63645,912.6836
"2546",78.6096,912.6968
"2547",78.65598,912.70996
"2548",78.836655,912.72314
"2549",79.1931,912.7363
"2550",79.73266,912.7495
"2551",80.411385,912.7627
"2552",81.13649,912.7759
"2553",81.80789,912.78906
"2554",82.3328,912.80225
"2555",82.65995,912.8154
"2556",82.78935,912.8286
"2557",82.74784,912.8418
"2558",82.581825,912.855
"2559",82.3328,912.86816
"2560",82.039825,912.88135
"2561",81.73464,912.89453
"2562",81.43191,912.9077
"2563",81.13161,912.9209
"2564",80.84352,912.9341
"2565",80.567635,912.94727
"2566",80.30152,912.96045
"2567",80.045166,912.97363
"2568",79.80835,912.9868
"2569",79.603264,913
"2570",79.43481,913.0132
"2571",79.31518,913.02637
"2572",79.24681,913.03955
"2573",79.219955,913.05273
"2574",79.22972,913.0659
"2575",79.26147,913.0791
"2576",79.29565,913.0923
"2577",79.32006,913.10547
"2578",79.327385,913.11865
"2579",79.32006,913.13184
"2580",79.293205,913.145
"2581",79.25414,913.1582
"2582",79.20531,913.1714
"2583",79.15404,913.1846
"2584",79.093,913.19775
"2585",79.027084,913.21094
"2586",78.9514,913.2241
"2587",78.87572,913.2373
"2588",78.80003,913.2505
"2589",78.729225,913.2637
"2590",78.660866,913.27686
"2591",78.607155,913.29004
"2592",78.59739,913.3032
"2593",78.677956,913.3164
"2594",78.90257,913.3296
"2595",79.30785,913.3428
"2596",79.88403,913.35596
"2597",80.570076,913.36914
"2598",81.27322,913.3823
"2599",81.88846,913.3955
"2600",82.33524,913.4087
"2601",82.58427,913.4219
"2602",82.6453,913.43506
"2603",82.55009,913.44824
"2604",82.34989,913.4614
"2605",82.08377,913.4746
"2606",81.7908,913.4878
"2607",81.4905,913.501
"2608",81.197525,913.51416
"2609",80.919205,913.52734
"2610",80.65308,913.5405
"2611",80.39918,913.5537
"2612",80.15503,913.5669
"2613",79.92554,913.5801
"2614",79.708244,913.59326
"2615",79.51049,913.60645
"2616",79.3518,913.6196
"2617",79.237045,913.6328
"2618",79.168686,913.646
"2619",79.14183,913.6592
"2620",79.151596,913.67236
"2621",79.17601,913.68555
"2622",79.19798,913.6987
"2623",79.21019,913.7119
"2624",79.21019,913.7251
"2625",79.19554,913.7383
"2626",79.17113,913.75146
"2627",79.13939,913.76465
"2628",79.09544,913.77783
"2629",79.04173,913.791
"2630",78.97826,913.8042
"2631",78.907455,913.8174
"2632",78.83421,913.83057
"2633",78.76097,913.84375
"2634",78.692604,913.85693
"2635",78.62913,913.8701
"2636",78.57786,913.8833
"2637",78.553444,913.8965
"2638",78.607155,913.90967
"2639",78.78783,913.92285
"2640",79.132065,913.93604
"2641",79.64965,913.9492
"2642",80.29908,913.9624
"2643",80.990005,913.9756
"2644",81.62722,913.9888
"2645",82.125275,914.00195
"2646",82.44022,914.01514
"2647",82.56718,914.0283
"2648",82.528114,914.0415
"2649",82.36698,914.0547
"2650",82.125275,914.0679
"2651",81.849396,914.08105
"2652",81.56374,914.09424
"2653",81.287865,914.1074
"2654",81.0193,914.1206
"2655",80.75807,914.1338
"2656",80.499275,914.147
"2657",80.2478,914.16016
"2658",80.0061,914.17334
"2659",79.783936,914.1865
"2660",79.58373,914.1997
"2661",79.42016,914.2129
"2662",79.29565,914.2261
"2663",79.21507,914.23926
"2664",79.17357,914.25244
"2665",79.17113,914.2656
"2666",79.1931,914.2788
"2667",79.22972,914.292
"2668",79.26391,914.3052
"2669",79.28588,914.31836
"2670",79.28832,914.33154
"2671",79.26635,914.3447
"2672",79.22728,914.3579
"2673",79.17113,914.3711
"2674",79.11253,914.3843
"2675",79.046616,914.39746
"2676",78.98314,914.41064
"2677",78.91478,914.4238
"2678",78.84642,914.437
"2679",78.77318,914.4502
"2680",78.70725,914.4634
"2681",78.64866,914.47656
"2682",78.60471,914.48975
"2683",78.6096,914.5029
"2684",78.71946,914.5161
"2685",78.9807,914.5293
"2686",79.412834,914.5425
"2687",79.991455,914.55566
"2688",80.65797,914.56885
"2689",81.304955,914.58203
"2690",81.84451,914.5952
"2691",82.22049,914.6084
"2692",82.41337,914.6216
"2693",82.442665,914.63477
"2694",82.3328,914.64795
"2695",82.1326,914.66113
"2696",81.883575,914.6743
"2697",81.61501,914.6875
"2698",81.34402,914.7007
"2699",81.08522,914.71387
"2700",80.8362,914.72705
"2701",80.58961,914.74023
"2702",80.34791,914.7534
"2703",80.10864,914.7666
"2704",79.88403,914.7798
"2705",79.67895,914.79297
"2706",79.500725,914.80615
"2707",79.35668,914.81934
"2708",79.25414,914.8325
"2709",79.19554,914.8457
"2710",79.17113,914.8589
"2711",79.17845,914.8721
"2712",79.200424,914.88525
"2713",79.22484,914.89844
"2714",79.23949,914.9116
"2715",79.23949,914.9248
"2716",79.2224,914.938
"2717",79.19066,914.9512
"2718",79.14671,914.96436
"2719",79.10033,914.97754
"2720",79.0515,914.9907
"2721",78.99779,915.0039
"2722",78.93919,915.0171
"2723",78.87572,915.0303
"2724",78.81224,915.04346
"2725",78.74387,915.05664
"2726",78.67063,915.0698
"2727",78.60227,915.083
"2728",78.56077,915.0962
"2729",78.58518,915.1094
"2730",78.73167,915.12256
"2731",79.046616,915.13574
"2732",79.53002,915.1489
"2733",80.147705,915.1621
"2734",80.82155,915.1753
"2735",81.449,915.1885
"2736",81.94949,915.20166
"2737",82.27177,915.21484
"2738",82.41093,915.228
"2739",82.388954,915.2412
"2740",82.247345,915.2544
"2741",82.03494,915.2676
"2742",81.78592,915.28076
"2743",81.52712,915.29395
"2744",81.27322,915.3071
"2745",81.03395,915.3203
"2746",80.80446,915.3335
"2747",80.57496,915.3467
"2748",80.34547,915.35986
"2749",80.113525,915.37305
"2750",79.888916,915.3862
"2751",79.68139,915.3994
"2752",79.50805,915.4126
"2753",79.37377,915.4258
"2754",79.28832,915.43896
"2755",79.24193,915.45215
"2756",79.23216,915.46533
"2757",79.24925,915.4785
"2758",79.281,915.4917
"2759",79.31518,915.5049
"2760",79.34203,915.51807
"2761",79.35668,915.53125
"2762",79.344475,915.54443
"2763",79.30785,915.5576
"2764",79.25414,915.5708
"2765",79.18822,915.584
"2766",79.11009,915.59717
"2767",79.03441,915.61035
"2768",78.96361,915.62354
"2769",78.89769,915.6367
"2770",78.839096,915.6499
"2771",78.785385,915.6631
"2772",78.729225,915.6763
"2773",78.67307,915.68945
"2774",78.61448,915.70264
"2775",78.58762,915.7158
"2776",78.64866,915.729
"2777",78.84642,915.7422
"2778",79.217514,915.7554
"2779",79.75464,915.76855
"2780",80.39918,915.78174
"2781",81.06569,915.7949
"2782",81.651634,915.8081
"2783",82.09354,915.8213
"2784",82.354774,915.8345
"2785",82.442665,915.84766
"2786",82.38407,915.86084
"2787",82.21805,915.874
"2788",81.986115,915.8872
"2789",81.722435,915.9004
"2790",81.45632,915.9136
"2791",81.19997,915.92676
"2792",80.953384,915.93994
"2793",80.719,915.9531
"2794",80.48707,915.9663
"2795",80.257576,915.9795
"2796",80.03052,915.9927
"2797",79.82056,916.00586
"2798",79.63012,916.01904
"2799",79.47143,916.0322
"2800",79.3518,916.0454
"2801",79.273674,916.0586
"2802",79.234604,916.0718
"2803",79.23216,916.08496
"2804",79.259026,916.09814
"2805",79.29565,916.1113
"2806",79.32983,916.1245
"2807",79.35424,916.1377
"2808",79.35668,916.1509
"2809",79.33715,916.16406
"2810",79.30297,916.17725
"2811",79.25414,916.1904
"2812",79.19066,916.2036
"2813",79.12718,916.2168
"2814",79.061264,916.23
"2815",79.00023,916.24316
"2816",78.94896,916.25635
"2817",78.90257,916.26953
"2818",78.86107,916.2827
"2819",78.819565,916.2959
"2820",78.765854,916.3091
"2821",78.70237,916.32227
"2822",78.63889,916.33545
"2823",78.60227,916.34863
"2824",78.62913,916.3618
"2825",78.77806,916.375
"2826",79.09544,916.3882
"2827",79.586174,916.40137
"2828",80.22095,916.41455
"2829",80.919205,916.42773
"2830",81.58083,916.4409
"2831",82.11795,916.4541
"2832",82.46952,916.4673
"2833",82.62089,916.48047
"2834",82.59647,916.49365
"2835",82.43046,916.50684
"2836",82.178986,916.52
"2837",81.88602,916.5332
"2838",81.583275,916.5464
"2839",81.287865,916.5596
"2840",81.007095,916.57275
"2841",80.74586,916.58594
"2842",80.49195,916.5991
"2843",80.2478,916.6123
"2844",80.01587,916.6255
"2845",79.79614,916.6387
"2846",79.59594,916.65186
"2847",79.4226,916.66504
"2848",79.28832,916.6782
"2849",79.19554,916.6914
"2850",79.151596,916.7046
"2851",79.15404,916.7178
"2852",79.185776,916.73096
"2853",79.23216,916.74414
"2854",79.27856,916.7573
"2855",79.31518,916.7705
"2856",79.33715,916.7837
"2857",79.33959,916.7969
"2858",79.32494,916.81006
"2859",79.290764,916.82324
"2860",79.23949,916.8364
"2861",79.166245,916.8496
"2862",79.08812,916.8628
"2863",79.012436,916.876
"2864",78.93919,916.88916
"2865",78.87572,916.90234
"2866",78.82201,916.9155
"2867",78.7805,916.9287
"2868",78.74876,916.9419
"2869",78.71946,916.9551
"2870",78.69016,916.96826
"2871",78.65598,916.98145
"2872",78.61448,916.9946
"2873",78.5803,917.0078
"2874",78.590065,917.021
"2875",78.70237,917.0342
"2876",78.96849,917.04736
"2877",79.41039,917.06055
"2878",80.008545,917.0737
"2879",80.69459,917.0869
"2880",81.375755,917.1001
"2881",81.951935,917.1133
"2882",82.354774,917.12646
"2883",82.562294,917.13965
"2884",82.58915,917.15283
"2885",82.476845,917.166
"2886",82.266884,917.1792
"2887",82.01053,917.1924
"2888",81.739525,917.20557
"2889",81.47341,917.21875
"2890",81.214615,917.23193
"2891",80.972916,917.2451
"2892",80.73609,917.2583
"2893",80.50904,917.2715
"2894",80.28443,917.28467
"2895",80.076904,917.29785
"2896",79.88403,917.31104
"2897",79.71801,917.3242
"2898",79.58373,917.3374
"2899",79.48119,917.3506
"2900",79.412834,917.3638
"2901",79.37377,917.37695
"2902",79.35912,917.39014
"2903",79.361565,917.4033
"2904",79.37621,917.4165
"2905",79.39086,917.4297
"2906",79.3933,917.4429
"2907",79.38354,917.45605
"2908",79.35912,917.46924
"2909",79.31762,917.4824
"2910",79.259026,917.4956
"2911",79.185776,917.5088
"2912",79.10521,917.522
"2913",79.009995,917.53516
"2914",78.907455,917.54834
"2915",78.80492,917.5615
"2916",78.709694,917.5747
"2917",78.63157,917.5879
"2918",78.57053,917.6011
"2919",78.538795,917.61426
"2920",78.52659,917.62744
"2921",78.52903,917.6406
"2922",78.53147,917.6538
"2923",78.519264,917.667
"2924",78.485085,917.6802
"2925",78.44114,917.69336
"2926",78.433815,917.70654
"2927",78.52659,917.7197
"2928",78.785385,917.7329
"2929",79.24681,917.7461
"2930",79.88403,917.7593
"2931",80.63111,917.77246
"2932",81.3782,917.78564
"2933",82.760056,917.8252
"2934",82.828415,917.8384
"2935",82.738075,917.85156
"2936",82.533,917.86475
"2937",82.26444,917.8779
"2938",81.971466,917.8911
"2939",81.68093,917.9043
"2940",81.40749,917.9175
"2941",81.15846,917.93066
"2942",80.93141,917.94385
"2943",80.72144,917.95703
"2944",80.51881,917.9702
"2945",80.323494,917.9834
"2946",80.13306,917.9966
"2947",79.95239,918.00977
"2948",79.78638,918.02295
"2949",79.64477,918.03613
"2950",79.534904,918.0493
"2951",79.45922,918.0625
"2952",79.41772,918.0757
"2953",79.41039,918.08887
"2954",79.432365,918.10205
"2955",79.466545,918.11523
"2956",79.500725,918.1284
"2957",79.517815,918.1416
"2958",79.51293,918.1548
"2959",79.48608,918.16797
"2960",79.43969,918.18115
"2961",79.37133,918.19434
"2962",79.28832,918.2075
"2963",79.19798,918.2207
"2964",79.10521,918.2339
"2965",79.009995,918.2471
"2966",78.924545,918.26025
"2967",78.8513,918.27344
"2968",78.78783,918.2866
"2969",78.74143,918.2998
"2970",78.71458,918.313
"2971",78.69993,918.3262
"2972",78.695045,918.33936
"2973",78.68284,918.35254
"2974",78.658424,918.3657
"2975",78.6218,918.3789
"2976",78.607155,918.3921
"2977",78.67063,918.4053
"2978",78.870834,918.41846
"2979",79.2517,918.43164
"2980",79.80591,918.4448
"2981",80.48707,918.458
"2982",81.20241,918.4712
"2983",81.8616,918.4844
"2984",82.371864,918.49756
"2985",82.69413,918.51074
"2986",82.82353,918.5239
"2987",82.78935,918.5371
"2988",82.62577,918.5503
"2989",82.37919,918.5635
"2990",82.08377,918.57666
"2991",81.77371,918.58984
"2992",81.45876,918.603
"2993",81.1487,918.6162
"2994",80.85329,918.6294
"2995",80.57496,918.6426
"2996",80.31373,918.65576
"2997",80.076904,918.66895
"2998",79.8645,918.6821
"2999",79.68139,918.6953
"3000",79.52514,918.7085
"3001",79.40307,918.7217
"3002",79.31762,918.73486
"3003",79.276115,918.74805
"3004",79.273674,918.7612
"3005",79.30053,918.7744
"3006",79.344475,918.7876
"3007",79.3933,918.8008
"3008",79.432365,918.81396
"3009",79.45922,918.82715
"3010",79.46166,918.84033
"3011",79.44213,918.8535
"3012",79.40307,918.8667
"3013",79.344475,918.8799
"3014",79.26635,918.89307
"3015",79.17845,918.90625
"3016",79.08568,918.91943
"3017",78.992905,918.9326
"3018",78.905014,918.9458
"3019",78.82445,918.959
"3020",78.75609,918.97217
"3021",78.70481,918.98535
"3022",78.675514,918.99854
"3023",78.658424,919.0117
"3024",78.64866,919.0249
"3025",78.624245,919.0381
"3026",78.58518,919.0513
"3027",78.54612,919.06445
"3028",78.54368,919.07764
"3029",78.63889,919.0908
"3030",78.887924,919.104
"3031",79.32494,919.1172
"3032",79.92554,919.1304
"3033",80.635994,919.14355
"3034",81.37087,919.15674
"3035",82.0325,919.1699
"3036",82.547646,919.1831
"3037",82.86992,919.1963
"3038",82.99443,919.2095
"3039",82.948044,919.22266
"3040",82.77226,919.23584
"3041",82.51591,919.249
"3042",82.21805,919.2622
"3043",81.91043,919.2754
"3044",81.60525,919.2886
"3045",81.30984,919.30176
"3046",81.0193,919.31494
"3047",80.740974,919.3281
"3048",80.4773,919.3413
"3049",80.233154,919.3545
"3050",80.01343,919.3677
"3051",79.823,919.38086
"3052",79.6643,919.39404
"3053",79.53979,919.4072
"3054",79.4519,919.4204
"3055",79.40307,919.4336
"3056",79.38842,919.4468
"3057",79.40551,919.45996
"3058",79.43969,919.47314
"3059",79.48119,919.4863
"3060",79.517815,919.4995
"3061",79.537346,919.5127
"3062",79.53979,919.5259
"3063",79.51537,919.53906
"3064",79.46166,919.55225
"3065",79.38598,919.5654
"3066",79.29565,919.5786
"3067",79.19554,919.5918
"3068",79.10033,919.605
"3069",79.01488,919.61816
"3070",78.93675,919.63135
"3071",78.86839,919.64453
"3072",78.80736,919.6577
"3073",78.75609,919.6709
"3074",78.71702,919.6841
"3075",78.68528,919.69727
"3076",78.658424,919.71045
"3077",78.63157,919.72363
"3078",78.6096,919.7368
"3079",78.6096,919.75
"3080",78.67063,919.7632
"3081",78.836655,919.77637
"3082",79.15892,919.78955
"3083",79.65209,919.80273
"3084",80.2942,919.8159
"3085",81.0193,919.8291
"3086",81.739525,919.8423
"3087",82.3621,919.85547
"3088",82.81621,919.86865
"3089",83.070114,919.88184
"3090",83.13115,919.895
"3091",83.035934,919.9082
"3092",82.81621,919.9214
"3093",82.52323,919.9346
"3094",82.196075,919.94775
"3095",81.8616,919.96094
"3096",81.532005,919.9741
"3097",81.21706,919.9873
"3098",80.921646,920.0005
"3099",80.64332,920.0137
"3100",80.38453,920.02686
"3101",80.14526,920.04004
"3102",79.93042,920.0532
"3103",79.73998,920.0664
"3104",79.57397,920.0796
"3105",79.44213,920.0928
"3106",79.344475,920.10596
"3107",79.28588,920.11914
"3108",79.26391,920.1323
"3109",79.273674,920.1455
"3110",79.29809,920.1587
"3111",79.32494,920.1719
"3112",79.344475,920.18506
"3113",79.3518,920.19824
"3114",79.344475,920.2114
"3115",79.32494,920.2246
"3116",79.293205,920.2378
"3117",79.256584,920.251
"3118",79.21263,920.26416
"3119",79.1638,920.27734
"3120",79.11009,920.2905
"3121",79.05394,920.3037
"3122",78.995346,920.3169
"3123",78.93675,920.3301
"3124",78.8806,920.34326
"3125",78.83177,920.35645
"3126",78.785385,920.3696
"3127",78.74143,920.3828
"3128",78.692604,920.396
"3129",78.641335,920.4092
"3130",78.607155,920.42236
"3131",78.63157,920.43555
"3132",78.765854,920.4487
"3133",79.06859,920.4619
"3134",79.55688,920.4751
"3135",80.20874,920.4883
"3136",80.94606,920.50146
"3137",81.67361,920.51465
"3138",82.2913,920.52783
"3139",82.73319,920.541
"3140",82.9749,920.5542
"3141",83.03349,920.5674
"3142",82.93828,920.58057
"3143",82.73319,920.59375
"3144",82.46708,920.60693
"3145",82.1741,920.6201
"3146",81.87137,920.6333
"3147",81.58083,920.6465
"3148",81.304955,920.65967
"3149",81.03639,920.67285
"3150",80.77272,920.68604
"3151",80.51392,920.6992
"3152",80.272224,920.7124
"3153",80.05249,920.7256
"3154",79.852295,920.7388
"3155",79.68139,920.75195
"3156",79.54467,920.76514
"3157",79.44457,920.7783
"3158",79.381096,920.7915
"3159",79.35912,920.8047
"3160",79.36645,920.8179
"3161",79.395744,920.83105
"3162",79.429924,920.84424
"3163",79.45922,920.8574
"3164",79.47143,920.8706
"3165",79.4641,920.8838
"3166",79.432365,920.897
"3167",79.37621,920.91016
"3168",79.30541,920.92334
"3169",79.23216,920.9365
"3170",79.16136,920.9497
"3171",79.09544,920.9629
"3172",79.03441,920.9761
"3173",78.9807,920.98926
"3174",78.92943,921.00244
"3175",78.87816,921.0156
"3176",78.83177,921.0288
"3177",78.78783,921.042
"3178",78.74143,921.0552
"3179",78.69016,921.06836
"3180",78.63889,921.08154
"3181",78.60227,921.0947
"3182",78.624245,921.1079
"3183",78.76097,921.1211
"3184",79.05882,921.1343
"3185",79.53979,921.14746
"3186",80.181885,921.16064
"3187",80.91188,921.1738
"3188",81.6321,921.187
"3189",82.24002,921.2002
"3190",82.669716,921.2134
"3191",82.90166,921.22656
"3192",82.94072,921.23975
"3193",82.83086,921.2529
"3194",82.62089,921.2661
"3195",82.354774,921.2793
"3196",82.06424,921.2925
"3197",81.76883,921.30566
"3198",81.47585,921.31885
"3199",81.1902,921.33203
"3200",80.91188,921.3452
"3201",80.638435,921.3584
"3202",80.377205,921.3716
"3203",80.12329,921.38477
"3204",79.8938,921.39795
"3205",79.68871,921.41113
"3206",79.520256,921.4243
"3207",79.38842,921.4375
"3208",79.29565,921.4507
"3209",79.23216,921.46387
"3210",79.19066,921.47705
"3211",79.15892,921.49023
"3212",79.13695,921.5034
"3213",79.11742,921.5166
"3214",79.097885,921.5298
"3215",79.080795,921.54297
"3216",79.05882,921.55615
"3217",79.0222,921.56934
"3218",78.97826,921.5825
"3219",78.92943,921.5957
"3220",78.88304,921.6089
"3221",78.839096,921.6221
"3222",78.80003,921.63525
"3223",78.75853,921.64844
"3224",78.71702,921.6616
"3225",78.67307,921.6748
"3226",78.624245,921.688
"3227",78.57786,921.7012
"3228",78.538795,921.71436
"3229",78.49973,921.72754
"3230",78.46067,921.7407
"3231",78.42405,921.7539
"3232",78.39475,921.7671
"3233",78.40208,921.7803
"3234",78.485085,921.79346
"3235",78.70481,921.80664
"3236",79.097885,921.8198
"3237",79.67162,921.833
"3238",80.37476,921.8462
"3239",81.129166,921.8594
"3240",81.829865,921.87256
"3241",82.38163,921.88574
"3242",82.74296,921.8989
"3243",82.899216,921.9121
"3244",82.8748,921.9253
"3245",82.71366,921.9385
"3246",82.47196,921.95166
"3247",82.19119,921.96484
"3248",81.91043,921.978
"3249",81.64431,921.9912
"3250",81.40261,922.0044
"3251",81.18532,922.0176
"3252",80.990005,922.03076
"3253",80.81178,922.04395
"3254",80.65308,922.0571
"3255",80.50416,922.0703
"3256",80.36744,922.0835
"3257",80.24048,922.0967
"3258",80.130615,922.10986
"3259",80.042725,922.12305
"3260",79.97925,922.1362
"3261",79.93286,922.1494
"3262",79.90112,922.1626
"3263",79.87427,922.1758
"3264",79.84741,922.18896
"3265",79.81323,922.20215
"3266",79.766846,922.21533
"3267",79.708244,922.2285
"3268",79.635,922.2417
"3269",79.54955,922.2549
"3270",79.45434,922.26807
"3271",79.35668,922.28125
"3272",79.259026,922.29443
"3273",79.16136,922.3076
"3274",79.063705,922.3208
"3275",78.96361,922.334
"3276",78.86839,922.34717
"3277",78.78294,922.36035
"3278",78.70481,922.37354
"3279",78.63889,922.3867
"3280",78.5803,922.3999
"3281",78.52659,922.4131
"3282",78.4802,922.4263
"3283",78.43626,922.43945
"3284",78.40452,922.45264
"3285",78.41184,922.4658
"3286",78.51438,922.479
"3287",78.76341,922.4922
"3288",79.19066,922.5054
"3289",79.78638,922.51855
"3290",80.49195,922.53174
"3291",81.214615,922.5449
"3292",81.84451,922.5581
"3293",82.30839,922.5713
"3294",82.56718,922.5845
"3295",82.63065,922.59766
"3296",82.533,922.61084
"3297",82.320595,922.624
"3298",82.04715,922.6372
"3299",81.74441,922.6504
"3300",81.43923,922.6636
"3301",81.143814,922.67676
"3302",80.86305,922.68994
"3303",80.59693,922.7031
"3304",80.343025,922.7163
"3305",80.1062,922.7295
"3306",79.888916,922.7427
"3307",79.69848,922.75586
"3308",79.54711,922.76904
"3309",79.43725,922.7822
"3310",79.37621,922.7954
"3311",79.361565,922.8086
"3312",79.378654,922.8218
"3313",79.41772,922.83496
"3314",79.46899,922.84814
"3315",79.520256,922.8613
"3316",79.55688,922.8745
"3317",79.571526,922.8877
"3318",79.56176,922.9009
"3319",79.534904,922.91406
"3320",79.48852,922.92725
"3321",79.42748,922.9404
"3322",79.34936,922.9536
"3323",79.26147,922.9668
"3324",79.17113,922.98
"3325",79.080795,922.99316
"3326",79.00511,923.00635
"3327",78.94408,923.01953
"3328",78.89525,923.0327
"3329",78.853745,923.0459
"3330",78.819565,923.0591
"3331",78.78294,923.07227
"3332",78.746315,923.08545
"3333",78.70237,923.09863
"3334",78.65598,923.1118
"3335",78.62913,923.125
"3336",78.660866,923.1382
"3337",78.81224,923.15137
"3338",79.12962,923.16455
"3339",79.63012,923.17773
"3340",80.274666,923.1909
"3341",80.987564,923.2041
"3342",81.66628,923.2173
"3343",82.22781,923.23047
"3344",82.60868,923.24365
"3345",82.79668,923.25684
"3346",82.80888,923.27
"3347",82.686806,923.2832
"3348",82.46708,923.2964
"3349",82.18143,923.3096
"3350",81.866486,923.32275
"3351",81.54665,923.33594
"3352",81.23659,923.3491
"3353",80.936295,923.3623
"3354",80.655525,923.3755
"3355",80.39185,923.3887
"3356",80.15015,923.40186
"3357",79.92798,923.41504
"3358",79.73998,923.4282
"3359",79.5935,923.4414
"3360",79.48852,923.4546
"3361",79.4226,923.4678
"3362",79.395744,923.48096
"3363",79.3933,923.49414
"3364",79.40795,923.5073
"3365",79.432365,923.5205
"3366",79.4519,923.5337
"3367",79.4641,923.5469
"3368",79.4641,923.56006
"3369",79.44457,923.57324
"3370",79.40551,923.5864
"3371",79.35424,923.5996
"3372",79.28832,923.6128
"3373",79.21019,923.626
"3374",79.12474,923.63916
"3375",79.03929,923.65234
"3376",78.96117,923.6655
"3377",78.89281,923.6787
"3378",78.839096,923.6919
"3379",78.79271,923.7051
"3380",78.74143,923.71826
"3381",78.68528,923.73145
"3382",78.624245,923.7446
"3383",78.572975,923.7578
"3384",78.56321,923.771
"3385",78.64622,923.7842
"3386",78.86351,923.79736
"3387",79.24681,923.81055
"3388",79.79126,923.8237
"3389",80.44312,923.8369
"3390",81.11696,923.8501
"3391",81.71999,923.8633
"3392",82.1741,923.87646
"3393",82.43778,923.88965
"3394",82.511024,923.90283
"3395",82.423134,923.916
"3396",82.22049,923.9292
"3397",81.951935,923.9424
"3398",81.654076,923.95557
"3399",81.3489,923.96875
"3400",81.04616,923.98193
"3401",80.74586,923.9951
"3402",80.45289,924.0083
"3403",80.17456,924.0215
"3404",79.93286,924.03467
"3405",79.7351,924.04785
"3406",79.58373,924.06104
"3407",79.47631,924.0742
"3408",79.40795,924.0874
"3409",79.37133,924.1006
"3410",79.361565,924.1138
"3411",79.37377,924.12695
"3412",79.40063,924.14014
"3413",79.43725,924.1533
"3414",79.46899,924.1665
"3415",79.49584,924.1797
"3416",79.51049,924.1929
"3417",79.51049,924.20605
"3418",79.49096,924.21924
"3419",79.4519,924.2324
"3420",79.398186,924.2456
"3421",79.33715,924.2588
"3422",79.26879,924.272
"3423",79.21019,924.28516
"3424",79.15648,924.29834
"3425",79.11253,924.3115
"3426",79.06859,924.3247
"3427",79.0222,924.3379
"3428",78.96849,924.3511
"3429",78.91722,924.36426
"3430",78.87816,924.37744
"3431",78.890366,924.3906
"3432",79.00755,924.4038
"3433",79.27123,924.417
"3434",79.693596,924.4302
"3435",80.25269,924.44336
"3436",80.89723,924.45654
"3437",81.532005,924.4697
"3438",82.074005,924.4829
"3439",82.45243,924.4961
"3440",82.64774,924.5093
"3441",82.66239,924.52246
"3442",82.528114,924.53564
"3443",82.286415,924.5488
"3444",81.986115,924.562
"3445",81.65652,924.5752
"3446",81.31472,924.5884
"3447",80.98512,924.60156
"3448",80.67017,924.61475
"3449",80.37476,924.6279
"3450",80.10864,924.6411
"3451",79.87671,924.6543
"3452",79.68871,924.6675
"3453",79.54467,924.68066
"3454",79.447014,924.69385
"3455",79.3933,924.70703
"3456",79.37377,924.7202
"3457",79.38354,924.7334
"3458",79.40795,924.7466
"3459",79.43725,924.75977
"3460",79.46166,924.77295
"3461",79.47875,924.78613
"3462",79.48852,924.7993
"3463",79.483635,924.8125
"3464",79.466545,924.8257
"3465",79.432365,924.83887
"3466",79.381096,924.85205
"3467",79.31762,924.86523
"3468",79.24925,924.8784
"3469",79.18822,924.8916
"3470",79.14427,924.9048
"3471",79.11009,924.91797
"3472",79.07591,924.93115
"3473",79.03929,924.94434
"3474",78.98802,924.9575
"3475",78.93431,924.9707
"3476",78.9099,924.9839
"3477",78.96849,924.9971
"3478",79.16136,925.01025
"3479",79.520256,925.02344
"3480",80.0354,925.0366
"3481",80.65308,925.0498
"3482",81.287865,925.063
"3483",81.84451,925.0762
"3484",82.252235,925.08936
"3485",82.46952,925.10254
"3486",82.49882,925.1157
"3487",82.37675,925.1289
"3488",82.14969,925.1421
"3489",81.864044,925.1553
"3490",81.55886,925.16846
"3491",81.253685,925.18164
"3492",80.96071,925.1948
"3493",80.67994,925.208
"3494",80.41627,925.2212
"3495",80.16968,925.2344
"3496",79.94995,925.24756
"3497",79.76196,925.26074
"3498",79.60815,925.2739
"3499",79.500725,925.2871
"3500",79.43481,925.3003
"3501",79.40551,925.3135
"3502",79.40307,925.32666
"3503",79.4226,925.33984
"3504",79.4519,925.353
"3505",79.48608,925.3662
"3506",79.5227,925.3794
"3507",79.551994,925.3926
"3508",79.5642,925.40576
"3509",79.554436,925.41895
"3510",79.520256,925.4321
"3511",79.466545,925.4453
"3512",79.40307,925.4585
"3513",79.33471,925.4717
"3514",79.27123,925.48486
"3515",79.21263,925.49805
"3516",79.16136,925.5112
"3517",79.11009,925.5244
"3518",79.05394,925.5376
"3519",78.99779,925.5508
"3520",78.95384,925.56396
"3521",78.9514,925.57715
"3522",79.03929,925.59033
"3523",79.26391,925.6035
"3524",79.65209,925.6167
"3525",80.17944,925.6299
"3526",80.78737,925.64307
"3527",81.38796,925.65625
"3528",81.89578,925.66943
"3529",82.24979,925.6826
"3530",82.42069,925.6958
"3531",82.425575,925.709
"3532",82.29862,925.72217
"3533",82.08133,925.73535
"3534",81.80789,925.74854
"3535",81.51736,925.7617
"3536",81.22194,925.7749
"3537",80.938736,925.7881
"3538",80.66773,925.8013
"3539",80.413826,925.81445
"3540",80.181885,925.82764
"3541",79.97681,925.8408
"3542",79.801025,925.854
"3543",79.656975,925.8672
"3544",79.554436,925.8804
"3545",79.48852,925.89355
"3546",79.45434,925.90674
"3547",79.447014,925.9199
"3548",79.46166,925.9331
"3549",79.49096,925.9463
"3550",79.5227,925.9595
"3551",79.54955,925.97266
"3552",79.5642,925.98584
"3553",79.5642,925.999
"3554",79.54223,926.0122
"3555",79.50317,926.0254
"3556",79.4519,926.0386
"3557",79.38598,926.05176
"3558",79.31518,926.06494
"3559",79.24193,926.0781
"3560",79.17357,926.0913
"3561",79.11253,926.1045
"3562",79.05882,926.1177
"3563",79.00755,926.13086
"3564",78.95628,926.14404
"3565",78.905014,926.1572
"3566",78.873276,926.1704
"3567",78.89769,926.1836
"3568",79.027084,926.1968
"3569",79.30541,926.20996
"3570",79.744865,926.22314
"3571",80.31373,926.2363
"3572",80.938736,926.2495
"3573",81.529564,926.2627
"3574",82.003204,926.2759
"3575",82.303505,926.28906
"3576",82.425575,926.30225
"3577",82.391396,926.3154
"3578",82.24002,926.3286
"3579",82.01541,926.3418
"3580",81.75418,926.355
"3581",81.480736,926.36816
"3582",81.20729,926.38135
"3583",80.938736,926.39453
"3584",80.67506,926.4077
"3585",80.42115,926.4209
"3586",80.181885,926.4341
"3587",79.95972,926.44727
"3588",79.77173,926.46045
"3589",79.62035,926.47363
"3590",79.50805,926.4868
"3591",79.43725,926.5
"3592",79.40551,926.5132
"3593",79.40551,926.52637
"3594",79.41772,926.53955
"3595",79.44213,926.55273
"3596",79.4641,926.5659
"3597",79.47631,926.5791
"3598",79.46899,926.5923
"3599",79.4519,926.60547
"3600",79.42016,926.61865
"3601",79.37621,926.63184
"3602",79.32494,926.645
"3603",79.26879,926.6582
"3604",79.21263,926.6714
"3605",79.15404,926.6846
"3606",79.09544,926.69775
"3607",79.03441,926.71094
"3608",78.975815,926.7241
"3609",78.922104,926.7373
"3610",78.86839,926.7505
"3611",78.82201,926.7637
"3612",78.785385,926.77686
"3613",78.7805,926.79004
"3614",78.85863,926.8032
"3615",79.05882,926.8164
"3616",79.415276,926.8296
"3617",79.920654,926.8428
"3618",80.533455,926.85596
"3619",81.16579,926.86914
"3620",81.72488,926.8823
"3621",82.13504,926.8955
"3622",82.36698,926.9087
"3623",82.425575,926.9219
"3624",82.34257,926.93506
"3625",82.15701,926.94824
"3626",81.91043,926.9614
"3627",81.636986,926.9746
"3628",81.356224,926.9878
"3629",81.075455,927.001
"3630",80.81178,927.01416
"3631",80.55787,927.02734
"3632",80.32105,927.0405
"3633",80.096436,927.0537
"3634",79.89136,927.0669
"3635",79.71313,927.0801
"3636",79.57397,927.09326
"3637",79.47631,927.10645
"3638",79.42504,927.1196
"3639",79.412834,927.1328
"3640",79.432365,927.146
"3641",79.47143,927.1592
"3642",79.51537,927.17236
"3643",79.54955,927.18555
"3644",79.569084,927.1987
"3645",79.569084,927.2119
"3646",79.551994,927.2251
"3647",79.51537,927.2383
"3648",79.4641,927.25146
"3649",79.40307,927.26465
"3650",79.33227,927.27783
"3651",79.26391,927.291
"3652",79.19554,927.3042
"3653",79.13451,927.3174
"3654",79.07347,927.33057
"3655",79.012436,927.34375
"3656",78.95384,927.35693
"3657",78.90013,927.3701
"3658",78.86351,927.3833
"3659",78.87816,927.3965
"3660",78.992905,927.40967
"3661",79.23949,927.42285
"3662",79.64233,927.43604
"3663",80.17212,927.4492
"3664",80.77028,927.4624
"3665",81.35378,927.4756
"3666",81.83719,927.4888
"3667",82.16922,927.50195
"3668",82.3328,927.51514
"3669",82.34257,927.5283
"3670",82.22781,927.5415
"3671",82.02762,927.5547
"3672",81.778595,927.5679
"3673",81.50759,927.58105
"3674",81.234146,927.59424
"3675",80.96559,927.6074
"3676",80.71412,927.6206
"3677",80.46754,927.6338
"3678",80.233154,927.647
"3679",80.008545,927.66016
"3680",79.80591,927.67334
"3681",79.63744,927.6865
"3682",79.50805,927.6997
"3683",79.429924,927.7129
"3684",79.395744,927.7261
"3685",79.398186,927.73926
"3686",79.4226,927.75244
"3687",79.4641,927.7656
"3688",79.50317,927.7788
"3689",79.53002,927.792
"3690",79.54223,927.8052
"3691",79.53002,927.81836
"3692",79.49584,927.83154
"3693",79.44457,927.8447
"3694",79.38598,927.8579
"3695",79.32494,927.8711
"3696",79.26635,927.8843
"3697",79.20531,927.89746
"3698",79.14427,927.91064
"3699",79.08324,927.9238
"3700",79.01976,927.937
"3701",78.95628,927.9502
"3702",78.90013,927.9634
"3703",78.86839,927.97656
"3704",78.89525,927.98975
"3705",79.0222,928.0029
"3706",79.28588,928.0161
"3707",79.69604,928.0293
"3708",80.23071,928.0425
"3709",80.82399,928.05566
"3710",81.39529,928.06885
"3711",81.8616,928.08203
"3712",82.176544,928.0952
"3713",82.32548,928.1084
"3714",82.320595,928.1216
"3715",82.19852,928.13477
"3716",81.99832,928.14795
"3717",81.75662,928.16113
"3718",81.50271,928.1743
"3719",81.248795,928.1875
"3720",81.007095,928.2007
"3721",80.77028,928.21387
"3722",80.5359,928.22705
"3723",80.29908,928.24023
"3724",80.06714,928.2534
"3725",79.84497,928.2666
"3726",79.64721,928.2798
"3727",79.48852,928.29297
"3728",79.37133,928.30615
"3729",79.30297,928.31934
"3730",79.281,928.3325
"3731",79.29565,928.3457
"3732",79.32983,928.3589
"3733",79.36645,928.3721
"3734",79.3933,928.38525
"3735",79.40551,928.39844
"3736",79.395744,928.4116
"3737",79.37133,928.4248
"3738",79.33227,928.438
"3739",79.28344,928.4512
"3740",79.219955,928.46436
"3741",79.149155,928.47754
"3742",79.078354,928.4907
"3743",79.009995,928.5039
"3744",78.94652,928.5171
"3745",78.88304,928.5303
"3746",78.81712,928.54346
"3747",78.746315,928.55664
"3748",78.677956,928.5698
"3749",78.63645,928.583
"3750",78.675514,928.5962
"3751",78.84154,928.6094
"3752",79.168686,928.62256
"3753",79.65453,928.63574
"3754",80.25269,928.6489
"3755",80.87282,928.6621
"3756",81.42214,928.6753
"3757",81.82498,928.6885
"3758",82.04959,928.70166
"3759",82.108185,928.71484
"3760",82.03494,928.728
"3761",81.87137,928.7412
"3762",81.6614,928.7544
"3763",81.43435,928.7676
"3764",81.20241,928.78076
"3765",80.97536,928.79395
"3766",80.75319,928.8071
"3767",80.53101,928.8203
"3768",80.30396,928.8335
"3769",80.07446,928.8467
"3770",79.84741,928.85986
"3771",79.635,928.87305
"3772",79.447014,928.8862
"3773",79.29809,928.8994
"3774",79.19554,928.9126
"3775",79.14671,928.9258
"3776",79.14427,928.93896
"3777",79.17601,928.95215
"3778",79.22484,928.96533
"3779",79.27123,928.9785
"3780",79.30053,928.9917
"3781",79.30785,929.0049
"3782",79.293205,929.01807
"3783",79.259026,929.03125
"3784",79.21263,929.04443
"3785",79.15892,929.0576
"3786",79.097885,929.0708
"3787",79.03197,929.084
"3788",78.96605,929.09717
"3789",78.905014,929.11035
"3790",78.84642,929.12354
"3791",78.79515,929.1367
"3792",78.746315,929.1499
"3793",78.695045,929.1631
"3794",78.63645,929.1763
"3795",78.58762,929.18945
"3796",78.58762,929.20264
"3797",78.69749,929.2158
"3798",78.96361,929.229
"3799",79.40795,929.2422
"3800",79.991455,929.2554
"3801",80.64576,929.26855
"3802",81.26833,929.28174
"3803",81.77371,929.2949
"3804",82.11063,929.3081
"3805",82.27909,929.3213
"3806",82.29374,929.3345
"3807",82.19119,929.34766
"3808",82.003204,929.36084
"3809",81.77127,929.374
"3810",81.52468,929.3872
"3811",81.28298,929.4004
"3812",81.0486,929.4136
"3813",80.82643,929.42676
"3814",80.601814,929.43994
"3815",80.36988,929.4531
"3816",80.130615,929.4663
"3817",79.8938,929.4795
"3818",79.67162,929.4927
"3819",79.47143,929.50586
"3820",79.310295,929.51904
"3821",79.1931,929.5322
"3822",79.132065,929.5454
"3823",79.1223,929.5586
"3824",79.15892,929.5718
"3825",79.2224,929.58496
"3826",79.293205,929.59814
"3827",79.34936,929.6113
"3828",79.378654,929.6245
"3829",79.37621,929.6377
"3830",79.344475,929.6509
"3831",79.28588,929.66406
"3832",79.21507,929.67725
"3833",79.12718,929.6904
"3834",79.029526,929.7036
"3835",78.92699,929.7168
"3836",78.83421,929.73
"3837",78.75853,929.74316
"3838",78.71702,929.75635
"3839",78.70725,929.76953
"3840",78.71946,929.7827
"3841",78.71946,929.7959
"3842",78.69749,929.8091
"3843",78.6511,929.82227
"3844",78.61936,929.83545
"3845",78.660866,929.84863
"3846",78.839096,929.8618
"3847",79.1931,929.875
"3848",79.710686,929.8882
"3849",80.33814,929.90137
"3850",80.987564,929.91455
"3851",81.55642,929.92773
"3852",81.97391,929.9409
"3853",82.213165,929.9541
"3854",82.27909,929.9673
"3855",82.20096,929.98047
"3856",82.03494,929.99365
"3857",81.81766,930.00684
"3858",81.57595,930.02
"3859",81.33181,930.0332
"3860",81.094986,930.0464
"3861",80.87038,930.0596
"3862",80.655525,930.07275
"3863",80.445564,930.08594
"3864",80.233154,930.0991
"3865",80.02075,930.1123
"3866",79.81079,930.1255
"3867",79.62035,930.1387
"3868",79.45678,930.15186
"3869",79.33715,930.16504
"3870",79.26391,930.1782
"3871",79.237045,930.1914
"3872",79.24925,930.2046
"3873",79.28588,930.2178
"3874",79.33471,930.23096
"3875",79.38598,930.24414
"3876",79.429924,930.2573
"3877",79.45434,930.2705
"3878",79.45434,930.2837
"3879",79.4226,930.2969
"3880",79.35912,930.31006
"3881",79.26879,930.32324
"3882",79.168686,930.3364
"3883",79.08324,930.3496
"3884",79.01732,930.3628
"3885",78.97093,930.376
"3886",78.93919,930.38916
"3887",78.924545,930.40234
"3888",78.91478,930.4155
"3889",78.905014,930.4287
"3890",78.88548,930.4419
"3891",78.84886,930.4551
"3892",78.80003,930.46826
"3893",78.75609,930.48145
"3894",78.765854,930.4946
"3895",78.890366,930.5078
"3896",79.17601,930.521
"3897",79.63256,930.5342
"3898",80.22095,930.54736
"3899",80.87282,930.56055
"3900",81.495384,930.5737
"3901",81.99832,930.5869
"3902",82.32548,930.6001
"3903",82.46464,930.6133
"3904",82.44022,930.62646
"3905",82.29374,930.63965
"3906",82.074005,930.65283
"3907",81.815216,930.666
"3908",81.549095,930.6792
"3909",81.287865,930.6924
"3910",81.041275,930.70557
"3911",80.8069,930.71875
"3912",80.587166,930.73193
"3913",80.36744,930.7451
"3914",80.15015,930.7583
"3915",79.9353,930.7715
"3916",79.7351,930.78467
"3917",79.55932,930.79785
"3918",79.4226,930.81104
"3919",79.327385,930.8242
"3920",79.273674,930.8374
"3921",79.25414,930.8506
"3922",79.26391,930.8638
"3923",79.29809,930.87695
"3924",79.344475,930.89014
"3925",79.395744,930.9033
"3926",79.43725,930.9165
"3927",79.45678,930.9297
"3928",79.4519,930.9429
"3929",79.42016,930.95605
"3930",79.364006,930.96924
"3931",79.293205,930.9824
"3932",79.21507,930.9956
"3933",79.132065,931.0088
"3934",79.04906,931.022
"3935",78.97337,931.03516
"3936",78.90257,931.04834
"3937",78.84398,931.0615
"3938",78.80736,931.0747
"3939",78.79515,931.0879
"3940",78.79759,931.1011
"3941",78.79759,931.11426
"3942",78.7805,931.12744
"3943",78.73899,931.1406
"3944",78.695045,931.1538
"3945",78.695045,931.167
"3946",78.79759,931.1802
"3947",79.05882,931.19336
"3948",79.50561,931.20654
"3949",80.10864,931.2197
"3950",80.797134,931.2329
"3951",81.46609,931.2461
"3952",82.020294,931.2593
"3953",82.39628,931.27246
"3954",82.57206,931.28564
"3955",82.56962,931.2988
"3956",82.44022,931.312
"3957",82.230255,931.3252
"3958",81.98367,931.3384
"3959",81.72732,931.35156
"3960",81.47341,931.36475
"3961",81.234146,931.3779
"3962",81.00221,931.3911
"3963",80.77516,931.4043
"3964",80.550545,931.4175
"3965",80.323494,931.43066
"3966",80.09888,931.44385
"3967",79.886475,931.45703
"3968",79.691154,931.4702
"3969",79.5227,931.4834
"3970",79.38598,931.4966
"3971",79.290764,931.50977
"3972",79.24193,931.52295
"3973",79.237045,931.53613
"3974",79.26635,931.5493
"3975",79.31518,931.5625
"3976",79.37377,931.5757
"3977",79.4226,931.58887
"3978",79.4519,931.60205
"3979",79.45922,931.61523
"3980",79.44457,931.6284
"3981",79.40307,931.6416
"3982",79.34203,931.6548
"3983",79.26147,931.66797
"3984",79.17357,931.68115
"3985",79.078354,931.69434
"3986",78.98558,931.7075
"3987",78.89769,931.7207
"3988",78.82445,931.7339
"3989",78.768295,931.7471
"3990",78.73167,931.76025
"3991",78.712135,931.77344
"3992",78.70725,931.7866
"3993",78.69993,931.7998
"3994",78.6804,931.813
"3995",78.64622,931.8262
"3996",78.61448,931.83936
"3997",78.61692,931.85254
"3998",78.69993,931.8657
"3999",78.92943,931.8789
"4000",79.33471,931.8921
"4001",79.89868,931.9053
"4002",80.567635,931.91846
"4003",81.25124,931.93164
"4004",81.85428,931.9448
"4005",82.29374,931.958
"4006",82.53544,931.9712
"4007",82.60136,931.9844
"4008",82.52323,931.99756
"4009",82.34745,932.01074
"4010",82.11795,932.0239
"4011",81.866486,932.0371
"4012",81.61501,932.0503
"4013",81.36599,932.0635
"4014",80.88747,932.08984
"4015",80.6482,932.103
"4016",80.411385,932.1162
"4017",80.184326,932.1294
"4018",79.97681,932.1426
"4019",79.79614,932.15576
"4020",79.64233,932.16895
"4021",79.520256,932.1821
"4022",79.4226,932.1953
"4023",79.35424,932.2085
"4024",79.327385,932.2217
"4025",79.32983,932.23486
"4026",79.361565,932.24805
"4027",79.40795,932.2612
"4028",79.45678,932.2744
"4029",79.49828,932.2876
"4030",79.5227,932.3008
"4031",79.51537,932.31396
"4032",79.47631,932.32715
"4033",79.41039,932.34033
"4034",79.3225,932.3535
"4035",79.22972,932.3667
"4036",79.13939,932.3799
"4037",79.05394,932.39307
"4038",78.975815,932.40625
"4039",78.90257,932.41943
"4040",78.83421,932.4326
"4041",78.77318,932.4458
"4042",78.73167,932.459
"4043",78.71458,932.47217
"4044",78.7219,932.48535
"4045",78.74387,932.49854
"4046",78.76097,932.5117
"4047",78.75853,932.5249
"4048",78.73167,932.5381
"4049",78.70725,932.5513
"4050",78.74876,932.56445
"4051",78.92699,932.57764
"4052",79.28588,932.5908
"4053",79.82544,932.604
"4054",80.49195,932.6172
"4055",81.17799,932.6304
"4056",81.78104,932.64355
"4057",82.22049,932.65674
"4058",82.4622,932.6699
"4059",82.513466,932.6831
"4060",82.41825,932.6963
"4061",82.22781,932.7095
"4062",81.99344,932.72266
"4063",81.74197,932.73584
"4064",81.497826,932.749
"4065",81.270775,932.7622
"4066",81.05104,932.7754
"4067",80.8362,932.7886
"4068",80.621346,932.80176
"4069",80.411385,932.81494
"4070",80.20386,932.8281
"4071",80.00366,932.8413
"4072",79.818115,932.8545
"4073",79.65209,932.8677
"4074",79.50561,932.88086
"4075",79.3933,932.89404
"4076",79.32494,932.9072
"4077",79.30053,932.9204
"4078",79.31274,932.9336
"4079",79.34936,932.9468
"4080",79.3933,932.95996
"4081",79.43481,932.97314
"4082",79.45922,932.9863
"4083",79.4641,932.9995
"4084",79.447014,933.0127
"4085",79.40795,933.0259
"4086",79.34203,933.03906
"4087",79.26391,933.05225
"4088",79.183334,933.0654
"4089",79.11009,933.0786
"4090",79.044174,933.0918
"4091",78.992905,933.105
"4092",78.958725,933.11816
"4093",78.92943,933.13135
"4094",78.90013,933.14453
"4095",78.870834,933.1577
"4096",78.84642,933.1709
"4097",78.82445,933.1841
"4098",78.81468,933.19727
"4099",78.81224,933.21045
"4100",78.8098,933.22363
"4101",78.79759,933.2368
"4102",78.78294,933.25
"4103",78.785385,933.2632
"4104",78.85863,933.27637
"4105",79.05882,933.28955
"4106",79.429924,933.30273
"4107",79.96704,933.3159
"4108",80.61158,933.3291
"4109",81.28542,933.3423
"4110",81.8909,933.35547
"4111",82.34989,933.36865
"4112",82.62577,933.38184
"4113",82.718544,933.395
"4114",82.65507,933.4082
"4115",82.47929,933.4214
"4116",82.2327,933.4346
"4117",81.95926,933.44775
"4118",81.68337,933.46094
"4119",81.4197,933.4741
"4120",81.17555,933.4873
"4121",80.95094,933.5005
"4122",80.73853,933.5137
"4123",80.533455,933.52686
"4124",80.3357,933.54004
"4125",80.15015,933.5532
"4126",79.98169,933.5664
"4127",79.83276,933.5796
"4128",79.7058,933.5928
"4129",79.59838,933.60596
"4130",79.52514,933.61914
"4131",79.48119,933.6323
"4132",79.466545,933.6455
"4133",79.48119,933.6587
"4134",79.517815,933.6719
"4135",79.55688,933.68506
"4136",79.588615,933.69824
"4137",79.60082,933.7114
"4138",79.588615,933.7246
"4139",79.551994,933.7378
"4140",79.4934,933.751
"4141",79.412834,933.76416
"4142",79.3225,933.77734
"4143",79.22972,933.7905
"4144",79.13451,933.8037
"4145",79.05394,933.8169
"4146",78.98314,933.8301
"4147",78.924545,933.84326
"4148",78.873276,933.85645
"4149",78.83177,933.8696
"4150",78.79271,933.8828
"4151",78.75853,933.896
"4152",78.73411,933.9092
"4153",78.71702,933.92236
"4154",78.71458,933.93555
"4155",78.7219,933.9487
"4156",78.74876,933.9619
"4157",78.82201,933.9751
"4158",78.992905,933.9883
"4159",79.30541,934.00146
"4160",79.77173,934.01465
"4161",80.377205,934.02783
"4162",81.05348,934.041
"4163",81.70046,934.0542
"4164",82.230255,934.0674
"4165",82.58915,934.08057
"4166",82.75517,934.09375
"4167",82.74784,934.10693
"4168",82.61112,934.1201
"4169",82.38407,934.1333
"4170",82.108185,934.1465
"4171",81.82254,934.15967
"4172",81.549095,934.17285
"4173",81.29275,934.18604
"4174",81.058365,934.1992
"4175",80.833755,934.2124
"4176",80.61402,934.2256
"4177",80.396736,934.2388
"4178",80.18677,934.25195
"4179",79.991455,934.26514
"4180",79.818115,934.2783
"4181",79.674065,934.2915
"4182",79.56664,934.3047
"4183",79.49096,934.3179
"4184",79.45434,934.33105
"4185",79.449455,934.34424
"4186",79.46899,934.3574
"4187",79.49584,934.3706
"4188",79.52514,934.3838
"4189",79.54467,934.397
"4190",79.551994,934.41016
"4191",79.54467,934.42334
"4192",79.520256,934.4365
"4193",79.48119,934.4497
"4194",79.42016,934.4629
"4195",79.34692,934.4761
"4196",79.26147,934.48926
"4197",79.17113,934.50244
"4198",79.09056,934.5156
"4199",79.01976,934.5288
"4200",78.95628,934.542
"4201",78.9099,934.5552
"4202",78.87572,934.56836
"4203",78.8513,934.58154
"4204",78.84154,934.5947
"4205",78.83421,934.6079
"4206",78.819565,934.6211
"4207",78.79759,934.6343
"4208",78.77562,934.64746
"4209",78.77562,934.66064
"4210",78.84642,934.6738
"4211",79.05394,934.687
"4212",79.429924,934.7002
"4213",79.971924,934.7134
"4214",80.63111,934.72656
"4215",81.322044,934.73975
"4216",81.94461,934.7529
"4217",82.41825,934.7661
"4218",82.69901,934.7793
"4219",82.78935,934.7925
"4220",82.718544,934.80566
"4221",82.530556,934.81885
"4222",82.27177,934.83203
"4223",81.988556,934.8452
"4224",81.705345,934.8584
"4225",81.43679,934.8716
"4226",81.18776,934.88477
"4227",80.95094,934.89795
"4228",80.726326,934.91113
"4229",80.51392,934.9243
"4230",80.308846,934.9375
"4231",80.11597,934.9507
"4232",79.94263,934.96387
"4233",79.7937,934.97705
"4234",79.66186,934.99023
"4235",79.55688,935.0034
"4236",79.47875,935.0166
"4237",79.43969,935.0298
"4238",79.42748,935.04297
"4239",79.44213,935.05615
"4240",79.47875,935.06934
"4241",79.517815,935.0825
"4242",79.54955,935.0957
"4243",79.56664,935.1089
"4244",79.56176,935.1221
"4245",79.52514,935.13525
"4246",79.45922,935.14844
"4247",79.36645,935.1616
"4248",79.259026,935.1748
"4249",79.151596,935.188
"4250",79.05638,935.2012
"4251",78.97826,935.21436
"4252",78.91966,935.22754
"4253",78.873276,935.2407
"4254",78.836655,935.2539
"4255",78.80492,935.2671
"4256",78.77806,935.2803
"4257",78.75365,935.29346
"4258",78.73167,935.30664
"4259",78.709694,935.3198
"4260",78.69749,935.333
"4261",78.695045,935.3462
"4262",78.74387,935.3594
"4263",78.89525,935.37256
"4264",79.19554,935.38574
"4265",79.6643,935.3989
"4266",80.27711,935.4121
"4267",80.96559,935.4253
"4268",81.636986,935.4385
"4269",82.196075,935.45166
"4270",82.57694,935.46484
"4271",82.7625,935.478
"4272",82.774704,935.4912
"4273",82.650185,935.5044
"4274",82.43534,935.5176
"4275",82.17166,935.53076
"4276",81.89334,935.54395
"4277",81.62234,935.5571
"4278",81.36355,935.5703
"4279",81.12184,935.5835
"4280",80.88991,935.5967
"4281",80.66285,935.60986
"4282",80.43824,935.62305
"4283",80.22095,935.6362
"4284",80.01343,935.6494
"4285",79.82788,935.6626
"4286",79.674065,935.6758
"4287",79.554436,935.68896
"4288",79.47143,935.70215
"4289",79.41772,935.71533
"4290",79.39086,935.7285
"4291",79.38842,935.7417
"4292",79.398186,935.7549
"4293",79.415276,935.76807
"4294",79.43969,935.78125
"4295",79.45922,935.79443
"4296",79.46899,935.8076
"4297",79.4641,935.8208
"4298",79.43725,935.834
"4299",79.38842,935.84717
"4300",79.32006,935.86035
"4301",79.234604,935.87354
"4302",79.149155,935.8867
"4303",79.06615,935.8999
"4304",78.98802,935.9131
"4305",78.91722,935.9263
"4306",78.853745,935.93945
"4307",78.80003,935.95264
"4308",78.75853,935.9658
"4309",78.73167,935.979
"4310",78.712135,935.9922
"4311",78.69749,936.0054
"4312",78.68284,936.01855
"4313",78.67063,936.03174
"4314",78.6804,936.0449
"4315",78.75365,936.0581
"4316",78.94896,936.0713
"4317",79.30541,936.0845
"4318",79.82544,936.09766
"4319",80.47242,936.11084
"4320",81.17067,936.124
"4321",81.8201,936.1372
"4322",82.33524,936.1504
"4323",82.669716,936.1636
"4324",82.81377,936.17676
"4325",82.794235,936.18994
"4326",82.652626,936.2031
"4327",82.4329,936.2163
"4328",82.17166,936.2295
"4329",81.898224,936.2427
"4330",81.6321,936.25586
"4331",81.37087,936.26904
"4332",81.12184,936.2822
"4333",80.88258,936.2954
"4334",80.66041,936.3086
"4335",80.45533,936.3218
"4336",80.272224,936.33496
"4337",80.1062,936.34814
"4338",79.957275,936.3613
"4339",79.82056,936.3745
"4340",79.69604,936.3877
"4341",79.58129,936.4009
"4342",79.4934,936.41406
"4343",79.432365,936.42725
"4344",79.40307,936.4404
"4345",79.395744,936.4536
"4346",79.41039,936.4668
"4347",79.42504,936.48
"4348",79.43481,936.49316
"4349",79.42748,936.50635
"4350",79.398186,936.51953
"4351",79.34936,936.5327
"4352",79.281,936.5459
"4353",79.202866,936.5591
"4354",79.11253,936.57227
"4355",79.02464,936.58545
"4356",78.94896,936.59863
"4357",78.88548,936.6118
"4358",78.83421,936.625
"4359",78.79759,936.6382
"4360",78.768295,936.65137
"4361",78.73655,936.66455
"4362",78.70481,936.67773
"4363",78.67307,936.6909
"4364",78.643776,936.7041
"4365",78.624245,936.7173
"4366",78.62913,936.73047
"4367",78.709694,936.74365
"4368",78.9099,936.75684
"4369",79.273674,936.77
"4370",79.80347,936.7832
"4371",80.465096,936.7964
"4372",81.17311,936.8096
"4373",81.82742,936.82275
"4374",82.34745,936.83594
"4375",82.684364,936.8491
"4376",82.83086,936.8623
"4377",82.80888,936.8755
"4378",82.65751,936.8887
"4379",82.423134,936.90186
"4380",82.144806,936.91504
"4381",81.849396,936.9282
"4382",81.55398,936.9414
"4383",81.26345,936.9546
"4384",80.97536,936.9678
"4385",80.689705,936.98096
"4386",80.411385,936.99414
"4387",80.15259,937.0073
"4388",79.920654,937.0205
"4389",79.72289,937.0337
"4390",79.55932,937.0469
"4391",79.429924,937.06006
"4392",79.33715,937.07324
"4393",79.276115,937.0864
"4394",79.24681,937.0996
"4395",79.24681,937.1128
"4396",79.26635,937.126
"4397",79.29565,937.13916
"4398",79.32494,937.15234
"4399",79.344475,937.1655
"4400",79.34692,937.1787
"4401",79.33227,937.1919
"4402",79.29809,937.2051
"4403",79.24925,937.21826
"4404",79.18822,937.23145
"4405",79.12474,937.2446
"4406",79.07103,937.2578
"4407",79.02464,937.271
"4408",78.98802,937.2842
"4409",78.96361,937.29736
"4410",78.94896,937.31055
"4411",78.941635,937.3237
"4412",78.93919,937.3369
"4413",78.93187,937.3501
"4414",78.9099,937.3633
"4415",78.86351,937.37646
"4416",78.802475,937.38965
"4417",78.75609,937.40283
"4418",78.785385,937.416
"4419",78.9514,937.4292
"4420",79.30297,937.4424
"4421",79.83032,937.45557
"4422",80.48463,937.46875
"4423",81.17555,937.48193
"4424",81.80545,937.4951
"4425",82.28886,937.5083
"4426",82.58427,937.5215
"4427",82.69169,937.53467
"4428",82.63798,937.54785
"4429",82.459755,937.56104
"4430",82.2034,937.5742
"4431",81.91531,937.5874
"4432",81.619896,937.6006
"4433",81.33181,937.6138
"4434",81.058365,937.62695
"4435",80.79469,937.64014
"4436",80.54078,937.6533
"4437",80.29908,937.6665
"4438",80.07446,937.6797
"4439",79.87427,937.6929
"4440",79.708244,937.70605
"4441",79.57641,937.71924
"4442",79.47875,937.7324
"4443",79.412834,937.7456
"4444",79.37377,937.7588
"4445",79.364006,937.772
"4446",79.37621,937.78516
"4447",79.40551,937.79834
"4448",79.449455,937.8115
"4449",79.49584,937.8247
"4450",79.53002,937.8379
"4451",79.53979,937.8511
"4452",79.5227,937.86426
"4453",79.47387,937.87744
"4454",79.40307,937.8906
"4455",79.3225,937.9038
"4456",79.24193,937.917
"4457",79.1638,937.9302
"4458",79.10277,937.94336
"4459",79.05394,937.95654
"4460",79.01488,937.9697
"4461",78.975815,937.9829
"4462",78.93431,937.9961
"4463",78.88304,938.0093
"4464",78.82689,938.02246
"4465",78.785385,938.03564
"4466",78.802475,938.0488
"4467",78.924545,938.062
"4468",79.202866,938.0752
"4469",79.64721,938.0884
"4470",80.22827,938.10156
"4471",80.87282,938.11475
"4472",81.495384,938.1279
"4473",82.003204,938.1411
"4474",82.34989,938.1543
"4475",82.51835,938.1675
"4476",82.528114,938.18066
"4477",82.408485,938.19385
"4478",82.20584,938.20703
"4479",81.951935,938.2202
"4480",81.671165,938.2334
"4481",81.38064,938.2466
"4482",81.08522,938.25977
"4483",80.79225,938.27295
"4484",80.51148,938.28613
"4485",80.25025,938.2993
"4486",80.025635,938.3125
"4487",79.84253,938.3257
"4488",79.70092,938.33887
"4489",79.5935,938.35205
"4490",79.51537,938.36523
"4491",79.45922,938.3784
"4492",79.42748,938.3916
"4493",79.41772,938.4048
"4494",79.43481,938.41797
"4495",79.47143,938.43115
"4496",79.517815,938.44434
"4497",79.55688,938.4575
"4498",79.57885,938.4707
"4499",79.57397,938.4839
"4500",79.54467,938.4971
"4501",79.4934,938.51025
"4502",79.429924,938.52344
"4503",79.35668,938.5366
"4504",79.28344,938.5498
"4505",79.219955,938.563
"4506",79.16136,938.5762
"4507",79.11009,938.58936
"4508",79.063705,938.60254
"4509",79.012436,938.6157
"4510",78.9514,938.6289
"4511",78.89525,938.6421
"4512",78.856186,938.6553
"4513",78.870834,938.66846
"4514",78.99046,938.68164
"4515",79.24925,938.6948
"4516",79.656975,938.708
"4517",80.19409,938.7212
"4518",80.797134,938.7344
"4519",81.38796,938.74756
"4520",81.881134,938.76074
"4521",82.22537,938.7739
"4522",82.40116,938.7871
"4523",82.41825,938.8003
"4524",82.30839,938.8135
"4525",82.11063,938.82666
"4526",81.85428,938.83984
"4527",81.566185,938.853
"4528",81.26833,938.8662
"4529",80.970474,938.8794
"4530",80.6775,938.8926
"4531",80.40162,938.90576
"4532",80.147705,938.91895
"4533",79.920654,938.9321
"4534",79.73022,938.9453
"4535",79.586174,938.9585
"4536",79.47875,938.9717
"4537",79.412834,938.98486
"4538",79.378654,938.99805
"4539",79.37133,939.0112
"4540",79.378654,939.0244
"4541",79.398186,939.0376
"4542",79.42504,939.0508
"4543",79.4519,939.06396
"4544",79.47875,939.07715
"4545",79.49584,939.09033
"4546",79.49828,939.1035
"4547",79.48608,939.1167
"4548",79.449455,939.1299
"4549",79.395744,939.14307
"4550",79.33471,939.15625
"4551",79.26879,939.16943
"4552",79.200424,939.1826
"4553",79.13695,939.1958
"4554",79.078354,939.209
"4555",79.027084,939.22217
"4556",78.9807,939.23535
"4557",78.93431,939.24854
"4558",78.90257,939.2617
"4559",78.91722,939.2749
"4560",79.01732,939.2881
"4561",79.24681,939.3013
"4562",79.63012,939.31445
"4563",80.15259,939.32764
"4564",80.75563,939.3408
"4565",81.35378,939.354
"4566",81.866486,939.3672
"4567",82.22781,939.3804
"4568",82.41093,939.39355
"4569",82.425575,939.40674
"4570",82.30595,939.4199
"4571",82.09354,939.4331
"4572",81.83719,939.4463
"4573",81.566185,939.4595
