"","ppg","time"
"1",75.82147,598.83594
"2",75.69695,598.8491
"3",75.62371,598.8623
"4",75.58709,598.8755
"5",75.57244,598.8887
"6",75.56756,598.90186
"7",75.560234,598.91504
"8",75.53094,598.9282
"9",75.4699,598.9414
"10",75.37713,598.9546
"11",75.26238,598.9678
"12",75.174484,598.98096
"13",75.21843,598.99414
"14",75.560234,599.0073
"15",76.37812,599.0205
"16",77.7551,599.0337
"17",79.639885,599.0469
"18",81.829865,599.06006
"19",84.03937,599.07324
"20",85.96811,599.0864
"21",87.40856,599.0996
"22",88.28016,599.1128
"23",88.61463,599.126
"24",88.50233,599.13916
"25",88.043335,599.15234
"26",87.35973,599.1655
"27",86.556496,599.1787
"28",85.72152,599.1919
"29",84.90608,599.2051
"30",84.12726,599.21826
"31",83.387505,599.23145
"32",82.69657,599.2446
"33",82.06424,599.2578
"34",81.52224,599.271
"35",81.09987,599.2842
"36",80.81911,599.29736
"37",80.67994,599.31055
"38",80.655525,599.3237
"39",80.706795,599.3369
"40",80.780045,599.3501
"41",80.82399,599.3633
"42",80.79225,599.37646
"43",80.65797,599.38965
"44",80.4065,599.40283
"45",80.05493,599.416
"46",79.62524,599.4292
"47",79.13939,599.4424
"48",78.626686,599.45557
"49",78.1091,599.46875
"50",77.608604,599.48193
"51",77.14961,599.4951
"52",76.732124,599.5083
"53",76.36103,599.5215
"54",76.036316,599.53467
"55",75.755554,599.54785
"56",75.526054,599.56104
"57",75.34783,599.5742
"58",75.228195,599.5874
"59",75.157394,599.6006
"60",75.11833,599.6138
"61",75.08415,599.62695
"62",75.04265,599.64014
"63",74.97917,599.6533
"64",74.898605,599.6665
"65",74.810715,599.6797
"66",74.78142,599.6929
"67",74.93034,599.70605
"68",75.42596,599.71924
"69",76.41474,599.7324
"70",77.93088,599.7456
"71",79.87915,599.7588
"72",82.04715,599.772
"73",84.14191,599.78516
"74",85.90219,599.79834
"75",87.16197,599.8115
"76",87.87244,599.8247
"77",88.077515,599.8379
"78",87.869995,599.8511
"79",87.35729,599.86426
"80",86.65659,599.87744
"81",85.86313,599.8906
"82",85.04768,599.9038
"83",84.24933,599.917
"84",83.48272,599.9302
"85",82.74784,599.94336
"86",82.056915,599.95654
"87",81.427025,599.9697
"88",80.88747,599.9829
"89",80.47486,599.9961
"90",80.20874,600.0093
"91",80.08667,600.02246
"92",80.08423,600.03564
"93",80.15259,600.0488
"94",80.24048,600.062
"95",80.289314,600.0752
"96",80.255135,600.0884
"97",80.113525,600.10156
"98",79.85718,600.11475
"99",79.48608,600.1279
"100",79.03685,600.1411
"101",78.53147,600.1543
"102",77.99924,600.1675
"103",77.46456,600.18066
"104",76.9543,600.19385
"105",76.48798,600.20703
"106",76.07538,600.2202
"107",75.72625,600.2334
"108",75.44305,600.2466
"109",75.21843,600.25977
"110",75.04997,600.27295
"111",74.92302,600.28613
"112",74.83269,600.2993
"113",74.76433,600.3125
"114",74.70084,600.3257
"115",74.63004,600.33887
"116",74.547035,600.35205
"117",74.45182,600.36523
"118",74.37858,600.3784
"119",74.41276,600.3916
"120",74.703285,600.4048
"121",75.41863,600.41797
"122",76.654,600.43115
"123",78.38987,600.44434
"124",80.465096,600.4575
"125",82.62333,600.4707
"126",84.57404,600.4839
"127",86.099945,600.4971
"128",87.09361,600.51025
"129",87.56237,600.52344
"130",87.572136,600.5366
"131",87.22301,600.5498
"132",86.6273,600.563
"133",85.889984,600.5762
"134",85.09895,600.58936
"135",84.30793,600.60254
"136",83.54131,600.6157
"137",82.80644,600.6289
"138",82.10574,600.6421
"139",81.449,600.6553
"140",80.867935,600.66846
"141",80.40162,600.68164
"142",80.079346,600.6948
"143",79.91333,600.708
"144",79.888916,600.7212
"145",79.96948,600.7344
"146",80.08911,600.74756
"147",80.19165,600.76074
"148",80.22095,600.7739
"149",80.14038,600.7871
"150",79.93042,600.8003
"151",79.5935,600.8135
"152",79.15648,600.82666
"153",78.64866,600.83984
"154",78.101776,600.853
"155",77.55001,600.8662
"156",77.02754,600.8794
"157",76.5539,600.8926
"158",76.15106,600.90576
"159",75.8288,600.91895
"160",75.58709,600.9321
"161",75.41863,600.9453
"162",75.301445,600.9585
"163",75.22575,600.9717
"164",75.17204,600.98486
"165",75.125656,600.99805
"166",75.06706,601.0112
"167",74.98894,601.0244
"168",74.89372,601.0376
"169",74.80095,601.0508
"170",74.776535,601.06396
"171",74.96208,601.07715
"172",75.53338,601.09033
"173",76.627144,601.1035
"174",78.25559,601.1167
"175",80.29908,601.1299
"176",82.52323,601.14307
"177",84.627754,601.15625
"178",86.346535,601.16943
"179",87.53307,601.1826
"180",88.15808,601.1958
"181",88.2826,601.209
"182",88.00183,601.22217
"183",87.43542,601.23535
"184",86.70542,601.24854
"185",85.9144,601.2617
"186",85.12825,601.2749
"187",84.37629,601.2881
"188",83.66827,601.3013
"189",82.99199,601.31445
"190",82.337685,601.32764
"191",81.71511,601.3408
"192",81.15602,601.354
"193",80.69459,601.3672
"194",80.35523,601.3804
"195",80.14526,601.39355
"196",80.045166,601.40674
"197",80.01831,601.4199
"198",80.01099,601.4331
"199",79.97681,601.4463
"200",79.87427,601.4595
"201",79.67895,601.47266
"202",79.37377,601.48584
"203",78.97826,601.499
"204",78.51438,601.5122
"205",78.011444,601.5254
"206",77.49142,601.5386
"207",76.9836,601.55176
"208",76.507515,601.56494
"209",76.07782,601.5781
"210",75.70672,601.5913
"211",75.406425,601.6045
"212",75.176926,601.6177
"213",75.00847,601.63086
"214",74.89372,601.64404
"215",74.82048,601.6572
"216",74.77409,601.6704
"217",74.74235,601.6836
"218",74.71061,601.6968
"219",74.67155,601.70996
"220",74.61295,601.72314
"221",74.529945,601.7363
"222",74.42985,601.7495
"223",74.337074,601.7627
"224",74.32731,601.7759
"225",74.53727,601.78906
"226",75.16228,601.80225
"227",76.34394,601.8154
"228",78.09201,601.8286
"229",80.26978,601.8418
"230",82.62333,601.855
"231",84.825516,601.86816
"232",86.60288,601.88135
"233",87.80652,601.89453
"234",88.429085,601.9077
"235",88.53895,601.9209
"236",88.25086,601.9341
"237",87.68688,601.94727
"238",86.976425,601.96045
"239",86.219574,601.97363
"240",85.47982,601.9868
"241",84.791336,602
"242",84.15167,602.0132
"243",83.53399,602.02637
"244",82.92119,602.03955
"245",82.31083,602.05273
"246",81.71511,602.0659
"247",81.17311,602.0791
"248",80.719,602.0923
"249",80.377205,602.10547
"250",80.14526,602.11865
"251",80.00122,602.13184
"252",79.903564,602.145
"253",79.81079,602.1582
"254",79.674065,602.1714
"255",79.466545,602.1846
"256",79.17601,602.19775
"257",78.80492,602.21094
"258",78.37278,602.2241
"259",77.8967,602.2373
"260",77.39864,602.2505
"261",76.89815,602.2637
"262",76.419624,602.27686
"263",75.98016,602.29004
"264",75.5993,602.3032
"265",75.28191,602.3164
"266",75.035324,602.3296
"267",74.84978,602.3428
"268",74.72282,602.35596
"269",74.63981,602.36914
"270",74.5861,602.3823
"271",74.55192,602.3955
"272",74.527504,602.4087
"273",74.50309,602.4219
"274",74.478676,602.43506
"275",74.44694,602.44824
"276",74.4152,602.4614
"277",74.37858,602.4746
"278",74.32975,602.4878
"279",74.26383,602.501
"280",74.18082,602.51416
"281",74.07828,602.52734
"282",73.99283,602.5405
"283",74.00015,602.5537
"284",74.26383,602.5669
"285",74.969406,602.5801
"286",76.25117,602.59326
"287",78.08957,602.60645
"288",80.32105,602.6196
"289",82.65751,602.6328
"290",84.78157,602.646
"291",86.434425,602.6592
"292",87.50378,602.67236
"293",88.009155,602.68555
"294",88.04578,602.6987
"295",87.725945,602.7119
"296",87.17662,602.7251
"297",86.51011,602.7383
"298",85.824066,602.75146
"299",85.169754,602.76465
"300",84.576485,602.77783
"301",84.03204,602.791
"302",83.51202,602.8042
"303",82.98222,602.8174
"304",82.44022,602.83057
"305",81.900665,602.84375
"306",81.40017,602.85693
"307",80.972916,602.8701
"308",80.64088,602.8833
"309",80.40406,602.8965
"310",80.24536,602.90967
"311",80.130615,602.92285
"312",80.02319,602.93604
"313",79.89136,602.9492
"314",79.70336,602.9624
"315",79.43969,602.9756
"316",79.11253,602.9888
"317",78.72678,603.00195
"318",78.30198,603.01514
"319",77.86008,603.0283
"320",77.420616,603.0415
"321",77.00313,603.0547
"322",76.61494,603.0679
"323",76.2707,603.08105
"324",75.98016,603.09424
"325",75.74334,603.1074
"326",75.55779,603.1206
"327",75.423515,603.1338
"328",75.33074,603.147
"329",75.27215,603.16016
"330",75.23308,603.17334
"331",75.211105,603.1865
"332",75.20134,603.1997
"333",75.18913,603.2129
"334",75.174484,603.2261
"335",75.14763,603.23926
"336",75.11833,603.25244
"337",75.07927,603.2656
"338",75.04021,603.2788
"339",74.9987,603.292
"340",74.9572,603.3052
"341",74.90837,603.31836
"342",74.84978,603.33154
"343",74.78142,603.3447
"344",74.73502,603.3579
"345",74.78386,603.3711
"346",75.08415,603.3843
"347",75.81903,603.39746
"348",77.10811,603.41064
"349",78.922104,603.4238
"350",81.077896,603.437
"351",83.29473,603.4502
"352",85.25765,603.4634
"353",86.74204,603.47656
"354",87.66003,603.48975
"355",88.0531,603.5029
"356",88.0238,603.5161
"357",87.682,603.5293
"358",87.14732,603.5425
"359",86.519875,603.55566
"360",85.8851,603.56885
"361",85.29427,603.58203
"362",84.76936,603.5952
"363",84.29572,603.6084
"364",83.844055,603.6216
"365",83.389946,603.63477
"366",82.92363,603.64795
"367",82.45487,603.66113
"368",82.01053,603.6743
"369",81.62966,603.6875
"370",81.33181,603.7007
"371",81.11696,603.71387
"372",80.970474,603.72705
"373",80.867935,603.74023
"374",80.77028,603.7534
"375",80.6482,603.7666
"376",80.4773,603.7798
"377",80.24292,603.79297
"378",79.94751,603.80615
"379",79.60082,603.81934
"380",79.21507,603.8325
"381",78.81224,603.8457
"382",78.40452,603.8589
"383",78.011444,603.8721
"384",77.64034,603.88525
"385",77.31075,603.89844
"386",77.02754,603.9116
"387",76.79561,603.9248
"388",76.610054,603.938
"389",76.46113,603.9512
"390",76.34638,603.96436
"391",76.25605,603.97754
"392",76.1828,603.9907
"393",76.12421,604.0039
"394",76.08026,604.0171
"395",76.0412,604.0303
"396",76.00214,604.04346
"397",75.95819,604.05664
"398",75.90692,604.0698
"399",75.85565,604.083
"400",75.79706,604.0962
"401",75.73846,604.1094
"402",75.684746,604.12256
"403",75.6408,604.13574
"404",75.60174,604.1489
"405",75.562675,604.1621
"406",75.50652,604.1753
"407",75.44305,604.1885
"408",75.38201,604.20166
"409",75.389336,604.21484
"410",75.613945,604.228
"411",76.24872,604.2412
"412",77.43038,604.2544
"413",79.151596,604.2676
"414",81.25613,604.28076
"415",83.46807,604.29395
"416",85.47494,604.3071
"417",87.02281,604.3203
"418",88.0116,604.3335
"419",88.47059,604.3467
"420",88.497444,604.35986
"421",88.20203,604.37305
"422",87.69909,604.3862
"423",87.08873,604.3994
"424",86.45396,604.4126
"425",85.84848,604.4258
"426",85.3016,604.43896
"427",84.808426,604.45215
"428",84.351875,604.46533
"429",83.90509,604.4785
"430",83.455864,604.4917
"431",83.00664,604.5049
"432",82.579384,604.51807
"433",82.2034,604.53125
"434",81.90555,604.54443
"435",81.685814,604.5576
"436",81.532005,604.5708
"437",81.4197,604.584
"438",81.31228,604.59717
"439",81.18776,604.61035
"440",81.024185,604.62354
"441",80.816666,604.6367
"442",80.55543,604.6499
"443",80.24048,604.6631
"444",79.88159,604.6763
"445",79.48608,604.68945
"446",79.07103,604.70264
"447",78.65598,604.7158
"448",78.260475,604.729
"449",77.8967,604.7422
"450",77.576866,604.7554
"451",77.30343,604.76855
"452",77.08125,604.78174
"453",76.90059,604.7949
"454",76.76631,604.8081
"455",76.66865,604.8213
"456",76.60273,604.8345
"457",76.55634,604.84766
"458",76.52705,604.86084
"459",76.50263,604.874
"460",76.470894,604.8872
"461",76.439156,604.9004
"462",76.39277,604.9136
"463",76.33662,604.92676
"464",76.2707,604.93994
"465",76.20233,604.9531
"466",76.12909,604.9663
"467",76.05585,604.9795
"468",75.98993,604.9927
"469",75.931335,605.00586
"470",75.87274,605.01904
"471",75.81659,605.0322
"472",75.755554,605.0454
"473",75.69695,605.0586
"474",75.64568,605.0718
"475",75.65545,605.08496
"476",75.84833,605.09814
"477",76.422066,605.1113
"478",77.5378,605.1245
"479",79.22728,605.1377
"480",81.35134,605.1509
"481",83.64629,605.16406
"482",85.77768,605.17725
"483",87.4696,605.1904
"484",88.58289,605.2036
"485",89.13954,605.2168
"486",89.2372,605.23
"487",88.98573,605.24316
"488",88.495,605.25635
"489",87.86267,605.26953
"490",87.17662,605.2827
"491",86.505226,605.2959
"492",85.8851,605.3091
"493",85.32845,605.32227
"494",84.81575,605.33545
"495",84.32502,605.34863
"496",83.844055,605.3618
"497",83.370415,605.375
"498",82.92363,605.3882
"499",82.53788,605.40137
"500",82.22537,605.41455
"501",81.99344,605.42773
"502",81.83963,605.4409
"503",81.72976,605.4541
"504",81.6321,605.4673
"505",81.51736,605.48047
"506",81.356224,605.49365
"507",81.12184,605.50684
"508",80.816666,605.52
"509",80.448006,605.5332
"510",80.0354,605.5464
"511",79.588615,605.5596
"512",79.13451,605.57275
"513",78.69749,605.58594
"514",78.28001,605.5991
"515",77.89914,605.6123
"516",77.55978,605.6255
"517",77.264366,605.6387
"518",77.015335,605.65186
"519",76.81514,605.66504
"520",76.65156,605.6782
"521",76.52949,605.6914
"522",76.436714,605.7046
"523",76.35859,605.7178
"524",76.29267,605.73096
"525",76.22919,605.74414
"526",76.16815,605.7573
"527",76.112,605.7705
"528",76.04852,605.7837
"529",75.982605,605.7969
"530",75.911804,605.81006
"531",75.83856,605.82324
"532",75.757996,605.8364
"533",75.67498,605.8496
"534",75.5993,605.8628
"535",75.526054,605.876
"536",75.46258,605.88916
"537",75.40887,605.90234
"538",75.3576,605.9155
"539",75.29412,605.9287
"540",75.22087,605.9419
"541",75.14519,605.9551
"542",75.11833,605.96826
"543",75.28191,605.98145
"544",75.85809,605.9946
"545",77.03731,606.0078
"546",78.85863,606.021
"547",81.17067,606.0342
"548",83.685356,606.04736
"549",86.03891,606.06055
"550",87.91394,606.0737
"551",89.15419,606.0869
"552",89.779205,606.1001
"553",89.898834,606.1133
"554",89.635155,606.12646
"555",89.10536,606.13965
"556",88.4242,606.15283
"557",87.682,606.166
"558",86.94469,606.1792
"559",86.24643,606.1924
"560",85.59945,606.20557
"561",84.996414,606.21875
"562",84.420235,606.23193
"563",83.86847,606.2451
"564",83.35088,606.2583
"565",82.879684,606.2715
"566",82.47929,606.28467
"567",82.16678,606.29785
"568",81.94705,606.31104
"569",81.80545,606.3242
"570",81.71267,606.3374
"571",81.6321,606.3506
"572",81.52712,606.3638
"573",81.37087,606.37695
"574",81.143814,606.39014
"575",80.83864,606.4033
"576",80.465096,606.4165
"577",80.042725,606.4297
"578",79.586174,606.4429
"579",79.114975,606.45605
"580",78.641335,606.46924
"581",78.184784,606.4824
"582",77.7551,606.4956
"583",77.366905,606.5088
"584",77.02266,606.522
"585",76.732124,606.53516
"586",76.490425,606.54834
"587",76.297554,606.5615
"588",76.14618,606.5747
"589",76.03143,606.5879
"590",75.945984,606.6011
"591",75.88251,606.61426
"592",75.826355,606.62744
"593",75.772644,606.6406
"594",75.7116,606.6538
"595",75.64568,606.667
"596",75.57488,606.6802
"597",75.4992,606.69336
"598",75.42596,606.70654
"599",75.34783,606.7197
"600",75.267265,606.7329
"601",75.18181,606.7461
"602",75.09392,606.7593
"603",75.01335,606.77246
"604",74.93523,606.78564
"605",74.8571,606.7988
"606",74.776535,606.812
"607",74.686195,606.8252
"608",74.5861,606.8384
"609",74.49821,606.85156
"610",74.486,606.86475
"611",74.720375,606.8779
"612",75.45281,606.8911
"613",76.90303,606.9043
"614",79.08568,606.9175
"615",81.78836,606.93066
"616",84.644844,606.94385
"617",87.23033,606.95703
"618",89.20546,606.9702
"619",90.423744,606.9834
"620",90.96086,606.9966
"621",90.965744,607.00977
"622",90.5922,607.02295
"623",89.95743,607.03613
"624",89.178604,607.0493
"625",88.33631,607.0625
"626",87.50378,607.0757
"627",86.71519,607.08887
"628",85.9852,607.10205
"629",85.30892,607.11523
"630",84.67902,607.1284
"631",84.08331,607.1416
"632",83.529106,607.1548
"633",83.035934,607.16797
"634",82.62333,607.18115
"635",82.303505,607.19434
"636",82.08133,607.2075
"637",81.9324,607.2207
"638",81.829865,607.2339
"639",81.72732,607.2471
"640",81.59548,607.26025
"641",81.40505,607.27344
"642",81.13893,607.2866
"643",80.78981,607.2998
"644",80.37476,607.313
"645",79.906006,607.3262
"646",79.40063,607.33936
"647",78.87816,607.35254
"648",78.35081,607.3657
"649",77.83566,607.3789
"650",77.347374,607.3921
"651",76.90059,607.4053
"652",76.49775,607.41846
"653",76.14618,607.43164
"654",75.84589,607.4448
"655",75.60174,607.458
"656",75.403984,607.4712
"657",75.25262,607.4844
"658",75.13542,607.49756
"659",75.04265,607.51074
"660",74.966965,607.5239
"661",74.90349,607.5371
"662",74.847336,607.5503
"663",74.793625,607.5635
"664",74.737465,607.57666
"665",74.67399,607.58984
"666",74.598305,607.603
"667",74.510414,607.6162
"668",74.41276,607.6294
"669",74.31022,607.6426
"670",74.21011,607.65576
"671",74.11246,607.66895
"672",74.019684,607.6821
"673",73.92203,607.6953
"674",73.82193,607.7085
"675",73.71206,607.7217
"676",73.59731,607.73486
"677",73.48257,607.74805
"678",73.39712,607.7612
"679",73.41909,607.7744
"680",73.77554,607.7876
"681",74.78874,607.8008
"682",76.717476,607.81396
"683",79.537346,607.82715
"684",82.92851,607.84033
"685",86.3856,607.8535
"686",89.373924,607.8667
"687",91.49554,607.8799
"688",92.65766,607.89307
"689",93.02388,607.90625
"690",92.83589,607.91943
"691",92.2768,607.9326
"692",91.473564,607.9458
"693",90.53605,607.959
"694",89.55215,607.97217
"695",88.59022,607.98535
"696",87.69909,607.99854
"697",86.87633,608.0117
"698",86.11948,608.0249
"699",85.4139,608.0381
"700",84.75227,608.0513
"701",84.14435,608.06445
"702",83.614555,608.07764
"703",83.1873,608.0908
"704",82.86992,608.104
"705",82.64774,608.1172
"706",82.48905,608.1304
"707",82.35966,608.14355
"708",82.22049,608.15674
"709",82.03494,608.1699
"710",81.78592,608.1831
"711",81.463646,608.1963
"712",81.06569,608.2095
"713",80.59693,608.22266
"714",80.07446,608.23584
"715",79.520256,608.249
"716",78.94652,608.2622
"717",78.37278,608.2754
"718",77.81125,608.2886
"719",77.27657,608.30176
"720",76.77608,608.31494
"721",76.317085,608.3281
"722",75.90448,608.3413
"723",75.5407,608.3545
"724",75.228195,608.3677
"725",74.96208,608.38086
"726",74.737465,608.39404
"727",74.5568,608.4072
"728",74.41032,608.4204
"729",74.29069,608.4336
"730",74.1857,608.4468
"731",74.092926,608.45996
"732",74.002594,608.47314
"733",73.90982,608.4863
"734",73.80972,608.4995
"735",73.69985,608.5127
"736",73.57778,608.5259
"737",73.45327,608.53906
"738",73.31899,608.55225
"739",73.18227,608.5654
"740",73.03822,608.5786
"741",72.8893,608.5918
"742",72.73792,608.605
"743",72.58167,608.61816
"744",72.42054,608.63135
"745",72.25941,608.64453
"746",72.11047,608.6577
"747",72.0177,608.6709
"748",72.12756,608.6841
"749",72.764786,608.69727
"750",74.33219,608.71045
"751",77.03487,608.72363
"752",80.689705,608.7368
"753",84.78645,608.75
"754",88.670784,608.7632
"755",91.72747,608.77637
"756",93.61227,608.78955
"757",94.37888,608.80273
"758",94.3325,608.8159
"759",93.77829,608.8291
"760",92.91402,608.8423
"761",91.87152,608.85547
"762",90.74845,608.86865
"763",89.62295,608.88184
"764",88.54383,608.895
"765",87.53307,608.9082
"766",86.590675,608.9214
"767",85.71908,608.9346
"768",84.92073,608.94775
"769",84.21515,608.96094
"770",83.6292,608.9741
"771",83.18486,608.9873
"772",82.89189,609.0005
"773",82.73319,609.0137
"774",82.65751,609.02686
"775",82.61112,609.04004
"776",82.53788,609.0532
"777",82.39384,609.0664
"778",82.159454,609.0796
"779",81.82254,609.0928
"780",81.39529,609.10596
"781",80.885025,609.11914
"782",80.31129,609.1323
"783",79.68871,609.1455
"784",79.03929,609.1587
"785",78.380104,609.1719
"786",77.733116,609.18506
"787",77.11299,609.19824
"788",76.52705,609.2114
"789",75.982605,609.2246
"790",75.48699,609.2378
"791",75.04021,609.251
"792",74.64713,609.26416
"793",74.30778,609.27734
"794",74.019684,609.2905
"795",73.7731,609.3037
"796",73.55337,609.3169
"797",73.358055,609.3301
"798",73.1725,609.34326
"799",72.99916,609.35645
"800",72.833145,609.3696
"801",72.66712,609.3828
"802",72.50111,609.396
"803",72.33265,609.4092
"804",72.1593,609.42236
"805",71.9884,609.43555
"806",71.82239,609.4487
"807",71.65392,609.4619
"808",71.49279,609.4751
"809",71.33654,609.4883
"810",71.182724,609.50146
"811",71.03624,609.51465
"812",70.90196,609.52783
"813",70.79698,609.541
"814",70.74326,609.5542
"815",70.821396,609.5674
"816",71.27795,609.58057
"817",72.54749,609.59375
"818",75.054855,609.60693
"819",78.84398,609.6201
"820",83.49737,609.6333
"821",88.292366,609.6465
"822",92.43549,609.65967
"823",95.29687,609.67285
"824",96.688484,609.68604
"825",96.88136,609.6992
"826",96.31739,609.7124
"827",95.326164,609.7256
"828",94.103,609.7388
"829",92.76509,609.75195
"830",91.39544,609.76514
"831",90.05264,609.7783
"832",88.77089,609.7915
"833",87.55749,609.8047
"834",86.43931,609.8179
"835",85.43099,609.83105
"836",84.576485,609.84424
"837",83.90997,609.8574
"838",83.46319,609.8706
"839",83.23857,609.8838
"840",83.19951,609.897
"841",83.28008,609.91016
"842",83.39971,609.92334
"843",83.48028,609.9365
"844",83.45342,609.9497
"845",83.284966,609.9629
"846",82.96269,609.9761
"847",82.49882,609.98926
"848",81.9202,610.00244
"849",81.25857,610.0156
"850",80.53834,610.0288
"851",79.798584,610.042
"852",79.046616,610.0552
"853",78.3093,610.06836
"854",77.593956,610.08154
"855",76.91524,610.0947
"856",76.27314,610.1079
"857",75.67986,610.1211
"858",75.1281,610.1343
"859",74.63004,610.14746
"860",74.175934,610.16064
"861",73.77066,610.1738
"862",73.409325,610.187
"863",73.08949,610.2002
"864",72.80385,610.2134
"865",72.54749,610.22656
"866",72.31312,610.23975
"867",72.09338,610.2529
"868",71.89075,610.2661
"869",71.69787,610.2793
"870",71.52697,610.2925
"871",71.36584,610.30566
"872",71.219345,610.31885
"873",71.08263,610.33203
"874",70.958115,610.3452
"875",70.84337,610.3584
"876",70.7335,610.3716
"877",70.643166,610.38477
"878",70.572365,610.39795
"879",70.55039,610.41113
"880",70.626076,610.4243
"881",70.95323,610.4375
"882",71.88098,610.4507
"883",73.89517,610.46387
"884",77.281456,610.47705
"885",81.849396,610.49023
"886",86.96666,610.5034
"887",91.79584,610.5166
"888",95.54589,610.5298
"889",97.75296,610.54297
"890",98.47318,610.55615
"891",98.13382,610.56934
"892",97.18898,610.5825
"893",95.92676,610.5957
"894",94.50584,610.6089
"895",93.02632,610.6221
"896",91.54681,610.63525
"897",90.11368,610.64844
"898",88.74647,610.6616
"899",87.46227,610.6748
"900",86.28794,610.688
"901",85.26742,610.7012
"902",84.44709,610.71436
"903",83.87335,610.72754
"904",83.560844,610.7407
"905",83.48028,610.7539
"906",83.57305,610.7671
"907",83.74151,610.7803
"908",83.895325,610.79346
"909",83.946594,610.80664
"910",83.844055,610.8198
"911",83.563286,610.833
"912",83.12627,610.8462
"913",82.55253,610.8594
"914",81.881134,610.87256
"915",81.143814,610.88574
"916",80.36744,610.8989
"917",79.569084,610.9121
"918",78.768295,610.9253
"919",77.98459,610.9385
"920",77.23262,610.95166
"921",76.51484,610.96484
"922",75.843445,610.978
"923",75.211105,610.9912
"924",74.62272,611.0044
"925",74.075836,611.0176
"926",73.5729,611.03076
"927",73.11635,611.04395
"928",72.706184,611.0571
"929",72.33509,611.0703
"930",71.99817,611.0835
"931",71.69543,611.0967
"932",71.41955,611.10986
"933",71.17052,611.12305
"934",70.94835,611.1362
"935",70.75792,611.1494
"936",70.59434,611.1626
"937",70.46006,611.1758
"938",70.345314,611.18896
"939",70.25254,611.20215
"940",70.17685,611.21533
"941",70.115814,611.2285
"942",70.07675,611.2417
"943",70.09628,611.2549
"944",70.24277,611.26807
"945",70.72617,611.28125
"946",71.973755,611.29443
"947",74.461586,611.3076
"948",78.34348,611.3208
"949",83.27764,611.334
"950",88.52186,611.34717
"951",93.206985,611.36035
"952",96.59327,611.37354
"953",98.35844,611.3867
"954",98.70756,611.3999
"955",98.12161,611.4131
"956",97.022964,611.4263
"957",95.658195,611.43945
"958",94.16647,611.45264
"959",92.63325,611.4658
"960",91.107346,611.479
"961",89.62295,611.4922
"962",88.20447,611.5054
"963",86.87633,611.51855
"964",85.68246,611.53174
"965",84.67414,611.5449
"966",83.90509,611.5581
"967",83.4168,611.5713
"968",83.21416,611.5845
"969",83.24834,611.59766
"970",83.43389,611.61084
"971",83.67071,611.624
"972",83.8465,611.6372
"973",83.88068,611.6504
"974",83.73174,611.6636
"975",83.39727,611.67676
"976",82.89189,611.68994
"977",82.252235,611.7031
"978",81.5198,611.7163
"979",80.726326,611.7295
"980",79.89624,611.7427
"981",79.061264,611.75586
"982",78.23605,611.76904
"983",77.42794,611.7822
"984",76.64912,611.7954
"985",75.90448,611.8086
"986",75.20134,611.8218
"987",74.54459,611.83496
"988",73.936676,611.84814
"989",73.38003,611.8613
"990",72.87709,611.8745
"991",72.42298,611.8877
"992",72.01282,611.9009
"993",71.641716,611.91406
"994",71.3048,611.92725
"995",71.0045,611.9404
"996",70.7335,611.9536
"997",70.4918,611.9668
"998",70.28184,611.98
"999",70.101166,611.99316
"1000",69.94736,612.00635
"1001",69.820404,612.01953
"1002",69.715416,612.0327
"1003",69.63729,612.0459
"1004",69.58846,612.0591
"1005",69.610435,612.07227
"1006",69.7789,612.08545
"1007",70.345314,612.09863
"1008",71.77356,612.1118
"1009",74.51774,612.125
"1010",78.660866,612.1382
"1011",83.773254,612.15137
"1012",89.07362,612.16455
"1013",93.680626,612.17773
"1014",96.886246,612.1909
"1015",98.45609,612.2041
"1016",98.65873,612.2173
"1017",97.98489,612.23047
"1018",96.83986,612.24365
"1019",95.450676,612.25684
"1020",93.944305,612.27
"1021",92.40131,612.2832
"1022",90.87053,612.2964
"1023",89.391014,612.3096
"1024",87.98718,612.32275
"1025",86.69077,612.33594
"1026",85.5433,612.3491
"1027",84.6009,612.3623
"1028",83.90509,612.3755
"1029",83.49004,612.3887
"1030",83.34356,612.40186
"1031",83.41436,612.41504
"1032",83.60235,612.4282
"1033",83.80499,612.4414
"1034",83.92218,612.4546
"1035",83.888,612.4678
"1036",83.66338,612.48096
"1037",83.25323,612.49414
"1038",82.68192,612.5073
"1039",81.98123,612.5205
"1040",81.19508,612.5337
"1041",80.360115,612.5469
"1042",79.49828,612.56006
"1043",78.63401,612.57324
"1044",77.786835,612.5864
"1045",76.964066,612.5996
"1046",76.173035,612.6128
"1047",75.41619,612.626
"1048",74.70084,612.63916
"1049",74.02945,612.65234
"1050",73.40444,612.6655
"1051",72.8307,612.6787
"1052",72.31556,612.6919
"1053",71.854126,612.7051
"1054",71.43664,612.71826
"1055",71.063095,612.73145
"1056",70.73106,612.7446
"1057",70.433205,612.7578
"1058",70.17441,612.771
"1059",69.9498,612.7842
"1060",69.752045,612.79736
"1061",69.58602,612.81055
"1062",69.4493,612.8237
"1063",69.33456,612.8369
"1064",69.239334,612.8501
"1065",69.16609,612.8633
"1066",69.136795,612.87646
"1067",69.19783,612.88965
"1068",69.50301,612.90283
"1069",70.40391,612.916
"1070",72.39857,612.9292
"1071",75.7995,612.9424
"1072",80.46021,612.95557
"1073",85.770355,612.96875
"1074",90.87297,612.98193
"1075",94.940414,612.9951
"1076",97.45022,613.0083
"1077",98.407265,613.0215
"1078",98.2095,613.03467
"1079",97.33303,613.04785
"1080",96.095215,613.06104
"1081",94.67918,613.0742
"1082",93.18501,613.0874
"1083",91.67864,613.1006
"1084",90.20157,613.1138
"1085",88.780655,613.12695
"1086",87.44518,613.14014
"1087",86.23422,613.1533
"1088",85.19417,613.1665
"1089",84.38361,613.1797
"1090",83.84161,613.1929
"1091",83.580376,613.20605
"1092",83.560844,613.21924
"1093",83.71465,613.2324
"1094",83.93683,613.2456
"1095",84.12482,613.2588
"1096",84.18585,613.272
"1097",84.068665,613.28516
"1098",83.76105,613.29834
"1099",83.28008,613.3115
"1100",82.65751,613.3247
"1101",81.934845,613.3379
"1102",81.146255,613.3511
"1103",80.325935,613.36426
"1104",79.48608,613.37744
"1105",78.65598,613.3906
"1106",77.84299,613.4038
"1107",77.06172,613.417
"1108",76.314644,613.4302
"1109",75.61883,613.44336
"1110",74.969406,613.45654
"1111",74.371254,613.4697
"1112",73.829254,613.4829
"1113",73.338524,613.4961
"1114",72.89418,613.5093
"1115",72.50111,613.52246
"1116",72.15442,613.53564
"1117",71.84436,613.5488
"1118",71.55871,613.562
"1119",71.29504,613.5752
"1120",71.046005,613.5884
"1121",70.804306,613.60156
"1122",70.57481,613.61475
"1123",70.362404,613.6279
"1124",70.17929,613.6411
"1125",70.064545,613.6543
"1126",70.12802,613.6675
"1127",70.65293,613.68066
"1128",72.059204,613.69385
"1129",74.67155,613.70703
"1130",78.46311,613.7202
"1131",82.98222,613.7334
"1132",87.53307,613.7466
"1133",91.37347,613.75977
"1134",93.97116,613.77295
"1135",95.21141,613.78613
"1136",95.35546,613.7993
"1137",94.786606,613.8125
"1138",93.81003,613.8257
"1139",92.60395,613.83887
"1140",91.28802,613.85205
"1141",89.9379,613.86523
"1142",88.5951,613.8784
"1143",87.28649,613.8916
"1144",86.03647,613.9048
"1145",84.874344,613.91797
"1146",83.85138,613.93115
"1147",83.02617,613.94434
"1148",82.44755,613.9575
"1149",82.144806,613.9707
"1150",82.10086,613.9839
"1151",82.25712,613.9971
"1152",82.52323,614.01025
"1153",82.791794,614.02344
"1154",82.96513,614.0366
"1155",82.9749,614.0498
"1156",82.791794,614.063
"1157",82.41825,614.0762
"1158",81.883575,614.08936
"1159",81.22682,614.10254
"1160",80.48951,614.1157
"1161",79.710686,614.1289
"1162",78.91234,614.1421
"1163",78.116425,614.1553
"1164",77.34249,614.16846
"1165",76.610054,614.18164
"1166",75.928894,614.1948
"1167",75.29656,614.208
"1168",74.72282,614.2212
"1169",74.215,614.2344
"1170",73.76578,614.24756
"1171",73.3727,614.26074
"1172",73.040665,614.2739
"1173",72.75746,614.2871
"1174",72.51331,614.3003
"1175",72.288704,614.3135
"1176",72.06897,614.32666
"1177",71.84192,614.33984
"1178",71.60998,614.353
"1179",71.380486,614.3662
"1180",71.19493,614.3794
"1181",71.199814,614.3926
"1182",71.68078,614.40576
"1183",73.01137,614.41895
"1184",75.43572,614.4321
"1185",78.86839,614.4453
"1186",82.8748,614.4585
"1187",86.837265,614.4717
"1188",90.12344,614.48486
"1189",92.33051,614.49805
"1190",93.40475,614.5112
"1191",93.56832,614.5244
"1192",93.12154,614.5376
"1193",92.29145,614.5508
"1194",91.226974,614.56396
"1195",90.040436,614.57715
"1196",88.80751,614.59033
"1197",87.57702,614.6035
"1198",86.37827,614.6167
"1199",85.22591,614.6299
"1200",84.14679,614.64307
"1201",83.17998,614.65625
"1202",82.388954,614.66943
"1203",81.8201,614.6826
"1204",81.51003,614.6958
"1205",81.449,614.709
"1206",81.57595,614.72217
"1207",81.81033,614.73535
"1208",82.056915,614.74854
"1209",82.22781,614.7617
"1210",82.25956,614.7749
"1211",82.12039,614.7881
"1212",81.80545,614.8013
"1213",81.33425,614.81445
"1214",80.73609,614.82764
"1215",80.05005,614.8408
"1216",79.31518,614.854
"1217",78.553444,614.8672
"1218",77.79416,614.8804
"1219",77.05928,614.89355
"1220",76.36591,614.90674
"1221",75.72625,614.9199
"1222",75.15495,614.9331
"1223",74.6569,614.9463
"1224",74.23453,614.9595
"1225",73.89273,614.97266
"1226",73.619286,614.98584
"1227",73.41421,614.999
"1228",73.255516,615.0122
"1229",73.12367,615.0254
"1230",72.99428,615.0386
"1231",72.85268,615.05176
"1232",72.69642,615.06494
"1233",72.55482,615.0781
"1234",72.54261,615.0913
"1235",72.884415,615.1045
"1236",73.89761,615.1177
"1237",75.80194,615.13086
"1238",78.55833,615.14404
"1239",81.85916,615.1572
"1240",85.23811,615.1704
"1241",88.18494,615.1836
"1242",90.32853,615.1968
"1243",91.561455,615.20996
"1244",92.00336,615.22314
"1245",91.84711,615.2363
"1246",91.2636,615.2495
"1247",90.389565,615.2627
"1248",89.342186,615.2759
"1249",88.216675,615.28906
"1250",87.07652,615.30225
"1251",85.960785,615.3154
"1252",84.88655,615.3286
"1253",83.86847,615.3418
"1254",82.933395,615.355
"1255",82.12039,615.36816
"1256",81.478294,615.38135
"1257",81.041275,615.39453
"1258",80.82399,615.4077
"1259",80.799576,615.4209
"1260",80.91188,615.4341
"1261",81.077896,615.44727
"1262",81.21706,615.46045
"1263",81.26589,615.47363
"1264",81.17067,615.4868
"1265",80.919205,615.5
"1266",80.516365,615.5132
"1267",79.98657,615.52637
"1268",79.361565,615.53955
"1269",78.677956,615.55273
"1270",77.9675,615.5659
"1271",77.25948,615.5791
"1272",76.578316,615.5923
"1273",75.94354,615.60547
"1274",75.36736,615.61865
"1275",74.85954,615.63184
"1276",74.42741,615.645
"1277",74.07095,615.6582
"1278",73.78531,615.6714
"1279",73.565575,615.6846
"1280",73.39712,615.69775
"1281",73.26772,615.71094
"1282",73.15297,615.7241
"1283",73.03578,615.7373
"1284",72.91127,615.7505
"1285",72.79408,615.7637
"1286",72.762344,615.77686
"1287",72.99916,615.79004
"1288",73.777985,615.8032
"1289",75.31365,615.8164
"1290",77.63302,615.8296
"1291",80.52857,615.8428
"1292",83.6292,615.85596
"1293",86.4979,615.86914
"1294",88.76112,615.8823
"1295",90.247955,615.8955
"1296",90.9926,615.9087
"1297",91.11955,615.9219
"1298",90.76311,615.93506
"1299",90.06729,615.94824
"1300",89.15663,615.9614
"1301",88.131226,615.9746
"1302",87.08385,615.9878
"1303",86.063324,616.001
"1304",85.084305,616.01416
"1305",84.14923,616.02734
"1306",83.265434,616.0405
"1307",82.45243,616.0537
"1308",81.739525,616.0669
"1309",81.15602,616.0801
"1310",80.743416,616.09326
"1311",80.49683,616.10645
"1312",80.394295,616.1196
"1313",80.38453,616.1328
"1314",80.4065,616.146
"1315",80.396736,616.1592
"1316",80.30396,616.17236
"1317",80.10132,616.18555
"1318",79.76929,616.1987
"1319",79.31762,616.2119
"1320",78.768295,616.2251
"1321",78.14572,616.2383
"1322",77.47433,616.25146
"1323",76.78584,616.26465
"1324",76.10956,616.27783
"1325",75.47234,616.291
"1326",74.89128,616.3042
"1327",74.37858,616.3174
"1328",73.951324,616.33057
"1329",73.60464,616.34375
"1330",73.33608,616.35693
"1331",73.13832,616.3701
"1332",72.99916,616.3833
"1333",72.90639,616.3965
"1334",72.83803,616.40967
"1335",72.76967,616.42285
"1336",72.691536,616.43604
"1337",72.603645,616.4492
"1338",72.55482,616.4624
"1339",72.691536,616.4756
"1340",73.2433,616.4888
"1341",74.44938,616.50195
"1342",76.39277,616.51514
"1343",78.95628,616.5283
"1344",81.85184,616.5415
"1345",84.68879,616.5547
"1346",87.09117,616.5679
"1347",88.82704,616.58105
"1348",89.847565,616.59424
"1349",90.230865,616.6074
"1350",90.09903,616.6206
"1351",89.579,616.6338
"1352",88.80751,616.647
"1353",87.89929,616.66016
"1354",86.94957,616.67334
"1355",86.01694,616.6865
"1356",85.13069,616.6997
"1357",84.29084,616.7129
"1358",83.4876,616.7261
"1359",82.72343,616.73926
"1360",82.005646,616.75244
"1361",81.36599,616.7656
"1362",80.83864,616.7788
"1363",80.44312,616.792
"1364",80.17944,616.8052
"1365",80.028076,616.81836
"1366",79.9353,616.83154
"1367",79.852295,616.8447
"1368",79.7351,616.8579
"1369",79.54711,616.8711
"1370",79.26635,616.8843
"1371",78.890366,616.89746
"1372",78.42649,616.91064
"1373",77.89426,616.9238
"1374",77.315636,616.937
"1375",76.71259,616.9502
"1376",76.10712,616.9634
"1377",75.52361,616.97656
"1378",74.98894,616.98975
"1379",74.50797,617.0029
"1380",74.09537,617.0161
"1381",73.760895,617.0293
"1382",73.49966,617.0425
"1383",73.306786,617.05566
"1384",73.17738,617.06885
"1385",73.09682,617.08203
"1386",73.04799,617.0952
"1387",73.01869,617.1084
"1388",72.99184,617.1216
"1389",72.94789,617.13477
"1390",72.87709,617.14795
"1391",72.77699,617.16113
"1392",72.689095,617.1743
"1393",72.72816,617.1875
"1394",73.09682,617.2007
"1395",74.03189,617.21387
"1396",75.67254,617.22705
"1397",77.96506,617.24023
"1398",80.68238,617.2534
"1399",83.47051,617.2666
"1400",85.95346,617.2798
"1401",87.85535,617.29297
"1402",89.07118,617.30615
"1403",89.64248,617.31934
"1404",89.67422,617.3325
"1405",89.288475,617.3457
"1406",88.61707,617.3589
"1407",87.78943,617.3721
"1408",86.91295,617.38525
"1409",86.05356,617.39844
"1410",85.24788,617.4116
"1411",84.491035,617.4248
"1412",83.76593,617.438
"1413",83.05791,617.4512
"1414",82.371864,617.46436
"1415",81.72976,617.47754
"1416",81.160904,617.4907
"1417",80.70191,617.5039
"1418",80.35767,617.5171
"1419",80.12085,617.5303
"1420",79.9646,617.54346
"1421",79.84985,617.55664
"1422",79.727776,617.5698
"1423",79.56176,617.583
"1424",79.32983,617.5962
"1425",79.009995,617.6094
"1426",78.61448,617.62256
"1427",78.153046,617.63574
"1428",77.6379,617.6489
"1429",77.09102,617.6621
"1430",76.53437,617.6753
"1431",75.99237,617.6885
"1432",75.48455,617.70166
"1433",75.02556,617.71484
"1434",74.63737,617.728
"1435",74.31754,617.7412
"1436",74.05875,617.7544
"1437",73.863434,617.7676
"1438",73.721825,617.78076
"1439",73.616844,617.79395
"1440",73.548485,617.8071
"1441",73.51186,617.8203
"1442",73.494774,617.8335
"1443",73.48745,617.8467
"1444",73.480125,617.85986
"1445",73.463036,617.87305
"1446",73.41665,617.8862
"1447",73.340965,617.8994
"1448",73.23598,617.9126
"1449",73.131,617.9258
"1450",73.111465,617.93896
"1451",73.37026,617.95215
"1452",74.13931,617.96533
"1453",75.5993,617.9785
"1454",77.7551,617.9917
"1455",80.411385,618.0049
"1456",83.23125,618.01807
"1457",85.838715,618.03125
"1458",87.90906,618.04443
"1459",89.30068,618.0576
"1460",90.023346,618.0708
"1461",90.177155,618.084
"1462",89.881744,618.09717
"1463",89.27627,618.11035
"1464",88.482796,618.12354
"1465",87.61608,618.1367
"1466",86.75426,618.1499
"1467",85.943695,618.1631
"1468",85.19173,618.1763
"1469",84.48615,618.18945
"1470",83.809875,618.20264
"1471",83.14336,618.2158
"1472",82.5037,618.229
"1473",81.9202,618.2422
"1474",81.4197,618.2554
"1475",81.02663,618.26855
"1476",80.7483,618.28174
"1477",80.55543,618.2949
"1478",80.411385,618.3081
"1479",80.274666,618.3213
"1480",80.1062,618.3345
"1481",79.87915,618.34766
"1482",79.569084,618.36084
"1483",79.183334,618.374
"1484",78.729225,618.3872
"1485",78.23117,618.4004
"1486",77.69405,618.4136
"1487",77.14961,618.42676
"1488",76.60761,618.43994
"1489",76.09491,618.4531
"1490",75.62127,618.4663
"1491",75.20622,618.4795
"1492",74.8571,618.4927
"1493",74.57877,618.50586
"1494",74.36149,618.51904
"1495",74.19791,618.5322
"1496",74.08316,618.5454
"1497",73.99771,618.5586
"1498",73.936676,618.5718
"1499",73.88785,618.58496
"1500",73.848785,618.59814
"1501",73.81705,618.6113
"1502",73.79019,618.6245
"1503",73.763336,618.6377
"1504",73.738914,618.6509
"1505",73.704735,618.66406
"1506",73.65835,618.67725
"1507",73.58999,618.6904
"1508",73.5021,618.7036
"1509",73.39468,618.7168
"1510",73.306786,618.73
"1511",73.340965,618.74316
"1512",73.70229,618.75635
"1513",74.64469,618.76953
"1514",76.33662,618.7827
"1515",78.73899,618.7959
"1516",81.60769,618.8091
"1517",84.56672,618.82227
"1518",87.20836,618.83545
"1519",89.22499,618.84863
"1520",90.50675,618.8618
"1521",91.11223,618.875
"1522",91.16594,618.8882
"1523",90.79729,618.90137
"1524",90.142975,618.91455
"1525",89.325096,618.92773
"1526",88.448616,618.9409
"1527",87.5819,618.9541
"1528",86.77379,618.9673
"1529",86.0267,618.98047
"1530",85.32357,618.99365
"1531",84.6424,619.00684
"1532",83.983215,619.02
"1533",83.35088,619.0332
"1534",82.774704,619.0464
"1535",82.28153,619.0596
"1536",81.883575,619.07275
"1537",81.58572,619.08594
"1538",81.36599,619.0991
"1539",81.18776,619.1123
"1540",81.02174,619.1255
"1541",80.82887,619.1387
"1542",80.57984,619.15186
"1543",80.25025,619.16504
"1544",79.84497,619.1782
"1545",79.36645,619.1914
"1546",78.83421,619.2046
"1547",78.27024,619.2178
"1548",77.69405,619.23096
"1549",77.12764,619.24414
"1550",76.58808,619.2573
"1551",76.09979,619.2705
"1552",75.67254,619.2837
"1553",75.31121,619.2969
"1554",75.01335,619.31006
"1555",74.776535,619.32324
"1556",74.58854,619.3364
"1557",74.43961,619.3496
"1558",74.32487,619.3628
"1559",74.23697,619.376
"1560",74.16861,619.38916
"1561",74.107574,619.40234
"1562",74.056305,619.4155
"1563",74.00992,619.4287
"1564",73.968414,619.4419
"1565",73.92203,619.4551
"1566",73.87564,619.46826
"1567",73.82193,619.48145
"1568",73.760895,619.4946
"1569",73.6852,619.5078
"1570",73.59243,619.521
"1571",73.480125,619.5342
"1572",73.35561,619.54736
"1573",73.26528,619.56055
"1574",73.340965,619.5737
"1575",73.829254,619.5869
"1576",74.99138,619.6001
"1577",76.95918,619.6133
"1578",79.63012,619.62646
"1579",82.69657,619.63965
"1580",85.73373,619.65283
"1581",88.31922,619.666
"1582",90.18204,619.6792
"1583",91.283134,619.6924
"1584",91.72259,619.70557
"1585",91.646904,619.71875
"1586",91.18547,619.73193
"1587",90.46769,619.7451
"1588",89.61074,619.7583
"1589",88.71717,619.7715
"1590",87.852905,619.78467
"1591",87.05455,619.79785
"1592",86.31968,619.81104
"1593",85.626305,619.8242
"1594",84.95247,619.8374
"1595",84.2884,619.8506
"1596",83.65606,619.8638
"1597",83.08232,619.87695
"1598",82.58915,619.89014
"1599",82.196075,619.9033
"1600",81.900665,619.9165
"1601",81.68093,619.9297
"1602",81.495384,619.9429
"1603",81.307396,619.95605
"1604",81.08034,619.96924
"1605",80.78981,619.9824
"1606",80.42359,619.9956
"1607",79.98901,620.0088
"1608",79.49096,620.022
"1609",78.94408,620.03516
"1610",78.37278,620.04834
"1611",77.789276,620.0615
"1612",77.21309,620.0747
"1613",76.66865,620.0879
"1614",76.17059,620.1011
"1615",75.73113,620.11426
"1616",75.355156,620.12744
"1617",75.04021,620.1406
"1618",74.79118,620.1538
"1619",74.59098,620.167
"1620",74.42985,620.1802
"1621",74.30045,620.19336
"1622",74.195465,620.20654
"1623",74.10025,620.2197
"1624",74.019684,620.2329
"1625",73.94156,620.2461
"1626",73.86832,620.2593
"1627",73.79263,620.27246
"1628",73.71938,620.28564
"1629",73.64126,620.2988
"1630",73.565575,620.312
"1631",73.48257,620.3252
"1632",73.39468,620.3384
"1633",73.30923,620.35156
"1634",73.21889,620.36475
"1635",73.11879,620.3779
"1636",73.01625,620.3911
"1637",72.90639,620.4043
"1638",72.813614,620.4175
"1639",72.8307,620.43066
"1640",73.1725,620.44385
"1641",74.15152,620.45703
"1642",75.98505,620.4702
"1643",78.660866,620.4834
"1644",81.91043,620.4966
"1645",85.29183,620.50977
"1646",88.3119,620.52295
"1647",90.599525,620.53613
"1648",92.02289,620.5493
"1649",92.67719,620.5625
"1650",92.733345,620.5757
"1651",92.34516,620.58887
"1652",91.65423,620.60205
"1653",90.78264,620.61523
"1654",89.83536,620.6284
"1655",88.89296,620.6416
"1656",88.00183,620.6548
"1657",87.1693,620.66797
"1658",86.38804,620.68115
"1659",85.64095,620.69434
"1660",84.92317,620.7075
"1661",84.242004,620.7207
"1662",83.6292,620.7339
"1663",83.104294,620.7471
"1664",82.69169,620.76025
"1665",82.38651,620.77344
"1666",82.161896,620.7866
"1667",81.988556,620.7998
"1668",81.8201,620.813
"1669",81.619896,620.8262
"1670",81.35378,620.83936
"1671",81.00954,620.85254
"1672",80.5774,620.8657
"1673",80.07202,620.8789
"1674",79.50805,620.8921
"1675",78.9099,620.9053
"1676",78.29954,620.91846
"1677",77.69894,620.93164
"1678",77.12276,620.9448
"1679",76.59052,620.958
"1680",76.10956,620.9712
"1681",75.682304,620.9844
"1682",75.32098,620.99756
"1683",75.020676,621.01074
"1684",74.77409,621.0239
"1685",74.57633,621.0371
"1686",74.42008,621.0503
"1687",74.29069,621.0635
"1688",74.178375,621.07666
"1689",74.075836,621.08984
"1690",73.97818,621.103
"1691",73.882965,621.1162
"1692",73.78775,621.1294
"1693",73.687645,621.1426
"1694",73.59243,621.15576
"1695",73.49233,621.16895
"1696",73.38247,621.1821
"1697",73.26772,621.1953
"1698",73.15053,621.2085
"1699",73.0309,621.2217
"1700",72.90883,621.23486
"1701",72.79164,621.24805
"1702",72.66956,621.2612
"1703",72.54017,621.2744
"1704",72.40101,621.2876
"1705",72.28138,621.3008
"1706",72.256966,621.31396
"1707",72.5597,621.32715
"1708",73.52651,621.34033
"1709",75.45525,621.3535
"1710",78.3679,621.3667
"1711",81.971466,621.3799
"1712",85.753265,621.39307
"1713",89.14198,621.40625
"1714",91.68597,621.41943
"1715",93.21187,621.4326
"1716",93.84909,621.4458
"1717",93.832,621.459
"1718",93.35592,621.47217
"1719",92.56245,621.48535
"1720",91.58343,621.49854
"1721",90.5214,621.5117
"1722",89.45205,621.5249
"1723",88.42664,621.5381
"1724",87.464714,621.5513
"1725",86.56382,621.56445
"1726",85.711754,621.57764
"1727",84.91341,621.5908
"1728",84.18341,621.604
"1729",83.55352,621.6172
"1730",83.05058,621.6304
"1731",82.68192,621.64355
"1732",82.43534,621.65674
"1733",82.27665,621.6699
"1734",82.15701,621.6831
"1735",82.03006,621.6963
"1736",81.85672,621.7095
"1737",81.60769,621.72266
"1738",81.26345,621.73584
"1739",80.82887,621.749
"1740",80.308846,621.7622
"1741",79.725334,621.7754
"1742",79.10033,621.7886
"1743",78.450905,621.80176
"1744",77.80148,621.81494
"1745",77.171585,621.8281
"1746",76.58076,621.8413
"1747",76.0412,621.8545
"1748",75.560234,621.8677
"1749",75.140305,621.88086
"1750",74.78142,621.89404
"1751",74.48112,621.9072
"1752",74.232086,621.9204
"1753",74.03433,621.9336
"1754",73.87808,621.9468
"1755",73.74624,621.95996
"1756",73.636375,621.97314
"1757",73.53628,621.9863
"1758",73.44839,621.9995
"1759",73.36538,622.0127
"1760",73.28237,622.0259
"1761",73.19203,622.03906
"1762",73.094376,622.05225
"1763",72.989395,622.0654
"1764",72.87953,622.0786
"1765",72.76967,622.0918
"1766",72.6598,622.105
"1767",72.54749,622.11816
"1768",72.42298,622.13135
"1769",72.28626,622.14453
"1770",72.13489,622.1577
"1771",71.9762,622.1709
"1772",71.81995,622.1841
"1773",71.73937,622.19727
"1774",71.91516,622.21045
"1775",72.7013,622.22363
"1776",74.49821,622.2368
"1777",77.454796,622.25
"1778",81.324486,622.2632
"1779",85.56039,622.27637
"1780",89.498436,622.28955
"1781",92.5478,622.30273
"1782",94.40574,622.3159
"1783",95.16258,622.3291
"1784",95.11864,622.3423
"1785",94.55222,622.35547
"1786",93.65621,622.36865
"1787",92.56245,622.38184
"1788",91.38323,622.395
"1789",90.19913,622.4082
"1790",89.05165,622.4214
"1791",87.96765,622.4346
"1792",86.94713,622.44775
"1793",85.99008,622.46094
"1794",85.11116,622.4741
"1795",84.32746,622.4873
"1796",83.67315,622.5005
"1797",83.17021,622.5137
"1798",82.828415,622.52686
"1799",82.633095,622.54004
"1800",82.53788,622.5532
"1801",82.48417,622.5664
"1802",82.41337,622.5796
"1803",82.28153,622.5928
"1804",82.05203,622.60596
"1805",81.71023,622.61914
"1806",81.25613,622.6323
"1807",80.709236,622.6455
"1808",80.09155,622.6587
"1809",79.42748,622.6719
"1810",78.73899,622.68506
"1811",78.048065,622.69824
"1812",77.37179,622.7114
"1813",76.72236,622.7246
"1814",76.11688,622.7378
"1815",75.562675,622.751
"1816",75.071945,622.76416
"1817",74.64469,622.77734
"1818",74.28336,622.7905
"1819",73.97574,622.8037
"1820",73.7145,622.8169
"1821",73.49233,622.8301
"1822",73.29702,622.84326
"1823",73.12123,622.85645
"1824",72.955215,622.8696
"1825",72.798965,622.8828
"1826",72.65247,622.896
"1827",72.515755,622.9092
"1828",72.38148,622.92236
"1829",72.24475,622.93555
"1830",72.10559,622.9487
"1831",71.95422,622.9619
"1832",71.79553,622.9751
"1833",71.62951,622.9883
"1834",71.46349,623.00146
"1835",71.29992,623.01465
"1836",71.133896,623.02783
"1837",70.96788,623.041
"1838",70.79942,623.0542
"1839",70.63828,623.0674
"1840",70.501564,623.08057
"1841",70.45518,623.09375
"1842",70.67979,623.10693
"1843",71.58312,623.1201
"1844",73.66079,623.1333
"1845",77.14229,623.1465
"1846",81.76639,623.15967
"1847",86.85924,623.17285
"1848",91.58831,623.18604
"1849",95.20653,623.1992
"1850",97.31838,623.2124
"1851",98.04593,623.2256
"1852",97.811554,623.2388
"1853",97.01076,623.25195
"1854",95.87793,623.26514
"1855",94.56199,623.2783
"1856",93.16548,623.2915
"1857",91.77142,623.3047
"1858",90.43107,623.3179
"1859",89.17128,623.33105
"1860",87.99451,623.34424
"1861",86.91051,623.3574
"1862",85.93637,623.3706
"1863",85.101395,623.3838
"1864",84.43488,623.397
"1865",83.95392,623.41016
"1866",83.6585,623.42334
"1867",83.509575,623.4365
"1868",83.45098,623.4497
"1869",83.4168,623.4629
"1870",83.34356,623.4761
"1871",83.17998,623.48926
"1872",82.896774,623.50244
"1873",82.476845,623.5156
"1874",81.94217,623.5288
"1875",81.307396,623.542
"1876",80.59693,623.5552
"1877",79.84009,623.56836
"1878",79.05394,623.58154
"1879",78.260475,623.5947
"1880",77.47433,623.6079
"1881",76.717476,623.6211
"1882",75.999695,623.6343
"1883",75.33074,623.64746
"1884",74.71549,623.66064
"1885",74.158844,623.6738
"1886",73.65591,623.687
"1887",73.20424,623.7002
"1888",72.80141,623.7134
"1889",72.44251,623.72656
"1890",72.12024,623.73975
"1891",71.82727,623.7529
"1892",71.55871,623.7661
"1893",71.31457,623.7793
"1894",71.08507,623.7925
"1895",70.86534,623.80566
"1896",70.657814,623.81885
"1897",70.46006,623.83203
"1898",70.26963,623.8452
"1899",70.0914,623.8584
"1900",69.9205,623.8716
"1901",69.76181,623.88477
"1902",69.6202,623.89795
"1903",69.49325,623.91113
"1904",69.383385,623.9243
"1905",69.295494,623.9375
"1906",69.22957,623.9507
"1907",69.188065,623.96387
"1908",69.18562,623.97705
"1909",69.2662,623.99023
"1910",69.54452,624.0034
"1911",70.330666,624.0166
"1912",72.16907,624.0298
"1913",75.545586,624.04297
"1914",80.45045,624.05615
"1915",86.30503,624.06934
"1916",92.191345,624.0825
"1917",97.13283,624.0957
"1918",100.41413,624.1089
"1919",101.86923,624.1221
"1920",101.88632,624.13525
"1921",101.02693,624.14844
"1922",99.701225,624.1616
"1923",98.12161,624.1748
"1924",96.42481,624.188
"1925",94.70847,624.2012
"1926",93.031204,624.21436
"1927",91.42718,624.22754
"1928",89.92325,624.2407
"1929",88.52918,624.2539
"1930",87.27184,624.2671
"1931",86.1976,624.2803
"1932",85.34554,624.29346
"1933",84.74494,624.30664
"1934",84.39338,624.3198
"1935",84.25178,624.333
"1936",84.242004,624.3462
"1937",84.27619,624.3594
"1938",84.263985,624.37256
"1939",84.14679,624.38574
"1940",83.878235,624.3989
"1941",83.44854,624.4121
"1942",82.8748,624.4253
"1943",82.18387,624.4385
"1944",81.40505,624.45166
"1945",80.56519,624.46484
"1946",79.691154,624.478
"1947",78.8098,624.4912
"1948",77.93576,624.5044
"1949",77.086136,624.5176
"1950",76.27802,624.53076
"1951",75.51385,624.54395
"1952",74.79851,624.5571
"1953",74.13443,624.5703
"1954",73.52651,624.5835
"1955",72.97475,624.5967
"1956",72.47425,624.60986
"1957",72.025024,624.62305
"1958",71.61974,624.6362
"1959",71.2462,624.6494
"1960",70.90929,624.6626
"1961",70.6041,624.6758
"1962",70.328224,624.68896
"1963",70.081635,624.70215
"1964",69.86435,624.71533
"1965",69.67391,624.7285
"1966",69.5079,624.7417
"1967",69.37118,624.7549
"1968",69.263756,624.76807
"1969",69.18562,624.78125
"1970",69.12947,624.79443
"1971",69.09773,624.8076
"1972",69.085526,624.8208
"1973",69.09041,624.834
"1974",69.12947,624.84717
"1975",69.25399,624.86035
"1976",69.576256,624.87354
"1977",70.38926,624.8867
"1978",72.22034,624.8999
"1979",75.53338,624.9131
"1980",80.34791,624.9263
"1981",86.117035,624.93945
"1982",91.93744,624.95264
"1983",96.83986,624.9658
"1984",100.09918,624.979
"1985",101.52987,624.9922
"1986",101.50057,625.0054
"1987",100.577705,625.01855
"1988",99.19585,625.03174
"1989",97.582054,625.0449
"1990",95.86084,625.0581
"1991",94.11032,625.0713
"1992",92.37934,625.0845
"1993",90.704506,625.09766
"1994",89.1078,625.11084
"1995",87.62585,625.124
"1996",86.30747,625.1372
"1997",85.20393,625.1504
"1998",84.37141,625.1636
"1999",83.84894,625.17676
"2000",83.631645,625.18994
"2001",83.665825,625.2031
"2002",83.85626,625.2163
"2003",84.085754,625.2295
"2004",84.24689,625.2427
"2005",84.25422,625.25586
"2006",84.05646,625.26904
"2007",83.65118,625.2822
"2008",83.06035,625.2954
"2009",82.32304,625.3086
"2010",81.48562,625.3218
"2011",80.58961,625.33496
"2012",79.66674,625.34814
"2013",78.74143,625.3613
"2014",77.83566,625.3745
"2015",76.961624,625.3877
"2016",76.11932,625.4009
"2017",75.31609,625.41406
"2018",74.5568,625.42725
"2019",73.8439,625.4404
"2020",73.18715,625.4536
"2021",72.589,625.4668
"2022",72.05188,625.48
"2023",71.5758,625.49316
"2024",71.15343,625.50635
"2025",70.77501,625.51953
"2026",70.44053,625.5327
"2027",70.14267,625.5459
"2028",69.879,625.5591
"2029",69.65194,625.57227
"2030",69.46395,625.58545
"2031",69.315025,625.59863
"2032",69.20271,625.6118
"2033",69.11726,625.625
"2034",69.06111,625.6382
"2035",69.017166,625.65137
"2036",68.98299,625.66455
"2037",68.963455,625.67773
"2038",68.97078,625.6909
"2039",69.0367,625.7041
"2040",69.23445,625.7173
"2041",69.78134,625.73047
"2042",71.1046,625.74365
"2043",73.73159,625.75684
"2044",77.92844,625.77
"2045",83.39727,625.7832
"2046",89.36904,625.7964
"2047",94.85252,625.8096
"2048",98.97124,625.82275
"2049",101.263756,625.83594
"2050",101.85458,625.8491
"2051",101.25399,625.8623
"2052",99.99176,625.8755
"2053",98.39506,625.8887
"2054",96.637215,625.90186
"2055",94.818344,625.91504
"2056",92.999466,625.9282
"2057",91.22209,625.9414
"2058",89.513084,625.9546
"2059",87.90906,625.9678
"2060",86.4564,625.98096
"2061",85.2137,625.99414
"2062",84.25178,626.0073
"2063",83.617,626.0205
"2064",83.32159,626.0337
"2065",83.32403,626.0469
"2066",83.54131,626.06006
"2067",83.84894,626.07324
"2068",84.12482,626.0864
"2069",84.263985,626.0996
"2070",84.19562,626.1128
"2071",83.89288,626.126
"2072",83.3753,626.13916
"2073",82.68192,626.15234
"2074",81.8616,626.1655
"2075",80.96071,626.1787
"2076",80.01587,626.1919
"2077",79.0515,626.2051
"2078",78.099335,626.21826
"2079",77.1667,626.23145
"2080",76.2707,626.2446
"2081",75.41619,626.2578
"2082",74.60807,626.271
"2083",73.8439,626.2842
"2084",73.128555,626.29736
"2085",72.46937,626.31055
"2086",71.8761,626.3237
"2087",71.343864,626.3369
"2088",70.872665,626.3501
"2089",70.46006,626.3633
"2090",70.098724,626.37646
"2091",69.786224,626.38965
"2092",69.522545,626.40283
"2093",69.3077,626.416
"2094",69.13924,626.4292
"2095",69.0074,626.4424
"2096",68.90486,626.45557
"2097",68.824295,626.46875
"2098",68.75838,626.48193
"2099",68.70466,626.4951
"2100",68.665596,626.5083
"2101",68.65583,626.5215
"2102",68.7071,626.53467
"2103",68.895096,626.54785
"2104",69.43221,626.56104
"2105",70.74326,626.5742
"2106",73.358055,626.5874
"2107",77.540245,626.6006
"2108",83.018845,626.6138
"2109",89.03212,626.62695
"2110",94.588844,626.64014
"2111",98.80522,626.6533
"2112",101.205154,626.6665
"2113",101.88632,626.6797
"2114",101.34432,626.6929
"2115",100.11139,626.70605
"2116",98.52689,626.71924
"2117",96.77638,626.7324
"2118",94.96239,626.7456
"2119",93.14839,626.7588
"2120",91.38079,626.772
"2121",89.68154,626.78516
"2122",88.079956,626.79834
"2123",86.6273,626.8115
"2124",85.39193,626.8247
"2125",84.437325,626.8379
"2126",83.81476,626.8511
"2127",83.53643,626.86426
"2128",83.560844,626.87744
"2129",83.78302,626.8906
"2130",84.08331,626.9038
"2131",84.332344,626.917
"2132",84.42756,626.9302
"2133",84.31037,626.94336
"2134",83.9588,626.95654
"2135",83.40215,626.9697
"2136",82.67216,626.9829
"2137",81.81766,626.9961
"2138",80.8777,627.0093
"2139",79.886475,627.02246
"2140",78.87816,627.03564
"2141",77.86984,627.0488
"2142",76.88594,627.062
"2143",75.93378,627.0752
"2144",75.03044,627.0884
"2145",74.18082,627.10156
"2146",73.38735,627.11475
"2147",72.654915,627.1279
"2148",71.98108,627.1411
"2149",71.37072,627.1543
"2150",70.821396,627.1675
"2151",70.33799,627.18066
"2152",69.91318,627.19385
"2153",69.5494,627.20703
"2154",69.239334,627.2202
"2155",68.980545,627.2334
"2156",68.76814,627.2466
"2157",68.59724,627.25977
"2158",68.46052,627.27295
"2159",68.350655,627.28613
"2160",68.26765,627.2993
"2161",68.19928,627.3125
"2162",68.14801,627.3257
"2163",68.121155,627.33887
"2164",68.15289,627.35205
"2165",68.30915,627.36523
"2166",68.77547,627.3784
"2167",69.94003,627.3916
"2168",72.32288,627.4048
"2169",76.243835,627.41797
"2170",81.52712,627.43115
"2171",87.481804,627.44434
"2172",93.155716,627.4575
"2173",97.64065,627.4707
"2174",100.37263,627.4839
"2175",101.35897,627.4971
"2176",101.0367,627.51025
"2177",99.94049,627.52344
"2178",98.439,627.5366
"2179",96.74464,627.5498
"2180",94.96971,627.563
"2181",93.18501,627.5762
"2182",91.4345,627.58936
"2183",89.740135,627.60254
"2184",88.14099,627.6157
"2185",86.68101,627.6289
"2186",85.43099,627.6421
"2187",84.44953,627.6553
"2188",83.790344,627.66846
"2189",83.46563,627.68164
"2190",83.438774,627.6948
"2191",83.6292,627.708
"2192",83.92218,627.7212
"2193",84.19318,627.7344
"2194",84.33723,627.74756
"2195",84.281075,627.76074
"2196",83.99298,627.7739
"2197",83.4876,627.7871
"2198",82.80156,627.8003
"2199",81.98367,627.8135
"2200",81.077896,627.82666
"2201",80.11841,627.83984
"2202",79.13939,627.853
"2203",78.16281,627.8662
"2204",77.20088,627.8794
"2205",76.2707,627.8926
"2206",75.38201,627.90576
"2207",74.54215,627.91895
"2208",73.760895,627.9321
"2209",73.040665,627.9453
"2210",72.3888,627.9585
"2211",71.79553,627.9717
"2212",71.2633,627.98486
"2213",70.78722,627.99805
"2214",70.36973,628.0112
"2215",70.01083,628.0244
"2216",69.70565,628.0376
"2217",69.4493,628.0508
"2218",69.23201,628.06396
"2219",69.048904,628.07715
"2220",68.89021,628.09033
"2221",68.75105,628.1035
"2222",68.6363,628.1167
"2223",68.558174,628.1299
"2224",68.560616,628.14307
"2225",68.72175,628.15625
"2226",69.28329,628.16943
"2227",70.65293,628.1826
"2228",73.27993,628.1958
"2229",77.31075,628.209
"2230",82.42069,628.22217
"2231",87.88464,628.23535
"2232",92.8188,628.24854
"2233",96.46876,628.2617
"2234",98.48539,628.2749
"2235",99.02495,628.2881
"2236",98.53178,628.3013
"2237",97.44045,628.31445
"2238",96.0293,628.32764
"2239",94.466774,628.3408
"2240",92.840775,628.354
"2241",91.209885,628.3672
"2242",89.60586,628.3804
"2243",88.06287,628.39355
"2244",86.61753,628.40674
"2245",85.32113,628.4199
"2246",84.23956,628.4331
"2247",83.441216,628.4463
"2248",82.97002,628.4595
"2249",82.82597,628.47266
"2250",82.96269,628.48584
"2251",83.27764,628.499
"2252",83.64141,628.5122
"2253",83.92706,628.5254
"2254",84.04425,628.5386
"2255",83.931946,628.55176
"2256",83.58526,628.56494
"2257",83.03105,628.5781
"2258",82.31571,628.5913
"2259",81.4905,628.6045
"2260",80.59205,628.6177
"2261",79.6643,628.63086
"2262",78.72434,628.64404
"2263",77.803925,628.6572
"2264",76.912796,628.6704
"2265",76.06317,628.6836
"2266",75.267265,628.6968
"2267",74.529945,628.70996
"2268",73.85367,628.72314
"2269",73.23842,628.7363
"2270",72.67933,628.7495
"2271",72.181274,628.7627
"2272",71.73693,628.7759
"2273",71.346306,628.78906
"2274",70.99962,628.80225
"2275",70.69199,628.8154
"2276",70.41367,628.8286
"2277",70.15488,628.8418
"2278",69.910736,628.855
"2279",69.691,628.86816
"2280",69.53475,628.88135
"2281",69.56161,628.89453
"2282",70.04501,628.9077
"2283",71.412224,628.9209
"2284",74.019684,628.9341
"2285",77.87961,628.94727
"2286",82.57694,628.96045
"2287",87.40124,628.97363
"2288",91.5761,628.9868
"2289",94.51072,629
"2290",96.03174,629.0132
"2291",96.36378,629.02637
"2292",95.89014,629.03955
"2293",94.940414,629.05273
"2294",93.714806,629.0659
"2295",92.33051,629.0791
"2296",90.87053,629.0923
"2297",89.38613,629.10547
"2298",87.90662,629.11865
"2299",86.46128,629.13184
"2300",85.09651,629.145
"2301",83.87579,629.1582
"2302",82.87236,629.1714
"2303",82.159454,629.1846
"2304",81.778595,629.19775
"2305",81.71511,629.21094
"2306",81.91043,629.2241
"2307",82.25956,629.2373
"2308",82.633095,629.2505
"2309",82.92607,629.2637
"2310",83.055466,629.27686
"2311",82.97978,629.29004
"2312",82.69657,629.3032
"2313",82.23758,629.3164
"2314",81.6321,629.3296
"2315",80.921646,629.3428
"2316",80.13794,629.35596
"2317",79.31518,629.36914
"2318",78.4802,629.3823
"2319",77.6672,629.3955
"2320",76.893265,629.4087
"2321",76.17792,629.4219
"2322",75.53094,629.43506
"2323",74.95232,629.44824
"2324",74.43717,629.4614
"2325",73.99283,629.4746
"2326",73.6144,629.4878
"2327",73.29702,629.501
"2328",73.02846,629.51416
"2329",72.7892,629.52734
"2330",72.56214,629.5405
"2331",72.33509,629.5537
"2332",72.10803,629.5669
"2333",71.885864,629.5801
"2334",71.7467,629.59326
"2335",71.871216,629.60645
"2336",72.569466,629.6196
"2337",74.16617,629.6328
"2338",76.790726,629.646
"2339",80.24048,629.6592
"2340",84.054016,629.67236
"2341",87.64294,629.68555
"2342",90.4921,629.6987
"2343",92.32319,629.7119
"2344",93.16304,629.7251
"2345",93.23628,629.7383
"2346",92.772415,629.75146
"2347",91.94476,629.76465
"2348",90.87785,629.77783
"2349",89.67422,629.791
"2350",88.40711,629.8042
"2351",87.12291,629.8174
"2352",85.85092,629.83057
"2353",84.61799,629.84375
"2354",83.46075,629.85693
"2355",82.43534,629.8701
"2356",81.5906,629.8833
"2357",80.96315,629.8965
"2358",80.57984,629.90967
"2359",80.430916,629.92285
"2360",80.47486,629.93604
"2361",80.62867,629.9492
"2362",80.816666,629.9624
"2363",80.953384,629.9756
"2364",80.97536,629.9888
"2365",80.831314,630.00195
"2366",80.51148,630.01514
"2367",80.03784,630.0283
"2368",79.44213,630.0415
"2369",78.75609,630.0547
"2370",78.013885,630.0679
"2371",77.2546,630.08105
"2372",76.50507,630.09424
"2373",75.78729,630.1074
"2374",75.123215,630.1206
"2375",74.52506,630.1338
"2376",74.00015,630.147
"2377",73.56069,630.16016
"2378",73.199356,630.17334
"2379",72.90883,630.1865
"2380",72.674446,630.1997
"2381",72.47669,630.2129
"2382",72.291145,630.2261
"2383",72.10071,630.23926
"2384",71.89563,630.25244
"2385",71.6881,630.2656
"2386",71.54406,630.2788
"2387",71.624626,630.292
"2388",72.22034,630.3052
"2389",73.62173,630.31836
"2390",75.9411,630.33154
"2391",79.01732,630.3447
"2392",82.45487,630.3579
"2393",85.74349,630.3711
"2394",88.4242,630.3843
"2395",90.2211,630.39746
"2396",91.1342,630.41064
"2397",91.3222,630.4238
"2398",90.96086,630.437
"2399",90.20889,630.4502
"2400",89.20302,630.4634
"2401",88.05554,630.47656
"2402",86.84947,630.48975
"2403",85.64095,630.5029
"2404",84.456856,630.5161
"2405",83.3167,630.5293
"2406",82.2449,630.5425
"2407",81.28298,630.55566
"2408",80.482185,630.56885
"2409",79.89624,630.58203
"2410",79.551994,630.5952
"2411",79.44213,630.6084
"2412",79.5227,630.6216
"2413",79.71313,630.63477
"2414",79.91821,630.64795
"2415",80.0647,630.66113
"2416",80.09155,630.6743
"2417",79.96948,630.6875
"2418",79.69604,630.7007
"2419",79.281,630.71387
"2420",78.751205,630.72705
"2421",78.135956,630.74023
"2422",77.469444,630.7534
"2423",76.78096,630.7666
"2424",76.104675,630.7798
"2425",75.46502,630.79297
"2426",74.879074,630.80615
"2427",74.356606,630.81934
"2428",73.90494,630.8325
"2429",73.531395,630.8457
"2430",73.231094,630.8589
"2431",72.99672,630.8721
"2432",72.82582,630.88525
"2433",72.7013,630.89844
"2434",72.603645,630.9116
"2435",72.51331,630.9248
"2436",72.413216,630.938
"2437",72.30335,630.9512
"2438",72.2301,630.96436
"2439",72.33265,630.97754
"2440",72.86,630.9907
"2441",74.08804,631.0039
"2442",76.1535,631.0171
"2443",78.94408,631.0303
"2444",82.142365,631.04346
"2445",85.30404,631.05664
"2446",87.99451,631.0698
"2447",89.92569,631.083
"2448",91.036545,631.0962
"2449",91.42962,631.1094
"2450",91.251396,631.12256
"2451",90.65568,631.13574
"2452",89.779205,631.1489
"2453",88.74647,631.1621
"2454",87.66247,631.1753
"2455",86.59556,631.1885
"2456",85.57259,631.20166
"2457",84.60578,631.21484
"2458",83.69024,631.228
"2459",82.83086,631.2412
"2460",82.04227,631.2544
"2461",81.356224,631.2676
"2462",80.8069,631.28076
"2463",80.42115,631.29395
"2464",80.18921,631.3071
"2465",80.08423,631.3203
"2466",80.05249,631.3335
"2467",80.0354,631.3467
"2468",79.97925,631.35986
"2469",79.835205,631.37305
"2470",79.58129,631.3862
"2471",79.21507,631.3994
"2472",78.746315,631.4126
"2473",78.19699,631.4258
"2474",77.591515,631.43896
"2475",76.95674,631.45215
"2476",76.317085,631.46533
"2477",75.69451,631.4785
"2478",75.11101,631.4917
"2479",74.5861,631.5049
"2480",74.13687,631.51807
"2481",73.763336,631.53125
"2482",73.47036,631.54443
"2483",73.25063,631.5576
"2484",73.1017,631.5708
"2485",73.006485,631.584
"2486",72.95033,631.59717
"2487",72.918594,631.61035
"2488",72.89174,631.62354
"2489",72.85756,631.6367
"2490",72.80141,631.6499
"2491",72.723274,631.6631
"2492",72.65247,631.6763
"2493",72.68665,631.68945
"2494",73.023575,631.70264
"2495",73.917145,631.7158
"2496",75.54803,631.729
"2497",77.8967,631.7422
"2498",80.740974,631.7554
"2499",83.70977,631.76855
"2500",86.39292,631.78174
"2501",88.463264,631.7949
"2502",89.79385,631.8081
"2503",90.41886,631.8213
"2504",90.460365,631.8345
"2505",90.05264,631.84766
"2506",89.33242,631.86084
"2507",88.431526,631.874
"2508",87.45495,631.8872
"2509",86.48325,631.9004
"2510",85.555504,631.9136
"2511",84.67902,631.92676
"2512",83.83917,631.93994
"2513",83.03349,631.9531
"2514",82.26444,631.9663
"2515",81.55642,631.9795
"2516",80.94606,631.9927
"2517",80.465096,632.00586
"2518",80.13306,632.01904
"2519",79.9353,632.0322
"2520",79.83765,632.0454
"2521",79.783936,632.0586
"2522",79.71801,632.0718
"2523",79.59594,632.08496
"2524",79.38598,632.09814
"2525",79.07347,632.1113
"2526",78.67063,632.1245
"2527",78.19943,632.1377
"2528",77.68185,632.1509
"2529",77.14229,632.16406
"2530",76.592964,632.17725
"2531",76.05585,632.1904
"2532",75.543144,632.2036
"2533",75.07683,632.2168
"2534",74.66422,632.23
"2535",74.32487,632.24316
"2536",74.04898,632.25635
"2537",73.83902,632.26953
"2538",73.68276,632.2827
"2539",73.5729,632.2959
"2540",73.494774,632.3091
"2541",73.44839,632.32227
"2542",73.41665,632.33545
"2543",73.392235,632.34863
"2544",73.36294,632.3618
"2545",73.323875,632.375
"2546",73.26528,632.3882
"2547",73.18227,632.40137
"2548",73.08461,632.41455
"2549",73.02602,632.42773
"2550",73.128555,632.4409
"2551",73.6144,632.4541
"2552",74.71549,632.4673
"2553",76.53193,632.48047
"2554",78.96849,632.49365
"2555",81.74197,632.50684
"2556",84.48127,632.52
"2557",86.800644,632.5332
"2558",88.46082,632.5464
"2559",89.410545,632.5596
"2560",89.73525,632.57275
"2561",89.564354,632.58594
"2562",89.02724,632.5991
"2563",88.26551,632.6123
"2564",87.39147,632.6255
"2565",86.49302,632.6387
"2566",85.626305,632.65186
"2567",84.81575,632.66504
"2568",84.0589,632.6782
"2569",83.33868,632.6914
"2570",82.6453,632.7046
"2571",81.986115,632.7178
"2572",81.38308,632.73096
"2573",80.87038,632.74414
"2574",80.479744,632.7573
"2575",80.22095,632.7705
"2576",80.07446,632.7837
"2577",80.008545,632.7969
"2578",79.96948,632.81006
"2579",79.90845,632.82324
"2580",79.78638,632.8364
"2581",79.58129,632.8496
"2582",79.27856,632.8628
"2583",78.890366,632.876
"2584",78.42649,632.88916
"2585",77.91623,632.90234
"2586",77.383995,632.9155
"2587",76.8542,632.9287
"2588",76.34638,632.9419
"2589",75.877625,632.9551
"2590",75.457695,632.96826
"2591",75.09392,632.98145
"2592",74.79118,632.9946
"2593",74.55192,633.0078
"2594",74.373695,633.021
"2595",74.249176,633.0342
"2596",74.16617,633.04736
"2597",74.107574,633.06055
"2598",74.07095,633.0737
"2599",74.04898,633.0869
"2600",74.03677,633.1001
"2601",74.02701,633.1133
"2602",74.02457,633.12646
"2603",74.0148,633.13965
"2604",73.99771,633.15283
"2605",73.96353,633.166
"2606",73.90738,633.1792
"2607",73.831696,633.1924
"2608",73.760895,633.20557
"2609",73.777985,633.21875
"2610",74.06607,633.23193
"2611",74.86931,633.2451
"2612",76.36103,633.2583
"2613",78.52903,633.2715
"2614",81.163345,633.28467
"2615",83.9173,633.29785
"2616",86.400246,633.31104
"2617",88.30457,633.3242
"2618",89.5082,633.3374
"2619",90.0502,633.3506
"2620",90.05997,633.3638
"2621",89.66201,633.37695
"2622",88.99306,633.39014
"2623",88.17273,633.4033
"2624",87.30358,633.4165
"2625",86.44907,633.4297
"2626",85.65072,633.4429
"2627",84.90852,633.45605
"2628",84.21271,633.46924
"2629",83.54864,633.4824
"2630",82.90654,633.4956
"2631",82.303505,633.5088
"2632",81.76395,633.522
"2633",81.322044,633.53516
"2634",80.99489,633.54834
"2635",80.78493,633.5615
"2636",80.66773,633.5747
"2637",80.604256,633.5879
"2638",80.5481,633.6011
"2639",80.46021,633.61426
"2640",80.30152,633.62744
"2641",80.05737,633.6406
"2642",79.725334,633.6538
"2643",79.3225,633.667
"2644",78.86351,633.6802
"2645",78.37034,633.69336
"2646",77.8674,633.70654
"2647",77.36446,633.7197
"2648",76.88106,633.7329
"2649",76.43183,633.7461
"2650",76.033875,633.7593
"2651",75.69451,633.77246
"2652",75.423515,633.78564
"2653",75.21355,633.7988
"2654",75.0573,633.812
"2655",74.949875,633.8252
"2656",74.86931,633.8384
"2657",74.81804,633.85156
"2658",74.7863,633.86475
"2659",74.76921,633.8779
"2660",74.75456,633.8911
"2661",74.74235,633.9043
"2662",74.7277,633.9175
"2663",74.71305,633.93066
"2664",74.69108,633.94385
"2665",74.66178,633.95703
"2666",74.62028,633.9702
"2667",74.55924,633.9834
"2668",74.48112,633.9966
"2669",74.40299,634.00977
"2670",74.38102,634.02295
"2671",74.57145,634.03613
"2672",75.208664,634.0493
"2673",76.48798,634.0625
"2674",78.46555,634.0757
"2675",80.987564,634.08887
"2676",83.73174,634.10205
"2677",86.30747,634.11523
"2678",88.377815,634.1284
"2679",89.75723,634.1416
"2680",90.460365,634.1548
"2681",90.597084,634.16797
"2682",90.29679,634.18115
"2683",89.688866,634.19434
"2684",88.8954,634.2075
"2685",88.0238,634.2207
"2686",87.15709,634.2339
"2687",86.33433,634.2471
"2688",85.57748,634.26025
"2689",84.876785,634.27344
"2690",84.21515,634.2866
"2691",83.577934,634.2998
"2692",82.97246,634.313
"2693",82.425575,634.3262
"2694",81.9617,634.33936
"2695",81.60525,634.35254
"2696",81.36355,634.3657
"2697",81.21706,634.3789
"2698",81.129166,634.3921
"2699",81.06325,634.4053
"2700",80.972916,634.41846
"2701",80.82887,634.43164
"2702",80.6067,634.4448
"2703",80.30396,634.458
"2704",79.923096,634.4712
"2705",79.48119,634.4844
"2706",78.99779,634.49756
"2707",78.49485,634.51074
"2708",77.98703,634.5239
"2709",77.49142,634.5371
"2710",77.0251,634.5503
"2711",76.60273,634.5635
"2712",76.23163,634.57666
"2713",75.914246,634.58984
"2714",75.65545,634.603
"2715",75.45281,634.6162
"2716",75.29412,634.6294
"2717",75.17204,634.6426
"2718",75.08659,634.65576
"2719",75.02556,634.66895
"2720",74.98161,634.6821
"2721",74.94499,634.6953
"2722",74.915695,634.7085
"2723",74.881516,634.7217
"2724",74.84001,634.73486
"2725",74.79607,634.74805
"2726",74.74967,634.7612
"2727",74.6984,634.7744
"2728",74.63981,634.7876
"2729",74.57145,634.8008
"2730",74.486,634.81396
"2731",74.38834,634.82715
"2732",74.288246,634.84033
"2733",74.26383,634.8535
"2734",74.47379,634.8667
"2735",75.174484,634.8799
"2736",76.57343,634.89307
"2737",78.70725,634.90625
"2738",81.38552,634.91943
"2739",84.25422,634.9326
"2740",86.8983,634.9458
"2741",88.9662,634.959
"2742",90.304115,634.97217
"2743",90.94621,634.98535
"2744",91.02922,634.99854
"2745",90.684975,635.0117
"2746",90.0502,635.0249
"2747",89.23964,635.0381
"2748",88.360725,635.0513
"2749",87.484245,635.06445
"2750",86.65659,635.07764
"2751",85.89487,635.0908
"2752",85.17952,635.104
"2753",84.49836,635.1172
"2754",83.84161,635.1304
"2755",83.22392,635.14355
"2756",82.66483,635.15674
"2757",82.19852,635.1699
"2758",81.84451,635.1831
"2759",81.60769,635.1963
"2760",81.47097,635.2095
"2761",81.392845,635.22266
"2762",81.32937,635.23584
"2763",81.24147,635.249
"2764",81.0901,635.2622
"2765",80.85329,635.2754
"2766",80.52613,635.2886
"2767",80.12085,635.30176
"2768",79.65209,635.31494
"2769",79.132065,635.3281
"2770",78.590065,635.3413
"2771",78.04562,635.3545
"2772",77.51583,635.3677
"2773",77.015335,635.38086
"2774",76.558784,635.39404
"2775",76.15839,635.4072
"2776",75.81903,635.4204
"2777",75.53582,635.4336
"2778",75.30877,635.4468
"2779",75.13054,635.45996
"2780",74.99138,635.47314
"2781",74.879074,635.4863
"2782",74.78874,635.4995
"2783",74.720375,635.5127
"2784",74.666664,635.5259
"2785",74.62028,635.53906
"2786",74.581215,635.55225
"2787",74.53727,635.5654
"2788",74.49088,635.5786
"2789",74.43961,635.5918
"2790",74.38834,635.605
"2791",74.32975,635.61816
"2792",74.2736,635.63135
"2793",74.212555,635.64453
"2794",74.14664,635.6577
"2795",74.06607,635.6709
"2796",73.9733,635.6841
"2797",73.89761,635.69727
"2798",73.93912,635.71045
"2799",74.30778,635.72363
"2800",75.29168,635.7368
"2801",77.07393,635.75
"2802",79.61059,635.7632
"2803",82.616005,635.77637
"2804",85.67269,635.78955
"2805",88.33387,635.80273
"2806",90.27238,635.8159
"2807",91.40276,635.8291
"2808",91.83734,635.8423
"2809",91.74456,635.85547
"2810",91.266045,635.86865
"2811",90.531166,635.88184
"2812",89.65957,635.895
"2813",88.7367,635.9082
"2814",87.82605,635.9214
"2815",86.96666,635.9346
"2816",86.16098,635.94775
"2817",85.401695,635.96094
"2818",84.67658,635.9741
"2819",83.9881,635.9873
"2820",83.35577,636.0005
"2821",82.80644,636.0137
"2822",82.3621,636.02686
"2823",82.037384,636.04004
"2824",81.82254,636.0532
"2825",81.6907,636.0664
"2826",81.61257,636.0796
"2827",81.53933,636.0928
"2828",81.427025,636.10596
"2829",81.23903,636.11914
"2830",80.95827,636.1323
"2831",80.58228,636.1455
"2832",80.12085,636.1587
"2833",79.605705,636.1719
"2834",79.05638,636.18506
"2835",78.487526,636.19824
"2836",77.91623,636.2114
"2837",77.36935,636.2246
"2838",76.859085,636.2378
"2839",76.39277,636.251
"2840",75.97772,636.26416
"2841",75.62127,636.27734
"2842",75.318535,636.2905
"2843",75.06706,636.3037
"2844",74.864426,636.3169
"2845",74.70817,636.3301
"2846",74.59098,636.34326
"2847",74.49821,636.35645
"2848",74.42252,636.3696
"2849",74.354164,636.3828
"2850",74.288246,636.396
"2851",74.2272,636.4092
"2852",74.1564,636.42236
"2853",74.08316,636.43555
"2854",74.005035,636.4487
"2855",73.92447,636.4619
"2856",73.83658,636.4751
"2857",73.75113,636.4883
"2858",73.66567,636.50146
"2859",73.57778,636.51465
"2860",73.48257,636.52783
"2861",73.3727,636.541
"2862",73.253075,636.5542
"2863",73.14076,636.5674
"2864",73.109024,636.58057
"2865",73.35073,636.59375
"2866",74.175934,636.60693
"2867",75.86786,636.6201
"2868",78.46067,636.6333
"2869",81.71023,636.6465
"2870",85.172195,636.65967
"2871",88.32166,636.67285
"2872",90.7338,636.68604
"2873",92.225525,636.6992
"2874",92.8896,636.7124
"2875",92.92134,636.7256
"2876",92.506294,636.7388
"2877",91.776306,636.75195
"2878",90.86809,636.76514
"2879",89.87686,636.7783
"2880",88.883194,636.7915
"2881",87.93347,636.8047
"2882",87.0399,636.8179
"2883",86.20004,636.83105
"2884",85.401695,636.84424
"2885",84.63752,636.8574
"2886",83.929504,636.8706
"2887",83.302055,636.8838
"2888",82.77959,636.897
"2889",82.388954,636.91016
"2890",82.11795,636.92334
"2891",81.94461,636.9365
"2892",81.82498,636.9497
"2893",81.71999,636.9629
"2894",81.583275,636.9761
"2895",81.38064,636.98926
"2896",81.0901,637.00244
"2897",80.71168,637.0156
"2898",80.24536,637.0288
"2899",79.710686,637.042
"2900",79.12718,637.0552
"2901",78.519264,637.06836
"2902",77.8967,637.08154
"2903",77.28634,637.0947
"2904",76.697945,637.1079
"2905",76.155945,637.1211
"2906",75.665215,637.1343
"2907",75.23308,637.14746
"2908",74.861984,637.16064
"2909",74.54948,637.1738
"2910",74.285805,637.187
"2911",74.06363,637.2002
"2912",73.88052,637.2134
"2913",73.72915,637.22656
"2914",73.60464,637.23975
"2915",73.497215,637.2529
"2916",73.39956,637.2661
"2917",73.29946,637.2793
"2918",73.196915,637.2925
"2919",73.08705,637.30566
"2920",72.97475,637.31885
"2921",72.867325,637.33203
"2922",72.762344,637.3452
"2923",72.65247,637.3584
"2924",72.54017,637.3716
"2925",72.42298,637.38477
"2926",72.29847,637.39795
"2927",72.166626,637.41113
"2928",72.03235,637.4243
"2929",71.888306,637.4375
"2930",71.744255,637.4507
"2931",71.6466,637.46387
"2932",71.727165,637.47705
"2933",72.28138,637.49023
"2934",73.70962,637.5034
"2935",76.24872,637.5166
"2936",79.77661,637.5298
"2937",83.84161,637.54297
"2938",87.82361,637.55615
"2939",91.11223,637.56934
"2940",93.31686,637.5825
"2941",94.40818,637.5957
"2942",94.642555,637.6089
"2943",94.30076,637.6221
"2944",93.58297,637.63525
"2945",92.630806,637.64844
"2946",91.563896,637.6616
"2947",90.46769,637.6748
"2948",89.40566,637.688
"2949",88.40467,637.7012
"2950",87.4696,637.71436
"2951",86.59312,637.72754
"2952",85.767914,637.7407
"2953",84.99153,637.7539
"2954",84.283516,637.7671
"2955",83.67071,637.7803
"2956",83.17265,637.79346
"2957",82.79912,637.80664
"2958",82.533,637.8198
"2959",82.340126,637.833
"2960",82.18143,637.8462
"2961",82.01297,637.8594
"2962",81.795685,637.87256
"2963",81.50027,637.88574
"2964",81.12184,637.8989
"2965",80.66773,637.9121
"2966",80.14038,637.9253
"2967",79.55688,637.9385
"2968",78.93187,637.95166
"2969",78.28733,637.96484
"2970",77.64034,637.978
"2971",77.00801,637.9912
"2972",76.40009,638.0044
"2973",75.83368,638.0176
"2974",75.30877,638.03076
"2975",74.83513,638.04395
"2976",74.41764,638.0571
"2977",74.05386,638.0703
"2978",73.7438,638.0835
"2979",73.477684,638.0967
"2980",73.25063,638.10986
"2981",73.057755,638.12305
"2982",72.8893,638.1362
"2983",72.742805,638.1494
"2984",72.60609,638.1626
"2985",72.46937,638.1758
"2986",72.32777,638.18896
"2987",72.17883,638.20215
"2988",72.02258,638.21533
"2989",71.86389,638.2285
"2990",71.70519,638.2417
"2991",71.54406,638.2549
"2992",71.38537,638.26807
"2993",71.23155,638.28125
"2994",71.0753,638.29443
"2995",70.91661,638.3076
"2996",70.75792,638.3208
"2997",70.61631,638.334
"2998",70.51133,638.34717
"2999",70.53086,638.36035
"3000",70.91173,638.37354
"3001",72.08362,638.3867
"3002",74.444496,638.3999
"3003",78.05783,638.4131
"3004",82.52567,638.4263
"3005",87.166855,638.43945
"3006",91.21965,638.45264
"3007",94.083466,638.4658
"3008",95.5581,638.479
"3009",95.88037,638.4922
"3010",95.458,638.5054
"3011",94.60105,638.51855
"3012",93.49264,638.53174
"3013",92.25727,638.5449
"3014",90.98772,638.5581
"3015",89.74746,638.5713
"3016",88.568245,638.5845
"3017",87.4696,638.59766
"3018",86.45884,638.61084
"3019",85.538414,638.624
"3020",84.72541,638.6372
"3021",84.04181,638.6504
"3022",83.50713,638.6636
"3023",83.13847,638.67676
"3024",82.92607,638.68994
"3025",82.828415,638.7031
"3026",82.79668,638.7163
"3027",82.76738,638.7295
"3028",82.68925,638.7427
"3029",82.51835,638.75586
"3030",82.24002,638.76904
"3031",81.85184,638.7822
"3032",81.36355,638.7954
"3033",80.797134,638.8086
"3034",80.17456,638.8218
"3035",79.51293,638.83496
"3036",78.82689,638.84814
"3037",78.133514,638.8613
"3038",77.44747,638.8745
"3039",76.7834,638.8877
"3040",76.15106,638.9009
"3041",75.562675,638.91406
"3042",75.02556,638.92725
"3043",74.53483,638.9404
"3044",74.090485,638.9536
"3045",73.687645,638.9668
"3046",73.32632,638.98
"3047",73.0016,638.99316
"3048",72.71595,639.00635
"3049",72.45716,639.01953
"3050",72.22766,639.0327
"3051",72.01526,639.0459
"3052",71.81262,639.0591
"3053",71.61486,639.07227
"3054",71.42199,639.08545
"3055",71.23155,639.09863
"3056",71.05333,639.1118
"3057",70.88243,639.125
"3058",70.728615,639.1382
"3059",70.589455,639.15137
"3060",70.467384,639.16455
"3061",70.35752,639.17773
"3062",70.26475,639.1909
"3063",70.19394,639.2041
"3064",70.15488,639.2173
"3065",70.17929,639.23047
"3066",70.345314,639.24365
"3067",70.872665,639.25684
"3068",72.21057,639.27
"3069",74.830246,639.2832
"3070",78.853745,639.2964
"3071",83.87579,639.3096
"3072",89.129776,639.32275
"3073",93.7441,639.33594
"3074",96.99367,639.3491
"3075",98.6099,639.3623
"3076",98.85161,639.3755
"3077",98.22171,639.3887
"3078",97.11818,639.40186
"3079",95.77539,639.41504
"3080",94.31785,639.4282
"3081",92.83101,639.4414
"3082",91.3637,639.4546
"3083",89.94522,639.4678
"3084",88.59754,639.48096
"3085",87.33532,639.49414
"3086",86.19272,639.5073
"3087",85.21858,639.5205
"3088",84.46662,639.5337
"3089",83.97101,639.5469
"3090",83.736626,639.56006
"3091",83.72198,639.57324
"3092",83.85138,639.5864
"3093",84.017395,639.5996
"3094",84.13458,639.6128
"3095",84.1297,639.626
"3096",83.963684,639.63916
"3097",83.62676,639.65234
"3098",83.13603,639.6655
"3099",82.52079,639.6787
"3100",81.815216,639.6919
"3101",81.04616,639.7051
"3102",80.24292,639.71826
"3103",79.42748,639.73145
"3104",78.61448,639.7446
"3105",77.81857,639.7578
"3106",77.0544,639.771
"3107",76.32685,639.7842
"3108",75.64568,639.79736
"3109",75.01579,639.81055
"3110",74.43473,639.8237
"3111",73.900055,639.8369
"3112",73.41665,639.8501
"3113",72.97963,639.8633
"3114",72.57923,639.87646
"3115",72.22522,639.88965
"3116",71.90784,639.90283
"3117",71.622185,639.916
"3118",71.37316,639.9292
"3119",71.150986,639.9424
"3120",70.95567,639.95557
"3121",70.78966,639.96875
"3122",70.64561,639.98193
"3123",70.52354,639.9951
"3124",70.42344,640.0083
"3125",70.345314,640.0215
"3126",70.28184,640.03467
"3127",70.240326,640.04785
"3128",70.21591,640.06104
"3129",70.21103,640.0742
"3130",70.25742,640.0874
"3131",70.421,640.1006
"3132",70.8629,640.1138
"3133",71.95422,640.12695
"3134",74.195465,640.14014
"3135",77.8674,640.1533
"3136",82.74784,640.1665
"3137",88.17273,640.1797
"3138",93.26559,640.1929
"3139",97.20851,640.20605
"3140",99.525444,640.21924
"3141",100.279854,640.2324
"3142",99.91608,640.2456
"3143",98.90532,640.2588
"3144",97.54543,640.272
"3145",96.00244,640.28516
"3146",94.37644,640.29834
"3147",92.73579,640.3115
"3148",91.11711,640.3247
"3149",89.55703,640.3379
"3150",88.08484,640.3511
"3151",86.746925,640.36426
"3152",85.60433,640.37744
"3153",84.715645,640.3906
"3154",84.1297,640.4038
"3155",83.8587,640.417
"3156",83.861145,640.4302
"3157",84.054016,640.44336
"3158",84.317696,640.45654
"3159",84.53986,640.4697
"3160",84.62287,640.4829
"3161",84.51057,640.4961
"3162",84.18585,640.5093
"3163",83.67315,640.52246
"3164",83.01152,640.53564
"3165",82.2449,640.5488
"3166",81.40505,640.562
"3167",80.533455,640.5752
"3168",79.65209,640.5884
"3169",78.77562,640.60156
"3170",77.908905,640.61475
"3171",77.069046,640.6279
"3172",76.25849,640.6411
"3173",75.47967,640.6543
"3174",74.74723,640.6675
"3175",74.06607,640.68066
"3176",73.44106,640.69385
"3177",72.87709,640.70703
"3178",72.376595,640.7202
"3179",71.92981,640.7334
"3180",71.536736,640.7466
"3181",71.19737,640.75977
"3182",70.89708,640.77295
"3183",70.63584,640.78613
"3184",70.40879,640.7993
"3185",70.21591,640.8125
"3186",70.05234,640.8257
"3187",69.91318,640.83887
"3188",69.80087,640.85205
"3189",69.712975,640.86523
"3190",69.644615,640.8784
"3191",69.60067,640.8916
"3192",69.59823,640.9048
"3193",69.68368,640.91797
"3194",69.97421,640.93115
"3195",70.7628,640.94434
"3196",72.53773,640.9575
"3197",75.7116,640.9707
"3198",80.26002,640.9839
"3199",85.643394,640.9971
"3200",91.01457,641.01025
"3201",95.47997,641.02344
"3202",98.39506,641.0366
"3203",99.6231,641.0498
"3204",99.525444,641.063
"3205",98.60746,641.0762
"3206",97.254906,641.08936
"3207",95.68017,641.10254
"3208",94.0029,641.1157
"3209",92.29145,641.1289
"3210",90.59464,641.1421
"3211",88.936905,641.1553
"3212",87.35241,641.16846
"3213",85.8851,641.18164
"3214",84.596016,641.1948
"3215",83.54864,641.208
"3216",82.80888,641.2212
"3217",82.408485,641.2344
"3218",82.33524,641.24756
"3219",82.52567,641.26074
"3220",82.882126,641.2739
"3221",83.267876,641.2871
"3222",83.563286,641.3003
"3223",83.67559,641.3135
"3224",83.55596,641.32666
"3225",83.20683,641.33984
"3226",82.66239,641.353
"3227",81.96658,641.3662
"3228",81.16823,641.3794
"3229",80.306404,641.3926
"3230",79.41039,641.40576
"3231",78.50706,641.41895
"3232",77.61593,641.4321
"3233",76.74189,641.4453
"3234",75.90448,641.4585
"3235",75.106125,641.4717
"3236",74.356606,641.48486
"3237",73.653465,641.49805
"3238",73.00404,641.5112
"3239",72.40833,641.5244
"3240",71.86633,641.5376
"3241",71.378044,641.5508
"3242",70.94591,641.56396
"3243",70.56748,641.57715
"3244",70.237885,641.59033
"3245",69.95712,641.6035
"3246",69.72762,641.6167
"3247",69.539635,641.6299
"3248",69.39071,641.64307
"3249",69.27596,641.65625
"3250",69.18074,641.66943
"3251",69.10506,641.6826
"3252",69.05623,641.6958
"3253",69.068436,641.709
"3254",69.21736,641.72217
"3255",69.70809,641.73535
"3256",70.960556,641.74854
"3257",73.4728,641.7617
"3258",77.47677,641.7749
"3259",82.65995,641.7881
"3260",88.292366,641.8013
"3261",93.43893,641.81445
"3262",97.289085,641.82764
"3263",99.42535,641.8408
"3264",99.98688,641.854
"3265",99.45464,641.8672
"3266",98.30961,641.8804
"3267",96.83986,641.89355
"3268",95.20409,641.90674
"3269",93.507286,641.9199
"3270",91.80316,641.9331
"3271",90.13321,641.9463
"3272",88.5243,641.9595
"3273",87.01549,641.97266
"3274",85.65072,641.98584
"3275",84.49592,641.999
"3276",83.614555,642.0122
"3277",83.055466,642.0254
"3278",82.81865,642.0386
"3279",82.86015,642.05176
"3280",83.08232,642.06494
"3281",83.372856,642.0781
"3282",83.614555,642.0913
"3283",83.71221,642.1045
"3284",83.612114,642.1177
"3285",83.302055,642.13086
"3286",82.79668,642.14404
"3287",82.1326,642.1572
"3288",81.35134,642.1704
"3289",80.49439,642.1836
"3290",79.5935,642.1968
"3291",78.67307,642.20996
"3292",77.7551,642.22314
"3293",76.85176,642.2363
"3294",75.982605,642.2495
"3295",75.15007,642.2627
"3296",74.36149,642.2759
"3297",73.62417,642.28906
"3298",72.94545,642.30225
"3299",72.32288,642.3154
"3300",71.76135,642.3286
"3301",71.25353,642.3418
"3302",70.79942,642.355
"3303",70.39414,642.36816
"3304",70.03525,642.38135
"3305",69.7203,642.39453
"3306",69.45663,642.4077
"3307",69.241776,642.4209
"3308",69.07332,642.4341
"3309",68.94148,642.44727
"3310",68.8365,642.46045
"3311",68.75105,642.47363
"3312",68.68757,642.4868
"3313",68.665596,642.5
"3314",68.74128,642.5132
"3315",69.085526,642.52637
"3316",70.05966,642.53955
"3317",72.17639,642.55273
"3318",75.76288,642.5659
"3319",80.6775,642.5791
"3320",86.28062,642.5923
"3321",91.67376,642.60547
"3322",95.97803,642.61865
"3323",98.64408,642.63184
"3324",99.66216,642.645
"3325",99.439995,642.6582
"3326",98.478065,642.6714
"3327",97.12306,642.6846
"3328",95.57519,642.69775
"3329",93.93942,642.71094
"3330",92.28901,642.7241
"3331",90.66544,642.7373
"3332",89.0956,642.7505
"3333",87.603874,642.7637
"3334",86.24887,642.77686
"3335",85.084305,642.79004
"3336",84.18097,642.8032
"3337",83.59014,642.8164
"3338",83.32159,642.8296
"3339",83.34112,642.8428
"3340",83.563286,642.85596
"3341",83.87091,642.86914
"3342",84.14435,642.8823
"3343",84.281075,642.8955
"3344",84.22003,642.9087
"3345",83.93927,642.9219
"3346",83.455864,642.93506
"3347",82.79912,642.94824
"3348",82.03006,642.9614
"3349",81.180435,642.9746
"3350",80.28687,642.9878
"3351",79.38354,643.001
"3352",78.48997,643.01416
"3353",77.62081,643.02734
"3354",76.78096,643.0405
"3355",75.98505,643.0537
"3356",75.23308,643.0669
"3357",74.53727,643.0801
"3358",73.89517,643.09326
"3359",73.31411,643.10645
"3360",72.79164,643.1196
"3361",72.32288,643.1328
"3362",71.902954,643.146
"3363",71.534294,643.1592
"3364",71.199814,643.17236
"3365",70.89952,643.18555
"3366",70.62119,643.1987
"3367",70.362404,643.2119
"3368",70.115814,643.2251
"3369",69.88388,643.2383
"3370",69.691,643.25146
"3371",69.58358,643.26465
"3372",69.7203,643.27783
"3373",70.44541,643.291
"3374",72.20569,643.3042
"3375",75.284355,643.3174
"3376",79.53979,643.33057
"3377",84.41779,643.34375
"3378",89.13222,643.35693
"3379",92.93111,643.3701
"3380",95.34081,643.3833
"3381",96.34669,643.3965
"3382",96.27833,643.40967
"3383",95.54101,643.42285
"3384",94.415504,643.43604
"3385",93.07515,643.4492
"3386",91.62493,643.4624
"3387",90.14053,643.4756
"3388",88.6659,643.4888
"3389",87.22545,643.50195
"3390",85.85336,643.51514
"3391",84.593575,643.5283
"3392",83.509575,643.5415
"3393",82.67704,643.5547
"3394",82.144806,643.5679
"3395",81.93973,643.58105
"3396",82.022736,643.59424
"3397",82.31327,643.6074
"3398",82.69413,643.6206
"3399",83.038376,643.6338
"3400",83.23613,643.647
"3401",83.23125,643.66016
"3402",82.99931,643.67334
"3403",82.562294,643.6865
"3404",81.95926,643.6997
"3405",81.23903,643.7129
"3406",80.44068,643.7261
"3407",79.59838,643.73926
"3408",78.746315,643.75244
"3409",77.908905,643.7656
"3410",77.103226,643.7788
"3411",76.351265,643.792
"3412",75.65545,643.8052
"3413",75.03044,643.81836
"3414",74.46403,643.83154
"3415",73.96353,643.8447
"3416",73.52651,643.8579
"3417",73.1432,643.8711
"3418",72.813614,643.8843
"3419",72.535286,643.89746
"3420",72.291145,643.91064
"3421",72.061646,643.9238
"3422",71.834595,643.937
"3423",71.59777,643.9502
"3424",71.35607,643.9634
"3425",71.1461,643.97656
"3426",71.08507,643.98975
"3427",71.45129,644.0029
"3428",72.62806,644.0161
"3429",74.896164,644.0293
"3430",78.23117,644.0425
"3431",82.247345,644.05566
"3432",86.327,644.06885
"3433",89.82559,644.08203
"3434",92.27436,644.0952
"3435",93.556114,644.1084
"3436",93.8613,644.1216
"3437",93.48043,644.13477
"3438",92.65522,644.14795
"3439",91.54925,644.16113
"3440",90.2797,644.1743
"3441",88.936905,644.1875
"3442",87.589226,644.2007
"3443",86.27085,644.21387
"3444",85.00862,644.22705
"3445",83.82941,644.24023
"3446",82.78691,644.2534
"3447",81.934845,644.2666
"3448",81.322044,644.2798
"3449",80.987564,644.29297
"3450",80.92653,644.30615
"3451",81.0901,644.31934
"3452",81.38064,644.3325
"3453",81.69802,644.3457
"3454",81.93729,644.3589
"3455",82.02762,644.3721
"3456",81.92996,644.38525
"3457",81.63943,644.39844
"3458",81.17067,644.4116
"3459",80.55787,644.4248
"3460",79.84253,644.438
"3461",79.061264,644.4512
"3462",78.25071,644.46436
"3463",77.437706,644.47754
"3464",76.654,644.4907
"3465",75.91669,644.5039
"3466",75.24284,644.5171
"3467",74.64713,644.5303
"3468",74.12955,644.54346
"3469",73.69497,644.55664
"3470",73.33608,644.5698
"3471",73.04555,644.583
"3472",72.813614,644.5962
"3473",72.63294,644.6094
"3474",72.4889,644.62256
"3475",72.35706,644.63574
"3476",72.22034,644.6489
"3477",72.059204,644.6621
"3478",71.88342,644.6753
"3479",71.73937,644.6885
"3480",71.78088,644.70166
"3481",72.29359,644.71484
"3482",73.62905,644.728
"3483",75.97772,644.7412
"3484",79.21019,644.7544
"3485",82.93584,644.7676
"3486",86.59556,644.78076
"3487",89.654686,644.79395
"3488",91.75922,644.8071
"3489",92.86763,644.8203
"3490",93.15083,644.8335
"3491",92.8188,644.8467
"3492",92.04974,644.85986
"3493",90.99748,644.87305
"3494",89.78897,644.8862
"3495",88.52674,644.8994
"3496",87.276726,644.9126
"3497",86.07553,644.9258
"3498",84.9305,644.93896
"3499",83.8587,644.95215
"3500",82.88945,644.96533
"3501",82.06668,644.9785
"3502",81.43435,644.9917
"3503",81.02663,645.0049
"3504",80.84352,645.01807
"3505",80.85329,645.03125
"3506",80.98024,645.04443
"3507",81.13893,645.0576
"3508",81.25124,645.0708
"3509",81.24635,645.084
"3510",81.08522,645.09717
"3511",80.76051,645.11035
"3512",80.28443,645.12354
"3513",79.68139,645.1367
"3514",78.99046,645.1499
"3515",78.24094,645.1631
"3516",77.46456,645.1763
"3517",76.69062,645.18945
"3518",75.95331,645.20264
"3519",75.264824,645.2158
"3520",74.649574,645.229
"3521",74.11246,645.2422
"3522",73.65591,645.2554
"3523",73.28237,645.26855
"3524",72.99184,645.28174
"3525",72.77699,645.2949
"3526",72.62318,645.3081
"3527",72.52064,645.3213
"3528",72.44007,645.3345
"3529",72.361946,645.34766
"3530",72.26673,645.36084
"3531",72.13977,645.374
"3532",71.993286,645.3872
"3533",71.89075,645.4004
"3534",72.01526,645.4136
"3535",72.6598,645.42676
"3536",74.127106,645.43994
"3537",76.52216,645.4531
"3538",79.68383,645.4663
"3539",83.21416,645.4795
"3540",86.61021,645.4927
"3541",89.393456,645.50586
"3542",91.29778,645.51904
"3543",92.30366,645.5322
"3544",92.55756,645.5454
"3545",92.225525,645.5586
"3546",91.473564,645.5718
"3547",90.45548,645.58496
"3548",89.30068,645.59814
"3549",88.114136,645.6113
"3550",86.959335,645.6245
"3551",85.86313,645.6377
"3552",84.82796,645.6509
"3553",83.85626,645.66406
"3554",82.96269,645.67725
"3555",82.17166,645.6904
"3556",81.52468,645.7036
"3557",81.05348,645.7168
"3558",80.76784,645.73
"3559",80.64088,645.74316
"3560",80.62867,645.75635
"3561",80.65797,645.76953
"3562",80.66041,645.7827
"3563",80.58228,645.7959
"3564",80.38209,645.8091
"3565",80.045166,645.82227
"3566",79.57397,645.83545
"3567",78.99046,645.84863
"3568",78.32639,645.8618
"3569",77.61593,645.875
"3570",76.88594,645.8882
"3571",76.16571,645.90137
"3572",75.47723,645.91455
"3573",74.84245,645.92773
"3574",74.2736,645.9409
"3575",73.780426,645.9541
"3576",73.36782,645.9673
"3577",73.03822,645.98047
"3578",72.78432,645.99365
"3579",72.59876,646.00684
"3580",72.47181,646.02
"3581",72.3888,646.0332
"3582",72.33753,646.0464
"3583",72.29603,646.0596
"3584",72.24475,646.07275
"3585",72.166626,646.08594
"3586",72.05676,646.0991
"3587",71.93469,646.1123
"3588",71.88342,646.1255
"3589",72.11047,646.1387
"3590",72.91371,646.15186
"3591",74.55192,646.16504
"3592",77.07393,646.1782
"3593",80.28443,646.1914
"3594",83.775696,646.2046
"3595",87.05699,646.2178
"3596",89.69863,646.23096
"3597",91.48577,646.24414
"3598",92.420845,646.2573
"3599",92.628365,646.2705
"3600",92.27192,646.2837
"3601",91.50286,646.2969
"3602",90.477455,646.31006
"3603",89.33486,646.32324
"3604",88.18005,646.3364
"3605",87.07164,646.3496
"3606",86.04379,646.3628
"3607",85.08186,646.376
"3608",84.18097,646.38916
"3609",83.34112,646.40234
"3610",82.57694,646.4155
"3611",81.9202,646.4287
"3612",81.40261,646.4419
"3613",81.03639,646.4551
"3614",80.80934,646.46826
"3615",80.68238,646.48145
"3616",80.59693,646.4946
"3617",80.499275,646.5078
"3618",80.343025,646.521
"3619",80.08667,646.5342
"3620",79.708244,646.54736
"3621",79.21507,646.56055
"3622",78.6218,646.5737
"3623",77.960175,646.5869
"3624",77.25948,646.6001
"3625",76.541695,646.6133
"3626",75.83124,646.62646
"3627",75.15007,646.63965
"3628",74.51774,646.65283
"3629",73.953766,646.666
"3630",73.47524,646.6792
"3631",73.08949,646.6924
"3632",72.79164,646.70557
"3633",72.57191,646.71875
"3634",72.41566,646.73193
"3635",72.30335,646.7451
"3636",72.22522,646.7583
"3637",72.17395,646.7715
"3638",72.13489,646.78467
"3639",72.10315,646.79785
"3640",72.06897,646.81104
"3641",72.02014,646.8242
"3642",71.94202,646.8374
"3643",71.82483,646.8506
"3644",71.675896,646.8638
"3645",71.53918,646.87695
"3646",71.553825,646.89014
"3647",71.993286,646.9033
"3648",73.17494,646.9165
"3649",75.28924,646.9297
"3650",78.260475,646.9429
"3651",81.76883,646.95605
"3652",85.33578,646.96924
"3653",88.45106,646.9824
"3654",90.76311,646.9956
"3655",92.16449,647.0088
"3656",92.75044,647.022
"3657",92.67719,647.03516
"3658",92.10834,647.04834
"3659",91.21477,647.0615
"3660",90.14786,647.0747
"3661",89.02724,647.0879
"3662",87.940796,647.1011
"3663",86.93736,647.11426
"3664",86.00961,647.12744
"3665",85.135574,647.1406
"3666",84.298164,647.1538
"3667",83.50225,647.167
"3668",82.76494,647.1802
"3669",82.12283,647.19336
"3670",81.60769,647.20654
"3671",81.231705,647.2197
"3672",80.9778,647.2329
"3673",80.80934,647.2461
"3674",80.672615,647.2593
"3675",80.516365,647.27246
"3676",80.29908,647.28564
"3677",79.9939,647.2988
"3678",79.57885,647.312
"3679",79.063705,647.3252
"3680",78.467995,647.3384
"3681",77.821014,647.35156
"3682",77.14473,647.36475
"3683",76.473335,647.3779
"3684",75.82391,647.3911
"3685",75.21843,647.4043
"3686",74.66422,647.4175
"3687",74.17349,647.43066
"3688",73.75357,647.44385
"3689",73.40444,647.45703
"3690",73.128555,647.4702
"3691",72.918594,647.4834
"3692",72.7599,647.4966
"3693",72.64027,647.50977
"3694",72.552376,647.52295
"3695",72.47669,647.53613
"3696",72.410774,647.5493
"3697",72.35218,647.5625
"3698",72.29847,647.5757
"3699",72.24475,647.58887
"3700",72.183716,647.60205
"3701",72.10803,647.61523
"3702",72.01282,647.6284
"3703",71.888306,647.6416
"3704",71.73937,647.6548
"3705",71.57336,647.66797
"3706",71.43664,647.68115
"3707",71.46349,647.69434
"3708",71.94202,647.7075
"3709",73.199356,647.7207
"3710",75.4284,647.7339
"3711",78.54612,647.7471
"3712",82.213165,647.76025
"3713",85.909515,647.77344
"3714",89.10048,647.7866
"3715",91.422295,647.7998
"3716",92.78706,647.813
"3717",93.314415,647.8262
"3718",93.18257,647.83936
"3719",92.57221,647.85254
"3720",91.65179,647.8657
"3721",90.57023,647.8789
"3722",89.44961,647.8921
"3723",88.377815,647.9053
"3724",87.39391,647.91846
"3725",86.49302,647.93164
"3726",85.65316,647.9448
"3727",84.84993,647.958
"3728",84.07843,647.9712
"3729",83.35821,647.9844
"3730",82.72587,647.99756
"3731",82.210724,648.01074
"3732",81.8201,648.0239
"3733",81.54177,648.0371
"3734",81.33669,648.0503
"3735",81.16823,648.0635
"3736",80.990005,648.07666
"3737",80.75807,648.08984
"3738",80.448006,648.103
"3739",80.042725,648.1162
"3740",79.54223,648.1294
"3741",78.96605,648.1426
"3742",78.33616,648.15576
"3743",77.67208,648.16895
"3744",76.998245,648.1821
"3745",76.33662,648.1953
"3746",75.7116,648.2085
"3747",75.140305,648.2217
"3748",74.63737,648.23486
"3749",74.215,648.24805
"3750",73.8732,648.2612
"3751",73.60708,648.2744
"3752",73.409325,648.2876
"3753",73.26528,648.3008
"3754",73.16762,648.31396
"3755",73.09682,648.32715
"3756",73.043106,648.34033
"3757",72.99916,648.3535
"3758",72.95766,648.3667
"3759",72.90883,648.3799
"3760",72.85512,648.39307
"3761",72.796524,648.40625
"3762",72.73548,648.41943
"3763",72.66712,648.4326
"3764",72.586555,648.4458
"3765",72.49378,648.459
"3766",72.38148,648.47217
"3767",72.254524,648.48535
"3768",72.10071,648.49854
"3769",71.93225,648.5117
"3770",71.77112,648.5249
"3771",71.727165,648.5381
"3772",72.03723,648.5513
"3773",73.0724,648.56445
"3774",75.106125,648.57764
"3775",78.14816,648.5908
"3776",81.881134,648.604
"3777",85.785,648.6172
"3778",89.27871,648.6304
"3779",91.90814,648.64355
"3780",93.5024,648.65674
"3781",94.17624,648.6699
"3782",94.1445,648.6831
"3783",93.60006,648.6963
"3784",92.71381,648.7095
"3785",91.63714,648.72266
"3786",90.494545,648.73584
"3787",89.376366,648.749
"3788",88.33387,648.7622
"3789",87.37682,648.7754
"3790",86.49302,648.7886
"3791",85.660484,648.80176
"3792",84.8719,648.81494
"3793",84.14191,648.8281
"3794",83.49737,648.8413
"3795",82.96513,648.8545
"3796",82.564735,648.8677
"3797",82.28397,648.88086
"3798",82.091095,648.89404
"3799",81.934845,648.9072
"3800",81.77127,648.9204
"3801",81.5613,648.9336
"3802",81.26833,648.9468
"3803",80.88014,648.95996
"3804",80.39185,648.97314
"3805",79.818115,648.9863
"3806",79.17845,648.9995
"3807",78.49729,649.0127
"3808",77.79904,649.0259
"3809",77.11299,649.03906
"3810",76.46113,649.05225
"3811",75.860535,649.0654
"3812",75.318535,649.0786
"3813",74.84978,649.0918
"3814",74.45426,649.105
"3815",74.13199,649.11816
"3816",73.87808,649.13135
"3817",73.687645,649.14453
"3818",73.55093,649.1577
"3819",73.45083,649.1709
"3820",73.375145,649.1841
"3821",73.31655,649.19727
"3822",73.26528,649.21045
"3823",73.20912,649.22363
"3824",73.14809,649.2368
"3825",73.08217,649.25
"3826",73.00893,649.2632
"3827",72.92348,649.27637
"3828",72.8307,649.28955
"3829",72.72816,649.30273
"3830",72.61585,649.3159
"3831",72.49622,649.3291
"3832",72.36683,649.3423
"3833",72.22522,649.35547
"3834",72.06409,649.36865
"3835",71.88342,649.38184
"3836",71.72228,649.395
"3837",71.70275,649.4082
"3838",72.112915,649.4214
"3839",73.358055,649.4346
"3840",75.72381,649.44775
"3841",79.166245,649.46094
"3842",83.284966,649.4741
"3843",87.47448,649.4873
"3844",91.09514,649.5005
"3845",93.69283,649.5137
"3846",95.14549,649.52686
"3847",95.641106,649.54004
"3848",95.44335,649.5532
"3849",94.767075,649.5664
"3850",93.77829,649.5796
"3851",92.62104,649.5928
"3852",91.407646,649.60596
"3853",90.22598,649.61914
"3854",89.12001,649.6323
"3855",88.10193,649.6455
"3856",87.16197,649.6587
"3857",86.278175,649.6719
"3858",85.45052,649.68506
"3859",84.69611,649.69824
"3860",84.04425,649.7114
"3861",83.51934,649.7246
"3862",83.13115,649.7378
"3863",82.86992,649.751
"3864",82.69413,649.76416
"3865",82.55253,649.77734
"3866",82.391396,649.7905
"3867",82.17166,649.8037
"3868",81.864044,649.8169
"3869",81.45144,649.8301
"3870",80.936295,649.84326
"3871",80.33082,649.85645
"3872",79.65942,649.8696
"3873",78.94408,649.8828
"3874",78.21164,649.896
"3875",77.48409,649.9092
"3876",76.790726,649.92236
"3877",76.14862,649.93555
"3878",75.57,649.9487
"3879",75.06462,649.9619
"3880",74.632484,649.9751
"3881",74.27116,649.9883
"3882",73.9733,650.00146
"3883",73.73647,650.01465
"3884",73.54604,650.02783
"3885",73.39956,650.041
"3886",73.287254,650.0542
"3887",73.19203,650.0674
"3888",73.111465,650.08057
"3889",73.0309,650.09375
"3890",72.94545,650.10693
"3891",72.850235,650.1201
"3892",72.74525,650.1333
"3893",72.62806,650.1465
"3894",72.50355,650.15967
"3895",72.37415,650.17285
"3896",72.23987,650.18604
"3897",72.10071,650.1992
"3898",71.956665,650.2124
"3899",71.80286,650.2256
"3900",71.63195,650.2388
"3901",71.43908,650.25195
"3902",71.23399,650.26514
"3903",71.03624,650.2783
"3904",70.941025,650.2915
"3905",71.19737,650.3047
"3906",72.24719,650.3179
"3907",74.48844,650.33105
"3908",78.00412,650.34424
"3909",82.44022,650.3574
"3910",87.15465,650.3706
"3911",91.40032,650.3838
"3912",94.55955,650.397
"3913",96.393074,650.41016
"3914",97.06691,650.42334
"3915",96.9131,650.4365
"3916",96.21973,650.4497
"3917",95.17967,650.4629
"3918",93.94675,650.4761
"3919",92.64301,650.48926
"3920",91.35638,650.50244
"3921",90.142975,650.5156
"3922",89.01747,650.5288
"3923",87.972534,650.542
"3924",86.99107,650.5552
"3925",86.07553,650.56836
"3926",85.24788,650.58154
"3927",84.53742,650.5947
"3928",83.97345,650.6079
"3929",83.56817,650.6211
"3930",83.3045,650.6343
"3931",83.13359,650.64746
"3932",83.00664,650.66064
"3933",82.86748,650.6738
"3934",82.65751,650.687
"3935",82.34745,650.7002
"3936",81.9202,650.7134
"3937",81.3782,650.72656
"3938",80.740974,650.73975
"3939",80.028076,650.7529
"3940",79.273674,650.7661
"3941",78.49729,650.7793
"3942",77.72091,650.7925
"3943",76.96651,650.80566
"3944",76.24872,650.81885
"3945",75.59197,650.83203
"3946",75.003586,650.8452
"3947",74.48844,650.8584
"3948",74.04654,650.8716
"3949",73.68032,650.88477
"3950",73.38247,650.89795
"3951",73.14809,650.91113
"3952",72.96254,650.9243
"3953",72.816055,650.9375
"3954",72.69398,650.9507
"3955",72.57923,650.96387
"3956",72.46693,650.97705
"3957",72.35462,650.99023
"3958",72.234985,651.0034
"3959",72.10803,651.0166
"3960",71.9762,651.0298
"3961",71.83215,651.04297
"3962",71.67101,651.05615
"3963",71.49767,651.06934
"3964",71.312126,651.0825
"3965",71.116806,651.0957
"3966",70.91661,651.1089
"3967",70.70908,651.1221
"3968",70.49424,651.13525
"3969",70.26475,651.14844
"3970",70.030365,651.1616
"3971",69.822845,651.1748
"3972",69.749596,651.188
"3973",70.09384,651.2012
"3974",71.35119,651.21436
"3975",73.97818,651.22754
"3976",78.0383,651.2407
"3977",83.09697,651.2539
"3978",88.39002,651.2671
"3979",93.0605,651.2803
"3980",96.42481,651.29346
"3981",98.248566,651.30664
"3982",98.77104,651.3198
"3983",98.41703,651.333
"3984",97.52834,651.3462
"3985",96.31739,651.3594
"3986",94.93797,651.37256
"3987",93.504845,651.38574
"3988",92.10834,651.3989
"3989",90.78508,651.4121
"3990",89.549706,651.4253
"3991",88.39246,651.4385
"3992",87.31335,651.45166
"3993",86.327,651.46484
"3994",85.46517,651.478
"3995",84.7596,651.4912
"3996",84.23468,651.5044
"3997",83.88556,651.5176
"3998",83.67071,651.53076
"3999",83.53643,651.54395
"4000",83.421684,651.5571
"4001",83.26299,651.5703
"4002",83.0164,651.5835
"4003",82.64774,651.5967
"4004",82.15213,651.60986
"4005",81.53689,651.62305
"4006",80.82155,651.6362
"4007",80.0354,651.6494
"4008",79.20775,651.6626
"4009",78.35813,651.6758
"4010",77.51095,651.68896
"4011",76.68574,651.70215
"4012",75.90204,651.71533
"4013",75.176926,651.7285
"4014",74.512856,651.7417
"4015",73.92691,651.7549
"4016",73.41665,651.76807
"4017",72.98451,651.78125
"4018",72.61585,651.79443
"4019",72.308235,651.8076
"4020",72.04944,651.8208
"4021",71.82727,651.834
"4022",71.62951,651.84717
"4023",71.4464,651.86035
"4024",71.2633,651.87354
"4025",71.07774,651.8867
"4026",70.88243,651.8999
"4027",70.677345,651.9131
"4028",70.46006,651.9263
"4029",70.24277,651.93945
"4030",70.01572,651.95264
"4031",69.786224,651.9658
"4032",69.55428,651.979
"4033",69.32479,651.9922
"4034",69.09041,652.0054
"4035",68.860916,652.01855
"4036",68.6363,652.03174
"4037",68.41657,652.0449
"4038",68.21393,652.0581
"4039",68.05768,652.0713
"4040",68.018616,652.0845
"4041",68.31159,652.09766
"4042",69.41024,652.11084
"4043",71.902954,652.124
"4044",76.09491,652.1372
"4045",81.69314,652.1504
"4046",87.90173,652.1636
"4047",93.70748,652.17676
"4048",98.18753,652.18994
"4049",100.8365,652.2031
"4050",101.76669,652.2163
"4051",101.49813,652.2295
"4052",100.5362,652.2427
"4053",99.18852,652.25586
"4054",97.635765,652.26904
"4055",96.009766,652.2822
"4056",94.40574,652.2954
"4057",92.87984,652.3086
"4058",91.44915,652.3218
"4059",90.125885,652.33496
"4060",88.91005,652.34814
"4061",87.818726,652.3613
"4062",86.87633,652.3745
"4063",86.11948,652.3877
"4064",85.56283,652.4009
"4065",85.19905,652.41406
"4066",84.99153,652.42725
"4067",84.8719,652.4404
"4068",84.76448,652.4536
"4069",84.60578,652.4668
"4070",84.33723,652.48
"4071",83.931946,652.49316
"4072",83.38262,652.50635
"4073",82.703896,652.51953
"4074",81.92508,652.5327
"4075",81.06813,652.5459
"4076",80.15991,652.5591
"4077",79.2224,652.57227
"4078",78.28245,652.58545
"4079",77.3547,652.59863
"4080",76.45869,652.6118
"4081",75.6115,652.625
"4082",74.82292,652.6382
"4083",74.10025,652.65137
"4084",73.445946,652.66455
"4085",72.85268,652.67773
"4086",72.325325,652.6909
"4087",71.84924,652.7041
"4088",71.41955,652.7173
"4089",71.03136,652.73047
"4090",70.674904,652.74365
"4091",70.33799,652.75684
"4092",70.01572,652.77
"4093",69.70321,652.7832
"4094",69.400475,652.7964
"4095",69.1075,652.8096
"4096",68.824295,652.82275
"4097",68.55085,652.83594
"4098",68.28962,652.8491
"4099",68.04791,652.8623
"4100",67.8233,652.8755
"4101",67.61822,652.8887
"4102",67.43511,652.90186
"4103",67.27154,652.91504
"4104",67.13237,652.9282
"4105",67.020065,652.9414
"4106",66.94194,652.9546
"4107",66.915085,652.9678
"4108",66.985886,652.98096
"4109",67.28619,652.99414
"4110",68.18219,653.0073
"4111",70.279396,653.0205
"4112",74.09781,653.0337
"4113",79.62524,653.0469
"4114",86.2269,653.06006
"4115",92.86275,653.07324
"4116",98.43412,653.0864
"4117",102.14267,653.0996
"4118",103.81018,653.1128
"4119",103.86389,653.126
"4120",102.923935,653.13916
"4121",101.46639,653.15234
"4122",99.75006,653.1655
"4123",97.93118,653.1787
"4124",96.112305,653.1919
"4125",94.35203,653.2051
"4126",92.69428,653.21826
"4127",91.14885,653.23145
"4128",89.73769,653.2446
"4129",88.49256,653.2578
"4130",87.45495,653.271
"4131",86.6688,653.2842
"4132",86.14389,653.29736
"4133",85.86801,653.31055
"4134",85.78012,653.3237
"4135",85.78989,653.3369
"4136",85.79477,653.3501
"4137",85.711754,653.3633
"4138",85.47738,653.37646
"4139",85.05501,653.38965
"4140",84.44465,653.40283
"4141",83.67315,653.416
"4142",82.76738,653.4292
"4143",81.77371,653.4424
"4144",80.72877,653.45557
"4145",79.656975,653.46875
"4146",78.5803,653.48193
"4147",77.52804,653.4951
"4148",76.5124,653.5083
"4149",75.560234,653.5215
"4150",74.68131,653.53467
"4151",73.882965,653.54785
"4152",73.16029,653.56104
"4153",72.51087,653.5742
"4154",71.92737,653.5874
"4155",71.40002,653.6006
"4156",70.92149,653.6138
"4157",70.484474,653.62695
"4158",70.081635,653.64014
"4159",69.70565,653.6533
"4160",69.35409,653.6665
"4161",69.02449,653.6797
"4162",68.72175,653.6929
"4163",68.45075,653.70605
"4164",68.20416,653.71924
"4165",67.98932,653.7324
"4166",67.80133,653.7456
"4167",67.64019,653.7588
"4168",67.49859,653.772
"4169",67.369194,653.78516
"4170",67.24956,653.79834
"4171",67.15434,653.8115
"4172",67.09819,653.8247
"4173",67.139694,653.8379
"4174",67.39361,653.8511
"4175",68.172424,653.86426
"4176",70.01816,653.87744
"4177",73.4728,653.8906
"4178",78.643776,653.9038
"4179",85.02083,653.917
"4180",91.6347,653.9302
"4181",97.38918,653.94336
"4182",101.417564,653.95654
"4183",103.412224,653.9697
"4184",103.68322,653.9829
"4185",102.83116,653.9961
"4186",101.385826,654.0093
"4187",99.64507,654.02246
"4188",97.77249,654.03564
"4189",95.86572,654.0488
"4190",93.99069,654.062
"4191",92.18402,654.0752
"4192",90.477455,654.0884
"4193",88.90761,654.10156
"4194",87.52575,654.11475
"4195",86.397804,654.1279
"4196",85.57259,654.1411
"4197",85.07454,654.1543
"4198",84.87923,654.1675
"4199",84.910965,654.18066
"4200",85.05501,654.19385
"4201",85.19905,654.20703
"4202",85.23079,654.2202
"4203",85.08186,654.2334
"4204",84.715645,654.2466
"4205",84.14679,654.25977
"4206",83.407036,654.27295
"4207",82.54276,654.28613
"4208",81.59304,654.2993
"4209",80.601814,654.3125
"4210",79.5935,654.3257
"4211",78.59495,654.33887
"4212",77.61593,654.35205
"4213",76.67841,654.36523
"4214",75.79706,654.3784
"4215",74.969406,654.3916
"4216",74.20767,654.4048
"4217",73.50698,654.41797
"4218",72.86977,654.43115
"4219",72.291145,654.44434
"4220",71.77356,654.4575
"4221",71.309685,654.4707
"4222",70.89708,654.4839
"4223",70.52842,654.4971
"4224",70.1915,654.51025
"4225",69.88876,654.52344
"4226",69.607994,654.5366
"4227",69.34676,654.5498
"4228",69.10506,654.563
"4229",68.88045,654.5762
"4230",68.67292,654.58936
"4231",68.48005,654.60254
"4232",68.30427,654.6157
"4233",68.14313,654.6289
"4234",68.00397,654.6421
"4235",67.896545,654.6553
"4236",67.85748,654.66846
"4237",67.99176,654.68164
"4238",68.58259,654.6948
"4239",70.12558,654.708
"4240",73.131,654.7212
"4241",77.738,654.7344
"4242",83.509575,654.74756
"4243",89.57412,654.76074
"4244",94.91844,654.7739
"4245",98.72465,654.7871
"4246",100.67048,654.8003
"4247",101.00496,654.8135
"4248",100.26032,654.82666
"4249",98.932175,654.83984
"4250",97.31106,654.853
"4251",95.553215,654.8662
"4252",93.75876,654.8794
"4253",91.98627,654.8926
"4254",90.267494,654.90576
"4255",88.62928,654.91895
"4256",87.113144,654.9321
"4257",85.7728,654.9453
"4258",84.681465,654.9585
"4259",83.90753,654.9717
"4260",83.48272,654.98486
"4261",83.38262,654.99805
"4262",83.53643,655.0112
"4263",83.826965,655.0244
"4264",84.122375,655.0376
"4265",84.30793,655.0508
"4266",84.30549,655.06396
"4267",84.07843,655.07715
"4268",83.6292,655.09033
"4269",82.98711,655.1035
"4270",82.20096,655.1167
"4271",81.31472,655.1299
"4272",80.36988,655.14307
"4273",79.398186,655.15625
"4274",78.42405,655.16943
"4275",77.467,655.1826
"4276",76.54902,655.1958
"4277",75.67498,655.209
"4278",74.8571,655.22217
"4279",74.09781,655.23535
"4280",73.39468,655.24854
"4281",72.75746,655.2617
"4282",72.183716,655.2749
"4283",71.67101,655.2881
"4284",71.2169,655.3013
"4285",70.81651,655.31445
"4286",70.45762,655.32764
"4287",70.132904,655.3408
"4288",69.839935,655.354
"4289",69.57137,655.3672
"4290",69.32723,655.3804
"4291",69.100174,655.39355
"4292",68.88289,655.40674
"4293",68.680244,655.4199
"4294",68.492256,655.4331
"4295",68.32136,655.4463
"4296",68.16998,655.4595
"4297",68.06256,655.47266
"4298",68.04547,655.48584
"4299",68.26765,655.499
"4300",69.09041,655.5122
"4301",71.05333,655.5254
"4302",74.581215,655.5386
"4303",79.605705,655.55176
"4304",85.52621,655.56494
"4305",91.39788,655.5781
"4306",96.25147,655.5913
"4307",99.41802,655.6045
"4308",100.78035,655.6177
"4309",100.716866,655.63086
"4310",99.77203,655.64404
"4311",98.35355,655.6572
"4312",96.69825,655.6704
"4313",94.93553,655.6836
"4314",93.155716,655.6968
"4315",91.407646,655.70996
"4316",89.71328,655.72314
"4317",88.10193,655.7363
"4318",86.63462,655.7495
"4319",85.36996,655.7627
"4320",84.38361,655.7759
"4321",83.74151,655.78906
"4322",83.458305,655.80225
"4323",83.4876,655.8154
"4324",83.73174,655.8286
"4325",84.06134,655.8418
"4326",84.34455,655.855
"4327",84.473946,655.86816
"4328",84.38361,655.88135
"4329",84.054016,655.89453
"4330",83.50225,655.9077
"4331",82.777145,655.9209
"4332",81.9202,655.9341
"4333",80.9778,655.94727
"4334",79.99634,655.96045
"4335",79.00023,655.97363
"4336",78.011444,655.9868
"4337",77.04463,656
"4338",76.11932,656.0132
"4339",75.245285,656.02637
"4340",74.42741,656.03955
"4341",73.670555,656.05273
"4342",72.98207,656.0659
"4343",72.359505,656.0791
"4344",71.79797,656.0923
"4345",71.292595,656.10547
"4346",70.84093,656.11865
"4347",70.433205,656.13184
"4348",70.06943,656.145
"4349",69.73983,656.1582
"4350",69.44198,656.1714
"4351",69.16609,656.1846
"4352",68.912186,656.19775
"4353",68.67536,656.21094
"4354",68.45075,656.2241
"4355",68.24078,656.2373
"4356",68.04791,656.2505
"4357",67.88678,656.2637
"4358",67.79401,656.27686
"4359",67.896545,656.29004
"4360",68.50446,656.3032
"4361",70.135345,656.3164
"4362",73.272606,656.3296
"4363",77.97238,656.3428
"4364",83.736626,656.35596
"4365",89.67422,656.36914
"4366",94.801254,656.3823
"4367",98.36576,656.3955
"4368",100.11871,656.4087
"4369",100.350655,656.4219
"4370",99.596245,656.43506
"4371",98.29008,656.44824
"4372",96.69337,656.4614
"4373",94.96239,656.4746
"4374",93.19722,656.4878
"4375",91.458916,656.501
"4376",89.779205,656.51416
"4377",88.19226,656.52734
"4378",86.73472,656.5405
"4379",85.46761,656.5537
"4380",84.4593,656.5669
"4381",83.77081,656.5801
"4382",83.424126,656.59326
"4383",83.39483,656.60645
"4384",83.58526,656.6196
"4385",83.878235,656.6328
"4386",84.14435,656.646
"4387",84.27619,656.6592
"4388",84.2005,656.67236
"4389",83.897766,656.68555
"4390",83.38506,656.6987
"4391",82.69657,656.7119
"4392",81.87137,656.7251
"4393",80.955826,656.7383
"4394",79.98657,656.75146
"4395",78.99046,656.76465
"4396",77.99924,656.77783
"4397",77.032425,656.791
"4398",76.104675,656.8042
"4399",75.22575,656.8174
"4400",74.40299,656.83057
"4401",73.63882,656.84375
"4402",72.94057,656.85693
"4403",72.30335,656.8701
"4404",71.72961,656.8833
"4405",71.20958,656.8965
"4406",70.73594,656.90967
"4407",70.30625,656.92285
"4408",69.91318,656.93604
"4409",69.55428,656.9492
"4410",69.22713,656.9624
"4411",68.91707,656.9756
"4412",68.62653,656.9888
"4413",68.350655,657.00195
"4414",68.08453,657.01514
"4415",67.83063,657.0283
"4416",67.60113,657.0415
"4417",67.39605,657.0547
"4418",67.23491,657.0679
"4419",67.18364,657.08105
"4420",67.422905,657.09424
"4421",68.35554,657.1074
"4422",70.538185,657.1206
"4423",74.337074,657.1338
"4424",79.60815,657.147
"4425",85.67269,657.16016
"4426",91.55657,657.17334
"4427",96.30274,657.1865
"4428",99.30816,657.1997
"4429",100.53376,657.2129
"4430",100.39216,657.2261
"4431",99.41314,657.23926
"4432",97.98245,657.25244
"4433",96.31739,657.2656
"4434",94.55955,657.2788
"4435",92.789505,657.292
"4436",91.070724,657.3052
"4437",89.427635,657.31836
"4438",87.88953,657.33154
"4439",86.505226,657.3447
"4440",85.34066,657.3579
"4441",84.456856,657.3711
"4442",83.895325,657.3843
"4443",83.665825,657.39746
"4444",83.71465,657.41064
"4445",83.94171,657.4238
"4446",84.227356,657.437
"4447",84.44953,657.4502
"4448",84.51057,657.4634
"4449",84.3592,657.47656
"4450",83.97833,657.48975
"4451",83.389946,657.5029
"4452",82.63065,657.5161
"4453",81.74685,657.5293
"4454",80.78737,657.5425
"4455",79.79126,657.55566
"4456",78.78783,657.56885
"4457",77.803925,657.58203
"4458",76.85176,657.5952
"4459",75.94354,657.6084
"4460",75.089035,657.6216
"4461",74.29069,657.63477
"4462",73.55581,657.64795
"4463",72.89418,657.66113
"4464",72.30335,657.6743
"4465",71.78088,657.6875
"4466",71.329216,657.7007
"4467",70.941025,657.71387
"4468",70.59922,657.72705
"4469",70.294044,657.74023
"4470",70.013275,657.7534
"4471",69.749596,657.7666
"4472",69.49325,657.7798
"4473",69.239334,657.79297
"4474",68.98787,657.80615
"4475",68.73884,657.81934
"4476",68.492256,657.8325
"4477",68.26032,657.8457
"4478",68.09186,657.8589
"4479",68.11139,657.8721
"4480",68.628975,657.88525
"4481",70.135345,657.89844
"4482",73.06752,657.9116
"4483",77.48165,657.9248
"4484",82.91875,657.938
"4485",88.551155,657.9512
"4486",93.453575,657.96436
"4487",96.92531,657.97754
"4488",98.722206,657.9907
"4489",99.08598,658.0039
"4490",98.478065,658.0171
"4491",97.31594,658.0303
"4492",95.851074,658.04346
"4493",94.239716,658.05664
"4494",92.58198,658.0698
"4495",90.93889,658.083
"4496",89.34707,658.0962
"4497",87.83093,658.1094
"4498",86.434425,658.12256
"4499",85.21858,658.13574
"4500",84.25422,658.1489
"4501",83.60479,658.1621
"4502",83.284966,658.1753
"4503",83.27032,658.1885
"4504",83.475395,658.20166
"4505",83.78058,658.21484
"4506",84.054016,658.228
"4507",84.190735,658.2412
"4508",84.119934,658.2544
"4509",83.81964,658.2676
"4510",83.30694,658.28076
"4511",82.616005,658.29395
"4512",81.79324,658.3071
"4513",80.88014,658.3203
"4514",79.91577,658.3335
"4515",78.92943,658.3467
"4516",77.95041,658.35986
"4517",77.00069,658.37305
"4518",76.104675,658.3862
"4519",75.26971,658.3994
"4520",74.510414,658.4126
"4521",73.831696,658.4258
"4522",73.233536,658.43896
"4523",72.71351,658.45215
"4524",72.26185,658.46533
"4525",71.87366,658.4785
"4526",71.54162,658.4917
"4527",71.255974,658.5049
"4528",70.99962,658.51807
"4529",70.77257,658.53125
"4530",70.54795,658.54443
"4531",70.313576,658.5576
"4532",70.05966,658.5708
"4533",69.786224,658.584
"4534",69.51522,658.59717
"4535",69.32967,658.61035
"4536",69.45663,658.62354
"4537",70.296486,658.6367
"4538",72.29847,658.6499
"4539",75.65545,658.6631
"4540",80.13794,658.6763
"4541",85.11604,658.68945
"4542",89.79874,658.70264
"4543",93.46334,658.7158
"4544",95.729,658.729
"4545",96.639656,658.7422
"4546",96.53956,658.7554
"4547",95.79492,658.76855
"4548",94.65476,658.78174
"4549",93.29244,658.7949
"4550",91.83246,658.8081
"4551",90.35783,658.8213
"4552",88.91737,658.8345
"4553",87.53796,658.84766
"4554",86.24155,658.86084
"4555",85.067215,658.874
"4556",84.06622,658.8872
"4557",83.299614,658.9004
"4558",82.80644,658.9136
"4559",82.58671,658.92676
"4560",82.598915,658.93994
"4561",82.75517,658.9531
"4562",82.950485,658.9663
"4563",83.08476,658.9795
"4564",83.08232,658.9927
"4565",82.896774,659.00586
"4566",82.511024,659.01904
"4567",81.94217,659.0322
"4568",81.2195,659.0454
"4569",80.38453,659.0586
"4570",79.48119,659.0718
"4571",78.54856,659.08496
"4572",77.61837,659.09814
"4573",76.72968,659.1113
"4574",75.894714,659.1245
