"","ppg","time"
"1",78.41917,154.58838
"2",78.2971,154.60156
"3",78.204315,154.61475
"4",78.14084,154.62793
"5",78.099335,154.64111
"6",78.07004,154.6543
"7",78.04562,154.66748
"8",78.02609,154.68066
"9",78.009,154.69385
"10",77.98947,154.70703
"11",77.9675,154.72021
"12",77.94064,154.7334
"13",77.908905,154.74658
"14",77.86984,154.75977
"15",77.8259,154.77295
"16",77.78195,154.78613
"17",77.74044,154.79932
"18",77.69894,154.8125
"19",77.659874,154.82568
"20",77.625694,154.83887
"21",77.5964,154.85205
"22",77.57198,154.86523
"23",77.54757,154.87842
"24",77.52804,154.8916
"25",77.50851,154.90479
"26",77.49142,154.91797
"27",77.47921,154.93115
"28",77.48165,154.94434
"29",77.540245,154.95752
"30",77.730675,154.9707
"31",78.16037,154.98389
"32",78.89769,154.99707
"33",79.94263,155.01025
"34",81.20973,155.02344
"35",82.53788,155.03662
"36",83.74639,155.0498
"37",84.681465,155.06299
"38",85.26742,155.07617
"39",85.504234,155.08936
"40",85.45052,155.10254
"41",85.17464,155.11572
"42",84.7596,155.1289
"43",84.27863,155.14209
"44",83.79523,155.15527
"45",83.35088,155.16846
"46",82.96269,155.18164
"47",82.63798,155.19482
"48",82.36454,155.20801
"49",82.13016,155.22119
"50",81.9202,155.23438
"51",81.73464,155.24756
"52",81.57839,155.26074
"53",81.461205,155.27393
"54",81.38308,155.28711
"55",81.33669,155.3003
"56",81.304955,155.31348
"57",81.26589,155.32666
"58",81.20485,155.33984
"59",81.109634,155.35303
"60",80.972916,155.36621
"61",80.79225,155.3794
"62",80.57984,155.39258
"63",80.34058,155.40576
"64",80.079346,155.41895
"65",79.815674,155.43213
"66",79.554436,155.44531
"67",79.30785,155.4585
"68",79.08324,155.47168
"69",78.887924,155.48486
"70",78.71702,155.49805
"71",78.57786,155.51123
"72",78.467995,155.52441
"73",78.380104,155.5376
"74",78.311745,155.55078
"75",78.25803,155.56396
"76",78.21164,155.57715
"77",78.17258,155.59033
"78",78.1384,155.60352
"79",78.11154,155.6167
"80",78.08469,155.62988
"81",78.05783,155.64307
"82",78.030975,155.65625
"83",77.99924,155.66943
"84",77.962616,155.68262
"85",77.925995,155.6958
"86",77.88937,155.70898
"87",77.85031,155.72217
"88",77.80881,155.73535
"89",77.77463,155.74854
"90",77.738,155.76172
"91",77.70626,155.7749
"92",77.67696,155.78809
"93",77.65255,155.80127
"94",77.62325,155.81445
"95",77.593956,155.82764
"96",77.557335,155.84082
"97",77.5378,155.854
"98",77.57931,155.86719
"99",77.77951,155.88037
"100",78.23605,155.89355
"101",79.01488,155.90674
"102",80.096436,155.91992
"103",81.38064,155.9331
"104",82.71122,155.94629
"105",83.90509,155.95947
"106",84.823074,155.97266
"107",85.40414,155.98584
"108",85.65072,155.99902
"109",85.609215,156.0122
"110",85.347984,156.02539
"111",84.947586,156.03857
"112",84.473946,156.05176
"113",83.99298,156.06494
"114",83.543755,156.07812
"115",83.1458,156.09131
"116",82.80644,156.10449
"117",82.50858,156.11768
"118",82.24246,156.13086
"119",82.005646,156.14404
"120",81.80545,156.15723
"121",81.651634,156.17041
"122",81.55154,156.1836
"123",81.50271,156.19678
"124",81.48806,156.20996
"125",81.48806,156.22314
"126",81.47585,156.23633
"127",81.43679,156.24951
"128",81.356224,156.2627
"129",81.22438,156.27588
"130",81.03883,156.28906
"131",80.81178,156.30225
"132",80.5481,156.31543
"133",80.26734,156.32861
"134",79.97925,156.3418
"135",79.693596,156.35498
"136",79.42016,156.36816
"137",79.17113,156.38135
"138",78.9514,156.39453
"139",78.76097,156.40771
"140",78.60471,156.4209
"141",78.47776,156.43408
"142",78.37522,156.44727
"143",78.28977,156.46045
"144",78.22873,156.47363
"145",78.184784,156.48682
"146",78.153046,156.5
"147",78.13107,156.51318
"148",78.11154,156.52637
"149",78.08713,156.53955
"150",78.05539,156.55273
"151",78.01877,156.56592
"152",77.977264,156.5791
"153",77.93332,156.59229
"154",77.88449,156.60547
"155",77.83566,156.61865
"156",77.789276,156.63184
"157",77.74044,156.64502
"158",77.68673,156.6582
"159",77.628136,156.67139
"160",77.55978,156.68457
"161",77.48409,156.69775
"162",77.420616,156.71094
"163",77.420616,156.72412
"164",77.576866,156.7373
"165",77.98703,156.75049
"166",78.709694,156.76367
"167",79.727776,156.77686
"168",80.95094,156.79004
"169",82.22537,156.80322
"170",83.38018,156.8164
"171",84.27619,156.82959
"172",84.857254,156.84277
"173",85.11116,156.85596
"174",85.08675,156.86914
"175",84.84505,156.88232
"176",84.46418,156.89551
"177",84.017395,156.90869
"178",83.560844,156.92188
"179",83.13603,156.93506
"180",82.75029,156.94824
"181",82.39872,156.96143
"182",82.08133,156.97461
"183",81.7908,156.9878
"184",81.532005,157.00098
"185",81.3196,157.01416
"186",81.17067,157.02734
"187",81.08278,157.04053
"188",81.05104,157.05371
"189",81.058365,157.0669
"190",81.08278,157.08008
"191",81.0901,157.09326
"192",81.06325,157.10645
"193",80.98268,157.11963
"194",80.848404,157.13281
"195",80.65308,157.146
"196",80.41627,157.15918
"197",80.147705,157.17236
"198",79.86694,157.18555
"199",79.586174,157.19873
"200",79.31762,157.21191
"201",79.07347,157.2251
"202",78.853745,157.23828
"203",78.66575,157.25146
"204",78.50706,157.26465
"205",78.380104,157.27783
"206",78.277565,157.29102
"207",78.204315,157.3042
"208",78.150604,157.31738
"209",78.1091,157.33057
"210",78.07736,157.34375
"211",78.05051,157.35693
"212",78.02609,157.37012
"213",77.99924,157.3833
"214",77.97238,157.39648
"215",77.94064,157.40967
"216",77.908905,157.42285
"217",77.874725,157.43604
"218",77.83078,157.44922
"219",77.77707,157.4624
"220",77.71114,157.47559
"221",77.64034,157.48877
"222",77.57198,157.50195
"223",77.55001,157.51514
"224",77.65011,157.52832
"225",77.97238,157.5415
"226",78.5803,157.55469
"227",79.48852,157.56787
"228",80.63355,157.58105
"229",81.87869,157.59424
"230",83.055466,157.60742
"231",84.02228,157.6206
"232",84.68879,157.63379
"233",85.03792,157.64697
"234",85.09895,157.66016
"235",84.928055,157.67334
"236",84.6009,157.68652
"237",84.18585,157.6997
"238",83.74639,157.71289
"239",83.32403,157.72607
"240",82.94316,157.73926
"241",82.61112,157.75244
"242",82.31083,157.76562
"243",82.03494,157.77881
"244",81.78104,157.79199
"245",81.55398,157.80518
"246",81.36355,157.81836
"247",81.22194,157.83154
"248",81.129166,157.84473
"249",81.07301,157.85791
"250",81.03883,157.8711
"251",80.99977,157.88428
"252",80.94606,157.89746
"253",80.85573,157.91064
"254",80.726326,157.92383
"255",80.54566,157.93701
"256",80.323494,157.9502
"257",80.06714,157.96338
"258",79.78882,157.97656
"259",79.50317,157.98975
"260",79.2224,158.00293
"261",78.96117,158.01611
"262",78.729225,158.0293
"263",78.52659,158.04248
"264",78.35813,158.05566
"265",78.221405,158.06885
"266",78.11154,158.08203
"267",78.030975,158.09521
"268",77.962616,158.1084
"269",77.908905,158.12158
"270",77.86252,158.13477
"271",77.81857,158.14795
"272",77.77951,158.16113
"273",77.747765,158.17432
"274",77.72091,158.1875
"275",77.69161,158.20068
"276",77.659874,158.21387
"277",77.62081,158.22705
"278",77.574425,158.24023
"279",77.52071,158.25342
"280",77.45968,158.2666
"281",77.39376,158.27979
"282",77.32052,158.29297
"283",77.2546,158.30615
"284",77.242386,158.31934
"285",77.36935,158.33252
"286",77.72823,158.3457
"287",78.397194,158.35889
"288",79.38598,158.37207
"289",80.621346,158.38525
"290",81.9617,158.39844
"291",83.23125,158.41162
"292",84.27619,158.4248
"293",85.00862,158.43799
"294",85.399254,158.45117
"295",85.47738,158.46436
"296",85.316246,158.47754
"297",84.98909,158.49072
"298",84.576485,158.5039
"299",84.15167,158.51709
"300",83.756165,158.53027
"301",83.40948,158.54346
"302",83.10918,158.55664
"303",82.84062,158.56982
"304",82.581825,158.58301
"305",82.320595,158.59619
"306",82.0618,158.60938
"307",81.8201,158.62256
"308",81.60769,158.63574
"309",81.44167,158.64893
"310",81.31228,158.66211
"311",81.20485,158.6753
"312",81.10719,158.68848
"313",81.00221,158.70166
"314",80.87526,158.71484
"315",80.72144,158.72803
"316",80.533455,158.74121
"317",80.308846,158.7544
"318",80.04761,158.76758
"319",79.76196,158.78076
"320",79.466545,158.79395
"321",79.17845,158.80713
"322",78.90257,158.82031
"323",78.6511,158.8335
"324",78.42405,158.84668
"325",78.22385,158.85986
"326",78.05295,158.87305
"327",77.91379,158.88623
"328",77.80148,158.89941
"329",77.71603,158.9126
"330",77.642784,158.92578
"331",77.576866,158.93896
"332",77.51583,158.95215
"333",77.45724,158.96533
"334",77.401085,158.97852
"335",77.3547,158.9917
"336",77.315636,159.00488
"337",77.28634,159.01807
"338",77.261925,159.03125
"339",77.239944,159.04443
"340",77.21797,159.05762
"341",77.196,159.0708
"342",77.16914,159.08398
"343",77.14473,159.09717
"344",77.120316,159.11035
"345",77.103226,159.12354
"346",77.083694,159.13672
"347",77.069046,159.1499
"348",77.07637,159.16309
"349",77.16426,159.17627
"350",77.43038,159.18945
"351",77.97238,159.20264
"352",78.84886,159.21582
"353",80.0354,159.229
"354",81.43191,159.24219
"355",82.86992,159.25537
"356",84.16388,159.26855
"357",85.17708,159.28174
"358",85.83383,159.29492
"359",86.14389,159.3081
"360",86.14633,159.32129
"361",85.92172,159.33447
"362",85.55062,159.34766
"363",85.11604,159.36084
"364",84.67902,159.37402
"365",84.27375,159.3872
"366",83.9173,159.40039
"367",83.60723,159.41357
"368",83.32159,159.42676
"369",83.038376,159.43994
"370",82.757614,159.45312
"371",82.476845,159.46631
"372",82.22293,159.47949
"373",82.003204,159.49268
"374",81.82498,159.50586
"375",81.67849,159.51904
"376",81.55154,159.53223
"377",81.41726,159.54541
"378",81.26101,159.5586
"379",81.06813,159.57178
"380",80.84352,159.58496
"381",80.57496,159.59814
"382",80.26978,159.61133
"383",79.940186,159.62451
"384",79.603264,159.6377
"385",79.26635,159.65088
"386",78.93919,159.66406
"387",78.63645,159.67725
"388",78.35813,159.69043
"389",78.1091,159.70361
"390",77.89426,159.7168
"391",77.713585,159.72998
"392",77.5671,159.74316
"393",77.44991,159.75635
"394",77.35958,159.76953
"395",77.28634,159.78271
"396",77.23018,159.7959
"397",77.18379,159.80908
"398",77.14229,159.82227
"399",77.10567,159.83545
"400",77.07149,159.84863
"401",77.03487,159.86182
"402",76.995804,159.875
"403",76.9543,159.88818
"404",76.910355,159.90137
"405",76.86397,159.91455
"406",76.81758,159.92773
"407",76.76875,159.94092
"408",76.717476,159.9541
"409",76.66865,159.96729
"410",76.62226,159.98047
"411",76.57343,159.99365
"412",76.52705,160.00684
"413",76.48554,160.02002
"414",76.47822,160.0332
"415",76.56367,160.04639
"416",76.839554,160.05957
"417",77.40841,160.07275
"418",78.31663,160.08594
"419",79.534904,160.09912
"420",80.96315,160.1123
"421",82.425575,160.12549
"422",83.73174,160.13867
"423",84.7425,160.15186
"424",85.39681,160.16504
"425",85.694664,160.17822
"426",85.6849,160.1914
"427",85.44808,160.20459
"428",85.067215,160.21777
"429",84.62043,160.23096
"430",84.16876,160.24414
"431",83.75128,160.25732
"432",83.38018,160.27051
"433",83.0457,160.28369
"434",82.735634,160.29688
"435",82.44022,160.31006
"436",82.15701,160.32324
"437",81.89578,160.33643
"438",81.671165,160.34961
"439",81.495384,160.3628
"440",81.36111,160.37598
"441",81.25613,160.38916
"442",81.16579,160.40234
"443",81.06569,160.41553
"444",80.936295,160.42871
"445",80.765396,160.4419
"446",80.55543,160.45508
"447",80.30396,160.46826
"448",80.01831,160.48145
"449",79.71313,160.49463
"450",79.3933,160.50781
"451",79.07103,160.521
"452",78.75609,160.53418
"453",78.46555,160.54736
"454",78.204315,160.56055
"455",77.98215,160.57373
"456",77.79904,160.58691
"457",77.65011,160.6001
"458",77.53292,160.61328
"459",77.44259,160.62646
"460",77.37667,160.63965
"461",77.3254,160.65283
"462",77.28634,160.66602
"463",77.24483,160.6792
"464",77.21065,160.69238
"465",77.171585,160.70557
"466",77.13008,160.71875
"467",77.09346,160.73193
"468",77.05684,160.74512
"469",77.02022,160.7583
"470",76.978714,160.77148
"471",76.93233,160.78467
"472",76.88106,160.79785
"473",76.83467,160.81104
"474",76.79317,160.82422
"475",76.75166,160.8374
"476",76.71259,160.85059
"477",76.67353,160.86377
"478",76.63203,160.87695
"479",76.59052,160.89014
"480",76.5832,160.90332
"481",76.67353,160.9165
"482",76.96895,160.92969
"483",77.56466,160.94287
"484",78.51438,160.95605
"485",79.783936,160.96924
"486",81.25857,160.98242
"487",82.7625,160.9956
"488",84.102844,161.00879
"489",85.135574,161.02197
"490",85.79721,161.03516
"491",86.09018,161.04834
"492",86.05844,161.06152
"493",85.77768,161.0747
"494",85.3431,161.08789
"495",84.83772,161.10107
"496",84.32502,161.11426
"497",83.8465,161.12744
"498",83.421684,161.14062
"499",83.053024,161.15381
"500",82.7161,161.16699
"501",82.39872,161.18018
"502",82.10574,161.19336
"503",81.84451,161.20654
"504",81.62966,161.21973
"505",81.47097,161.23291
"506",81.36599,161.2461
"507",81.29763,161.25928
"508",81.24391,161.27246
"509",81.17311,161.28564
"510",81.07057,161.29883
"511",80.921646,161.31201
"512",80.719,161.3252
"513",80.46754,161.33838
"514",80.17456,161.35156
"515",79.852295,161.36475
"516",79.51293,161.37793
"517",79.17113,161.39111
"518",78.84642,161.4043
"519",78.54124,161.41748
"520",78.27024,161.43066
"521",78.03342,161.44385
"522",77.83566,161.45703
"523",77.67208,161.47021
"524",77.5378,161.4834
"525",77.43038,161.49658
"526",77.347374,161.50977
"527",77.281456,161.52295
"528",77.225296,161.53613
"529",77.18135,161.54932
"530",77.14961,161.5625
"531",77.117874,161.57568
"532",77.08858,161.58887
"533",77.05928,161.60205
"534",77.0251,161.61523
"535",76.98604,161.62842
"536",76.94209,161.6416
"537",76.90303,161.65479
"538",76.86397,161.66797
"539",76.82979,161.68115
"540",76.79561,161.69434
"541",76.75899,161.70752
"542",76.715034,161.7207
"543",76.663765,161.73389
"544",76.60761,161.74707
"545",76.558784,161.76025
"546",76.561226,161.77344
"547",76.70771,161.78662
"548",77.11543,161.7998
"549",77.87961,161.81299
"550",79.01732,161.82617
"551",80.45045,161.83936
"552",82.02518,161.85254
"553",83.53399,161.86572
"554",84.79866,161.8789
"555",85.70443,161.89209
"556",86.2269,161.90527
"557",86.38804,161.91846
"558",86.25132,161.93164
"559",85.889984,161.94482
"560",85.39437,161.95801
"561",84.84749,161.97119
"562",84.30793,161.98438
"563",83.81476,161.99756
"564",83.38018,162.01074
"565",82.99443,162.02393
"566",82.64286,162.03711
"567",82.31815,162.0503
"568",82.022736,162.06348
"569",81.77371,162.07666
"570",81.58816,162.08984
"571",81.47097,162.10303
"572",81.40749,162.11621
"573",81.375755,162.1294
"574",81.341576,162.14258
"575",81.27322,162.15576
"576",81.15846,162.16895
"577",80.98024,162.18213
"578",80.743416,162.19531
"579",80.45777,162.2085
"580",80.13794,162.22168
"581",79.798584,162.23486
"582",79.4519,162.24805
"583",79.114975,162.26123
"584",78.79515,162.27441
"585",78.49241,162.2876
"586",78.21408,162.30078
"587",77.96994,162.31396
"588",77.76242,162.32715
"589",77.58907,162.34033
"590",77.44991,162.35352
"591",77.34005,162.3667
"592",77.25704,162.37988
"593",77.19112,162.39307
"594",77.14229,162.40625
"595",77.103226,162.41943
"596",77.069046,162.43262
"597",77.02998,162.4458
"598",76.99092,162.45898
"599",76.94942,162.47217
"600",76.90547,162.48535
"601",76.86397,162.49854
"602",76.824905,162.51172
"603",76.7834,162.5249
"604",76.74189,162.53809
"605",76.697945,162.55127
"606",76.65644,162.56445
"607",76.612495,162.57764
"608",76.56855,162.59082
"609",76.51728,162.604
"610",76.453804,162.61719
"611",76.404976,162.63037
"612",76.422066,162.64355
"613",76.61738,162.65674
"614",77.12276,162.66992
"615",78.02609,162.6831
"616",79.32006,162.69629
"617",80.90456,162.70947
"618",82.58671,162.72266
"619",84.156555,162.73584
"620",85.42855,162.74902
"621",86.30991,162.7622
"622",86.785995,162.77539
"623",86.8983,162.78857
"624",86.70542,162.80176
"625",86.30015,162.81494
"626",85.76303,162.82812
"627",85.16487,162.84131
"628",84.56428,162.85449
"629",83.99298,162.86768
"630",83.46319,162.88086
"631",82.9749,162.89404
"632",82.52567,162.90723
"633",82.12283,162.92041
"634",81.778595,162.9336
"635",81.51736,162.94678
"636",81.341576,162.95996
"637",81.248795,162.97314
"638",81.21706,162.98633
"639",81.214615,162.99951
"640",81.21217,163.0127
"641",81.17555,163.02588
"642",81.08034,163.03906
"643",80.91676,163.05225
"644",80.67994,163.06543
"645",80.37965,163.07861
"646",80.03052,163.0918
"647",79.65942,163.10498
"648",79.281,163.11816
"649",78.907455,163.13135
"650",78.553444,163.14453
"651",78.22629,163.15771
"652",77.93088,163.1709
"653",77.6672,163.18408
"654",77.44747,163.19727
"655",77.26925,163.21045
"656",77.13008,163.22363
"657",77.02022,163.23682
"658",76.944534,163.25
"659",76.895706,163.26318
"660",76.86153,163.27637
"661",76.841995,163.28955
"662",76.83467,163.30273
"663",76.82735,163.31592
"664",76.82002,163.3291
"665",76.8127,163.34229
"666",76.79561,163.35547
"667",76.771194,163.36865
"668",76.73701,163.38184
"669",76.69062,163.39502
"670",76.627144,163.4082
"671",76.55634,163.42139
"672",76.48554,163.43457
"673",76.42695,163.44775
"674",76.43183,163.46094
"675",76.595406,163.47412
"676",77.02998,163.4873
"677",77.821014,163.50049
"678",78.97826,163.51367
"679",80.40894,163.52686
"680",81.93973,163.54004
"681",83.370415,163.55322
"682",84.53254,163.5664
"683",85.32845,163.57959
"684",85.74105,163.59277
"685",85.80698,163.60596
"686",85.58968,163.61914
"687",85.16243,163.63232
"688",84.610664,163.64551
"689",84.00519,163.65869
"690",83.39971,163.67188
"691",82.82353,163.68506
"692",82.29618,163.69824
"693",81.81766,163.71143
"694",81.3904,163.72461
"695",81.02174,163.7378
"696",80.73365,163.75098
"697",80.5359,163.76416
"698",80.4358,163.77734
"699",80.42603,163.79053
"700",80.479744,163.80371
"701",80.56519,163.8169
"702",80.64088,163.83008
"703",80.6775,163.84326
"704",80.6482,163.85645
"705",80.54078,163.86963
"706",80.34791,163.88281
"707",80.08667,163.896
"708",79.77417,163.90918
"709",79.43481,163.92236
"710",79.08568,163.93555
"711",78.74387,163.94873
"712",78.416725,163.96191
"713",78.118866,163.9751
"714",77.86252,163.98828
"715",77.64767,164.00146
"716",77.48165,164.01465
"717",77.366905,164.02783
"718",77.298546,164.04102
"719",77.261925,164.0542
"720",77.24971,164.06738
"721",77.25704,164.08057
"722",77.27657,164.09375
"723",77.30099,164.10693
"724",77.32296,164.12012
"725",77.34005,164.1333
"726",77.34249,164.14648
"727",77.3254,164.15967
"728",77.28878,164.17285
"729",77.239944,164.18604
"730",77.20088,164.19922
"731",77.2375,164.2124
"732",77.454796,164.22559
"733",77.962616,164.23877
"734",78.81224,164.25195
"735",79.97681,164.26514
"736",81.34646,164.27832
"737",82.74296,164.2915
"738",83.97589,164.30469
"739",84.90852,164.31787
"740",85.48226,164.33105
"741",85.70443,164.34424
"742",85.62386,164.35742
"743",85.313805,164.3706
"744",84.85237,164.38379
"745",84.31281,164.39697
"746",83.75128,164.41016
"747",83.20439,164.42334
"748",82.684364,164.43652
"749",82.196075,164.4497
"750",81.74441,164.46289
"751",81.341576,164.47607
"752",81.00221,164.48926
"753",80.75563,164.50244
"754",80.618904,164.51562
"755",80.59205,164.52881
"756",80.65308,164.54199
"757",80.76051,164.55518
"758",80.87526,164.56836
"759",80.9485,164.58154
"760",80.95827,164.59473
"761",80.885025,164.60791
"762",80.726326,164.6211
"763",80.48951,164.63428
"764",80.19409,164.64746
"765",79.86206,164.66064
"766",79.51049,164.67383
"767",79.166245,164.68701
"768",78.836655,164.7002
"769",78.54124,164.71338
"770",78.28489,164.72656
"771",78.07004,164.73975
"772",77.89914,164.75293
"773",77.7673,164.76611
"774",77.67696,164.7793
"775",77.62325,164.79248
"776",77.5964,164.80566
"777",77.593956,164.81885
"778",77.60128,164.83203
"779",77.608604,164.84521
"780",77.611046,164.8584
"781",77.60128,164.87158
"782",77.5671,164.88477
"783",77.51583,164.89795
"784",77.47677,164.91113
"785",77.51095,164.92432
"786",77.72335,164.9375
"787",78.221405,164.95068
"788",79.06615,164.96387
"789",80.233154,164.97705
"790",81.61501,164.99023
"791",83.038376,165.00342
"792",84.32014,165.0166
"793",85.316246,165.02979
"794",85.95834,165.04297
"795",86.24155,165.05615
"796",86.20737,165.06934
"797",85.93149,165.08252
"798",85.49447,165.0957
"799",84.97444,165.10889
"800",84.44465,165.12207
"801",83.94171,165.13525
"802",83.48028,165.14844
"803",83.06035,165.16162
"804",82.67216,165.1748
"805",82.303505,165.18799
"806",81.96414,165.20117
"807",81.66628,165.21436
"808",81.42458,165.22754
"809",81.25124,165.24072
"810",81.13893,165.2539
"811",81.07301,165.26709
"812",81.02663,165.28027
"813",80.972916,165.29346
"814",80.88258,165.30664
"815",80.743416,165.31982
"816",80.54566,165.33301
"817",80.28687,165.34619
"818",79.97681,165.35938
"819",79.63256,165.37256
"820",79.273674,165.38574
"821",78.91478,165.39893
"822",78.57786,165.41211
"823",78.27268,165.4253
"824",78.00412,165.43848
"825",77.77219,165.45166
"826",77.574425,165.46484
"827",77.418175,165.47803
"828",77.30099,165.49121
"829",77.21797,165.5044
"830",77.16914,165.51758
"831",77.137405,165.53076
"832",77.11055,165.54395
"833",77.086136,165.55713
"834",77.06172,165.57031
"835",77.02022,165.5835
"836",76.96651,165.59668
"837",76.90059,165.60986
"838",76.82735,165.62305
"839",76.771194,165.63623
"840",76.79805,165.64941
"841",77.01289,165.6626
"842",77.52071,165.67578
"843",78.37766,165.68896
"844",79.55688,165.70215
"845",80.95094,165.71533
"846",82.388954,165.72852
"847",83.67559,165.7417
"848",84.661934,165.75488
"849",85.29183,165.76807
"850",85.56283,165.78125
"851",85.52865,165.79443
"852",85.26498,165.80762
"853",84.86214,165.8208
"854",84.39582,165.83398
"855",83.93439,165.84717
"856",83.51446,165.86035
"857",83.1458,165.87354
"858",82.81377,165.88672
"859",82.496376,165.8999
"860",82.176544,165.91309
"861",81.846954,165.92627
"862",81.514915,165.93945
"863",81.20973,165.95264
"864",80.94118,165.96582
"865",80.71656,165.979
"866",80.53101,165.99219
"867",80.37476,166.00537
"868",80.23071,166.01855
"869",80.079346,166.03174
"870",79.91089,166.04492
"871",79.71557,166.0581
"872",79.483635,166.07129
"873",79.219955,166.08447
"874",78.93431,166.09766
"875",78.62913,166.11084
"876",78.32151,166.12402
"877",78.01877,166.1372
"878",77.74288,166.15039
"879",77.4963,166.16357
"880",77.28634,166.17676
"881",77.11299,166.18994
"882",76.97383,166.20312
"883",76.859085,166.21631
"884",76.76631,166.22949
"885",76.697945,166.24268
"886",76.646675,166.25586
"887",76.610054,166.26904
"888",76.58076,166.28223
"889",76.55146,166.29541
"890",76.51728,166.3086
"891",76.47822,166.32178
"892",76.43427,166.33496
"893",76.39033,166.34814
"894",76.35371,166.36133
"895",76.317085,166.37451
"896",76.280464,166.3877
"897",76.241394,166.40088
"898",76.192566,166.41406
"899",76.14374,166.42725
"900",76.121765,166.44043
"901",76.20477,166.45361
"902",76.49287,166.4668
"903",77.0959,166.47998
"904",78.05783,166.49316
"905",79.32983,166.50635
"906",80.78981,166.51953
"907",82.247345,166.53271
"908",83.509575,166.5459
"909",84.44221,166.55908
"910",84.998856,166.57227
"911",85.20149,166.58545
"912",85.118484,166.59863
"913",84.82796,166.61182
"914",84.42512,166.625
"915",83.98566,166.63818
"916",83.56573,166.65137
"917",83.19951,166.66455
"918",82.89433,166.67773
"919",82.62577,166.69092
"920",82.3621,166.7041
"921",82.08621,166.71729
"922",81.78836,166.73047
"923",81.48318,166.74365
"924",81.19508,166.75684
"925",80.9485,166.77002
"926",80.75563,166.7832
"927",80.601814,166.79639
"928",80.47242,166.80957
"929",80.35279,166.82275
"930",80.22339,166.83594
"931",80.06714,166.84912
"932",79.88403,166.8623
"933",79.66674,166.87549
"934",79.41772,166.88867
"935",79.14671,166.90186
"936",78.86839,166.91504
"937",78.59251,166.92822
"938",78.328835,166.9414
"939",78.08713,166.95459
"940",77.86984,166.96777
"941",77.68185,166.98096
"942",77.523155,166.99414
"943",77.39376,167.00732
"944",77.28878,167.02051
"945",77.21065,167.03369
"946",77.14961,167.04688
"947",77.10567,167.06006
"948",77.069046,167.07324
"949",77.03731,167.08643
"950",77.00801,167.09961
"951",76.978714,167.1128
"952",76.944534,167.12598
"953",76.912796,167.13916
"954",76.88594,167.15234
"955",76.859085,167.16553
"956",76.82979,167.17871
"957",76.805374,167.1919
"958",76.77852,167.20508
"959",76.756546,167.21826
"960",76.732124,167.23145
"961",76.71015,167.24463
"962",76.6833,167.25781
"963",76.654,167.271
"964",76.61982,167.28418
"965",76.60029,167.29736
"966",76.63447,167.31055
"967",76.81758,167.32373
"968",77.25704,167.33691
"969",78.028534,167.3501
"970",79.13695,167.36328
"971",80.49439,167.37646
"972",81.93973,167.38965
"973",83.27764,167.40283
"974",84.34211,167.41602
"975",85.04524,167.4292
"976",85.37728,167.44238
"977",85.39193,167.45557
"978",85.16243,167.46875
"979",84.77913,167.48193
"980",84.32746,167.49512
"981",83.88068,167.5083
"982",83.475395,167.52148
"983",83.13115,167.53467
"984",82.845505,167.54785
"985",82.59403,167.56104
"986",82.35233,167.57422
"987",82.108185,167.5874
"988",81.864044,167.60059
"989",81.6321,167.61377
"990",81.43435,167.62695
"991",81.27566,167.64014
"992",81.15114,167.65332
"993",81.05104,167.6665
"994",80.96071,167.67969
"995",80.85817,167.69287
"996",80.73121,167.70605
"997",80.567635,167.71924
"998",80.37232,167.73242
"999",80.14282,167.7456
"1000",79.888916,167.75879
"1001",79.622795,167.77197
"1002",79.35424,167.78516
"1003",79.093,167.79834
"1004",78.8513,167.81152
"1005",78.62913,167.8247
"1006",78.433815,167.83789
"1007",78.26536,167.85107
"1008",78.12619,167.86426
"1009",78.013885,167.87744
"1010",77.925995,167.89062
"1011",77.86496,167.90381
"1012",77.81857,167.91699
"1013",77.77951,167.93018
"1014",77.747765,167.94336
"1015",77.71847,167.95654
"1016",77.68673,167.96973
"1017",77.65255,167.98291
"1018",77.61593,167.9961
"1019",77.574425,168.00928
"1020",77.5256,168.02246
"1021",77.47677,168.03564
"1022",77.4255,168.04883
"1023",77.38644,168.06201
"1024",77.35714,168.0752
"1025",77.33761,168.08838
"1026",77.32052,168.10156
"1027",77.30343,168.11475
"1028",77.281456,168.12793
"1029",77.24971,168.14111
"1030",77.208206,168.1543
"1031",77.16914,168.16748
"1032",77.154495,168.18066
"1033",77.23262,168.19385
"1034",77.506065,168.20703
"1035",78.07492,168.22021
"1036",78.98558,168.2334
"1037",80.20386,168.24658
"1038",81.59792,168.25977
"1039",82.97978,168.27295
"1040",84.16876,168.28613
"1041",85.03548,168.29932
"1042",85.53109,168.3125
"1043",85.68734,168.32568
"1044",85.56771,168.33887
"1045",85.24788,168.35205
"1046",84.81087,168.36523
"1047",84.332344,168.37842
"1048",83.86847,168.3916
"1049",83.455864,168.40479
"1050",83.10185,168.41797
"1051",82.80644,168.43115
"1052",82.545204,168.44434
"1053",82.29862,168.45752
"1054",82.06668,168.4707
"1055",81.85428,168.48389
"1056",81.67849,168.49707
"1057",81.54177,168.51025
"1058",81.446556,168.52344
"1059",81.38064,168.53662
"1060",81.322044,168.5498
"1061",81.25124,168.56299
"1062",81.15358,168.57617
"1063",81.01686,168.58936
"1064",80.8362,168.60254
"1065",80.61402,168.61572
"1066",80.35523,168.6289
"1067",80.06958,168.64209
"1068",79.77661,168.65527
"1069",79.48852,168.66846
"1070",79.21263,168.68164
"1071",78.9514,168.69482
"1072",78.71458,168.70801
"1073",78.5095,168.72119
"1074",78.3386,168.73438
"1075",78.20187,168.74756
"1076",78.099335,168.76074
"1077",78.01877,168.77393
"1078",77.95529,168.78711
"1079",77.89914,168.8003
"1080",77.85275,168.81348
"1081",77.803925,168.82666
"1082",77.75754,168.83984
"1083",77.713585,168.85303
"1084",77.66964,168.86621
"1085",77.62325,168.8794
"1086",77.57931,168.89258
"1087",77.5378,168.90576
"1088",77.4963,168.91895
"1089",77.452354,168.93213
"1090",77.41085,168.94531
"1091",77.37179,168.9585
"1092",77.33517,168.97168
"1093",77.30099,168.98486
"1094",77.26925,168.99805
"1095",77.2375,169.01123
"1096",77.20088,169.02441
"1097",77.15694,169.0376
"1098",77.12276,169.05078
"1099",77.12764,169.06396
"1100",77.25704,169.07715
"1101",77.63546,169.09033
"1102",78.35325,169.10352
"1103",79.42016,169.1167
"1104",80.765396,169.12988
"1105",82.2327,169.14307
"1106",83.62188,169.15625
"1107",84.75227,169.16943
"1108",85.53109,169.18262
"1109",85.93149,169.1958
"1110",85.99985,169.20898
"1111",85.80698,169.22217
"1112",85.43343,169.23535
"1113",84.95247,169.24854
"1114",84.44221,169.26172
"1115",83.946594,169.2749
"1116",83.49004,169.28809
"1117",83.08476,169.30127
"1118",82.72343,169.31445
"1119",82.4036,169.32764
"1120",82.12283,169.34082
"1121",81.881134,169.354
"1122",81.69314,169.36719
"1123",81.5613,169.38037
"1124",81.478294,169.39355
"1125",81.43191,169.40674
"1126",81.40261,169.41992
"1127",81.37087,169.4331
"1128",81.30984,169.44629
"1129",81.20485,169.45947
"1130",81.0486,169.47266
"1131",80.83864,169.48584
"1132",80.587166,169.49902
"1133",80.29664,169.5122
"1134",79.98657,169.52539
"1135",79.66674,169.53857
"1136",79.35424,169.55176
"1137",79.0515,169.56494
"1138",78.77806,169.57812
"1139",78.536354,169.59131
"1140",78.331276,169.60449
"1141",78.15549,169.61768
"1142",78.013885,169.63086
"1143",77.90402,169.64404
"1144",77.81857,169.65723
"1145",77.752655,169.67041
"1146",77.69894,169.6836
"1147",77.65743,169.69678
"1148",77.61837,169.70996
"1149",77.57931,169.72314
"1150",77.540245,169.73633
"1151",77.503624,169.74951
"1152",77.46456,169.7627
"1153",77.42306,169.77588
"1154",77.383995,169.78906
"1155",77.34493,169.80225
"1156",77.298546,169.81543
"1157",77.24971,169.82861
"1158",77.20088,169.8418
"1159",77.154495,169.85498
"1160",77.10811,169.86816
"1161",77.06172,169.88135
"1162",77.01289,169.89453
"1163",76.964066,169.90771
"1164",76.910355,169.9209
"1165",76.893265,169.93408
"1166",76.981155,169.94727
"1167",77.29366,169.96045
"1168",77.943085,169.97363
"1169",78.97337,169.98682
"1170",80.3357,170
"1171",81.88846,170.01318
"1172",83.41924,170.02637
"1173",84.732735,170.03955
"1174",85.694664,170.05273
"1175",86.261086,170.06592
"1176",86.4564,170.0791
"1177",86.33921,170.09229
"1178",85.99252,170.10547
"1179",85.49691,170.11865
"1180",84.928055,170.13184
"1181",84.349434,170.14502
"1182",83.80499,170.1582
"1183",83.31182,170.17139
"1184",82.8748,170.18457
"1185",82.48173,170.19775
"1186",82.13016,170.21094
"1187",81.82742,170.22412
"1188",81.58572,170.2373
"1189",81.41726,170.25049
"1190",81.32693,170.26367
"1191",81.29763,170.27686
"1192",81.30251,170.29004
"1193",81.304955,170.30322
"1194",81.2781,170.3164
"1195",81.20729,170.32959
"1196",81.075455,170.34277
"1197",80.885025,170.35596
"1198",80.63355,170.36914
"1199",80.3357,170.38232
"1200",80.00366,170.39551
"1201",79.656975,170.40869
"1202",79.310295,170.42188
"1203",78.97826,170.43506
"1204",78.66575,170.44824
"1205",78.382545,170.46143
"1206",78.13107,170.47461
"1207",77.91867,170.4878
"1208",77.74288,170.50098
"1209",77.60616,170.51416
"1210",77.50118,170.52734
"1211",77.420616,170.54053
"1212",77.35714,170.55371
"1213",77.31075,170.5669
"1214",77.27413,170.58008
"1215",77.24727,170.59326
"1216",77.225296,170.60645
"1217",77.205765,170.61963
"1218",77.18379,170.63281
"1219",77.15694,170.646
"1220",77.120316,170.65918
"1221",77.07637,170.67236
"1222",77.0251,170.68555
"1223",76.97139,170.69873
"1224",76.91768,170.71191
"1225",76.87129,170.7251
"1226",76.82979,170.73828
"1227",76.790726,170.75146
"1228",76.749214,170.76465
"1229",76.70771,170.77783
"1230",76.65644,170.79102
"1231",76.60517,170.8042
"1232",76.5832,170.81738
"1233",76.68574,170.83057
"1234",77.04219,170.84375
"1235",77.78439,170.85693
"1236",78.95628,170.87012
"1237",80.48707,170.8833
"1238",82.213165,170.89648
"1239",83.90021,170.90967
"1240",85.33578,170.92285
"1241",86.37095,170.93604
"1242",86.98131,170.94922
"1243",87.18883,170.9624
"1244",87.061874,170.97559
"1245",86.68345,170.98877
"1246",86.13901,171.00195
"1247",85.50912,171.01514
"1248",84.857254,171.02832
"1249",84.23468,171.0415
"1250",83.66338,171.05469
"1251",83.14824,171.06787
"1252",82.68925,171.08105
"1253",82.27665,171.09424
"1254",81.92508,171.10742
"1255",81.64431,171.1206
"1256",81.45144,171.13379
"1257",81.3489,171.14697
"1258",81.324486,171.16016
"1259",81.35134,171.17334
"1260",81.38796,171.18652
"1261",81.40505,171.1997
"1262",81.36843,171.21289
"1263",81.26101,171.22607
"1264",81.075455,171.23926
"1265",80.816666,171.25244
"1266",80.50172,171.26562
"1267",80.14526,171.27881
"1268",79.77173,171.29199
"1269",79.395744,171.30518
"1270",79.03197,171.31836
"1271",78.68772,171.33154
"1272",78.37522,171.34473
"1273",78.09689,171.35791
"1274",77.85275,171.3711
"1275",77.64767,171.38428
"1276",77.48165,171.39746
"1277",77.349815,171.41064
"1278",77.24971,171.42383
"1279",77.17891,171.43701
"1280",77.134964,171.4502
"1281",77.103226,171.46338
"1282",77.08125,171.47656
"1283",77.06416,171.48975
"1284",77.049515,171.50293
"1285",77.02754,171.51611
"1286",77.00313,171.5293
"1287",76.97383,171.54248
"1288",76.944534,171.55566
"1289",76.910355,171.56885
"1290",76.87373,171.58203
"1291",76.82979,171.59521
"1292",76.78096,171.6084
"1293",76.732124,171.62158
"1294",76.68574,171.63477
"1295",76.64179,171.64795
"1296",76.59052,171.66113
"1297",76.53437,171.67432
"1298",76.48798,171.6875
"1299",76.5124,171.70068
"1300",76.73945,171.71387
"1301",77.330284,171.72705
"1302",78.37278,171.74023
"1303",79.85474,171.75342
"1304",81.636986,171.7666
"1305",83.49493,171.77979
"1306",85.17708,171.79297
"1307",86.49302,171.80615
"1308",87.35485,171.81934
"1309",87.77722,171.83252
"1310",87.8114,171.8457
"1311",87.535515,171.85889
"1312",87.03746,171.87207
"1313",86.40269,171.88525
"1314",85.70931,171.89844
"1315",85.013504,171.91162
"1316",84.349434,171.9248
"1317",83.74151,171.93799
"1318",83.192184,171.95117
"1319",82.69657,171.96436
"1320",82.26444,171.97754
"1321",81.9202,171.99072
"1322",81.67605,172.0039
"1323",81.532005,172.01709
"1324",81.48806,172.03027
"1325",81.512474,172.04346
"1326",81.56374,172.05664
"1327",81.60769,172.06982
"1328",81.60769,172.08301
"1329",81.53445,172.09619
"1330",81.38064,172.10938
"1331",81.13893,172.12256
"1332",80.82155,172.13574
"1333",80.45289,172.14893
"1334",80.05249,172.16211
"1335",79.639885,172.1753
"1336",79.23216,172.18848
"1337",78.839096,172.20166
"1338",78.47288,172.21484
"1339",78.1384,172.22803
"1340",77.84299,172.24121
"1341",77.58663,172.2544
"1342",77.37179,172.26758
"1343",77.19112,172.28076
"1344",77.04707,172.29395
"1345",76.93965,172.30713
"1346",76.86641,172.32031
"1347",76.81514,172.3335
"1348",76.78096,172.34668
"1349",76.75166,172.35986
"1350",76.7248,172.37305
"1351",76.69306,172.38623
"1352",76.65888,172.39941
"1353",76.6247,172.4126
"1354",76.58808,172.42578
"1355",76.54902,172.43896
"1356",76.50263,172.45215
"1357",76.45136,172.46533
"1358",76.39521,172.47852
"1359",76.33906,172.4917
"1360",76.280464,172.50488
"1361",76.21698,172.51807
"1362",76.1413,172.53125
"1363",76.06561,172.54443
"1364",76.02899,172.55762
"1365",76.13153,172.5708
"1366",76.52949,172.58398
"1367",77.37179,172.59717
"1368",78.69749,172.61035
"1369",80.428474,172.62354
"1370",82.36698,172.63672
"1371",84.266426,172.6499
"1372",85.8851,172.66309
"1373",87.078964,172.67627
"1374",87.81384,172.68945
"1375",88.12634,172.70264
"1376",88.07507,172.71582
"1377",87.73571,172.729
"1378",87.19127,172.74219
"1379",86.5272,172.75537
"1380",85.8143,172.76855
"1381",85.10872,172.78174
"1382",84.439766,172.79492
"1383",83.82208,172.8081
"1384",83.25811,172.82129
"1385",82.75029,172.83447
"1386",82.31571,172.84766
"1387",81.97391,172.86084
"1388",81.74441,172.87402
"1389",81.62966,172.8872
"1390",81.61501,172.90039
"1391",81.66384,172.91357
"1392",81.73464,172.92676
"1393",81.778595,172.93994
"1394",81.76395,172.95312
"1395",81.668724,172.96631
"1396",81.48806,172.97949
"1397",81.22194,172.99268
"1398",80.88014,173.00586
"1399",80.482185,173.01904
"1400",80.05005,173.03223
"1401",79.605705,173.04541
"1402",79.1638,173.0586
"1403",78.746315,173.07178
"1404",78.363014,173.08496
"1405",78.02121,173.09814
"1406",77.71847,173.11133
"1407",77.46456,173.12451
"1408",77.261925,173.1377
"1409",77.103226,173.15088
"1410",76.9836,173.16406
"1411",76.90059,173.17725
"1412",76.841995,173.19043
"1413",76.807816,173.20361
"1414",76.788284,173.2168
"1415",76.77608,173.22998
"1416",76.76875,173.24316
"1417",76.76143,173.25635
"1418",76.754105,173.26953
"1419",76.73701,173.28271
"1420",76.717476,173.2959
"1421",76.68574,173.30908
"1422",76.64423,173.32227
"1423",76.578316,173.33545
"1424",76.49531,173.34863
"1425",76.404976,173.36182
"1426",76.35859,173.375
"1427",76.46357,173.38818
"1428",76.86641,173.40137
"1429",77.69161,173.41455
"1430",78.96849,173.42773
"1431",80.61158,173.44092
"1432",82.43778,173.4541
"1433",84.20538,173.46729
"1434",85.69222,173.48047
"1435",86.77379,173.49365
"1436",87.415886,173.50684
"1437",87.64538,173.52002
"1438",87.52575,173.5332
"1439",87.13512,173.54639
"1440",86.56138,173.55957
"1441",85.88266,173.57275
"1442",85.16731,173.58594
"1443",84.46174,173.59912
"1444",83.790344,173.6123
"1445",83.16777,173.62549
"1446",82.59159,173.63867
"1447",82.08133,173.65186
"1448",81.6614,173.66504
"1449",81.35134,173.67822
"1450",81.17555,173.6914
"1451",81.126724,173.70459
"1452",81.17799,173.71777
"1453",81.2781,173.73096
"1454",81.3782,173.74414
"1455",81.42947,173.75732
"1456",81.40749,173.77051
"1457",81.290306,173.78369
"1458",81.075455,173.79688
"1459",80.77272,173.81006
"1460",80.396736,173.82324
"1461",79.96948,173.83643
"1462",79.51537,173.84961
"1463",79.061264,173.8628
"1464",78.6218,173.87598
"1465",78.21652,173.88916
"1466",77.855194,173.90234
"1467",77.54269,173.91553
"1468",77.2839,173.92871
"1469",77.07393,173.9419
"1470",76.90791,173.95508
"1471",76.78584,173.96826
"1472",76.697945,173.98145
"1473",76.63935,173.99463
"1474",76.60761,174.00781
"1475",76.592964,174.021
"1476",76.58808,174.03418
"1477",76.58808,174.04736
"1478",76.58076,174.06055
"1479",76.56611,174.07373
"1480",76.53193,174.08691
"1481",76.47578,174.1001
"1482",76.402534,174.11328
"1483",76.34638,174.12646
"1484",76.39277,174.13965
"1485",76.680855,174.15283
"1486",77.33761,174.16602
"1487",78.43626,174.1792
"1488",79.93042,174.19238
"1489",81.67361,174.20557
"1490",83.45342,174.21875
"1491",85.03548,174.23193
"1492",86.258644,174.24512
"1493",87.05211,174.2583
"1494",87.42321,174.27148
"1495",87.42321,174.28467
"1496",87.12535,174.29785
"1497",86.61753,174.31104
"1498",85.99252,174.32422
"1499",85.316246,174.3374
"1500",84.6424,174.35059
"1501",84.00763,174.36377
"1502",83.42901,174.37695
"1503",82.899216,174.39014
"1504",82.423134,174.40332
"1505",82.01053,174.4165
"1506",81.67361,174.42969
"1507",81.42947,174.44287
"1508",81.2781,174.45605
"1509",81.20973,174.46924
"1510",81.20241,174.48242
"1511",81.21217,174.4956
"1512",81.20241,174.50879
"1513",81.13893,174.52197
"1514",81.004654,174.53516
"1515",80.78493,174.54834
"1516",80.48463,174.56152
"1517",80.12085,174.5747
"1518",79.71313,174.58789
"1519",79.28588,174.60107
"1520",78.84886,174.61426
"1521",78.42405,174.62744
"1522",78.02365,174.64062
"1523",77.662315,174.65381
"1524",77.34493,174.66699
"1525",77.08125,174.68018
"1526",76.86397,174.69336
"1527",76.69306,174.70654
"1528",76.55634,174.71973
"1529",76.453804,174.73291
"1530",76.38056,174.7461
"1531",76.334175,174.75928
"1532",76.30244,174.77246
"1533",76.280464,174.78564
"1534",76.265816,174.79883
"1535",76.24628,174.81201
"1536",76.224304,174.8252
"1537",76.192566,174.83838
"1538",76.1413,174.85156
"1539",76.07538,174.86475
"1540",75.99481,174.87793
"1541",75.9411,174.89111
"1542",76.00946,174.9043
"1543",76.334175,174.91748
"1544",77.049515,174.93066
"1545",78.21408,174.94385
"1546",79.78638,174.95703
"1547",81.617455,174.97021
"1548",83.4876,174.9834
"1549",85.16487,174.99658
"1550",86.485695,175.00977
"1551",87.36462,175.02295
"1552",87.799194,175.03613
"1553",87.835815,175.04932
"1554",87.55749,175.0625
"1555",87.05699,175.07568
"1556",86.43931,175.08887
"1557",85.785,175.10205
"1558",85.152664,175.11523
"1559",84.56916,175.12842
"1560",84.03693,175.1416
"1561",83.543755,175.15479
"1562",83.08476,175.16797
"1563",82.65995,175.18115
"1564",82.286415,175.19434
"1565",81.986115,175.20752
"1566",81.761505,175.2207
"1567",81.60525,175.23389
"1568",81.4905,175.24707
"1569",81.39529,175.26025
"1570",81.28542,175.27344
"1571",81.13893,175.28662
"1572",80.938736,175.2998
"1573",80.6775,175.31299
"1574",80.35279,175.32617
"1575",79.96948,175.33936
"1576",79.54955,175.35254
"1577",79.10277,175.36572
"1578",78.658424,175.3789
"1579",78.22873,175.39209
"1580",77.83322,175.40527
"1581",77.47677,175.41846
"1582",77.171585,175.43164
"1583",76.90791,175.44482
"1584",76.68574,175.45801
"1585",76.50996,175.47119
"1586",76.37324,175.48438
"1587",76.265816,175.49756
"1588",76.18524,175.51074
"1589",76.12421,175.52393
"1590",76.070496,175.53711
"1591",76.02411,175.5503
"1592",75.98016,175.56348
"1593",75.945984,175.57666
"1594",75.914246,175.58984
"1595",75.880066,175.60303
"1596",75.841,175.61621
"1597",75.789734,175.6294
"1598",75.72381,175.64258
"1599",75.64324,175.65576
"1600",75.545586,175.66895
"1601",75.45281,175.68213
"1602",75.41863,175.69531
"1603",75.545586,175.7085
"1604",75.98016,175.72168
"1605",76.85176,175.73486
"1606",78.19943,175.74805
"1607",79.954834,175.76123
"1608",81.93973,175.77441
"1609",83.912415,175.7876
"1610",85.63607,175.80078
"1611",86.94957,175.81396
"1612",87.78699,175.82715
"1613",88.16052,175.84033
"1614",88.131226,175.85352
"1615",87.78699,175.8667
"1616",87.2401,175.87988
"1617",86.58335,175.89307
"1618",85.90463,175.90625
"1619",85.25765,175.91943
"1620",84.66926,175.93262
"1621",84.1297,175.9458
"1622",83.6292,175.95898
"1623",83.16289,175.97217
"1624",82.73319,175.98535
"1625",82.357216,175.99854
"1626",82.05203,176.01172
"1627",81.82498,176.0249
"1628",81.6614,176.03809
"1629",81.529564,176.05127
"1630",81.40505,176.06445
"1631",81.26345,176.07764
"1632",81.08034,176.09082
"1633",80.83864,176.104
"1634",80.53101,176.11719
"1635",80.164795,176.13037
"1636",79.744865,176.14355
"1637",79.28832,176.15674
"1638",78.81712,176.16992
"1639",78.35325,176.1831
"1640",77.90646,176.19629
"1641",77.49142,176.20947
"1642",77.12276,176.22266
"1643",76.80049,176.23584
"1644",76.53193,176.24902
"1645",76.314644,176.2622
"1646",76.1413,176.27539
"1647",76.00946,176.28857
"1648",75.911804,176.30176
"1649",75.84589,176.31494
"1650",75.79462,176.32812
"1651",75.75311,176.34131
"1652",75.7116,176.35449
"1653",75.667656,176.36768
"1654",75.613945,176.38086
"1655",75.56512,176.39404
"1656",75.51629,176.40723
"1657",75.474785,176.42041
"1658",75.43084,176.4336
"1659",75.38201,176.44678
"1660",75.33074,176.45996
"1661",75.27703,176.47314
"1662",75.21599,176.48633
"1663",75.15251,176.49951
"1664",75.08171,176.5127
"1665",75.018234,176.52588
"1666",75.00603,176.53906
"1667",75.159836,176.55225
"1668",75.63836,176.56543
"1669",76.578316,176.57861
"1670",78.02609,176.5918
"1671",79.906006,176.60498
"1672",82.03494,176.61816
"1673",84.15411,176.63135
"1674",86.012054,176.64453
"1675",87.430534,176.65771
"1676",88.343636,176.6709
"1677",88.76112,176.68408
"1678",88.744026,176.69727
"1679",88.38514,176.71045
"1680",87.79675,176.72363
"1681",87.08873,176.73682
"1682",86.35386,176.75
"1683",85.65316,176.76318
"1684",85.013504,176.77637
"1685",84.43244,176.78955
"1686",83.90509,176.80273
"1687",83.41436,176.81592
"1688",82.967575,176.8291
"1689",82.581825,176.84229
"1690",82.27421,176.85547
"1691",82.04471,176.86865
"1692",81.87869,176.88184
"1693",81.74929,176.89502
"1694",81.619896,176.9082
"1695",81.46609,176.92139
"1696",81.26345,176.93457
"1697",81.004654,176.94775
"1698",80.68238,176.96094
"1699",80.30152,176.97412
"1700",79.871826,176.9873
"1701",79.41039,177.00049
"1702",78.92943,177.01367
"1703",78.44846,177.02686
"1704",77.98459,177.04004
"1705",77.55489,177.05322
"1706",77.1667,177.0664
"1707",76.82979,177.07959
"1708",76.54902,177.09277
"1709",76.31953,177.10596
"1710",76.138855,177.11914
"1711",76.00458,177.13232
"1712",75.8996,177.14551
"1713",75.81659,177.15869
"1714",75.75311,177.17188
"1715",75.699394,177.18506
"1716",75.65301,177.19824
"1717",75.6115,177.21143
"1718",75.57244,177.22461
"1719",75.53338,177.2378
"1720",75.48699,177.25098
"1721",75.43572,177.26416
"1722",75.37957,177.27734
"1723",75.32342,177.29053
"1724",75.267265,177.30371
"1725",75.21599,177.3169
"1726",75.16228,177.33008
"1727",75.10857,177.34326
"1728",75.04265,177.35645
"1729",74.97185,177.36963
"1730",74.89128,177.38281
"1731",74.83757,177.396
"1732",74.898605,177.40918
"1733",75.23796,177.42236
"1734",76.016785,177.43555
"1735",77.32784,177.44873
"1736",79.13939,177.46191
"1737",81.29763,177.4751
"1738",83.546196,177.48828
"1739",85.60677,177.50146
"1740",87.257195,177.51465
"1741",88.39979,177.52783
"1742",89.01259,177.54102
"1743",89.1371,177.5542
"1744",88.85878,177.56738
"1745",88.292366,177.58057
"1746",87.552605,177.59375
"1747",86.746925,177.60693
"1748",85.95102,177.62012
"1749",85.21126,177.6333
"1750",84.53742,177.64648
"1751",83.92706,177.65967
"1752",83.36797,177.67285
"1753",82.86992,177.68604
"1754",82.442665,177.69922
"1755",82.11063,177.7124
"1756",81.87869,177.72559
"1757",81.74441,177.73877
"1758",81.67605,177.75195
"1759",81.64431,177.76514
"1760",81.600365,177.77832
"1761",81.51003,177.7915
"1762",81.35378,177.80469
"1763",81.11696,177.81787
"1764",80.79225,177.83105
"1765",80.394295,177.84424
"1766",79.94263,177.85742
"1767",79.4519,177.8706
"1768",78.93919,177.88379
"1769",78.42405,177.89697
"1770",77.93088,177.91016
"1771",77.45968,177.92334
"1772",77.02998,177.93652
"1773",76.64423,177.9497
"1774",76.314644,177.96289
"1775",76.050964,177.97607
"1776",75.86542,177.98926
"1777",75.755554,178.00244
"1778",75.70916,178.01562
"1779",75.69695,178.02881
"1780",75.699394,178.04199
"1781",75.699394,178.05518
"1782",75.68963,178.06836
"1783",75.6701,178.08154
"1784",75.650566,178.09473
"1785",75.631035,178.10791
"1786",75.6115,178.1211
"1787",75.59197,178.13428
"1788",75.577324,178.14746
"1789",75.56756,178.16064
"1790",75.56512,178.17383
"1791",75.56756,178.18701
"1792",75.57,178.2002
"1793",75.56756,178.21338
"1794",75.55779,178.22656
"1795",75.55535,178.23975
"1796",75.613945,178.25293
"1797",75.860535,178.26611
"1798",76.46845,178.2793
"1799",77.58175,178.29248
"1800",79.22972,178.30566
"1801",81.31716,178.31885
"1802",83.62188,178.33203
"1803",85.86069,178.34521
"1804",87.7699,178.3584
"1805",89.178604,178.37158
"1806",90.023346,178.38477
"1807",90.321205,178.39795
"1808",90.1503,178.41113
"1809",89.61074,178.42432
"1810",88.82948,178.4375
"1811",87.921265,178.45068
"1812",86.98131,178.46387
"1813",86.07553,178.47705
"1814",85.243,178.49023
"1815",84.47639,178.50342
"1816",83.775696,178.5166
"1817",83.14336,178.52979
"1818",82.58671,178.54297
"1819",82.11795,178.55615
"1820",81.75174,178.56934
"1821",81.50271,178.58252
"1822",81.3489,178.5957
"1823",81.25124,178.60889
"1824",81.180435,178.62207
"1825",81.09743,178.63525
"1826",80.96559,178.64844
"1827",80.765396,178.66162
"1828",80.482185,178.6748
"1829",80.11841,178.68799
"1830",79.68871,178.70117
"1831",79.2224,178.71436
"1832",78.73655,178.72754
"1833",78.25071,178.74072
"1834",77.78439,178.7539
"1835",77.34493,178.76709
"1836",76.93965,178.78027
"1837",76.57343,178.79346
"1838",76.25849,178.80664
"1839",75.99481,178.81982
"1840",75.77753,178.83301
"1841",75.60174,178.84619
"1842",75.46502,178.85938
"1843",75.352715,178.87256
"1844",75.25994,178.88574
"1845",75.18669,178.89893
"1846",75.125656,178.91211
"1847",75.07927,178.9253
"1848",75.04021,178.93848
"1849",75.00603,178.95166
"1850",74.97185,178.96484
"1851",74.94011,178.97803
"1852",74.90349,178.99121
"1853",74.86687,179.0044
"1854",74.81804,179.01758
"1855",74.76189,179.03076
"1856",74.686195,179.04395
"1857",74.59342,179.05713
"1858",74.51774,179.07031
"1859",74.5568,179.0835
"1860",74.87663,179.09668
"1861",75.66277,179.10986
"1862",77.03487,179.12305
"1863",78.96605,179.13623
"1864",81.28542,179.14941
"1865",83.72442,179.1626
"1866",85.96811,179.17578
"1867",87.77966,179.18896
"1868",89.03212,179.20215
"1869",89.71572,179.21533
"1870",89.8793,179.22852
"1871",89.6083,179.2417
"1872",89.01015,179.25488
"1873",88.20203,179.26807
"1874",87.293816,179.28125
"1875",86.36851,179.29443
"1876",85.47982,179.30762
"1877",84.65705,179.3208
"1878",83.90509,179.33398
"1879",83.22148,179.34717
"1880",82.61845,179.36035
"1881",82.12039,179.37354
"1882",81.74441,179.38672
"1883",81.50027,179.3999
"1884",81.38552,179.41309
"1885",81.358665,179.42627
"1886",81.375755,179.43945
"1887",81.38308,179.45264
"1888",81.34402,179.46582
"1889",81.22438,179.479
"1890",81.007095,179.49219
"1891",80.69215,179.50537
"1892",80.289314,179.51855
"1893",79.81323,179.53174
"1894",79.28344,179.54492
"1895",78.7219,179.5581
"1896",78.153046,179.57129
"1897",77.5964,179.58447
"1898",77.069046,179.59766
"1899",76.58564,179.61084
"1900",76.16083,179.62402
"1901",75.789734,179.6372
"1902",75.474785,179.65039
"1903",75.208664,179.66357
"1904",74.98894,179.67676
"1905",74.810715,179.68994
"1906",74.67399,179.70312
"1907",74.56657,179.71631
"1908",74.493324,179.72949
"1909",74.44938,179.74268
"1910",74.42985,179.75586
"1911",74.42985,179.76904
"1912",74.44938,179.78223
"1913",74.476234,179.79541
"1914",74.50309,179.8086
"1915",74.529945,179.82178
"1916",74.53727,179.83496
"1917",74.52018,179.84814
"1918",74.476234,179.86133
"1919",74.43717,179.87451
"1920",74.49821,179.8877
"1921",74.82536,179.90088
"1922",75.62371,179.91406
"1923",77.015335,179.92725
"1924",78.9807,179.94043
"1925",81.341576,179.95361
"1926",83.824524,179.9668
"1927",86.11215,179.97998
"1928",87.957886,179.99316
"1929",89.2372,180.00635
"1930",89.94278,180.01953
"1931",90.125885,180.03271
"1932",89.87442,180.0459
"1933",89.2958,180.05908
"1934",88.499886,180.07227
"1935",87.59411,180.08545
"1936",86.659035,180.09863
"1937",85.74593,180.11182
"1938",84.88167,180.125
"1939",84.08331,180.13818
"1940",83.34356,180.15137
"1941",82.68192,180.16455
"1942",82.11551,180.17773
"1943",81.67361,180.19092
"1944",81.37087,180.2041
"1945",81.19997,180.21729
"1946",81.13893,180.23047
"1947",81.13893,180.24365
"1948",81.15358,180.25684
"1949",81.129166,180.27002
"1950",81.03395,180.2832
"1951",80.848404,180.29639
"1952",80.56031,180.30957
"1953",80.17944,180.32275
"1954",79.727776,180.33594
"1955",79.23216,180.34912
"1956",78.71702,180.3623
"1957",78.204315,180.37549
"1958",77.71114,180.38867
"1959",77.24971,180.40186
"1960",76.82735,180.41504
"1961",76.453804,180.42822
"1962",76.13397,180.4414
"1963",75.8703,180.45459
"1964",75.65545,180.46777
"1965",75.49676,180.48096
"1966",75.38201,180.49414
"1967",75.301445,180.50732
"1968",75.25262,180.52051
"1969",75.23308,180.53369
"1970",75.22575,180.54688
"1971",75.228195,180.56006
"1972",75.23308,180.57324
"1973",75.23308,180.58643
"1974",75.21355,180.59961
"1975",75.1696,180.6128
"1976",75.0988,180.62598
"1977",75.01091,180.63916
"1978",74.96208,180.65234
"1979",75.08171,180.66553
"1980",75.56512,180.67871
"1981",76.575874,180.6919
"1982",78.167694,180.70508
"1983",80.24048,180.71826
"1984",82.5745,180.73145
"1985",84.86702,180.74463
"1986",86.83238,180.75781
"1987",88.289925,180.771
"1988",89.18593,180.78418
"1989",89.549706,180.79736
"1990",89.444725,180.81055
"1991",88.97597,180.82373
"1992",88.2533,180.83691
"1993",87.38659,180.8501
"1994",86.46616,180.86328
"1995",85.56039,180.87646
"1996",84.69611,180.88965
"1997",83.89288,180.90283
"1998",83.14824,180.91602
"1999",82.47929,180.9292
"2000",81.90555,180.94238
"2001",81.45632,180.95557
"2002",81.1487,180.96875
"2003",80.98268,180.98193
"2004",80.92653,180.99512
"2005",80.938736,181.0083
"2006",80.972916,181.02148
"2007",80.9778,181.03467
"2008",80.91676,181.04785
"2009",80.76784,181.06104
"2010",80.52369,181.07422
"2011",80.184326,181.0874
"2012",79.77417,181.10059
"2013",79.31274,181.11377
"2014",78.819565,181.12695
"2015",78.32151,181.14014
"2016",77.838104,181.15332
"2017",77.38644,181.1665
"2018",76.978714,181.17969
"2019",76.629585,181.19287
"2020",76.33906,181.20605
"2021",76.104675,181.21924
"2022",75.91913,181.23242
"2023",75.77997,181.2456
"2024",75.67986,181.25879
"2025",75.613945,181.27197
"2026",75.57244,181.28516
"2027",75.54803,181.29834
"2028",75.526054,181.31152
"2029",75.4992,181.3247
"2030",75.46014,181.33789
"2031",75.40154,181.35107
"2032",75.32342,181.36426
"2033",75.23308,181.37744
"2034",75.18669,181.39062
"2035",75.301445,181.40381
"2036",75.755554,181.41699
"2037",76.70283,181.43018
"2038",78.19943,181.44336
"2039",80.16724,181.45654
"2040",82.4036,181.46973
"2041",84.62531,181.48291
"2042",86.56138,181.4961
"2043",88.0238,181.50928
"2044",88.94423,181.52246
"2045",89.339745,181.53564
"2046",89.271385,181.54883
"2047",88.84657,181.56201
"2048",88.182495,181.5752
"2049",87.38903,181.58838
"2050",86.56382,181.60156
"2051",85.7728,181.61475
"2052",85.0428,181.62793
"2053",84.37629,181.64111
"2054",83.76349,181.6543
"2055",83.192184,181.66748
"2056",82.66239,181.68066
"2057",82.193634,181.69385
"2058",81.80545,181.70703
"2059",81.50759,181.72021
"2060",81.29519,181.7334
"2061",81.143814,181.74658
"2062",81.02663,181.75977
"2063",80.90456,181.77295
"2064",80.75319,181.78613
"2065",80.54566,181.79932
"2066",80.26978,181.8125
"2067",79.923096,181.82568
"2068",79.51537,181.83887
"2069",79.063705,181.85205
"2070",78.59251,181.86523
"2071",78.12131,181.87842
"2072",77.66476,181.8916
"2073",77.23262,181.90479
"2074",76.839554,181.91797
"2075",76.49775,181.93115
"2076",76.207214,181.94434
"2077",75.96796,181.95752
"2078",75.77997,181.9707
"2079",75.63592,181.98389
"2080",75.526054,181.99707
"2081",75.44305,182.01025
"2082",75.38445,182.02344
"2083",75.34783,182.03662
"2084",75.32342,182.0498
"2085",75.30389,182.06299
"2086",75.284355,182.07617
"2087",75.25262,182.08936
"2088",75.20622,182.10254
"2089",75.13786,182.11572
"2090",75.0573,182.1289
"2091",74.99138,182.14209
"2092",75.02312,182.15527
"2093",75.29656,182.16846
"2094",75.97528,182.18164
"2095",77.16426,182.19482
"2096",78.853745,182.20801
"2097",80.907,182.22119
"2098",83.09209,182.23438
"2099",85.12581,182.24756
"2100",86.78111,182.26074
"2101",87.93347,182.27393
"2102",88.54871,182.28711
"2103",88.68055,182.3003
"2104",88.411995,182.31348
"2105",87.85779,182.32666
"2106",87.14244,182.33984
"2107",86.37827,182.35303
"2108",85.63363,182.36621
"2109",84.95247,182.3794
"2110",84.34211,182.39258
"2111",83.78302,182.40576
"2112",83.25567,182.41895
"2113",82.75517,182.43213
"2114",82.29374,182.44531
"2115",81.88602,182.4585
"2116",81.55398,182.47168
"2117",81.304955,182.48486
"2118",81.12428,182.49805
"2119",80.9778,182.51123
"2120",80.84108,182.52441
"2121",80.67994,182.5376
"2122",80.47486,182.55078
"2123",80.21118,182.56396
"2124",79.89136,182.57715
"2125",79.51537,182.59033
"2126",79.097885,182.60352
"2127",78.65598,182.6167
"2128",78.204315,182.62988
"2129",77.76486,182.64307
"2130",77.349815,182.65625
"2131",76.97627,182.66943
"2132",76.64423,182.68262
"2133",76.36103,182.6958
"2134",76.12421,182.70898
"2135",75.931335,182.72217
"2136",75.77997,182.73535
"2137",75.667656,182.74854
"2138",75.58221,182.76172
"2139",75.51385,182.7749
"2140",75.46258,182.78809
"2141",75.41863,182.80127
"2142",75.38201,182.81445
"2143",75.3576,182.82764
"2144",75.33074,182.84082
"2145",75.30389,182.854
"2146",75.27703,182.86719
"2147",75.2404,182.88037
"2148",75.191574,182.89355
"2149",75.1281,182.90674
"2150",75.054855,182.91992
"2151",75.00847,182.9331
"2152",75.08171,182.94629
"2153",75.4284,182.95947
"2154",76.2121,182.97266
"2155",77.50851,182.98584
"2156",79.28344,182.99902
"2157",81.373314,183.0122
"2158",83.526665,183.02539
"2159",85.46273,183.03857
"2160",86.97398,183.05176
"2161",87.96277,183.06494
"2162",88.43397,183.07812
"2163",88.44373,183.09131
"2164",88.09216,183.10449
"2165",87.50378,183.11768
"2166",86.79088,183.13086
"2167",86.05112,183.14404
"2168",85.3431,183.15723
"2169",84.698555,183.17041
"2170",84.11505,183.1836
"2171",83.57549,183.19678
"2172",83.06767,183.20996
"2173",82.59403,183.22314
"2174",82.16922,183.23633
"2175",81.80301,183.24951
"2176",81.514915,183.2627
"2177",81.29763,183.27588
"2178",81.13893,183.28906
"2179",81.007095,183.30225
"2180",80.88014,183.31543
"2181",80.719,183.32861
"2182",80.51392,183.3418
"2183",80.24536,183.35498
"2184",79.91089,183.36816
"2185",79.52758,183.38135
"2186",79.10521,183.39453
"2187",78.66575,183.40771
"2188",78.22629,183.4209
"2189",77.80148,183.43408
"2190",77.40353,183.44727
"2191",77.04707,183.46045
"2192",76.73701,183.47363
"2193",76.47578,183.48682
"2194",76.265816,183.5
"2195",76.09735,183.51318
"2196",75.96063,183.52637
"2197",75.84833,183.53955
"2198",75.76044,183.55273
"2199",75.68963,183.56592
"2200",75.63348,183.5791
"2201",75.58953,183.59229
"2202",75.55291,183.60547
"2203",75.52361,183.61865
"2204",75.49676,183.63184
"2205",75.47234,183.64502
"2206",75.44793,183.6582
"2207",75.41863,183.67139
"2208",75.38445,183.68457
"2209",75.34051,183.69775
"2210",75.27947,183.71094
"2211",75.1989,183.72412
"2212",75.11589,183.7373
"2213",75.08171,183.75049
"2214",75.21599,183.76367
"2215",75.67986,183.77686
"2216",76.612495,183.79004
"2217",78.05539,183.80322
"2218",79.93286,183.8164
"2219",82.04471,183.82959
"2220",84.12482,183.84277
"2221",85.924164,183.85596
"2222",87.26208,183.86914
"2223",88.07263,183.88232
"2224",88.38026,183.89551
"2225",88.26063,183.90869
"2226",87.82605,183.92188
"2227",87.186386,183.93506
"2228",86.46128,183.94824
"2229",85.73617,183.96143
"2230",85.05501,183.97461
"2231",84.439766,183.9878
"2232",83.88312,184.00098
"2233",83.370415,184.01416
"2234",82.88945,184.02734
"2235",82.44511,184.04053
"2236",82.05936,184.05371
"2237",81.74685,184.0669
"2238",81.514915,184.08008
"2239",81.35378,184.09326
"2240",81.234146,184.10645
"2241",81.12428,184.11963
"2242",80.99489,184.13281
"2243",80.81911,184.146
"2244",80.58961,184.15918
"2245",80.29664,184.17236
"2246",79.94751,184.18555
"2247",79.551994,184.19873
"2248",79.12718,184.21191
"2249",78.68772,184.2251
"2250",78.25071,184.23828
"2251",77.83078,184.25146
"2252",77.44747,184.26465
"2253",77.11055,184.27783
"2254",76.822464,184.29102
"2255",76.58076,184.3042
"2256",76.387886,184.31738
"2257",76.23407,184.33057
"2258",76.10956,184.34375
"2259",76.00702,184.35693
"2260",75.92401,184.37012
"2261",75.85321,184.3833
"2262",75.79462,184.39648
"2263",75.7409,184.40967
"2264",75.701836,184.42285
"2265",75.665215,184.43604
"2266",75.62859,184.44922
"2267",75.58953,184.4624
"2268",75.54803,184.47559
"2269",75.4992,184.48877
"2270",75.45037,184.50195
"2271",75.41131,184.51514
"2272",75.37469,184.52832
"2273",75.34295,184.5415
"2274",75.30389,184.55469
"2275",75.25262,184.56787
"2276",75.194016,184.58105
"2277",75.159836,184.59424
"2278",75.23552,184.60742
"2279",75.577324,184.6206
"2280",76.34882,184.63379
"2281",77.63058,184.64697
"2282",79.39086,184.66016
"2283",81.47585,184.67334
"2284",83.63409,184.68652
"2285",85.58724,184.6997
"2286",87.13023,184.71289
"2287",88.15808,184.72607
"2288",88.66102,184.73926
"2289",88.6952,184.75244
"2290",88.358284,184.76562
"2291",87.765015,184.77881
"2292",87.03502,184.79199
"2293",86.26841,184.80518
"2294",85.53353,184.81836
"2295",84.86946,184.83154
"2296",84.26887,184.84473
"2297",83.72442,184.85791
"2298",83.22148,184.8711
"2299",82.76494,184.88428
"2300",82.36698,184.89746
"2301",82.04959,184.91064
"2302",81.8201,184.92383
"2303",81.66628,184.93701
"2304",81.56374,184.9502
"2305",81.478294,184.96338
"2306",81.3782,184.97656
"2307",81.23903,184.98975
"2308",81.03883,185.00293
"2309",80.76784,185.01611
"2310",80.43336,185.0293
"2311",80.04028,185.04248
"2312",79.61059,185.05566
"2313",79.15892,185.06885
"2314",78.70481,185.08203
"2315",78.2678,185.09521
"2316",77.857635,185.1084
"2317",77.48409,185.12158
"2318",77.15938,185.13477
"2319",76.88106,185.14795
"2320",76.65156,185.16113
"2321",76.46357,185.17432
"2322",76.30976,185.1875
"2323",76.18768,185.20068
"2324",76.09491,185.21387
"2325",76.02167,185.22705
"2326",75.96063,185.24023
"2327",75.911804,185.25342
"2328",75.8703,185.2666
"2329",75.8288,185.27979
"2330",75.78485,185.29297
"2331",75.74578,185.30615
"2332",75.7116,185.31934
"2333",75.67742,185.33252
"2334",75.64324,185.3457
"2335",75.613945,185.35889
"2336",75.58221,185.37207
"2337",75.545586,185.38525
"2338",75.50164,185.39844
"2339",75.45037,185.41162
"2340",75.38201,185.4248
"2341",75.30877,185.43799
"2342",75.267265,185.45117
"2343",75.36004,185.46436
"2344",75.736015,185.47754
"2345",76.56367,185.49072
"2346",77.91867,185.5039
"2347",79.7522,185.51709
"2348",81.89578,185.53027
"2349",84.08087,185.54346
"2350",86.03403,185.55664
"2351",87.55016,185.56982
"2352",88.53895,185.58301
"2353",89.00282,185.59619
"2354",89.00038,185.60938
"2355",88.63172,185.62256
"2356",88.009155,185.63574
"2357",87.25231,185.64893
"2358",86.45396,185.66211
"2359",85.6849,185.6753
"2360",84.979324,185.68848
"2361",84.34455,185.70166
"2362",83.76593,185.71484
"2363",83.24101,185.72803
"2364",82.76738,185.74121
"2365",82.35966,185.7544
"2366",82.0325,185.76758
"2367",81.79324,185.78076
"2368",81.63943,185.79395
"2369",81.54665,185.80713
"2370",81.48318,185.82031
"2371",81.41238,185.8335
"2372",81.30251,185.84668
"2373",81.126724,185.85986
"2374",80.88258,185.87305
"2375",80.56519,185.88623
"2376",80.18921,185.89941
"2377",79.766846,185.9126
"2378",79.31518,185.92578
"2379",78.8513,185.93896
"2380",78.39231,185.95215
"2381",77.960175,185.96533
"2382",77.56466,185.97852
"2383",77.21553,185.9917
"2384",76.91524,186.00488
"2385",76.663765,186.01807
"2386",76.46113,186.03125
"2387",76.299995,186.04443
"2388",76.175476,186.05762
"2389",76.08026,186.0708
"2390",76.00702,186.08398
"2391",75.95087,186.09717
"2392",75.90692,186.11035
"2393",75.86542,186.12354
"2394",75.8288,186.13672
"2395",75.789734,186.1499
"2396",75.75311,186.16309
"2397",75.716484,186.17627
"2398",75.682304,186.18945
"2399",75.65789,186.20264
"2400",75.63348,186.21582
"2401",75.6115,186.229
"2402",75.58709,186.24219
"2403",75.55779,186.25537
"2404",75.508965,186.26855
"2405",75.44305,186.28174
"2406",75.36736,186.29492
"2407",75.33074,186.3081
"2408",75.43328,186.32129
"2409",75.84589,186.33447
"2410",76.72968,186.34766
"2411",78.16037,186.36084
"2412",80.08179,186.37402
"2413",82.303505,186.3872
"2414",84.54963,186.40039
"2415",86.53452,186.41357
"2416",88.0531,186.42676
"2417",89.024796,186.43994
"2418",89.461815,186.45312
"2419",89.42519,186.46631
"2420",89.022354,186.47949
"2421",88.358284,186.49268
"2422",87.54772,186.50586
"2423",86.68589,186.51904
"2424",85.83627,186.53223
"2425",85.04768,186.54541
"2426",84.334785,186.5586
"2427",83.6878,186.57178
"2428",83.104294,186.58496
"2429",82.59403,186.59814
"2430",82.17166,186.61133
"2431",81.85672,186.62451
"2432",81.65896,186.6377
"2433",81.56374,186.65088
"2434",81.54177,186.66406
"2435",81.54665,186.67725
"2436",81.532005,186.69043
"2437",81.463646,186.70361
"2438",81.3196,186.7168
"2439",81.08766,186.72998
"2440",80.765396,186.74316
"2441",80.36988,186.75635
"2442",79.920654,186.76953
"2443",79.43969,186.78271
"2444",78.94896,186.7959
"2445",78.470436,186.80908
"2446",78.01633,186.82227
"2447",77.608604,186.83545
"2448",77.24483,186.84863
"2449",76.93477,186.86182
"2450",76.67597,186.875
"2451",76.46845,186.88818
"2452",76.30976,186.90137
"2453",76.192566,186.91455
"2454",76.11444,186.92773
"2455",76.06073,186.94092
"2456",76.02411,186.9541
"2457",75.98993,186.96729
"2458",75.95575,186.98047
"2459",75.92157,186.99365
"2460",75.88739,187.00684
"2461",75.85321,187.02002
"2462",75.82147,187.0332
"2463",75.789734,187.04639
"2464",75.755554,187.05957
"2465",75.70916,187.07275
"2466",75.65301,187.08594
"2467",75.57488,187.09912
"2468",75.46746,187.1123
"2469",75.34783,187.12549
"2470",75.27947,187.13867
"2471",75.386894,187.15186
"2472",75.84589,187.16504
"2473",76.81514,187.17822
"2474",78.34348,187.1914
"2475",80.33814,187.20459
"2476",82.58427,187.21777
"2477",84.79866,187.23096
"2478",86.70298,187.24414
"2479",88.11902,187.25732
"2480",88.98573,187.27051
"2481",89.325096,187.28369
"2482",89.21034,187.29688
"2483",88.741585,187.31006
"2484",88.03357,187.32324
"2485",87.18883,187.33643
"2486",86.30015,187.34961
"2487",85.42855,187.3628
"2488",84.6009,187.37598
"2489",83.83185,187.38916
"2490",83.13115,187.40234
"2491",82.50858,187.41553
"2492",81.986115,187.42871
"2493",81.58816,187.4419
"2494",81.33669,187.45508
"2495",81.22194,187.46826
"2496",81.21706,187.48145
"2497",81.2781,187.49463
"2498",81.35378,187.50781
"2499",81.39773,187.521
"2500",81.373314,187.53418
"2501",81.253685,187.54736
"2502",81.02663,187.56055
"2503",80.69215,187.57373
"2504",80.27711,187.58691
"2505",79.798584,187.6001
"2506",79.290764,187.61328
"2507",78.77318,187.62646
"2508",78.27024,187.63965
"2509",77.803925,187.65283
"2510",77.37911,187.66602
"2511",77.00801,187.6792
"2512",76.6955,187.69238
"2513",76.439156,187.70557
"2514",76.22919,187.71875
"2515",76.068054,187.73193
"2516",75.945984,187.74512
"2517",75.860535,187.7583
"2518",75.80682,187.77148
"2519",75.775085,187.78467
"2520",75.76288,187.79785
"2521",75.755554,187.81104
"2522",75.757996,187.82422
"2523",75.76288,187.8374
"2524",75.7702,187.85059
"2525",75.76532,187.86377
"2526",75.74334,187.87695
"2527",75.69451,187.89014
"2528",75.61883,187.90332
"2529",75.53094,187.9165
"2530",75.50652,187.92969
"2531",75.68963,187.94287
"2532",76.26826,187.95605
"2533",77.37911,187.96924
"2534",79.05394,187.98242
"2535",81.17067,187.9956
"2536",83.49004,188.00879
"2537",85.71664,188.02197
"2538",87.589226,188.03516
"2539",88.94423,188.04834
"2540",89.740135,188.06152
"2541",90.01114,188.0747
"2542",89.83292,188.08789
"2543",89.31289,188.10107
"2544",88.568245,188.11426
"2545",87.70641,188.12744
"2546",86.81285,188.14062
"2547",85.94614,188.15381
"2548",85.135574,188.16699
"2549",84.3885,188.18018
"2550",83.70489,188.19336
"2551",83.087204,188.20654
"2552",82.547646,188.21973
"2553",82.108185,188.23291
"2554",81.778595,188.2461
"2555",81.56374,188.25928
"2556",81.449,188.27246
"2557",81.40017,188.28564
"2558",81.373314,188.29883
"2559",81.33181,188.31201
"2560",81.234146,188.3252
"2561",81.06081,188.33838
"2562",80.797134,188.35156
"2563",80.448006,188.36475
"2564",80.02075,188.37793
"2565",79.54223,188.39111
"2566",79.027084,188.4043
"2567",78.502174,188.41748
"2568",77.994354,188.43066
"2569",77.51583,188.44385
"2570",77.083694,188.45703
"2571",76.70527,188.47021
"2572",76.383,188.4834
"2573",76.112,188.49658
"2574",75.89227,188.50977
"2575",75.716484,188.52295
"2576",75.58221,188.53613
"2577",75.48699,188.54932
"2578",75.41619,188.5625
"2579",75.369804,188.57568
"2580",75.338066,188.58887
"2581",75.318535,188.60205
"2582",75.301445,188.61523
"2583",75.2868,188.62842
"2584",75.27459,188.6416
"2585",75.264824,188.65479
"2586",75.24773,188.66797
"2587",75.21843,188.68115
"2588",75.174484,188.69434
"2589",75.11589,188.70752
"2590",75.0573,188.7207
"2591",75.0695,188.73389
"2592",75.31121,188.74707
"2593",75.965515,188.76025
"2594",77.18135,188.77344
"2595",78.98558,188.78662
"2596",81.25857,188.7998
"2597",83.74395,188.81299
"2598",86.12436,188.82617
"2599",88.11902,188.83936
"2600",89.56924,188.85254
"2601",90.426186,188.86572
"2602",90.72404,188.8789
"2603",90.55314,188.89209
"2604",90.023346,188.90527
"2605",89.254295,188.91846
"2606",88.36317,188.93164
"2607",87.450066,188.94482
"2608",86.588234,188.95801
"2609",85.80698,188.97119
"2610",85.103836,188.98438
"2611",84.46418,188.99756
"2612",83.87335,189.01074
"2613",83.32647,189.02393
"2614",82.845505,189.03711
"2615",82.44022,189.0503
"2616",82.127716,189.06348
"2617",81.900665,189.07666
"2618",81.7322,189.08984
"2619",81.5906,189.10303
"2620",81.446556,189.11621
"2621",81.270775,189.1294
"2622",81.041275,189.14258
"2623",80.740974,189.15576
"2624",80.36256,189.16895
"2625",79.923096,189.18213
"2626",79.432365,189.19531
"2627",78.91234,189.2085
"2628",78.38743,189.22168
"2629",77.874725,189.23486
"2630",77.38888,189.24805
"2631",76.93965,189.26123
"2632",76.53925,189.27441
"2633",76.19745,189.2876
"2634",75.90936,189.30078
"2635",75.67986,189.31396
"2636",75.49676,189.32715
"2637",75.3576,189.34033
"2638",75.24773,189.35352
"2639",75.16472,189.3667
"2640",75.10124,189.37988
"2641",75.04997,189.39307
"2642",75.00847,189.40625
"2643",74.97185,189.41943
"2644",74.94011,189.43262
"2645",74.91325,189.4458
"2646",74.8864,189.45898
"2647",74.85954,189.47217
"2648",74.830246,189.48535
"2649",74.79851,189.49854
"2650",74.76189,189.51172
"2651",74.71061,189.5249
"2652",74.64469,189.53809
"2653",74.56657,189.55127
"2654",74.493324,189.56445
"2655",74.48356,189.57764
"2656",74.686195,189.59082
"2657",75.28924,189.604
"2658",76.45136,189.61719
"2659",78.21652,189.63037
"2660",80.479744,189.64355
"2661",82.99931,189.65674
"2662",85.45541,189.66992
"2663",87.54528,189.6831
"2664",89.093155,189.69629
"2665",90.037994,189.70947
"2666",90.409096,189.72266
"2667",90.284584,189.73584
"2668",89.78653,189.74902
"2669",89.02968,189.7622
"2670",88.14099,189.77539
"2671",87.218124,189.78857
"2672",86.33189,189.80176
"2673",85.523766,189.81494
"2674",84.79622,189.82812
"2675",84.139465,189.84131
"2676",83.54131,189.85449
"2677",83.004196,189.86768
"2678",82.53788,189.88086
"2679",82.161896,189.89404
"2680",81.881134,189.90723
"2681",81.6907,189.92041
"2682",81.5613,189.9336
"2683",81.45632,189.94678
"2684",81.34402,189.95996
"2685",81.18776,189.97314
"2686",80.96315,189.98633
"2687",80.66773,189.99951
"2688",80.29664,190.0127
"2689",79.85718,190.02588
"2690",79.361565,190.03906
"2691",78.84154,190.05225
"2692",78.3093,190.06543
"2693",77.79416,190.07861
"2694",77.30831,190.0918
"2695",76.87129,190.10498
"2696",76.48554,190.11816
"2697",76.155945,190.13135
"2698",75.877625,190.14453
"2699",75.650566,190.15771
"2700",75.46746,190.1709
"2701",75.3283,190.18408
"2702",75.22331,190.19727
"2703",75.14763,190.21045
"2704",75.09636,190.22363
"2705",75.06218,190.23682
"2706",75.03288,190.25
"2707",75.00847,190.26318
"2708",74.984055,190.27637
"2709",74.95964,190.28955
"2710",74.93767,190.30273
"2711",74.91325,190.31592
"2712",74.89128,190.3291
"2713",74.87175,190.34229
"2714",74.847336,190.35547
"2715",74.80827,190.36865
"2716",74.76189,190.38184
"2717",74.70084,190.39502
"2718",74.6276,190.4082
"2719",74.55192,190.42139
"2720",74.52018,190.43457
"2721",74.6569,190.44775
"2722",75.14763,190.46094
"2723",76.16327,190.47412
"2724",77.786835,190.4873
"2725",79.95239,190.50049
"2726",82.44755,190.51367
"2727",84.962234,190.52686
"2728",87.183945,190.54004
"2729",88.89784,190.55322
"2730",90.0087,190.5664
"2731",90.52628,190.57959
"2732",90.51652,190.59277
"2733",90.091705,190.60596
"2734",89.37881,190.61914
"2735",88.499886,190.63232
"2736",87.55749,190.64551
"2737",86.63462,190.65869
"2738",85.78012,190.67188
"2739",84.998856,190.68506
"2740",84.2884,190.69824
"2741",83.65362,190.71143
"2742",83.09697,190.72461
"2743",82.63065,190.7378
"2744",82.26444,190.75098
"2745",82.01053,190.76416
"2746",81.85428,190.77734
"2747",81.77127,190.79053
"2748",81.71267,190.80371
"2749",81.64675,190.8169
"2750",81.53445,190.83008
"2751",81.3489,190.84326
"2752",81.075455,190.85645
"2753",80.71168,190.86963
"2754",80.272224,190.88281
"2755",79.77905,190.896
"2756",79.2517,190.90918
"2757",78.71458,190.92236
"2758",78.19211,190.93555
"2759",77.696495,190.94873
"2760",77.242386,190.96191
"2761",76.841995,190.9751
"2762",76.49287,190.98828
"2763",76.19989,191.00146
"2764",75.95819,191.01465
"2765",75.76776,191.02783
"2766",75.62371,191.04102
"2767",75.51629,191.0542
"2768",75.440605,191.06738
"2769",75.38445,191.08057
"2770",75.34539,191.09375
"2771",75.31121,191.10693
"2772",75.27703,191.12012
"2773",75.23796,191.1333
"2774",75.194016,191.14648
"2775",75.14519,191.15967
"2776",75.09392,191.17285
"2777",75.04509,191.18604
"2778",74.9987,191.19922
"2779",74.9572,191.2124
"2780",74.91814,191.22559
"2781",74.879074,191.23877
"2782",74.83269,191.25195
"2783",74.776535,191.26514
"2784",74.70817,191.27832
"2785",74.64713,191.2915
"2786",74.652016,191.30469
"2787",74.881516,191.31787
"2788",75.526054,191.33105
"2789",76.754105,191.34424
"2790",78.59495,191.35742
"2791",80.94606,191.3706
"2792",83.546196,191.38379
"2793",86.06821,191.39697
"2794",88.20691,191.41016
"2795",89.78653,191.42334
"2796",90.74113,191.43652
"2797",91.104904,191.4497
"2798",90.965744,191.46289
"2799",90.43839,191.47607
"2800",89.64004,191.48926
"2801",88.70252,191.50244
"2802",87.71618,191.51562
"2803",86.76158,191.52881
"2804",85.875336,191.54199
"2805",85.07454,191.55518
"2806",84.349434,191.56836
"2807",83.702446,191.58154
"2808",83.14336,191.59473
"2809",82.684364,191.60791
"2810",82.340126,191.6211
"2811",82.12039,191.63428
"2812",82.005646,191.64746
"2813",81.95438,191.66064
"2814",81.92264,191.67383
"2815",81.866486,191.68701
"2816",81.74197,191.7002
"2817",81.529564,191.71338
"2818",81.21706,191.72656
"2819",80.814224,191.73975
"2820",80.33814,191.75293
"2821",79.81079,191.76611
"2822",79.2517,191.7793
"2823",78.692604,191.79248
"2824",78.14572,191.80566
"2825",77.63546,191.81885
"2826",77.16914,191.83203
"2827",76.76387,191.84521
"2828",76.4123,191.8584
"2829",76.11688,191.87158
"2830",75.877625,191.88477
"2831",75.69207,191.89795
"2832",75.55779,191.91113
"2833",75.46014,191.92432
"2834",75.40154,191.9375
"2835",75.3576,191.95068
"2836",75.32586,191.96387
"2837",75.299,191.97705
"2838",75.27459,191.99023
"2839",75.250175,192.00342
"2840",75.228195,192.0166
"2841",75.20134,192.02979
"2842",75.1696,192.04297
"2843",75.13542,192.05615
"2844",75.10368,192.06934
"2845",75.0695,192.08252
"2846",75.035324,192.0957
"2847",74.9987,192.10889
"2848",74.95232,192.12207
"2849",74.896164,192.13525
"2850",74.82048,192.14844
"2851",74.73258,192.16162
"2852",74.66422,192.1748
"2853",74.70084,192.18799
"2854",75.028,192.20117
"2855",75.85809,192.21436
"2856",77.33761,192.22754
"2857",79.4519,192.24072
"2858",82.02762,192.2539
"2859",84.7596,192.26709
"2860",87.293816,192.28027
"2861",89.34707,192.29346
"2862",90.78264,192.30664
"2863",91.5761,192.31982
"2864",91.78363,192.33301
"2865",91.50286,192.34619
"2866",90.846115,192.35938
"2867",89.94766,192.37256
"2868",88.92226,192.38574
"2869",87.87244,192.39893
"2870",86.86656,192.41211
"2871",85.93881,192.4253
"2872",85.09651,192.43848
"2873",84.334785,192.45166
"2874",83.66338,192.46484
"2875",83.09453,192.47803
"2876",82.64774,192.49121
"2877",82.337685,192.5044
"2878",82.159454,192.51758
"2879",82.08377,192.53076
"2880",82.056915,192.54395
"2881",82.03494,192.55713
"2882",81.971466,192.57031
"2883",81.829865,192.5835
"2884",81.59304,192.59668
"2885",81.25613,192.60986
"2886",80.82155,192.62305
"2887",80.31373,192.63623
"2888",79.75708,192.64941
"2889",79.17601,192.6626
"2890",78.59251,192.67578
"2891",78.02609,192.68896
"2892",77.49386,192.70215
"2893",77.00801,192.71533
"2894",76.58076,192.72852
"2895",76.21942,192.7417
"2896",75.92157,192.75488
"2897",75.68963,192.76807
"2898",75.511406,192.78125
"2899",75.37469,192.79443
"2900",75.27459,192.80762
"2901",75.20622,192.8208
"2902",75.16228,192.83398
"2903",75.13542,192.84717
"2904",75.11589,192.86035
"2905",75.10124,192.87354
"2906",75.08415,192.88672
"2907",75.0573,192.8999
"2908",75.02312,192.91309
"2909",74.98894,192.92627
"2910",74.949875,192.93945
"2911",74.90593,192.95264
"2912",74.861984,192.96582
"2913",74.810715,192.979
"2914",74.759445,192.99219
"2915",74.69596,193.00537
"2916",74.617836,193.01855
"2917",74.52018,193.03174
"2918",74.42252,193.04492
"2919",74.40055,193.0581
"2920",74.634926,193.07129
"2921",75.34051,193.08447
"2922",76.697945,193.09766
"2923",78.72678,193.11084
"2924",81.290306,193.12402
"2925",84.088196,193.1372
"2926",86.766464,193.15039
"2927",89.005264,193.16357
"2928",90.633705,193.17676
"2929",91.6054,193.18994
"2930",91.964294,193.20312
"2931",91.80072,193.21631
"2932",91.23186,193.22949
"2933",90.38224,193.24268
"2934",89.36904,193.25586
"2935",88.29481,193.26904
"2936",87.24254,193.28223
"2937",86.258644,193.29541
"2938",85.350426,193.3086
"2939",84.53254,193.32178
"2940",83.80499,193.33496
"2941",83.18242,193.34814
"2942",82.68925,193.36133
"2943",82.340126,193.37451
"2944",82.13992,193.3877
"2945",82.06424,193.40088
"2946",82.0618,193.41406
"2947",82.08133,193.42725
"2948",82.06668,193.44043
"2949",81.97879,193.45361
"2950",81.78836,193.4668
"2951",81.49294,193.47998
"2952",81.08766,193.49316
"2953",80.59693,193.50635
"2954",80.04028,193.51953
"2955",79.447014,193.53271
"2956",78.84154,193.5459
"2957",78.24582,193.55908
"2958",77.68185,193.57227
"2959",77.15938,193.58545
"2960",76.69062,193.59863
"2961",76.282906,193.61182
"2962",75.94354,193.625
"2963",75.665215,193.63818
"2964",75.44549,193.65137
"2965",75.284355,193.66455
"2966",75.1696,193.67773
"2967",75.09148,193.69092
"2968",75.04265,193.7041
"2969",75.02312,193.71729
"2970",75.018234,193.73047
"2971",75.01579,193.74365
"2972",75.018234,193.75684
"2973",75.020676,193.77002
"2974",75.018234,193.7832
"2975",75.00847,193.79639
"2976",75.001144,193.80957
"2977",74.986496,193.82275
"2978",74.96208,193.83594
"2979",74.92058,193.84912
"2980",74.85466,193.8623
"2981",74.757,193.87549
"2982",74.634926,193.88867
"2983",74.52018,193.90186
"2984",74.51774,193.91504
"2985",74.82536,193.92822
"2986",75.66033,193.9414
"2987",77.15694,193.95459
"2988",79.290764,193.96777
"2989",81.87625,193.98096
"2990",84.58625,193.99414
"2991",87.07408,194.00732
"2992",89.0663,194.02051
"2993",90.43107,194.03369
"2994",91.16106,194.04688
"2995",91.32464,194.06006
"2996",91.01457,194.07324
"2997",90.34806,194.08643
"2998",89.44717,194.09961
"2999",88.41688,194.1128
"3000",87.34753,194.12598
"3001",86.30015,194.13916
"3002",85.30892,194.15234
"3003",84.38361,194.16553
"3004",83.54131,194.17871
"3005",82.80644,194.1919
"3006",82.213165,194.20508
"3007",81.7908,194.21826
"3008",81.55154,194.23145
"3009",81.48562,194.24463
"3010",81.54421,194.25781
"3011",81.66628,194.271
"3012",81.7908,194.28418
"3013",81.85428,194.29736
"3014",81.815216,194.31055
"3015",81.64919,194.32373
"3016",81.3489,194.33691
"3017",80.92653,194.3501
"3018",80.4065,194.36328
"3019",79.818115,194.37646
"3020",79.1931,194.38965
"3021",78.56321,194.40283
"3022",77.95773,194.41602
"3023",77.39376,194.4292
"3024",76.88838,194.44238
"3025",76.456245,194.45557
"3026",76.09979,194.46875
"3027",75.81903,194.48193
"3028",75.6115,194.49512
"3029",75.46502,194.5083
"3030",75.369804,194.52148
"3031",75.31121,194.53467
"3032",75.27703,194.54785
"3033",75.264824,194.56104
"3034",75.26238,194.57422
"3035",75.26971,194.5874
"3036",75.27703,194.60059
"3037",75.27703,194.61377
"3038",75.25994,194.62695
"3039",75.22087,194.64014
"3040",75.14519,194.65332
"3041",75.037766,194.6665
"3042",74.91081,194.67969
"3043",74.81804,194.69287
"3044",74.89372,194.70605
"3045",75.34295,194.71924
"3046",76.34394,194.73242
"3047",77.98703,194.7456
"3048",80.19653,194.75879
"3049",82.75273,194.77197
"3050",85.33822,194.78516
"3051",87.63317,194.79834
"3052",89.408104,194.81152
"3053",90.57267,194.8247
"3054",91.12932,194.83789
"3055",91.14397,194.85107
"3056",90.71183,194.86426
"3057",89.96231,194.87744
"3058",89.01747,194.89062
"3059",87.97986,194.90381
"3060",86.942245,194.91699
"3061",85.95346,194.93018
"3062",85.033035,194.94336
"3063",84.18341,194.95654
"3064",83.40948,194.96973
"3065",82.73319,194.98291
"3066",82.178986,194.9961
"3067",81.76883,195.00928
"3068",81.5198,195.02246
"3069",81.40749,195.03564
"3070",81.3904,195.04883
"3071",81.41726,195.06201
"3072",81.42458,195.0752
"3073",81.36843,195.08838
"3074",81.214615,195.10156
"3075",80.94606,195.11475
"3076",80.56275,195.12793
"3077",80.08423,195.14111
"3078",79.53246,195.1543
"3079",78.93187,195.16748
"3080",78.3093,195.18066
"3081",77.69161,195.19385
"3082",77.100784,195.20703
"3083",76.5539,195.22021
"3084",76.07538,195.2334
"3085",75.67254,195.24658
"3086",75.35027,195.25977
"3087",75.10124,195.27295
"3088",74.915695,195.28613
"3089",74.77898,195.29932
"3090",74.686195,195.3125
"3091",74.6276,195.32568
"3092",74.59342,195.33887
"3093",74.58366,195.35205
"3094",74.5861,195.36523
"3095",74.59586,195.37842
"3096",74.60807,195.3916
"3097",74.615395,195.40479
"3098",74.60807,195.41797
"3099",74.57633,195.43115
"3100",74.5153,195.44434
"3101",74.424965,195.45752
"3102",74.339516,195.4707
"3103",74.34684,195.48389
"3104",74.61295,195.49707
"3105",75.36004,195.51025
"3106",76.74433,195.52344
"3107",78.785385,195.53662
"3108",81.33669,195.5498
"3109",84.10773,195.56299
"3110",86.75426,195.57617
"3111",88.96864,195.58936
"3112",90.582436,195.60254
"3113",91.54681,195.61572
"3114",91.9057,195.6289
"3115",91.74944,195.64209
"3116",91.192795,195.65527
"3117",90.36759,195.66846
"3118",89.40566,195.68164
"3119",88.41444,195.69482
"3120",87.4696,195.70801
"3121",86.60044,195.72119
"3122",85.80942,195.73438
"3123",85.08186,195.74756
"3124",84.4007,195.76074
"3125",83.773254,195.77393
"3126",83.211716,195.78711
"3127",82.74052,195.8003
"3128",82.36698,195.81348
"3129",82.08377,195.82666
"3130",81.8616,195.83984
"3131",81.668724,195.85303
"3132",81.46853,195.86621
"3133",81.234146,195.8794
"3134",80.94362,195.89258
"3135",80.57984,195.90576
"3136",80.14282,195.91895
"3137",79.635,195.93213
"3138",79.078354,195.94531
"3139",78.48997,195.9585
"3140",77.89426,195.97168
"3141",77.313194,195.98486
"3142",76.76631,195.99805
"3143",76.2707,196.01123
"3144",75.83368,196.02441
"3145",75.4699,196.0376
"3146",75.17204,196.05078
"3147",74.93767,196.06396
"3148",74.76189,196.07715
"3149",74.63004,196.09033
"3150",74.53239,196.10352
"3151",74.461586,196.1167
"3152",74.41276,196.12988
"3153",74.37614,196.14307
"3154",74.34928,196.15625
"3155",74.32975,196.16943
"3156",74.30778,196.18262
"3157",74.288246,196.1958
"3158",74.26627,196.20898
"3159",74.23941,196.22217
"3160",74.19302,196.23535
"3161",74.12955,196.24854
"3162",74.039215,196.26172
"3163",73.936676,196.2749
"3164",73.88052,196.28809
"3165",74.005035,196.30127
"3166",74.50797,196.31445
"3167",75.56756,196.32764
"3168",77.26681,196.34082
"3169",79.52758,196.354
"3170",82.127716,196.36719
"3171",84.749825,196.38037
"3172",87.0692,196.39355
"3173",88.85634,196.40674
"3174",90.01846,196.41992
"3175",90.56046,196.4331
"3176",90.56046,196.44629
"3177",90.13077,196.45947
"3178",89.410545,196.47266
"3179",88.52918,196.48584
"3180",87.603874,196.49902
"3181",86.70786,196.5122
"3182",85.88022,196.52539
"3183",85.13069,196.53857
"3184",84.439766,196.55176
"3185",83.79523,196.56494
"3186",83.19707,196.57812
"3187",82.65751,196.59131
"3188",82.20096,196.60449
"3189",81.83719,196.61768
"3190",81.57107,196.63086
"3191",81.375755,196.64404
"3192",81.21706,196.65723
"3193",81.05592,196.67041
"3194",80.85817,196.6836
"3195",80.601814,196.69678
"3196",80.272224,196.70996
"3197",79.86694,196.72314
"3198",79.398186,196.73633
"3199",78.87816,196.74951
"3200",78.331276,196.7627
"3201",77.77463,196.77588
"3202",77.2375,196.78906
"3203",76.732124,196.80225
"3204",76.27802,196.81543
"3205",75.88495,196.82861
"3206",75.562675,196.8418
"3207",75.301445,196.85498
"3208",75.09636,196.86816
"3209",74.94499,196.88135
"3210",74.83269,196.89453
"3211",74.75456,196.90771
"3212",74.69596,196.9209
"3213",74.652016,196.93408
"3214",74.61295,196.94727
"3215",74.57877,196.96045
"3216",74.547035,196.97363
"3217",74.52018,196.98682
"3218",74.493324,197
"3219",74.46647,197.01318
"3220",74.43473,197.02637
"3221",74.39811,197.03955
"3222",74.36149,197.05273
"3223",74.322426,197.06592
"3224",74.28092,197.0791
"3225",74.23697,197.09229
"3226",74.17349,197.10547
"3227",74.10025,197.11865
"3228",74.03433,197.13184
"3229",74.03433,197.14502
"3230",74.24185,197.1582
"3231",74.85466,197.17139
"3232",76.03143,197.18457
"3233",77.81369,197.19775
"3234",80.096436,197.21094
"3235",82.64042,197.22412
"3236",85.13313,197.2373
"3237",87.259636,197.25049
"3238",88.831924,197.26367
"3239",89.78897,197.27686
"3240",90.15518,197.29004
"3241",90.01602,197.30322
"3242",89.495995,197.3164
"3243",88.7367,197.32959
"3244",87.85779,197.34277
"3245",86.96422,197.35596
"3246",86.12192,197.36914
"3247",85.36263,197.38232
"3248",84.67902,197.39551
"3249",84.0589,197.40869
"3250",83.4876,197.42188
"3251",82.967575,197.43506
"3252",82.50614,197.44824
"3253",82.125275,197.46143
"3254",81.832306,197.47461
"3255",81.617455,197.4878
"3256",81.45876,197.50098
"3257",81.322044,197.51416
"3258",81.16579,197.52734
"3259",80.96559,197.54053
"3260",80.70191,197.55371
"3261",80.365,197.5669
"3262",79.957275,197.58008
"3263",79.4934,197.59326
"3264",78.992905,197.60645
"3265",78.47776,197.61963
"3266",77.96506,197.63281
"3267",77.47921,197.646
"3268",77.03731,197.65918
"3269",76.64423,197.67236
"3270",76.30488,197.68555
"3271",76.02167,197.69873
"3272",75.792175,197.71191
"3273",75.6115,197.7251
"3274",75.47234,197.73828
"3275",75.37469,197.75146
"3276",75.30877,197.76465
"3277",75.25994,197.77783
"3278",75.22087,197.79102
"3279",75.18669,197.8042
"3280",75.15251,197.81738
"3281",75.11833,197.83057
"3282",75.08415,197.84375
"3283",75.04997,197.85693
"3284",75.01335,197.87012
"3285",74.97673,197.8833
"3286",74.94011,197.89648
"3287",74.90837,197.90967
"3288",74.87663,197.92285
"3289",74.84245,197.93604
"3290",74.80339,197.94922
"3291",74.757,197.9624
"3292",74.6984,197.97559
"3293",74.63004,197.98877
"3294",74.581215,198.00195
"3295",74.617836,198.01514
"3296",74.881516,198.02832
"3297",75.55047,198.0415
"3298",76.75899,198.05469
"3299",78.51438,198.06787
"3300",80.68726,198.08105
"3301",83.03105,198.09424
"3302",85.25277,198.10742
"3303",87.07408,198.1206
"3304",88.35096,198.13379
"3305",89.05409,198.14697
"3306",89.22743,198.16016
"3307",88.95888,198.17334
"3308",88.375374,198.18652
"3309",87.6112,198.1997
"3310",86.77623,198.21289
"3311",85.95346,198.22607
"3312",85.19905,198.23926
"3313",84.525215,198.25244
"3314",83.91974,198.26562
"3315",83.36797,198.27881
"3316",82.86748,198.29199
"3317",82.42802,198.30518
"3318",82.06668,198.31836
"3319",81.79813,198.33154
"3320",81.617455,198.34473
"3321",81.50515,198.35791
"3322",81.42947,198.3711
"3323",81.3489,198.38428
"3324",81.23903,198.39746
"3325",81.075455,198.41064
"3326",80.84108,198.42383
"3327",80.53834,198.43701
"3328",80.164795,198.4502
"3329",79.742424,198.46338
"3330",79.28344,198.47656
"3331",78.81224,198.48975
"3332",78.34104,198.50293
"3333",77.89426,198.51611
"3334",77.47677,198.5293
"3335",77.100784,198.54248
"3336",76.773636,198.55566
"3337",76.50263,198.56885
"3338",76.28535,198.58203
"3339",76.11444,198.59521
"3340",75.98016,198.6084
"3341",75.88495,198.62158
"3342",75.81171,198.63477
"3343",75.76288,198.64795
"3344",75.72869,198.66113
"3345",75.70916,198.67432
"3346",75.69207,198.6875
"3347",75.67498,198.70068
"3348",75.65545,198.71387
"3349",75.63592,198.72705
"3350",75.613945,198.74023
"3351",75.59441,198.75342
"3352",75.57488,198.7666
"3353",75.55535,198.77979
"3354",75.53094,198.79297
"3355",75.4992,198.80615
"3356",75.46258,198.81934
"3357",75.41375,198.83252
"3358",75.35027,198.8457
"3359",75.28191,198.85889
"3360",75.23064,198.87207
"3361",75.27703,198.88525
"3362",75.56756,198.89844
"3363",76.27558,198.91162
"3364",77.51339,198.9248
"3365",79.27123,198.93799
"3366",81.40017,198.95117
"3367",83.6585,198.96436
"3368",85.753265,198.97754
"3369",87.432976,198.99072
"3370",88.57801,199.0039
"3371",89.1664,199.01709
"3372",89.249405,199.03027
"3373",88.91249,199.04346
"3374",88.28016,199.05664
"3375",87.47448,199.06982
"3376",86.60044,199.08301
"3377",85.73373,199.09619
"3378",84.9305,199.10938
"3379",84.20294,199.12256
"3380",83.546196,199.13574
"3381",82.95781,199.14893
"3382",82.44511,199.16211
"3383",82.01541,199.1753
"3384",81.688255,199.18848
"3385",81.46853,199.20166
"3386",81.34402,199.21484
"3387",81.29275,199.22803
"3388",81.27322,199.24121
"3389",81.253685,199.2544
"3390",81.20485,199.26758
"3391",81.10475,199.28076
"3392",80.93385,199.29395
"3393",80.69459,199.30713
"3394",80.39185,199.32031
"3395",80.03296,199.3335
"3396",79.639885,199.34668
"3397",79.237045,199.35986
"3398",78.836655,199.37305
"3399",78.46067,199.38623
"3400",78.12375,199.39941
"3401",77.82834,199.4126
"3402",77.576866,199.42578
"3403",77.37179,199.43896
"3404",77.21309,199.45215
"3405",77.08858,199.46533
"3406",76.998245,199.47852
"3407",76.93721,199.4917
"3408",76.89082,199.50488
"3409",76.8542,199.51807
"3410",76.82002,199.53125
"3411",76.78096,199.54443
"3412",76.732124,199.55762
"3413",76.67597,199.5708
"3414",76.610054,199.58398
"3415",76.541695,199.59717
"3416",76.46845,199.61035
"3417",76.39277,199.62354
"3418",76.30976,199.63672
"3419",76.21942,199.6499
"3420",76.11444,199.66309
"3421",76.00946,199.67627
"3422",75.93378,199.68945
"3423",75.97284,199.70264
"3424",76.265816,199.71582
"3425",76.97383,199.729
"3426",78.187225,199.74219
"3427",79.871826,199.75537
"3428",81.87625,199.76855
"3429",83.95392,199.78174
"3430",85.83627,199.79492
"3431",87.310905,199.8081
"3432",88.2826,199.82129
"3433",88.73914,199.83447
"3434",88.7367,199.84766
"3435",88.36317,199.86084
"3436",87.728386,199.87402
"3437",86.93492,199.8872
"3438",86.082855,199.90039
"3439",85.240555,199.91357
"3440",84.439766,199.92676
"3441",83.69756,199.93994
"3442",83.01152,199.95312
"3443",82.39384,199.96631
"3444",81.85672,199.97949
"3445",81.427025,199.99268
"3446",81.129166,200.00586
"3447",80.96315,200.01904
"3448",80.90456,200.03223
"3449",80.92653,200.04541
"3450",80.972916,200.0586
"3451",80.99733,200.07178
"3452",80.96559,200.08496
"3453",80.84596,200.09814
"3454",80.63355,200.11133
"3455",80.33326,200.12451
"3456",79.95972,200.1377
"3457",79.537346,200.15088
"3458",79.09056,200.16406
"3459",78.643776,200.17725
"3460",78.2092,200.19043
"3461",77.803925,200.20361
"3462",77.437706,200.2168
"3463",77.120316,200.22998
"3464",76.8542,200.24316
"3465",76.63691,200.25635
"3466",76.470894,200.26953
"3467",76.351265,200.28271
"3468",76.265816,200.2959
"3469",76.2121,200.30908
"3470",76.18036,200.32227
"3471",76.155945,200.33545
"3472",76.14374,200.34863
"3473",76.12909,200.36182
"3474",76.11932,200.375
"3475",76.10712,200.38818
"3476",76.09491,200.40137
"3477",76.07294,200.41455
"3478",76.033875,200.42773
"3479",75.9704,200.44092
"3480",75.88495,200.4541
"3481",75.79706,200.46729
"3482",75.78485,200.48047
"3483",75.98749,200.49365
"3484",76.57343,200.50684
"3485",77.6672,200.52002
"3486",79.26879,200.5332
"3487",81.25613,200.54639
"3488",83.39483,200.55957
"3489",85.40414,200.57275
"3490",87.044785,200.58594
"3491",88.18982,200.59912
"3492",88.80995,200.6123
"3493",88.94911,200.62549
"3494",88.69276,200.63867
"3495",88.15564,200.65186
"3496",87.447624,200.66504
"3497",86.67368,200.67822
"3498",85.926605,200.6914
"3499",85.25277,200.70459
"3500",84.664375,200.71777
"3501",84.15167,200.73096
"3502",83.69024,200.74414
"3503",83.265434,200.75732
"3504",82.88457,200.77051
"3505",82.564735,200.78369
"3506",82.320595,200.79688
"3507",82.159454,200.81006
"3508",82.05936,200.82324
"3509",81.991,200.83643
"3510",81.917755,200.84961
"3511",81.812775,200.8628
"3512",81.651634,200.87598
"3513",81.42458,200.88916
"3514",81.129166,200.90234
"3515",80.76051,200.91553
"3516",80.33814,200.92871
"3517",79.869385,200.9419
"3518",79.38354,200.95508
"3519",78.89525,200.96826
"3520",78.42893,200.98145
"3521",78.00168,200.99463
"3522",77.63058,201.00781
"3523",77.315636,201.021
"3524",77.05928,201.03418
"3525",76.85664,201.04736
"3526",76.70283,201.06055
"3527",76.592964,201.07373
"3528",76.51484,201.08691
"3529",76.46357,201.1001
"3530",76.43183,201.11328
"3531",76.40986,201.12646
"3532",76.387886,201.13965
"3533",76.36591,201.15283
"3534",76.3415,201.16602
"3535",76.314644,201.1792
"3536",76.282906,201.19238
"3537",76.243835,201.20557
"3538",76.18524,201.21875
"3539",76.10712,201.23193
"3540",76.00702,201.24512
"3541",75.8996,201.2583
"3542",75.843445,201.27148
"3543",75.948425,201.28467
"3544",76.37568,201.29785
"3545",77.261925,201.31104
"3546",78.658424,201.32422
"3547",80.49439,201.3374
"3548",82.58671,201.35059
"3549",84.664375,201.36377
"3550",86.47593,201.37695
"3551",87.835815,201.39014
"3552",88.66834,201.40332
"3553",88.98329,201.4165
"3554",88.851456,201.42969
"3555",88.38026,201.44287
"3556",87.68688,201.45605
"3557",86.88121,201.46924
"3558",86.06088,201.48242
"3559",85.28451,201.4956
"3560",84.576485,201.50879
"3561",83.931946,201.52197
"3562",83.33868,201.53516
"3563",82.78447,201.54834
"3564",82.27665,201.56152
"3565",81.832306,201.5747
"3566",81.47341,201.58789
"3567",81.20485,201.60107
"3568",81.01686,201.61426
"3569",80.88747,201.62744
"3570",80.782486,201.64062
"3571",80.672615,201.65381
"3572",80.53101,201.66699
"3573",80.33814,201.68018
"3574",80.08179,201.69336
"3575",79.764404,201.70654
"3576",79.395744,201.71973
"3577",78.992905,201.73291
"3578",78.56809,201.7461
"3579",78.14084,201.75928
"3580",77.730675,201.77246
"3581",77.347374,201.78564
"3582",77.00313,201.79883
"3583",76.71015,201.81201
"3584",76.470894,201.8252
"3585",76.27802,201.83838
"3586",76.12421,201.85156
"3587",75.99725,201.86475
"3588",75.88739,201.87793
"3589",75.79462,201.89111
"3590",75.70672,201.9043
"3591",75.62371,201.91748
"3592",75.5407,201.93066
"3593",75.457695,201.94385
"3594",75.369804,201.95703
"3595",75.27703,201.97021
"3596",75.18425,201.9834
"3597",75.089035,201.99658
"3598",74.98161,202.00977
"3599",74.8571,202.02295
"3600",74.71305,202.03613
"3601",74.5568,202.04932
"3602",74.424965,202.0625
"3603",74.40299,202.07568
"3604",74.6276,202.08887
"3605",75.26238,202.10205
"3606",76.40986,202.11523
"3607",78.06027,202.12842
"3608",80.08179,202.1416
"3609",82.2449,202.15479
"3610",84.27619,202.16797
"3611",85.943695,202.18115
"3612",87.11803,202.19434
"3613",87.7699,202.20752
"3614",87.93591,202.2207
"3615",87.708855,202.23389
"3616",87.19371,202.24707
"3617",86.505226,202.26025
"3618",85.73617,202.27344
"3619",84.95491,202.28662
"3620",84.20538,202.2998
"3621",83.49737,202.31299
"3622",82.84062,202.32617
"3623",82.247345,202.33936
"3624",81.73464,202.35254
"3625",81.31716,202.36572
"3626",81.007095,202.3789
"3627",80.8069,202.39209
"3628",80.70191,202.40527
"3629",80.65797,202.41846
"3630",80.635994,202.43164
"3631",80.601814,202.44482
"3632",80.52125,202.45801
"3633",80.36988,202.47119
"3634",80.13794,202.48438
"3635",79.82788,202.49756
"3636",79.4519,202.51074
"3637",79.01976,202.52393
"3638",78.54856,202.53711
"3639",78.05783,202.5503
"3640",77.55978,202.56348
"3641",77.07393,202.57666
"3642",76.61982,202.58984
"3643",76.207214,202.60303
"3644",75.83368,202.61621
"3645",75.508965,202.6294
"3646",75.23796,202.64258
"3647",75.01579,202.65576
"3648",74.84978,202.66895
"3649",74.74723,202.68213
"3650",74.70817,202.69531
"3651",74.720375,202.7085
"3652",74.77165,202.72168
"3653",74.85954,202.73486
"3654",74.966965,202.74805
"3655",75.07927,202.76123
"3656",75.194016,202.77441
"3657",75.299,202.7876
"3658",75.37957,202.80078
"3659",75.43084,202.81396
"3660",75.457695,202.82715
"3661",75.48211,202.84033
"3662",75.579765,202.85352
"3663",75.8703,202.8667
"3664",76.507515,202.87988
"3665",77.58907,202.89307
"3666",79.114975,202.90625
"3667",80.9778,202.91943
"3668",82.9749,202.93262
"3669",84.85481,202.9458
"3670",86.397804,202.95898
"3671",87.47448,202.97217
"3672",88.05554,202.98535
"3673",88.162964,202.99854
"3674",87.88464,203.01172
"3675",87.32067,203.0249
"3676",86.58091,203.03809
"3677",85.75815,203.05127
"3678",84.92073,203.06445
"3679",84.11261,203.07764
"3680",83.35088,203.09082
"3681",82.64042,203.104
"3682",81.988556,203.11719
"3683",81.42214,203.13037
"3684",80.96315,203.14355
"3685",80.65064,203.15674
"3686",80.49195,203.16992
"3687",80.47242,203.1831
"3688",80.56031,203.19629
"3689",80.69947,203.20947
"3690",80.82887,203.22266
"3691",80.90456,203.23584
"3692",80.88747,203.24902
"3693",80.76051,203.2622
"3694",80.51881,203.27539
"3695",80.17944,203.28857
"3696",79.764404,203.30176
"3697",79.29809,203.31494
"3698",78.8098,203.32812
"3699",78.32639,203.34131
"3700",77.8674,203.35449
"3701",77.44503,203.36768
"3702",77.07149,203.38086
"3703",76.749214,203.39404
"3704",76.4831,203.40723
"3705",76.26826,203.42041
"3706",76.104675,203.4336
"3707",75.98993,203.44678
"3708",75.91913,203.45996
"3709",75.880066,203.47314
"3710",75.86786,203.48633
"3711",75.87274,203.49951
"3712",75.880066,203.5127
"3713",75.88495,203.52588
"3714",75.87274,203.53906
"3715",75.83856,203.55225
"3716",75.78485,203.56543
"3717",75.73846,203.57861
"3718",75.7702,203.5918
"3719",76.01434,203.60498
"3720",76.61494,203.61816
"3721",77.66476,203.63135
"3722",79.16136,203.64453
"3723",80.98512,203.65771
"3724",82.92119,203.6709
"3725",84.7132,203.68408
"3726",86.14633,203.69727
"3727",87.10826,203.71045
"3728",87.569695,203.72363
"3729",87.572136,203.73682
"3730",87.2108,203.75
"3731",86.59312,203.76318
"3732",85.82651,203.77637
"3733",85.00618,203.78955
"3734",84.18829,203.80273
"3735",83.41436,203.81592
"3736",82.68925,203.8291
"3737",82.020294,203.84229
"3738",81.41482,203.85547
"3739",80.902115,203.86865
"3740",80.50172,203.88184
"3741",80.24048,203.89502
"3742",80.113525,203.9082
"3743",80.1062,203.92139
"3744",80.181885,203.93457
"3745",80.289314,203.94775
"3746",80.377205,203.96094
"3747",80.4065,203.97412
"3748",80.34791,203.9873
"3749",80.184326,204.00049
"3750",79.920654,204.01367
"3751",79.56664,204.02686
"3752",79.15404,204.04004
"3753",78.70237,204.05322
"3754",78.24338,204.0664
"3755",77.79416,204.07959
"3756",77.37911,204.09277
"3757",77.00313,204.10596
"3758",76.6833,204.11914
"3759",76.40986,204.13232
"3760",76.190125,204.14551
"3761",76.02167,204.15869
"3762",75.8996,204.17188
"3763",75.81659,204.18506
"3764",75.772644,204.19824
"3765",75.75067,204.21143
"3766",75.7409,204.22461
"3767",75.73846,204.2378
"3768",75.73113,204.25098
"3769",75.716484,204.26416
"3770",75.68719,204.27734
"3771",75.650566,204.29053
"3772",75.6408,204.30371
"3773",75.733574,204.3169
"3774",76.068054,204.33008
"3775",76.78096,204.34326
"3776",77.94797,204.35645
"3777",79.52758,204.36963
"3778",81.38308,204.38281
"3779",83.28741,204.396
"3780",84.99397,204.40918
"3781",86.31968,204.42236
"3782",87.17906,204.43555
"3783",87.56481,204.44873
"3784",87.535515,204.46191
"3785",87.17662,204.4751
"3786",86.60288,204.48828
"3787",85.91684,204.50146
"3788",85.20149,204.51465
"3789",84.51789,204.52783
"3790",83.90509,204.54102
"3791",83.35088,204.5542
"3792",82.84306,204.56738
"3793",82.36698,204.58057
"3794",81.92996,204.59375
"3795",81.53689,204.60693
"3796",81.20729,204.62012
"3797",80.953384,204.6333
"3798",80.780045,204.64648
"3799",80.66773,204.65967
"3800",80.584724,204.67285
"3801",80.5066,204.68604
"3802",80.396736,204.69922
"3803",80.23804,204.7124
"3804",80.008545,204.72559
"3805",79.710686,204.73877
"3806",79.35668,204.75195
"3807",78.958725,204.76514
"3808",78.538795,204.77832
"3809",78.118866,204.7915
"3810",77.71114,204.80469
"3811",77.32784,204.81787
"3812",76.98848,204.83105
"3813",76.68818,204.84424
"3814",76.436714,204.85742
"3815",76.23163,204.8706
"3816",76.070496,204.88379
"3817",75.945984,204.89697
"3818",75.85077,204.91016
"3819",75.78729,204.92334
"3820",75.74578,204.93652
"3821",75.72381,204.9497
"3822",75.716484,204.96289
"3823",75.716484,204.97607
"3824",75.7116,204.98926
"3825",75.69695,205.00244
"3826",75.67254,205.01562
"3827",75.62859,205.02881
"3828",75.579765,205.04199
"3829",75.54803,205.05518
"3830",75.61639,205.06836
"3831",75.91669,205.08154
"3832",76.58076,205.09473
"3833",77.68673,205.10791
"3834",79.20531,205.1211
"3835",80.99977,205.13428
"3836",82.85039,205.14746
"3837",84.51301,205.16064
"3838",85.79965,205.17383
"3839",86.6273,205.18701
"3840",86.99107,205.2002
"3841",86.95445,205.21338
"3842",86.60532,205.22656
"3843",86.05112,205.23975
"3844",85.399254,205.25293
"3845",84.732735,205.26611
"3846",84.105286,205.2793
"3847",83.546196,205.29248
"3848",83.055466,205.30566
"3849",82.61112,205.31885
"3850",82.193634,205.33203
"3851",81.795685,205.34521
"3852",81.427025,205.3584
"3853",81.10719,205.37158
"3854",80.850845,205.38477
"3855",80.66285,205.39795
"3856",80.52613,205.41113
"3857",80.41871,205.42432
"3858",80.31861,205.4375
"3859",80.19653,205.45068
"3860",80.04028,205.46387
"3861",79.835205,205.47705
"3862",79.58129,205.49023
"3863",79.273674,205.50342
"3864",78.92943,205.5166
"3865",78.56565,205.52979
"3866",78.19699,205.54297
"3867",77.838104,205.55615
"3868",77.506065,205.56934
"3869",77.205765,205.58252
"3870",76.94209,205.5957
"3871",76.715034,205.60889
"3872",76.52949,205.62207
"3873",76.38056,205.63525
"3874",76.2707,205.64844
"3875",76.18768,205.66162
"3876",76.13397,205.6748
"3877",76.102234,205.68799
"3878",76.085144,205.70117
"3879",76.07294,205.71436
"3880",76.068054,205.72754
"3881",76.06561,205.74072
"3882",76.06561,205.7539
"3883",76.05829,205.76709
"3884",76.053406,205.78027
"3885",76.04852,205.79346
"3886",76.033875,205.80664
"3887",76.00702,205.81982
"3888",75.96796,205.83301
"3889",75.91913,205.84619
"3890",75.88251,205.85938
"3891",75.931335,205.87256
"3892",76.192566,205.88574
"3893",76.805374,205.89893
"3894",77.855194,205.91211
"3895",79.327385,205.9253
"3896",81.09743,205.93848
"3897",82.94316,205.95166
"3898",84.62043,205.96484
"3899",85.93637,205.97803
"3900",86.79088,205.99121
"3901",87.1815,206.0044
"3902",87.16441,206.01758
"3903",86.82994,206.03076
"3904",86.28306,206.04395
"3905",85.62386,206.05713
"3906",84.9427,206.07031
"3907",84.30305,206.0835
"3908",83.73174,206.09668
"3909",83.23369,206.10986
"3910",82.794235,206.12305
"3911",82.39628,206.13623
"3912",82.03006,206.14941
"3913",81.69802,206.1626
"3914",81.41482,206.17578
"3915",81.19264,206.18896
"3916",81.03395,206.20215
"3917",80.93141,206.21533
"3918",80.86549,206.22852
"3919",80.80446,206.2417
"3920",80.723885,206.25488
"3921",80.59937,206.26807
"3922",80.41871,206.28125
"3923",80.181885,206.29443
"3924",79.8938,206.30762
"3925",79.569084,206.3208
"3926",79.219955,206.33398
"3927",78.86839,206.34717
"3928",78.52415,206.36035
"3929",78.19699,206.37354
"3930",77.90402,206.38672
"3931",77.645226,206.3999
"3932",77.42306,206.41309
"3933",77.239944,206.42627
"3934",77.09102,206.43945
"3935",76.97139,206.45264
"3936",76.87862,206.46582
"3937",76.81026,206.479
"3938",76.76387,206.49219
"3939",76.732124,206.50537
"3940",76.71259,206.51855
"3941",76.697945,206.53174
"3942",76.68818,206.54492
"3943",76.680855,206.5581
"3944",76.67109,206.57129
"3945",76.66132,206.58447
"3946",76.646675,206.59766
"3947",76.629585,206.61084
"3948",76.60761,206.62402
"3949",76.58076,206.6372
"3950",76.544136,206.65039
"3951",76.49287,206.66357
"3952",76.42939,206.67676
"3953",76.37568,206.68994
"3954",76.40986,206.70312
"3955",76.654,206.71631
"3956",77.24727,206.72949
"3957",78.277565,206.74268
"3958",79.73266,206.75586
"3959",81.48318,206.76904
"3960",83.3167,206.78223
"3961",84.98909,206.79541
"3962",86.30015,206.8086
"3963",87.15221,206.82178
"3964",87.54284,206.83496
"3965",87.52087,206.84814
"3966",87.1815,206.86133
"3967",86.6273,206.87451
"3968",85.960785,206.8877
"3969",85.26009,206.90088
"3970",84.58625,206.91406
"3971",83.96857,206.92725
"3972",83.41924,206.94043
"3973",82.92607,206.95361
"3974",82.48905,206.9668
"3975",82.09842,206.97998
"3976",81.76639,206.99316
"3977",81.50759,207.00635
"3978",81.32937,207.01953
"3979",81.234146,207.03271
"3980",81.20241,207.0459
"3981",81.20485,207.05908
"3982",81.20241,207.07227
"3983",81.16823,207.08545
"3984",81.08034,207.09863
"3985",80.92409,207.11182
"3986",80.70435,207.125
"3987",80.428474,207.13818
"3988",80.10864,207.15137
"3989",79.76196,207.16455
"3990",79.40307,207.17773
"3991",79.044174,207.19092
"3992",78.70481,207.2041
"3993",78.38987,207.21729
"3994",78.116425,207.23047
"3995",77.88449,207.24365
"3996",77.69405,207.25684
"3997",77.54269,207.27002
"3998",77.420616,207.2832
"3999",77.3254,207.29639
"4000",77.24971,207.30957
"4001",77.19356,207.32275
"4002",77.152054,207.33594
"4003",77.120316,207.34912
"4004",77.09346,207.3623
"4005",77.069046,207.37549
"4006",77.03975,207.38867
"4007",77.00313,207.40186
"4008",76.95918,207.41504
"4009",76.90791,207.42822
"4010",76.8542,207.4414
"4011",76.80293,207.45459
"4012",76.75166,207.46777
"4013",76.6955,207.48096
"4014",76.63203,207.49414
"4015",76.56367,207.50732
"4016",76.50507,207.52051
"4017",76.524605,207.53369
"4018",76.74189,207.54688
"4019",77.30587,207.56006
"4020",78.311745,207.57324
"4021",79.75708,207.58643
"4022",81.529564,207.59961
"4023",83.4168,207.6128
"4024",85.16243,207.62598
"4025",86.56382,207.63916
"4026",87.51354,207.65234
"4027",87.99451,207.66553
"4028",88.04822,207.67871
"4029",87.76257,207.6919
"4030",87.23033,207.70508
"4031",86.54917,207.71826
"4032",85.81186,207.73145
"4033",85.08186,207.74463
"4034",84.4007,207.75781
"4035",83.78546,207.771
"4036",83.228806,207.78418
"4037",82.73075,207.79736
"4038",82.2913,207.81055
"4039",81.92996,207.82373
"4040",81.65896,207.83691
"4041",81.4905,207.8501
"4042",81.4197,207.86328
"4043",81.42458,207.87646
"4044",81.45876,207.88965
"4045",81.49294,207.90283
"4046",81.48562,207.91602
"4047",81.409935,207.9292
"4048",81.24635,207.94238
"4049",80.99977,207.95557
"4050",80.67994,207.96875
"4051",80.306404,207.98193
"4052",79.903564,207.99512
"4053",79.49584,208.0083
"4054",79.10033,208.02148
"4055",78.7219,208.03467
"4056",78.37522,208.04785
"4057",78.06271,208.06104
"4058",77.786835,208.07422
"4059",77.55489,208.0874
"4060",77.35958,208.10059
"4061",77.20332,208.11377
"4062",77.07881,208.12695
"4063",76.9836,208.14014
"4064",76.912796,208.15332
"4065",76.8542,208.1665
"4066",76.807816,208.17969
"4067",76.771194,208.19287
"4068",76.74189,208.20605
"4069",76.71259,208.21924
"4070",76.69062,208.23242
"4071",76.67353,208.2456
"4072",76.654,208.25879
"4073",76.63447,208.27197
"4074",76.61494,208.28516
"4075",76.59052,208.29834
"4076",76.558784,208.31152
"4077",76.5124,208.3247
"4078",76.44892,208.33789
"4079",76.37568,208.35107
"4080",76.34638,208.36426
"4081",76.473335,208.37744
"4082",76.92012,208.39062
"4083",77.81369,208.40381
"4084",79.1931,208.41699
"4085",80.972916,208.43018
"4086",82.95293,208.44336
"4087",84.8719,208.45654
"4088",86.49058,208.46973
"4089",87.657585,208.48291
"4090",88.33143,208.4961
"4091",88.53895,208.50928
"4092",88.3534,208.52246
"4093",87.86511,208.53564
"4094",87.17906,208.54883
"4095",86.39048,208.56201
"4096",85.575035,208.5752
"4097",84.79378,208.58838
"4098",84.07355,208.60156
"4099",83.4168,208.61475
"4100",82.828415,208.62793
"4101",82.31327,208.64111
"4102",81.88602,208.6543
"4103",81.56863,208.66748
"4104",81.373314,208.68066
"4105",81.29763,208.69385
"4106",81.3196,208.70703
"4107",81.392845,208.72021
"4108",81.46853,208.7334
"4109",81.50515,208.74658
"4110",81.47585,208.75977
"4111",81.36111,208.77295
"4112",81.15114,208.78613
"4113",80.85817,208.79932
"4114",80.49439,208.8125
"4115",80.08179,208.82568
"4116",79.64477,208.83887
"4117",79.20531,208.85205
"4118",78.7805,208.86523
"4119",78.38743,208.87842
"4120",78.02609,208.8916
"4121",77.7087,208.90479
"4122",77.43038,208.91797
"4123",77.19356,208.93115
"4124",76.99336,208.94434
"4125",76.83223,208.95752
"4126",76.70771,208.9707
"4127",76.612495,208.98389
"4128",76.54658,208.99707
"4129",76.50507,209.01025
"4130",76.48066,209.02344
"4131",76.470894,209.03662
"4132",76.473335,209.0498
"4133",76.48066,209.06299
"4134",76.48554,209.07617
"4135",76.4831,209.08936
"4136",76.470894,209.10254
"4137",76.44404,209.11572
"4138",76.402534,209.1289
"4139",76.34638,209.14209
"4140",76.27802,209.15527
"4141",76.20477,209.16846
"4142",76.16815,209.18164
"4143",76.280464,209.19482
"4144",76.697945,209.20801
"4145",77.557335,209.22119
"4146",78.907455,209.23438
"4147",80.67994,209.24756
"4148",82.68925,209.26074
"4149",84.6717,209.27393
"4150",86.3856,209.28711
"4151",87.66735,209.3003
"4152",88.448616,209.31348
"4153",88.744026,209.32666
"4154",88.6244,209.33984
"4155",88.165405,209.35303
"4156",87.47936,209.36621
"4157",86.65659,209.3794
"4158",85.785,209.39258
"4159",84.92561,209.40576
"4160",84.11261,209.41895
"4161",83.35821,209.43213
"4162",82.67948,209.44531
"4163",82.08865,209.4585
"4164",81.60769,209.47168
"4165",81.26345,209.48486
"4166",81.07301,209.49805
"4167",81.02663,209.51123
"4168",81.09743,209.52441
"4169",81.231705,209.5376
"4170",81.3782,209.55078
"4171",81.48562,209.56396
"4172",81.514915,209.57715
"4173",81.43923,209.59033
"4174",81.25613,209.60352
"4175",80.96559,209.6167
"4176",80.59205,209.62988
"4177",80.15991,209.64307
"4178",79.69848,209.65625
"4179",79.22972,209.66943
"4180",78.77562,209.68262
"4181",78.35325,209.6958
"4182",77.97238,209.70898
"4183",77.64034,209.72217
"4184",77.36446,209.73535
"4185",77.13985,209.74854
"4186",76.96895,209.76172
"4187",76.84444,209.7749
"4188",76.76631,209.78809
"4189",76.7248,209.80127
"4190",76.71015,209.81445
"4191",76.71015,209.82764
"4192",76.72236,209.84082
"4193",76.732124,209.854
"4194",76.732124,209.86719
"4195",76.72236,209.88037
"4196",76.6955,209.89355
"4197",76.64423,209.90674
"4198",76.56855,209.91992
"4199",76.47578,209.9331
"4200",76.38056,209.94629
"4201",76.3415,209.95947
"4202",76.473335,209.97266
"4203",76.927444,209.98584
"4204",77.83322,209.99902
"4205",79.234604,210.0122
"4206",81.04616,210.02539
"4207",83.070114,210.03857
"4208",85.05501,210.05176
"4209",86.74937,210.06494
"4210",87.992065,210.07812
"4211",88.72205,210.09131
"4212",88.9662,210.10449
"4213",88.78554,210.11768
"4214",88.275276,210.13086
"4215",87.54528,210.14404
"4216",86.6981,210.15723
"4217",85.8143,210.17041
"4218",84.95003,210.1836
"4219",84.139465,210.19678
"4220",83.39239,210.20996
"4221",82.71122,210.22314
"4222",82.11551,210.23633
"4223",81.62966,210.24951
"4224",81.28054,210.2627
"4225",81.075455,210.27588
"4226",81.01198,210.28906
"4227",81.058365,210.30225
"4228",81.16579,210.31543
"4229",81.270775,210.32861
"4230",81.322044,210.3418
"4231",81.287865,210.35498
"4232",81.143814,210.36816
"4233",80.89235,210.38135
"4234",80.53834,210.39453
"4235",80.111084,210.40771
"4236",79.63744,210.4209
"4237",79.14183,210.43408
"4238",78.641335,210.44727
"4239",78.16281,210.46045
"4240",77.72335,210.47363
"4241",77.33517,210.48682
"4242",76.998245,210.5
"4243",76.717476,210.51318
"4244",76.48798,210.52637
"4245",76.30732,210.53955
"4246",76.16815,210.55273
"4247",76.070496,210.56592
"4248",76.00946,210.5791
"4249",75.9704,210.59229
"4250",75.948425,210.60547
"4251",75.9411,210.61865
"4252",75.9411,210.63184
"4253",75.94354,210.64502
"4254",75.945984,210.6582
"4255",75.94354,210.67139
"4256",75.92645,210.68457
"4257",75.88495,210.69775
"4258",75.82147,210.71094
"4259",75.76288,210.72412
"4260",75.78241,210.7373
"4261",76.02411,210.75049
"4262",76.65888,210.76367
"4263",77.803925,210.77686
"4264",79.46166,210.79004
"4265",81.50759,210.80322
"4266",83.70977,210.8164
"4267",85.78012,210.82959
"4268",87.484245,210.84277
"4269",88.68055,210.85596
"4270",89.339745,210.86914
"4271",89.498436,210.88232
"4272",89.2372,210.89551
"4273",88.66834,210.90869
"4274",87.904175,210.92188
"4275",87.04967,210.93506
"4276",86.187836,210.94824
"4277",85.3724,210.96143
"4278",84.63752,210.97461
"4279",83.97589,210.9878
"4280",83.38018,211.00098
"4281",82.85039,211.01416
"4282",82.39384,211.02734
"4283",82.020294,211.04053
"4284",81.74441,211.05371
"4285",81.56863,211.0669
"4286",81.46609,211.08008
"4287",81.40261,211.09326
"4288",81.339134,211.10645
"4289",81.24147,211.11963
"4290",81.08034,211.13281
"4291",80.84108,211.146
"4292",80.51881,211.15918
"4293",80.12573,211.17236
"4294",79.674065,211.18555
"4295",79.19066,211.19873
"4296",78.69749,211.21191
"4297",78.21164,211.2251
"4298",77.752655,211.23828
"4299",77.332726,211.25146
"4300",76.95186,211.26465
"4301",76.62226,211.27783
"4302",76.33906,211.29102
"4303",76.104675,211.3042
"4304",75.914246,211.31738
"4305",75.76532,211.33057
"4306",75.650566,211.34375
"4307",75.56756,211.35693
"4308",75.50652,211.37012
"4309",75.457695,211.3833
"4310",75.423515,211.39648
"4311",75.39178,211.40967
"4312",75.36248,211.42285
"4313",75.33318,211.43604
"4314",75.30633,211.44922
"4315",75.27703,211.4624
"4316",75.245285,211.47559
"4317",75.20378,211.48877
"4318",75.142746,211.50195
"4319",75.06706,211.51514
"4320",74.99138,211.52832
"4321",74.97673,211.5415
"4322",75.159836,211.55469
"4323",75.699394,211.56787
"4324",76.7248,211.58105
"4325",78.26536,211.59424
"4326",80.22095,211.60742
"4327",82.371864,211.6206
"4328",84.44709,211.63379
"4329",86.19028,211.64697
"4330",87.447624,211.66016
"4331",88.16785,211.67334
"4332",88.377815,211.68652
"4333",88.16052,211.6997
"4334",87.63561,211.71289
"4335",86.91783,211.72607
"4336",86.12192,211.73926
"4337",85.32357,211.75244
"4338",84.578926,211.76562
"4339",83.90265,211.77881
"4340",83.29473,211.79199
"4341",82.738075,211.80518
"4342",82.24246,211.81836
"4343",81.812775,211.83154
"4344",81.45632,211.84473
"4345",81.19508,211.85791
"4346",81.0193,211.8711
"4347",80.91432,211.88428
"4348",80.848404,211.89746
"4349",80.78493,211.91064
"4350",80.69215,211.92383
"4351",80.5481,211.93701
"4352",80.33814,211.9502
"4353",80.05493,211.96338
"4354",79.70092,211.97656
"4355",79.29565,211.98975
"4356",78.85863,212.00293
"4357",78.40696,212.01611
"4358",77.96506,212.0293
"4359",77.54513,212.04248
"4360",77.15938,212.05566
"4361",76.82002,212.06885
"4362",76.52705,212.08203
"4363",76.28535,212.09521
"4364",76.087585,212.1084
"4365",75.931335,212.12158
"4366",75.809265,212.13477
"4367",75.72137,212.14795
"4368",75.66033,212.16113
"4369",75.61639,212.17432
"4370",75.58709,212.1875
"4371",75.56756,212.20068
"4372",75.55047,212.21387
"4373",75.53826,212.22705
"4374",75.528496,212.24023
"4375",75.51873,212.25342
"4376",75.51385,212.2666
"4377",75.511406,212.27979
"4378",75.50164,212.29297
"4379",75.48699,212.30615
"4380",75.46258,212.31934
"4381",75.41863,212.33252
"4382",75.355156,212.3457
"4383",75.28191,212.35889
"4384",75.21355,212.37207
"4385",75.22331,212.38525
"4386",75.45037,212.39844
"4387",76.04852,212.41162
"4388",77.134964,212.4248
"4389",78.73167,212.43799
"4390",80.719,212.45117
"4391",82.879684,212.46436
"4392",84.93538,212.47754
"4393",86.64683,212.49072
"4394",87.86511,212.5039
"4395",88.54871,212.51709
"4396",88.724495,212.53027
"4397",88.47791,212.54346
"4398",87.92615,212.55664
"4399",87.183945,212.56982
"4400",86.366066,212.58301
"4401",85.56039,212.59619
"4402",84.81331,212.60938
"4403",84.13458,212.62256
"4404",83.526665,212.63574
"4405",82.97978,212.64893
"4406",82.493935,212.66211
"4407",82.07889,212.6753
"4408",81.75418,212.68848
"4409",81.53445,212.70166
"4410",81.40749,212.71484
"4411",81.35134,212.72803
"4412",81.324486,212.74121
"4413",81.29519,212.7544
"4414",81.22926,212.76758
"4415",81.10475,212.78076
"4416",80.89723,212.79395
"4417",80.61158,212.80713
"4418",80.25025,212.82031
"4419",79.835205,212.8335
"4420",79.38842,212.84668
"4421",78.93431,212.85986
"4422",78.49241,212.87305
"4423",78.0798,212.88623
"4424",77.69405,212.89941
"4425",77.35226,212.9126
"4426",77.05684,212.92578
"4427",76.807816,212.93896
"4428",76.60761,212.95215
"4429",76.453804,212.96533
"4430",76.33906,212.97852
"4431",76.25849,212.9917
"4432",76.19989,213.00488
"4433",76.1535,213.01807
"4434",76.11932,213.03125
"4435",76.085144,213.04443
"4436",76.050964,213.05762
"4437",76.019226,213.0708
"4438",75.98749,213.08398
"4439",75.95575,213.09717
"4440",75.92157,213.11035
"4441",75.88251,213.12354
"4442",75.84589,213.13672
"4443",75.81415,213.1499
"4444",75.789734,213.16309
"4445",75.76532,213.17627
"4446",75.73846,213.18945
"4447",75.69695,213.20264
"4448",75.63836,213.21582
"4449",75.57,213.229
"4450",75.5407,213.24219
"4451",75.65789,213.25537
"4452",76.087585,213.26855
"4453",76.97627,213.28174
"4454",78.39475,213.29492
"4455",80.28443,213.3081
"4456",82.45487,213.32129
"4457",84.6424,213.33447
"4458",86.571144,213.34766
"4459",88.04089,213.36084
"4460",88.96376,213.37402
"4461",89.34951,213.3872
"4462",89.26162,213.40039
"4463",88.80751,213.41357
"4464",88.114136,213.42676
"4465",87.293816,213.43994
"4466",86.44175,213.45312
"4467",85.626305,213.46631
"4468",84.8719,213.47949
"4469",84.18829,213.49268
"4470",83.57061,213.50586
"4471",83.021286,213.51904
"4472",82.55009,213.53223
"4473",82.17166,213.54541
"4474",81.90311,213.5586
"4475",81.74685,213.57178
"4476",81.68093,213.58496
"4477",81.671165,213.59814
"4478",81.671165,213.61133
"4479",81.64187,213.62451
"4480",81.55642,213.6377
"4481",81.3904,213.65088
"4482",81.13893,213.66406
"4483",80.80446,213.67725
"4484",80.39918,213.69043
"4485",79.940186,213.70361
"4486",79.45922,213.7168
