"","ppg","time"
"1",76.0412,915.58496
"2",76.19501,915.59814
"3",76.734566,915.6113
"4",77.81125,915.6245
"5",79.429924,915.6377
"6",81.444115,915.6509
"7",83.59258,915.66406
"8",85.56283,915.67725
"9",87.096054,915.6904
"10",88.07019,915.7036
"11",88.50477,915.7168
"12",88.48768,915.73
"13",88.1239,915.74316
"14",87.53063,915.75635
"15",86.81773,915.76953
"16",86.07065,915.7827
"17",85.35775,915.7959
"18",84.70344,915.8091
"19",84.11749,915.82227
"20",83.5877,915.83545
"21",83.10918,915.84863
"22",82.686806,915.8618
"23",82.33524,915.875
"24",82.074005,915.8882
"25",81.91043,915.90137
"26",81.829865,915.91455
"27",81.80789,915.92773
"28",81.795685,915.9409
"29",81.75662,915.9541
"30",81.6614,915.9673
"31",81.495384,915.98047
"32",81.24635,915.99365
"33",80.92653,916.00684
"34",80.5481,916.02
"35",80.130615,916.0332
"36",79.693596,916.0464
"37",79.259026,916.0596
"38",78.84154,916.07275
"39",78.450905,916.08594
"40",78.09201,916.0991
"41",77.77707,916.1123
"42",77.50118,916.1255
"43",77.26925,916.1387
"44",77.083694,916.15186
"45",76.94209,916.16504
"46",76.839554,916.1782
"47",76.76631,916.1914
"48",76.717476,916.2046
"49",76.680855,916.2178
"50",76.64912,916.23096
"51",76.61494,916.24414
"52",76.57343,916.2573
"53",76.524605,916.2705
"54",76.46601,916.2837
"55",76.404976,916.2969
"56",76.33662,916.31006
"57",76.263374,916.32324
"58",76.175476,916.3364
"59",76.07538,916.3496
"60",75.95575,916.3628
"61",75.81903,916.376
"62",75.69451,916.38916
"63",75.65301,916.40234
"64",75.83368,916.4155
"65",76.4123,916.4287
"66",77.51095,916.4419
"67",79.12474,916.4551
"68",81.09743,916.46826
"69",83.17021,916.48145
"70",85.0428,916.4946
"71",86.48081,916.5078
"72",87.37194,916.521
"73",87.73327,916.5342
"74",87.65514,916.54736
"75",87.24742,916.56055
"76",86.624855,916.5737
"77",85.88754,916.5869
"78",85.13313,916.6001
"79",84.41779,916.6133
"80",83.76837,916.62646
"81",83.1873,916.63965
"82",82.66483,916.65283
"83",82.196075,916.666
"84",81.79324,916.6792
"85",81.47097,916.6924
"86",81.24635,916.70557
"87",81.12428,916.71875
"88",81.08278,916.73193
"89",81.08278,916.7451
"90",81.08522,916.7583
"91",81.05348,916.7715
"92",80.955826,916.78467
"93",80.780045,916.79785
"94",80.51881,916.81104
"95",80.17944,916.8242
"96",79.78638,916.8374
"97",79.364006,916.8506
"98",78.941635,916.8638
"99",78.52903,916.87695
"100",78.14816,916.89014
"101",77.80148,916.9033
"102",77.49142,916.9165
"103",77.222855,916.9297
"104",76.998245,916.9429
"105",76.822464,916.95605
"106",76.68574,916.96924
"107",76.592964,916.9824
"108",76.53193,916.9956
"109",76.490425,917.0088
"110",76.46113,917.022
"111",76.439156,917.03516
"112",76.422066,917.04834
"113",76.402534,917.0615
"114",76.37568,917.0747
"115",76.3415,917.0879
"116",76.30244,917.1011
"117",76.25605,917.11426
"118",76.20477,917.12744
"119",76.15106,917.1406
"120",76.09003,917.1538
"121",76.019226,917.167
"122",75.93378,917.1802
"123",75.83612,917.19336
"124",75.7409,917.20654
"125",75.69451,917.2197
"126",75.7995,917.2329
"127",76.21698,917.2461
"128",77.08858,917.2593
"129",78.45823,917.27246
"130",80.22827,917.28564
"131",82.178986,917.2988
"132",84.03204,917.312
"133",85.53597,917.3252
"134",86.536964,917.3384
"135",87.01793,917.35156
"136",87.04967,917.36475
"137",86.73472,917.3779
"138",86.18295,917.3911
"139",85.506676,917.4043
"140",84.79622,917.4175
"141",84.12482,917.43066
"142",83.5169,917.44385
"143",82.9749,917.45703
"144",82.48417,917.4702
"145",82.04227,917.4834
"146",81.65652,917.4966
"147",81.34402,917.50977
"148",81.12428,917.52295
"149",81.004654,917.53613
"150",80.9778,917.5493
"151",81.00221,917.5625
"152",81.03639,917.5757
"153",81.03883,917.58887
"154",80.97536,917.60205
"155",80.831314,917.61523
"156",80.604256,917.6284
"157",80.308846,917.6416
"158",79.957275,917.6548
"159",79.57641,917.66797
"160",79.19798,917.68115
"161",78.836655,917.69434
"162",78.5095,917.7075
"163",78.23117,917.7207
"164",78.00412,917.7339
"165",77.82834,917.7471
"166",77.69405,917.76025
"167",77.591515,917.77344
"168",77.51339,917.7866
"169",77.44747,917.7998
"170",77.38888,917.813
"171",77.332726,917.8262
"172",77.281456,917.83936
"173",77.23262,917.85254
"174",77.18135,917.8657
"175",77.12764,917.8789
"176",77.069046,917.8921
"177",77.00557,917.9053
"178",76.93477,917.91846
"179",76.86153,917.93164
"180",76.7834,917.9448
"181",76.700386,917.958
"182",76.60761,917.9712
"183",76.50507,917.9844
"184",76.39521,917.99756
"185",76.27314,918.01074
"186",76.14618,918.0239
"187",76.02899,918.0371
"188",75.99481,918.0503
"189",76.17059,918.0635
"190",76.717476,918.07666
"191",77.730675,918.08984
"192",79.185776,918.103
"193",80.93141,918.1162
"194",82.720985,918.1294
"195",84.28596,918.1426
"196",85.43099,918.15576
"197",86.07797,918.16895
"198",86.258644,918.1821
"199",86.063324,918.1953
"200",85.59945,918.2085
"201",84.981766,918.2217
"202",84.31037,918.23486
"203",83.64629,918.24805
"204",83.04082,918.2612
"205",82.50126,918.2744
"206",82.01541,918.2876
"207",81.583275,918.3008
"208",81.214615,918.31396
"209",80.921646,918.32715
"210",80.723885,918.34033
"211",80.63111,918.3535
"212",80.63111,918.3667
"213",80.69459,918.3799
"214",80.780045,918.39307
"215",80.84596,918.40625
"216",80.86305,918.41943
"217",80.80934,918.4326
"218",80.67506,918.4458
"219",80.45777,918.459
"220",80.16968,918.47217
"221",79.83276,918.48535
"222",79.47387,918.49854
"223",79.11742,918.5117
"224",78.77806,918.5249
"225",78.47288,918.5381
"226",78.204315,918.5513
"227",77.977264,918.56445
"228",77.789276,918.57764
"229",77.64034,918.5908
"230",77.52804,918.604
"231",77.44747,918.6172
"232",77.3962,918.6304
"233",77.36446,918.64355
"234",77.35226,918.65674
"235",77.35226,918.6699
"236",77.35958,918.6831
"237",77.36446,918.6963
"238",77.36202,918.7095
"239",77.3547,918.72266
"240",77.33517,918.73584
"241",77.30099,918.749
"242",77.25948,918.7622
"243",77.20332,918.7754
"244",77.13008,918.7886
"245",77.03975,918.80176
"246",76.95186,918.81494
"247",76.88594,918.8281
"248",76.91524,918.8413
"249",77.16914,918.8545
"250",77.78195,918.8677
"251",78.819565,918.88086
"252",80.23804,918.89404
"253",81.883575,918.9072
"254",83.526665,918.9204
"255",84.92073,918.9336
"256",85.89487,918.9468
"257",86.400246,918.95996
"258",86.47593,918.97314
"259",86.204926,918.9863
"260",85.69222,918.9995
"261",85.04768,919.0127
"262",84.36164,919.0259
"263",83.69512,919.03906
"264",83.08476,919.05225
"265",82.530556,919.0654
"266",82.03494,919.0786
"267",81.600365,919.0918
"268",81.23903,919.105
"269",80.972916,919.11816
"270",80.82155,919.13135
"271",80.7776,919.14453
"272",80.82155,919.1577
"273",80.91188,919.1709
"274",80.99977,919.1841
"275",81.04372,919.19727
"276",81.0193,919.21045
"277",80.90456,919.22363
"278",80.69947,919.2368
"279",80.41871,919.25
"280",80.08179,919.2632
"281",79.71557,919.27637
"282",79.344475,919.28955
"283",78.98314,919.30273
"284",78.6511,919.3159
"285",78.35325,919.3291
"286",78.09689,919.3423
"287",77.88937,919.35547
"288",77.72335,919.36865
"289",77.5964,919.38184
"290",77.503624,919.395
"291",77.437706,919.4082
"292",77.39132,919.4214
"293",77.36202,919.4346
"294",77.34249,919.44775
"295",77.330284,919.46094
"296",77.32296,919.4741
"297",77.31808,919.4873
"298",77.30831,919.5005
"299",77.29366,919.5137
"300",77.264366,919.52686
"301",77.21797,919.54004
"302",77.14717,919.5532
"303",77.05684,919.5664
"304",76.95186,919.5796
"305",76.8542,919.5928
"306",76.79561,919.60596
"307",76.8542,919.61914
"308",77.16426,919.6323
"309",77.85275,919.6455
"310",78.975815,919.6587
"311",80.46754,919.6719
"312",82.159454,919.68506
"313",83.81232,919.69824
"314",85.189285,919.7114
"315",86.13168,919.7246
"316",86.60288,919.7378
"317",86.659035,919.751
"318",86.3856,919.76416
"319",85.88754,919.77734
"320",85.27474,919.7905
"321",84.63264,919.8037
"322",84.02716,919.8169
"323",83.48516,919.8301
"324",83.01396,919.84326
"325",82.59647,919.85645
"326",82.22049,919.8696
"327",81.87625,919.8828
"328",81.583275,919.896
"329",81.36355,919.9092
"330",81.22194,919.92236
"331",81.15114,919.93555
"332",81.13649,919.9487
"333",81.143814,919.9619
"334",81.13405,919.9751
"335",81.08278,919.9883
"336",80.96559,920.00146
"337",80.780045,920.01465
"338",80.53101,920.02783
"339",80.22339,920.041
"340",79.87427,920.0542
"341",79.51049,920.0674
"342",79.151596,920.08057
"343",78.80736,920.09375
"344",78.49729,920.10693
"345",78.22385,920.1201
"346",77.99191,920.1333
"347",77.7966,920.1465
"348",77.64034,920.15967
"349",77.51827,920.17285
"350",77.42794,920.18604
"351",77.36202,920.1992
"352",77.313194,920.2124
"353",77.2839,920.2256
"354",77.261925,920.2388
"355",77.24727,920.25195
"356",77.2375,920.26514
"357",77.22774,920.2783
"358",77.22041,920.2915
"359",77.205765,920.3047
"360",77.18379,920.3179
"361",77.14961,920.33105
"362",77.0959,920.34424
"363",77.0251,920.3574
"364",76.929886,920.3706
"365",76.82979,920.3838
"366",76.75899,920.397
"367",76.78584,920.41016
"368",77.02998,920.42334
"369",77.63058,920.4365
"370",78.65598,920.4497
"371",80.062256,920.4629
"372",81.70779,920.4761
"373",83.3753,920.48926
"374",84.81819,920.50244
"375",85.86069,920.5156
"376",86.44175,920.5288
"377",86.58579,920.542
"378",86.36851,920.5552
"379",85.90463,920.56836
"380",85.296715,920.58154
"381",84.644844,920.5947
"382",84.01251,920.6079
"383",83.438774,920.6211
"384",82.92363,920.6343
"385",82.459755,920.64746
"386",82.039825,920.66064
"387",81.66628,920.6738
"388",81.356224,920.687
"389",81.13405,920.7002
"390",80.99977,920.7134
"391",80.953384,920.72656
"392",80.96071,920.73975
"393",80.990005,920.7529
"394",80.99977,920.7661
"395",80.96315,920.7793
"396",80.850845,920.7925
"397",80.66041,920.80566
"398",80.396736,920.81885
"399",80.07202,920.83203
"400",79.710686,920.8452
"401",79.33715,920.8584
"402",78.96605,920.8716
"403",78.61692,920.88477
"404",78.30442,920.89795
"405",78.03342,920.91113
"406",77.806366,920.9243
"407",77.62325,920.9375
"408",77.47921,920.9507
"409",77.37423,920.96387
"410",77.296104,920.97705
"411",77.24727,920.99023
"412",77.21553,921.0034
"413",77.196,921.0166
"414",77.17647,921.0298
"415",77.154495,921.04297
"416",77.1252,921.05615
"417",77.09346,921.06934
"418",77.05928,921.0825
"419",77.02266,921.0957
"420",76.97627,921.1089
"421",76.91768,921.1221
"422",76.839554,921.13525
"423",76.74433,921.14844
"424",76.63691,921.1616
"425",76.54658,921.1748
"426",76.52705,921.188
"427",76.700386,921.2012
"428",77.20088,921.21436
"429",78.12863,921.22754
"430",79.46899,921.2407
"431",81.10231,921.2539
"432",82.81377,921.2671
"433",84.3592,921.2803
"434",85.53353,921.29346
"435",86.24887,921.30664
"436",86.522316,921.3198
"437",86.42466,921.333
"438",86.046234,921.3462
"439",85.504234,921.3594
"440",84.89632,921.37256
"441",84.300606,921.38574
"442",83.76105,921.3989
"443",83.28985,921.4121
"444",82.87236,921.4253
"445",82.48905,921.4385
"446",82.13504,921.45166
"447",81.815216,921.46484
"448",81.54421,921.478
"449",81.3489,921.4912
"450",81.22682,921.5044
"451",81.16579,921.5176
"452",81.13161,921.53076
"453",81.092545,921.54395
"454",81.02174,921.5571
"455",80.89967,921.5703
"456",80.719,921.5835
"457",80.47486,921.5967
"458",80.184326,921.60986
"459",79.85718,921.62305
"460",79.51049,921.6362
"461",79.15648,921.6494
"462",78.81224,921.6626
"463",78.487526,921.6758
"464",78.19943,921.68896
"465",77.95285,921.70215
"466",77.7551,921.71533
"467",77.5964,921.7285
"468",77.47677,921.7417
"469",77.38155,921.7549
"470",77.30587,921.76807
"471",77.239944,921.78125
"472",77.188675,921.79443
"473",77.14229,921.8076
"474",77.0959,921.8208
"475",77.0544,921.834
"476",77.015335,921.84717
"477",76.97139,921.86035
"478",76.927444,921.87354
"479",76.88594,921.8867
"480",76.841995,921.8999
"481",76.79561,921.9131
"482",76.74433,921.9263
"483",76.6833,921.93945
"484",76.61738,921.95264
"485",76.53925,921.9658
"486",76.45136,921.979
"487",76.35615,921.9922
"488",76.26826,922.0054
"489",76.22186,922.01855
"490",76.30488,922.03174
"491",76.654,922.0449
"492",77.41085,922.0581
"493",78.61448,922.0713
"494",80.19409,922.0845
"495",81.96414,922.09766
"496",83.67559,922.11084
"497",85.084305,922.124
"498",86.04379,922.1372
"499",86.52476,922.1504
"500",86.58579,922.1636
"501",86.31968,922.17676
"502",85.83627,922.18994
"503",85.23811,922.2031
"504",84.61555,922.2163
"505",84.03204,922.2295
"506",83.5169,922.2427
"507",83.06767,922.25586
"508",82.669716,922.26904
"509",82.30839,922.2822
"510",81.97879,922.2954
"511",81.69558,922.3086
"512",81.47341,922.3218
"513",81.32937,922.33496
"514",81.25857,922.34814
"515",81.24391,922.3613
"516",81.24635,922.3745
"517",81.23659,922.3877
"518",81.18532,922.4009
"519",81.07301,922.41406
"520",80.89235,922.42725
"521",80.64088,922.4404
"522",80.33326,922.4536
"523",79.98657,922.4668
"524",79.62035,922.48
"525",79.26147,922.49316
"526",78.922104,922.50635
"527",78.61448,922.51953
"528",78.348366,922.5327
"529",78.12131,922.5459
"530",77.93576,922.5591
"531",77.79172,922.57227
"532",77.69405,922.58545
"533",77.62325,922.59863
"534",77.57931,922.6118
"535",77.54757,922.625
"536",77.52071,922.6382
"537",77.49386,922.65137
"538",77.467,922.66455
"539",77.437706,922.67773
"540",77.40597,922.6909
"541",77.36935,922.7041
"542",77.330284,922.7173
"543",77.2839,922.73047
"544",77.22774,922.74365
"545",77.15694,922.75684
"546",77.07393,922.77
"547",76.97383,922.7832
"548",76.859085,922.7964
"549",76.734566,922.8096
"550",76.61494,922.82275
"551",76.524605,922.83594
"552",76.53437,922.8491
"553",76.76875,922.8623
"554",77.37911,922.8755
"555",78.45823,922.8887
"556",79.98413,922.90186
"557",81.80789,922.91504
"558",83.69268,922.9282
"559",85.36019,922.9414
"560",86.607765,922.9546
"561",87.34264,922.9678
"562",87.59167,922.98096
"563",87.4403,922.99414
"564",86.9984,923.0073
"565",86.37339,923.0205
"566",85.66537,923.0337
"567",84.94026,923.0469
"568",84.242004,923.06006
"569",83.58526,923.07324
"570",82.967575,923.0864
"571",82.391396,923.0996
"572",81.87137,923.1128
"573",81.427025,923.126
"574",81.075455,923.13916
"575",80.82887,923.15234
"576",80.68482,923.1655
"577",80.61158,923.1787
"578",80.57496,923.1919
"579",80.54322,923.2051
"580",80.482185,923.21826
"581",80.37232,923.23145
"582",80.19653,923.2446
"583",79.94995,923.2578
"584",79.64477,923.271
"585",79.29565,923.2842
"586",78.924545,923.29736
"587",78.551,923.31055
"588",78.19699,923.3237
"589",77.874725,923.3369
"590",77.5964,923.3501
"591",77.366905,923.3633
"592",77.18135,923.37646
"593",77.04463,923.38965
"594",76.94209,923.40283
"595",76.87862,923.416
"596",76.83467,923.4292
"597",76.8127,923.4424
"598",76.80049,923.45557
"599",76.79317,923.46875
"600",76.7834,923.48193
"601",76.771194,923.4951
"602",76.75166,923.5083
"603",76.72724,923.5215
"604",76.700386,923.53467
"605",76.66865,923.54785
"606",76.63935,923.56104
"607",76.61494,923.5742
"608",76.595406,923.5874
"609",76.57343,923.6006
"610",76.544136,923.6138
"611",76.507515,923.62695
"612",76.456245,923.64014
"613",76.40009,923.6533
"614",76.34882,923.6665
"615",76.33906,923.6797
"616",76.44648,923.6929
"617",76.80293,923.70605
"618",77.540245,923.71924
"619",78.71702,923.7324
"620",80.28199,923.7456
"621",82.06668,923.7588
"622",83.844055,923.772
"623",85.35775,923.78516
"624",86.44907,923.79834
"625",87.05699,923.8115
"626",87.22301,923.8247
"627",87.030136,923.8379
"628",86.588234,923.8511
"629",86.00229,923.86426
"630",85.36996,923.87744
"631",84.76204,923.8906
"632",84.207825,923.9038
"633",83.71221,923.917
"634",83.26055,923.9302
"635",82.83574,923.94336
"636",82.42802,923.95654
"637",82.04959,923.9697
"638",81.71511,923.9829
"639",81.44167,923.9961
"640",81.23903,924.0093
"641",81.09743,924.02246
"642",80.99245,924.03564
"643",80.88991,924.0488
"644",80.762955,924.062
"645",80.59693,924.0752
"646",80.37476,924.0884
"647",80.096436,924.10156
"648",79.76929,924.11475
"649",79.40795,924.1279
"650",79.027084,924.1411
"651",78.641335,924.1543
"652",78.27024,924.1675
"653",77.92844,924.18066
"654",77.625694,924.19385
"655",77.36935,924.20703
"656",77.152054,924.2202
"657",76.981155,924.2334
"658",76.84688,924.2466
"659",76.74677,924.25977
"660",76.66865,924.27295
"661",76.612495,924.28613
"662",76.56855,924.2993
"663",76.53193,924.3125
"664",76.50263,924.3257
"665",76.470894,924.33887
"666",76.4416,924.35205
"667",76.402534,924.36523
"668",76.36103,924.3784
"669",76.317085,924.3916
"670",76.27558,924.4048
"671",76.23651,924.41797
"672",76.19745,924.43115
"673",76.155945,924.44434
"674",76.11444,924.4575
"675",76.06317,924.4707
"676",76.01434,924.4839
"677",75.965515,924.4971
"678",75.914246,924.51025
"679",75.86786,924.52344
"680",75.83124,924.5366
"681",75.85321,924.5498
"682",76.04852,924.563
"683",76.575874,924.5762
"684",77.55245,924.58936
"685",78.99046,924.60254
"686",80.762955,924.6157
"687",82.6453,924.6289
"688",84.36652,924.6421
"689",85.69955,924.6553
"690",86.53452,924.66846
"691",86.890976,924.68164
"692",86.84215,924.6948
"693",86.49546,924.708
"694",85.9559,924.7212
"695",85.32601,924.7344
"696",84.68879,924.74756
"697",84.09796,924.76074
"698",83.580376,924.7739
"699",83.12627,924.7871
"700",82.72587,924.8003
"701",82.36454,924.8135
"702",82.039825,924.82666
"703",81.761505,924.83984
"704",81.54665,924.853
"705",81.409935,924.8662
"706",81.34402,924.8794
"707",81.324486,924.8926
"708",81.31716,924.90576
"709",81.29519,924.91895
"710",81.22926,924.9321
"711",81.09987,924.9453
"712",80.902115,924.9585
"713",80.638435,924.9717
"714",80.323494,924.98486
"715",79.97681,924.99805
"716",79.61303,925.0112
"717",79.2517,925.0244
"718",78.907455,925.0376
"719",78.58762,925.0508
"720",78.30198,925.06396
"721",78.05783,925.07715
"722",77.85031,925.09033
"723",77.68673,925.1035
"724",77.55978,925.1167
"725",77.45968,925.1299
"726",77.38155,925.14307
"727",77.3254,925.15625
"728",77.281456,925.16943
"729",77.24727,925.1826
"730",77.21553,925.1958
"731",77.18379,925.209
"732",77.14717,925.22217
"733",77.10567,925.23535
"734",77.05928,925.24854
"735",77.01045,925.2617
"736",76.95674,925.2749
"737",76.90303,925.2881
"738",76.84688,925.3013
"739",76.788284,925.31445
"740",76.732124,925.32764
"741",76.67841,925.3408
"742",76.629585,925.354
"743",76.58076,925.3672
"744",76.52705,925.3804
"745",76.456245,925.39355
"746",76.37568,925.40674
"747",76.299995,925.4199
"748",76.27558,925.4331
"749",76.422066,925.4463
"750",76.910355,925.4595
"751",77.874725,925.47266
"752",79.33959,925.48584
"753",81.1902,925.499
"754",83.19707,925.5122
"755",85.06966,925.5254
"756",86.556496,925.5386
"757",87.52575,925.55176
"758",87.97986,925.56494
"759",87.992065,925.5781
"760",87.674675,925.5913
"761",87.13512,925.6045
"762",86.48081,925.6177
"763",85.79721,925.63086
"764",85.138016,925.64404
"765",84.53986,925.6572
"766",83.99786,925.6704
"767",83.51446,925.6836
"768",83.08232,925.6968
"769",82.70878,925.70996
"770",82.39872,925.72314
"771",82.1741,925.7363
"772",82.039825,925.7495
"773",81.97879,925.7627
"774",81.969025,925.7759
"775",81.98123,925.78906
"776",81.97391,925.80225
"777",81.91043,925.8154
"778",81.77615,925.8286
"779",81.55642,925.8418
"780",81.25857,925.855
"781",80.89967,925.86816
"782",80.5066,925.88135
"783",80.096436,925.89453
"784",79.68871,925.9077
"785",79.29565,925.9209
"786",78.92943,925.9341
"787",78.59739,925.94727
"788",78.30198,925.96045
"789",78.05295,925.97363
"790",77.85275,925.9868
"791",77.696495,926
"792",77.574425,926.0132
"793",77.488976,926.02637
"794",77.4255,926.03955
"795",77.383995,926.05273
"796",77.35714,926.0659
"797",77.34005,926.0791
"798",77.32052,926.0923
"799",77.296104,926.10547
"800",77.261925,926.11865
"801",77.21553,926.13184
"802",77.15694,926.145
"803",77.0959,926.1582
"804",77.032425,926.1714
"805",76.97139,926.1846
"806",76.91768,926.19775
"807",76.86153,926.21094
"808",76.805374,926.2241
"809",76.74677,926.2373
"810",76.68818,926.2505
"811",76.61982,926.2637
"812",76.544136,926.27686
"813",76.46845,926.29004
"814",76.40742,926.3032
"815",76.42451,926.3164
"816",76.65888,926.3296
"817",77.28634,926.3428
"818",78.42405,926.35596
"819",80.045166,926.36914
"820",81.99344,926.3823
"821",83.99786,926.3955
"822",85.7728,926.4087
"823",87.08873,926.4219
"824",87.86023,926.43506
"825",88.12146,926.44824
"826",87.97009,926.4614
"827",87.51354,926.4746
"828",86.86412,926.4878
"829",86.12192,926.501
"830",85.367516,926.51416
"831",84.65705,926.52734
"832",84.00519,926.5405
"833",83.4168,926.5537
"834",82.88457,926.5669
"835",82.41581,926.5801
"836",82.022736,926.59326
"837",81.7322,926.60645
"838",81.55886,926.6196
"839",81.497826,926.6328
"840",81.52224,926.646
"841",81.5906,926.6592
"842",81.64919,926.67236
"843",81.66384,926.68555
"844",81.60525,926.6987
"845",81.45632,926.7119
"846",81.21706,926.7251
"847",80.88991,926.7383
"848",80.50416,926.75146
"849",80.079346,926.76465
"850",79.64477,926.77783
"851",79.21507,926.791
"852",78.80736,926.8042
"853",78.43137,926.8174
"854",78.099335,926.83057
"855",77.81613,926.84375
"856",77.58419,926.85693
"857",77.3962,926.8701
"858",77.24971,926.8833
"859",77.137405,926.8965
"860",77.0544,926.90967
"861",77.00069,926.92285
"862",76.96895,926.93604
"863",76.944534,926.9492
"864",76.92256,926.9624
"865",76.89815,926.9756
"866",76.86153,926.9888
"867",76.822464,927.00195
"868",76.77608,927.01514
"869",76.732124,927.0283
"870",76.680855,927.0415
"871",76.63203,927.0547
"872",76.58076,927.0679
"873",76.52949,927.08105
"874",76.473335,927.09424
"875",76.4123,927.1074
"876",76.33906,927.1206
"877",76.25117,927.1338
"878",76.15106,927.147
"879",76.06073,927.16016
"880",76.053406,927.17334
"881",76.27558,927.1865
"882",76.925,927.1997
"883",78.12863,927.2129
"884",79.871826,927.2261
"885",81.98123,927.23926
"886",84.17609,927.25244
"887",86.13901,927.2656
"888",87.61608,927.2788
"889",88.51209,927.292
"890",88.868546,927.3052
"891",88.780655,927.31836
"892",88.360725,927.33154
"893",87.72106,927.3447
"894",86.97154,927.3579
"895",86.1976,927.3711
"896",85.45785,927.3843
"897",84.78157,927.39746
"898",84.1712,927.41064
"899",83.614555,927.4238
"900",83.11406,927.437
"901",82.67704,927.4502
"902",82.32792,927.4634
"903",82.08621,927.47656
"904",81.95682,927.48975
"905",81.92264,927.5029
"906",81.94705,927.5161
"907",81.97879,927.5293
"908",81.97391,927.5425
"909",81.90799,927.55566
"910",81.75906,927.56885
"911",81.51736,927.58203
"912",81.19508,927.5952
"913",80.8069,927.6084
"914",80.37476,927.6216
"915",79.91577,927.63477
"916",79.4519,927.64795
"917",79.00023,927.66113
"918",78.572975,927.6743
"919",78.187225,927.6875
"920",77.855194,927.7007
"921",77.574425,927.71387
"922",77.35226,927.72705
"923",77.18379,927.74023
"924",77.05684,927.7534
"925",76.96651,927.7666
"926",76.90791,927.7798
"927",76.86641,927.79297
"928",76.839554,927.80615
"929",76.82002,927.81934
"930",76.79805,927.8325
"931",76.773636,927.8457
"932",76.74433,927.8589
"933",76.70283,927.8721
"934",76.65888,927.88525
"935",76.60273,927.89844
"936",76.53681,927.9116
"937",76.456245,927.9248
"938",76.36347,927.938
"939",76.25849,927.9512
"940",76.13641,927.96436
"941",75.999695,927.97754
"942",75.880066,927.9907
"943",75.83856,928.0039
"944",76.03143,928.0171
"945",76.63691,928.0303
"946",77.79172,928.04346
"947",79.48119,928.05664
"948",81.53933,928.0698
"949",83.69512,928.083
"950",85.63119,928.0962
"951",87.113144,928.1094
"952",88.02869,928.12256
"953",88.40223,928.13574
"954",88.326546,928.1489
"955",87.90662,928.1621
"956",87.25231,928.1753
"957",86.47593,928.1885
"958",85.67025,928.20166
"959",84.89632,928.21484
"960",84.173645,928.228
"961",83.51446,928.2412
"962",82.913864,928.2544
"963",82.38163,928.2676
"964",81.94461,928.28076
"965",81.62722,928.29395
"966",81.444115,928.3071
"967",81.392845,928.3203
"968",81.43435,928.3335
"969",81.51736,928.3467
"970",81.59304,928.35986
"971",81.617455,928.37305
"972",81.55642,928.3862
"973",81.392845,928.3994
"974",81.12428,928.4126
"975",80.765396,928.4258
"976",80.33326,928.43896
"977",79.85718,928.45215
"978",79.364006,928.46533
"979",78.88304,928.4785
"980",78.43137,928.4917
"981",78.02609,928.5049
"982",77.67696,928.51807
"983",77.39376,928.53125
"984",77.16182,928.54443
"985",76.9836,928.5576
"986",76.84688,928.5708
"987",76.75166,928.584
"988",76.67841,928.59717
"989",76.63447,928.61035
"990",76.60517,928.62354
"991",76.58564,928.6367
"992",76.56611,928.6499
"993",76.544136,928.6631
"994",76.5124,928.6763
"995",76.47578,928.68945
"996",76.42939,928.70264
"997",76.37812,928.7158
"998",76.31953,928.729
"999",76.26093,928.7422
"1000",76.19501,928.7554
"1001",76.12421,928.76855
"1002",76.0412,928.78174
"1003",75.95087,928.7949
"1004",75.84589,928.8081
"1005",75.733574,928.8213
"1006",75.6408,928.8345
"1007",75.63348,928.84766
"1008",75.860535,928.86084
"1009",76.51972,928.874
"1010",77.76486,928.8872
"1011",79.586174,928.9004
"1012",81.832306,928.9136
"1013",84.21759,928.92676
"1014",86.41245,928.93994
"1015",88.13611,928.9531
"1016",89.25918,928.9663
"1017",89.79385,928.9795
"1018",89.82803,928.9927
"1019",89.46914,929.00586
"1020",88.84657,929.01904
"1021",88.079956,929.0322
"1022",87.2694,929.0454
"1023",86.48814,929.0586
"1024",85.770355,929.0718
"1025",85.118484,929.08496
"1026",84.525215,929.09814
"1027",83.983215,929.1113
"1028",83.50225,929.1245
"1029",83.09453,929.1377
"1030",82.77959,929.1509
"1031",82.564735,929.16406
"1032",82.43778,929.17725
"1033",82.36454,929.1904
"1034",82.30839,929.2036
"1035",82.22781,929.2168
"1036",82.091095,929.23
"1037",81.87625,929.24316
"1038",81.57839,929.25635
"1039",81.19997,929.26953
"1040",80.75075,929.2827
"1041",80.26246,929.2959
"1042",79.74731,929.3091
"1043",79.23949,929.32227
"1044",78.74876,929.33545
"1045",78.294655,929.34863
"1046",77.88693,929.3618
"1047",77.53536,929.375
"1048",77.2375,929.3882
"1049",76.99336,929.40137
"1050",76.807816,929.41455
"1051",76.66865,929.42773
"1052",76.57099,929.4409
"1053",76.50507,929.4541
"1054",76.45869,929.4673
"1055",76.422066,929.48047
"1056",76.387886,929.49365
"1057",76.34882,929.50684
"1058",76.30488,929.52
"1059",76.25117,929.5332
"1060",76.18768,929.5464
"1061",76.11688,929.5596
"1062",76.0412,929.57275
"1063",75.95575,929.58594
"1064",75.86542,929.5991
"1065",75.772644,929.6123
"1066",75.67254,929.6255
"1067",75.560234,929.6387
"1068",75.43816,929.65186
"1069",75.30877,929.66504
"1070",75.17937,929.6782
"1071",75.09392,929.6914
"1072",75.16228,929.7046
"1073",75.55535,929.7178
"1074",76.44892,929.73096
"1075",77.91135,929.74414
"1076",79.8645,929.7573
"1077",82.091095,929.7705
"1078",84.283516,929.7837
"1079",86.136566,929.7969
"1080",87.45495,929.81006
"1081",88.18738,929.82324
"1082",88.39246,929.8364
"1083",88.17273,929.8496
"1084",87.64782,929.8628
"1085",86.94713,929.876
"1086",86.17319,929.88916
"1087",85.41146,929.90234
"1088",84.70832,929.9155
"1089",84.07355,929.9287
"1090",83.49493,929.9419
"1091",82.96269,929.9551
"1092",82.48417,929.96826
"1093",82.074005,929.98145
"1094",81.76395,929.9946
"1095",81.5613,930.0078
"1096",81.463646,930.021
"1097",81.43923,930.0342
"1098",81.43923,930.04736
"1099",81.42214,930.06055
"1100",81.35134,930.0737
"1101",81.19508,930.0869
"1102",80.94606,930.1001
"1103",80.604256,930.1133
"1104",80.18921,930.12646
"1105",79.727776,930.13965
"1106",79.24925,930.15283
"1107",78.77806,930.166
"1108",78.32395,930.1792
"1109",77.90646,930.1924
"1110",77.53536,930.20557
"1111",77.21309,930.21875
"1112",76.946976,930.23193
"1113",76.73701,930.2451
"1114",76.58076,930.2583
"1115",76.46601,930.2715
"1116",76.39033,930.28467
"1117",76.33906,930.29785
"1118",76.30976,930.31104
"1119",76.29023,930.3242
"1120",76.27802,930.3374
"1121",76.263374,930.3506
"1122",76.24628,930.3638
"1123",76.21942,930.37695
"1124",76.18768,930.39014
"1125",76.15106,930.4033
"1126",76.10712,930.4165
"1127",76.053406,930.4297
"1128",75.98993,930.4429
"1129",75.90692,930.45605
"1130",75.80438,930.46924
"1131",75.68963,930.4824
"1132",75.58709,930.4956
"1133",75.545586,930.5088
"1134",75.6701,930.522
"1135",76.11444,930.53516
"1136",77.01289,930.54834
"1137",78.39475,930.5615
"1138",80.17212,930.5747
"1139",82.1326,930.5879
"1140",84.00275,930.6011
"1141",85.53597,930.61426
"1142",86.58091,930.62744
"1143",87.10582,930.6406
"1144",87.1693,930.6538
"1145",86.869,930.667
"1146",86.31724,930.6802
"1147",85.626305,930.69336
"1148",84.893875,930.70654
"1149",84.18585,930.7197
"1150",83.529106,930.7329
"1151",82.930954,930.7461
"1152",82.38407,930.7593
"1153",81.900665,930.77246
"1154",81.4905,930.78564
"1155",81.17311,930.7988
"1156",80.970474,930.812
"1157",80.88014,930.8252
"1158",80.88258,930.8384
"1159",80.93141,930.85156
"1160",80.98268,930.86475
"1161",80.99733,930.8779
"1162",80.94606,930.8911
"1163",80.80446,930.9043
"1164",80.567635,930.9175
"1165",80.24292,930.93066
"1166",79.852295,930.94385
"1167",79.41772,930.95703
"1168",78.97337,930.9702
"1169",78.54124,930.9834
"1170",78.1384,930.9966
"1171",77.77463,931.00977
"1172",77.45968,931.02295
"1173",77.20088,931.03613
"1174",76.99092,931.0493
"1175",76.83223,931.0625
"1176",76.71015,931.0757
"1177",76.61982,931.08887
"1178",76.54902,931.10205
"1179",76.49287,931.11523
"1180",76.44648,931.1284
"1181",76.402534,931.1416
"1182",76.36103,931.1548
"1183",76.32197,931.16797
"1184",76.282906,931.18115
"1185",76.24628,931.19434
"1186",76.207214,931.2075
"1187",76.16327,931.2207
"1188",76.112,931.2339
"1189",76.04852,931.2471
"1190",75.97528,931.26025
"1191",75.88983,931.27344
"1192",75.79706,931.2866
"1193",75.699394,931.2998
"1194",75.62127,931.313
"1195",75.5993,931.3262
"1196",75.72625,931.33936
"1197",76.1535,931.35254
"1198",77.0251,931.3657
"1199",78.38743,931.3789
"1200",80.16724,931.3921
"1201",82.1741,931.4053
"1202",84.137024,931.41846
"1203",85.787445,931.43164
"1204",86.95201,931.4448
"1205",87.586784,931.458
"1206",87.74059,931.4712
"1207",87.5111,931.4844
"1208",87.01793,931.49756
"1209",86.38804,931.51074
"1210",85.71664,931.5239
"1211",85.07698,931.5371
"1212",84.51057,931.5503
"1213",84.01251,931.5635
"1214",83.56817,931.57666
"1215",83.15068,931.58984
"1216",82.760056,931.603
"1217",82.39628,931.6162
"1218",82.08377,931.6294
"1219",81.83475,931.6426
"1220",81.6614,931.65576
"1221",81.54421,931.66895
"1222",81.45388,931.6821
"1223",81.36599,931.6953
"1224",81.24635,931.7085
"1225",81.07301,931.7217
"1226",80.84108,931.73486
"1227",80.54078,931.74805
"1228",80.18677,931.7612
"1229",79.79614,931.7744
"1230",79.38598,931.7876
"1231",78.97826,931.8008
"1232",78.590065,931.81396
"1233",78.23361,931.82715
"1234",77.92111,931.84033
"1235",77.65499,931.8535
"1236",77.435265,931.8667
"1237",77.261925,931.8799
"1238",77.12764,931.89307
"1239",77.0251,931.90625
"1240",76.944534,931.91943
"1241",76.88594,931.9326
"1242",76.841995,931.9458
"1243",76.80293,931.959
"1244",76.76387,931.97217
"1245",76.72236,931.98535
"1246",76.67353,931.99854
"1247",76.61738,932.0117
"1248",76.561226,932.0249
"1249",76.507515,932.0381
"1250",76.456245,932.0513
"1251",76.4123,932.06445
"1252",76.36591,932.07764
"1253",76.314644,932.0908
"1254",76.25361,932.104
"1255",76.17792,932.1172
"1256",76.087585,932.1304
"1257",75.98993,932.14355
"1258",75.90448,932.15674
"1259",75.86786,932.1699
"1260",75.98016,932.1831
"1261",76.385445,932.1963
"1262",77.225296,932.2095
"1263",78.538795,932.22266
"1264",80.255135,932.23584
"1265",82.18631,932.249
"1266",84.06622,932.2622
"1267",85.63607,932.2754
"1268",86.729836,932.2886
"1269",87.310905,932.30176
"1270",87.42809,932.31494
"1271",87.17418,932.3281
"1272",86.6688,932.3413
"1273",86.029144,932.3545
"1274",85.36263,932.3677
"1275",84.732735,932.38086
"1276",84.16876,932.39404
"1277",83.67559,932.4072
"1278",83.228806,932.4204
"1279",82.80888,932.4336
"1280",82.42069,932.4468
"1281",82.074005,932.45996
"1282",81.7908,932.47314
"1283",81.583275,932.4863
"1284",81.45388,932.4995
"1285",81.38064,932.5127
"1286",81.33181,932.5259
"1287",81.270775,932.53906
"1288",81.17067,932.55225
"1289",81.00954,932.5654
"1290",80.7776,932.5786
"1291",80.479744,932.5918
"1292",80.128174,932.605
"1293",79.742424,932.61816
"1294",79.34936,932.63135
"1295",78.96117,932.64453
"1296",78.59495,932.6577
"1297",78.26292,932.6709
"1298",77.96994,932.6841
"1299",77.71847,932.69727
"1300",77.51583,932.71045
"1301",77.3547,932.72363
"1302",77.239944,932.7368
"1303",77.15694,932.75
"1304",77.09346,932.7632
"1305",77.04219,932.77637
"1306",76.998245,932.78955
"1307",76.95186,932.80273
"1308",76.90791,932.8159
"1309",76.86641,932.8291
"1310",76.82002,932.8423
"1311",76.771194,932.85547
"1312",76.717476,932.86865
"1313",76.65888,932.88184
"1314",76.595406,932.895
"1315",76.52705,932.9082
"1316",76.46113,932.9214
"1317",76.39521,932.9346
"1318",76.33662,932.94775
"1319",76.28535,932.96094
"1320",76.23407,932.9741
"1321",76.175476,932.9873
"1322",76.10956,933.0005
"1323",76.0412,933.0137
"1324",75.97284,933.02686
"1325",75.945984,933.04004
"1326",76.03876,933.0532
"1327",76.39521,933.0664
"1328",77.16182,933.0796
"1329",78.41917,933.0928
"1330",80.10864,933.10596
"1331",82.05203,933.11914
"1332",83.98566,933.1323
"1333",85.63607,933.1455
"1334",86.81041,933.1587
"1335",87.45739,933.1719
"1336",87.62585,933.18506
"1337",87.40368,933.19824
"1338",86.91051,933.2114
"1339",86.26597,933.2246
"1340",85.57748,933.2378
"1341",84.91585,933.251
"1342",84.3299,933.26416
"1343",83.82208,933.27734
"1344",83.372856,933.2905
"1345",82.96269,933.3037
"1346",82.58427,933.3169
"1347",82.24246,933.3301
"1348",81.95926,933.34326
"1349",81.75418,933.35645
"1350",81.62722,933.3696
"1351",81.55886,933.3828
"1352",81.5198,933.396
"1353",81.47097,933.4092
"1354",81.38796,933.42236
"1355",81.248795,933.43555
"1356",81.041275,933.4487
"1357",80.77028,933.4619
"1358",80.44068,933.4751
"1359",80.06714,933.4883
"1360",79.66918,933.50146
"1361",79.26879,933.51465
"1362",78.88304,933.52783
"1363",78.52415,933.541
"1364",78.20676,933.5542
"1365",77.93576,933.5674
"1366",77.7087,933.58057
"1367",77.53048,933.59375
"1368",77.39376,933.60693
"1369",77.298546,933.6201
"1370",77.225296,933.6333
"1371",77.171585,933.6465
"1372",77.1252,933.65967
"1373",77.07881,933.67285
"1374",77.0251,933.68604
"1375",76.96895,933.6992
"1376",76.91524,933.7124
"1377",76.859085,933.7256
"1378",76.805374,933.7388
"1379",76.75166,933.75195
"1380",76.700386,933.76514
"1381",76.65156,933.7783
"1382",76.60029,933.7915
"1383",76.54658,933.8047
"1384",76.490425,933.8179
"1385",76.43427,933.83105
"1386",76.37324,933.84424
"1387",76.317085,933.8574
"1388",76.25361,933.8706
"1389",76.1828,933.8838
"1390",76.10956,933.897
"1391",76.053406,933.91016
"1392",76.068054,933.92334
"1393",76.282906,933.9365
"1394",76.859085,933.9497
"1395",77.90646,933.9629
"1396",79.432365,933.9761
"1397",81.30251,933.98926
"1398",83.28741,934.00244
"1399",85.09895,934.0156
"1400",86.505226,934.0288
"1401",87.39391,934.042
"1402",87.767456,934.0552
"1403",87.70641,934.06836
"1404",87.31579,934.08154
"1405",86.71763,934.0947
"1406",86.01938,934.1079
"1407",85.31869,934.1211
"1408",84.67414,934.1343
"1409",84.105286,934.14746
"1410",83.59991,934.16064
"1411",83.14824,934.1738
"1412",82.735634,934.187
"1413",82.36454,934.2002
"1414",82.056915,934.2134
"1415",81.832306,934.22656
"1416",81.69802,934.23975
"1417",81.636986,934.2529
"1418",81.62234,934.2661
"1419",81.61013,934.2793
"1420",81.56863,934.2925
"1421",81.46609,934.30566
"1422",81.290306,934.31885
"1423",81.03395,934.33203
"1424",80.709236,934.3452
"1425",80.32838,934.3584
"1426",79.91821,934.3716
"1427",79.4934,934.38477
"1428",79.07347,934.39795
"1429",78.675514,934.41113
"1430",78.31663,934.4243
"1431",78.00168,934.4375
"1432",77.73556,934.4507
"1433",77.523155,934.46387
"1434",77.36446,934.47705
"1435",77.24483,934.49023
"1436",77.15694,934.5034
"1437",77.09346,934.5166
"1438",77.049515,934.5298
"1439",77.01289,934.54297
"1440",76.98848,934.55615
"1441",76.95918,934.56934
"1442",76.92256,934.5825
"1443",76.87373,934.5957
"1444",76.8127,934.6089
"1445",76.73945,934.6221
"1446",76.66132,934.63525
"1447",76.58564,934.64844
"1448",76.50996,934.6616
"1449",76.44404,934.6748
"1450",76.385445,934.688
"1451",76.33173,934.7012
"1452",76.28535,934.71436
"1453",76.241394,934.72754
"1454",76.192566,934.7407
"1455",76.13153,934.7539
"1456",76.05585,934.7671
"1457",75.965515,934.7803
"1458",75.88983,934.79346
"1459",75.88739,934.80664
"1460",76.09979,934.8198
"1461",76.69306,934.833
"1462",77.79172,934.8462
"1463",79.39086,934.8594
"1464",81.33669,934.87256
"1465",83.38018,934.88574
"1466",85.22591,934.8989
"1467",86.62974,934.9121
"1468",87.48913,934.9253
"1469",87.83093,934.9385
"1470",87.743034,934.95166
"1471",87.33532,934.96484
"1472",86.72495,934.978
"1473",86.01938,934.9912
"1474",85.3016,935.0044
"1475",84.62287,935.0176
"1476",84.01007,935.03076
"1477",83.46075,935.04395
"1478",82.967575,935.0571
"1479",82.533,935.0703
"1480",82.17166,935.0835
"1481",81.89578,935.0967
"1482",81.71999,935.10986
"1483",81.64187,935.12305
"1484",81.64187,935.1362
"1485",81.67849,935.1494
"1486",81.70779,935.1626
"1487",81.69802,935.1758
"1488",81.62478,935.18896
"1489",81.46609,935.20215
"1490",81.22194,935.21533
"1491",80.89479,935.2285
"1492",80.5066,935.2417
"1493",80.06714,935.2549
"1494",79.61059,935.26807
"1495",79.15404,935.28125
"1496",78.7219,935.29443
"1497",78.331276,935.3076
"1498",77.98703,935.3208
"1499",77.69405,935.334
"1500",77.454796,935.34717
"1501",77.26925,935.36035
"1502",77.13252,935.37354
"1503",77.03975,935.3867
"1504",76.98604,935.3999
"1505",76.9543,935.4131
"1506",76.94209,935.4263
"1507",76.93721,935.43945
"1508",76.93477,935.45264
"1509",76.929886,935.4658
"1510",76.91768,935.479
"1511",76.895706,935.4922
"1512",76.86885,935.5054
"1513",76.83467,935.51855
"1514",76.79317,935.53174
"1515",76.73945,935.5449
"1516",76.680855,935.5581
"1517",76.60517,935.5713
"1518",76.5124,935.5845
"1519",76.402534,935.59766
"1520",76.27802,935.61084
"1521",76.15839,935.624
"1522",76.09979,935.6372
"1523",76.22186,935.6504
"1524",76.68818,935.6636
"1525",77.6379,935.67676
"1526",79.08324,935.68994
"1527",80.90456,935.7031
"1528",82.86748,935.7163
"1529",84.68879,935.7295
"1530",86.12192,935.7427
"1531",87.0399,935.75586
"1532",87.45251,935.76904
"1533",87.432976,935.7822
"1534",87.09117,935.7954
"1535",86.53452,935.8086
"1536",85.86557,935.8218
"1537",85.155106,935.83496
"1538",84.4593,935.84814
"1539",83.807434,935.8613
"1540",83.19951,935.8745
"1541",82.63798,935.8877
"1542",82.127716,935.9009
"1543",81.69314,935.91406
"1544",81.356224,935.92725
"1545",81.15114,935.9404
"1546",81.077896,935.9536
"1547",81.12184,935.9668
"1548",81.23903,935.98
"1549",81.37087,935.99316
"1550",81.46609,936.00635
"1551",81.480736,936.01953
"1552",81.392845,936.0327
"1553",81.19997,936.0459
"1554",80.91432,936.0591
"1555",80.550545,936.07227
"1556",80.13794,936.08545
"1557",79.69848,936.09863
"1558",79.2517,936.1118
"1559",78.819565,936.125
"1560",78.42161,936.1382
"1561",78.07248,936.15137
"1562",77.786835,936.16455
"1563",77.56222,936.17773
"1564",77.39864,936.1909
"1565",77.2839,936.2041
"1566",77.21309,936.2173
"1567",77.17403,936.23047
"1568",77.16182,936.24365
"1569",77.16914,936.25684
"1570",77.19112,936.27
"1571",77.21065,936.2832
"1572",77.22041,936.2964
"1573",77.21553,936.3096
"1574",77.18135,936.32275
"1575",77.120316,936.33594
"1576",77.0251,936.3491
"1577",76.90059,936.3623
"1578",76.754105,936.3755
"1579",76.60517,936.3887
"1580",76.49531,936.40186
"1581",76.52705,936.41504
"1582",76.84444,936.4282
"1583",77.58663,936.4414
"1584",78.79027,936.4546
"1585",80.377205,936.4678
"1586",82.15701,936.48096
"1587",83.87579,936.49414
"1588",85.28451,936.5073
"1589",86.239105,936.5205
"1590",86.71519,936.5337
"1591",86.766464,936.5469
"1592",86.485695,936.56006
"1593",85.980316,936.57324
"1594",85.347984,936.5864
"1595",84.66682,936.5996
"1596",83.99054,936.6128
"1597",83.346,936.626
"1598",82.73319,936.63916
"1599",82.159454,936.65234
"1600",81.63943,936.6655
"1601",81.19997,936.6787
"1602",80.87038,936.6919
"1603",80.67994,936.7051
"1604",80.63111,936.71826
"1605",80.69459,936.73145
"1606",80.831314,936.7446
"1607",80.9778,936.7578
"1608",81.08278,936.771
"1609",81.10719,936.7842
"1610",81.02174,936.79736
"1611",80.82887,936.81055
"1612",80.54078,936.8237
"1613",80.181885,936.8369
"1614",79.77661,936.8501
"1615",79.34692,936.8633
"1616",78.91722,936.87646
"1617",78.49973,936.88965
"1618",78.11398,936.90283
"1619",77.77219,936.916
"1620",77.488976,936.9292
"1621",77.264366,936.9424
"1622",77.100784,936.95557
"1623",76.995804,936.96875
"1624",76.93721,936.98193
"1625",76.912796,936.9951
"1626",76.90791,937.0083
"1627",76.90791,937.0215
"1628",76.91768,937.03467
"1629",76.927444,937.04785
"1630",76.93477,937.06104
"1631",76.93477,937.0742
"1632",76.92012,937.0874
"1633",76.87862,937.1006
"1634",76.79561,937.1138
"1635",76.6833,937.12695
"1636",76.561226,937.14014
"1637",76.4831,937.1533
"1638",76.56367,937.1665
"1639",76.964066,937.1797
"1640",77.81125,937.1929
"1641",79.12474,937.20605
"1642",80.80202,937.21924
"1643",82.63554,937.2324
"1644",84.35432,937.2456
"1645",85.72396,937.2588
"1646",86.61509,937.272
"1647",87.02037,937.28516
"1648",87.010605,937.29834
"1649",86.68345,937.3115
"1650",86.151215,937.3247
"1651",85.51888,937.3379
"1652",84.86214,937.3511
"1653",84.23468,937.36426
"1654",83.65362,937.37744
"1655",83.12138,937.3906
"1656",82.62333,937.4038
"1657",82.15457,937.417
"1658",81.7322,937.4302
"1659",81.37087,937.44336
"1660",81.10231,937.45654
"1661",80.936295,937.4697
"1662",80.86305,937.4829
"1663",80.850845,937.4961
"1664",80.85817,937.5093
"1665",80.848404,937.52246
"1666",80.78737,937.53564
"1667",80.655525,937.5488
"1668",80.44312,937.562
"1669",80.15259,937.5752
"1670",79.7937,937.5884
"1671",79.3933,937.60156
"1672",78.97337,937.61475
"1673",78.555885,937.6279
"1674",78.15793,937.6411
"1675",77.7966,937.6543
"1676",77.48165,937.6675
"1677",77.22041,937.68066
"1678",77.015335,937.69385
"1679",76.86153,937.70703
"1680",76.754105,937.7202
"1681",76.67841,937.7334
"1682",76.629585,937.7466
"1683",76.59785,937.75977
"1684",76.58076,937.77295
"1685",76.56611,937.78613
"1686",76.55634,937.7993
"1687",76.53925,937.8125
"1688",76.51484,937.8257
"1689",76.473335,937.83887
"1690",76.4123,937.85205
"1691",76.32441,937.86523
"1692",76.21454,937.8784
"1693",76.09979,937.8916
"1694",76.00946,937.9048
"1695",76.02899,937.91797
"1696",76.297554,937.93115
"1697",76.95186,937.94434
"1698",78.06027,937.9575
"1699",79.571526,937.9707
"1700",81.3196,937.9839
"1701",83.06523,937.9971
"1702",84.56184,938.01025
"1703",85.63607,938.02344
"1704",86.23178,938.0366
"1705",86.39536,938.0498
"1706",86.21469,938.063
"1707",85.79721,938.0762
"1708",85.243,938.08936
"1709",84.65461,938.10254
"1710",84.085754,938.1157
"1711",83.56573,938.1289
"1712",83.10185,938.1421
"1713",82.67216,938.1553
"1714",82.25468,938.16846
"1715",81.849396,938.18164
"1716",81.47097,938.1948
"1717",81.143814,938.208
"1718",80.89479,938.2212
"1719",80.73365,938.2344
"1720",80.65308,938.24756
"1721",80.621346,938.26074
"1722",80.601814,938.2739
"1723",80.56031,938.2871
"1724",80.46754,938.3003
"1725",80.308846,938.3135
"1726",80.079346,938.32666
"1727",79.78882,938.33984
"1728",79.4519,938.353
"1729",79.09056,938.3662
"1730",78.71702,938.3794
"1731",78.35325,938.3926
"1732",78.009,938.40576
"1733",77.69894,938.41895
"1734",77.43282,938.4321
"1735",77.21309,938.4453
"1736",77.03975,938.4585
"1737",76.912796,938.4717
"1738",76.824905,938.48486
"1739",76.76631,938.49805
"1740",76.734566,938.5112
"1741",76.71015,938.5244
"1742",76.697945,938.5376
"1743",76.68574,938.5508
"1744",76.66865,938.56396
"1745",76.64423,938.57715
"1746",76.610054,938.59033
"1747",76.56367,938.6035
"1748",76.50507,938.6167
"1749",76.43183,938.6299
"1750",76.34394,938.64307
"1751",76.243835,938.65625
"1752",76.15106,938.66943
"1753",76.11688,938.6826
"1754",76.25605,938.6958
"1755",76.71992,938.709
"1756",77.61593,938.72217
"1757",78.94652,938.73535
"1758",80.58961,938.74854
"1759",82.33036,938.7617
"1760",83.912415,938.7749
"1761",85.12825,938.7881
"1762",85.88266,938.8013
"1763",86.19272,938.81445
"1764",86.136566,938.82764
"1765",85.81674,938.8408
"1766",85.347984,938.854
"1767",84.81819,938.8672
"1768",84.300606,938.8804
"1769",83.826965,938.89355
"1770",83.41192,938.90674
"1771",83.038376,938.9199
"1772",82.67704,938.9331
"1773",82.320595,938.9463
"1774",81.96658,938.9595
"1775",81.6321,938.97266
"1776",81.33669,938.98584
"1777",81.10231,938.999
"1778",80.93385,939.0122
"1779",80.82155,939.0254
"1780",80.743416,939.0386
"1781",80.67506,939.05176
"1782",80.58228,939.06494
"1783",80.448006,939.0781
"1784",80.25269,939.0913
"1785",79.99634,939.1045
"1786",79.68871,939.1177
"1787",79.344475,939.13086
"1788",78.98314,939.14404
"1789",78.624245,939.1572
"1790",78.28489,939.1704
"1791",77.97238,939.1836
"1792",77.69894,939.1968
"1793",77.467,939.20996
"1794",77.28634,939.22314
"1795",77.152054,939.2363
"1796",77.06172,939.2495
"1797",77.00069,939.2627
"1798",76.961624,939.2759
"1799",76.93477,939.28906
"1800",76.90791,939.30225
"1801",76.87862,939.3154
"1802",76.85176,939.3286
"1803",76.82979,939.3418
"1804",76.80049,939.355
"1805",76.771194,939.36816
"1806",76.74189,939.38135
"1807",76.70771,939.39453
"1808",76.66132,939.4077
"1809",76.60273,939.4209
"1810",76.52949,939.4341
"1811",76.4416,939.44727
"1812",76.35615,939.46045
"1813",76.31953,939.47363
"1814",76.422066,939.4868
"1815",76.807816,939.5
"1816",77.60128,939.5132
"1817",78.83421,939.52637
"1818",80.42115,939.53955
"1819",82.17166,939.55273
"1820",83.84161,939.5659
"1821",85.19661,939.5791
"1822",86.11215,939.5923
"1823",86.5687,939.60547
"1824",86.63218,939.61865
"1825",86.39536,939.63184
"1826",85.97299,939.645
"1827",85.46273,939.6582
"1828",84.95003,939.6714
"1829",84.48615,939.6846
"1830",84.08331,939.69775
"1831",83.73174,939.71094
"1832",83.389946,939.7241
"1833",83.035934,939.7373
"1834",82.66239,939.7505
"1835",82.28397,939.7637
"1836",81.92752,939.77686
"1837",81.62234,939.79004
"1838",81.38308,939.8032
"1839",81.20485,939.8164
"1840",81.06081,939.8296
"1841",80.93141,939.8428
"1842",80.78981,939.85596
"1843",80.61646,939.86914
"1844",80.4065,939.8823
"1845",80.15747,939.8955
"1846",79.87671,939.9087
"1847",79.571526,939.9219
"1848",79.26391,939.93506
"1849",78.95384,939.94824
"1850",78.65598,939.9614
"1851",78.37522,939.9746
"1852",78.116425,939.9878
"1853",77.88937,940.001
"1854",77.69161,940.01416
"1855",77.51583,940.02734
"1856",77.36202,940.0405
"1857",77.222855,940.0537
"1858",77.09346,940.0669
"1859",76.97627,940.0801
"1860",76.87862,940.09326
"1861",76.79805,940.10645
"1862",76.73945,940.1196
"1863",76.6955,940.1328
"1864",76.663765,940.146
"1865",76.646675,940.1592
"1866",76.63935,940.17236
"1867",76.627144,940.18555
"1868",76.60273,940.1987
"1869",76.561226,940.2119
"1870",76.507515,940.2251
"1871",76.44892,940.2383
"1872",76.41718,940.25146
"1873",76.49287,940.26465
"1874",76.79805,940.27783
"1875",77.452354,940.291
"1876",78.51194,940.3042
"1877",79.92798,940.3174
"1878",81.55642,940.33057
"1879",83.1873,940.34375
"1880",84.593575,940.35693
"1881",85.61654,940.3701
"1882",86.21225,940.3833
"1883",86.41978,940.3965
"1884",86.30991,940.40967
"1885",85.98276,940.42285
"1886",85.54818,940.43604
"1887",85.08919,940.4492
"1888",84.65949,940.4624
"1889",84.27619,940.4756
"1890",83.93927,940.4888
"1891",83.614555,940.50195
"1892",83.28008,940.51514
"1893",82.92363,940.5283
"1894",82.55741,940.5415
"1895",82.2034,940.5547
"1896",81.89334,940.5679
"1897",81.64431,940.58105
"1898",81.46609,940.59424
"1899",81.341576,940.6074
"1900",81.23659,940.6206
"1901",81.129166,940.6338
"1902",80.990005,940.647
"1903",80.80446,940.66016
"1904",80.567635,940.67334
"1905",80.28443,940.6865
"1906",79.96704,940.6997
"1907",79.63256,940.7129
"1908",79.293205,940.7261
"1909",78.97093,940.73926
"1910",78.675514,940.75244
"1911",78.41428,940.7656
"1912",78.19211,940.7788
"1913",78.00656,940.792
"1914",77.857635,940.8052
"1915",77.74044,940.81836
"1916",77.645226,940.83154
"1917",77.5671,940.8447
"1918",77.49874,940.8579
"1919",77.435265,940.8711
"1920",77.366905,940.8843
"1921",77.29122,940.89746
"1922",77.19844,940.91064
"1923",77.0959,940.9238
"1924",76.978714,940.937
"1925",76.859085,940.9502
"1926",76.75166,940.9634
"1927",76.697945,940.97656
"1928",76.76631,940.98975
"1929",77.06172,941.0029
"1930",77.6672,941.0161
"1931",78.59739,941.0293
"1932",79.781494,941.0425
"1933",81.075455,941.05566
"1934",82.28886,941.06885
"1935",83.25811,941.08203
"1936",83.88312,941.0952
"1937",84.15167,941.1084
"1938",84.11017,941.1216
"1939",83.83917,941.13477
"1940",83.42901,941.14795
"1941",82.96269,941.16113
"1942",82.50614,941.1743
"1943",82.091095,941.1875
"1944",81.71023,941.2007
"1945",81.34402,941.21387
"1946",80.9778,941.22705
"1947",80.61158,941.24023
"1948",80.26734,941.2534
"1949",79.98169,941.2666
"1950",79.77173,941.2798
"1951",79.64721,941.29297
"1952",79.59106,941.30615
"1953",79.57641,941.31934
"1954",79.55932,941.3325
"1955",79.517815,941.3457
"1956",79.42748,941.3589
"1957",79.273674,941.3721
"1958",79.061264,941.38525
"1959",78.79759,941.39844
"1960",78.502174,941.4116
"1961",78.19943,941.4248
"1962",77.91135,941.438
"1963",77.65255,941.4512
"1964",77.43282,941.46436
"1965",77.25948,941.47754
"1966",77.13252,941.4907
"1967",77.04707,941.5039
"1968",76.98848,941.5171
"1969",76.9543,941.5303
"1970",76.93721,941.54346
"1971",76.925,941.55664
"1972",76.912796,941.5698
"1973",76.90059,941.583
"1974",76.88594,941.5962
"1975",76.859085,941.6094
"1976",76.82735,941.62256
"1977",76.77852,941.63574
"1978",76.72724,941.6489
"1979",76.67597,941.6621
"1980",76.654,941.6753
"1981",76.70771,941.6885
"1982",76.927444,941.70166
"1983",77.39864,941.71484
"1984",78.16281,941.728
"1985",79.17845,941.7412
"1986",80.34547,941.7544
"1987",81.497826,941.7676
"1988",82.47196,941.78076
"1989",83.15068,941.79395
"1990",83.50225,941.8071
"1991",83.560844,941.8203
"1992",83.39727,941.8335
"1993",83.09697,941.8467
"1994",82.74052,941.85986
"1995",82.39628,941.87305
"1996",82.09598,941.8862
"1997",81.846954,941.8994
"1998",81.62966,941.9126
"1999",81.41482,941.9258
"2000",81.17799,941.93896
"2001",80.91188,941.95215
"2002",80.62867,941.96533
"2003",80.35767,941.9785
"2004",80.13306,941.9917
"2005",79.96704,942.0049
"2006",79.85962,942.01807
"2007",79.78882,942.03125
"2008",79.73998,942.04443
"2009",79.68383,942.0576
"2010",79.603264,942.0708
"2011",79.48852,942.084
"2012",79.33959,942.09717
"2013",79.15404,942.11035
"2014",78.94896,942.12354
"2015",78.73411,942.1367
"2016",78.519264,942.1499
"2017",78.314186,942.1631
"2018",78.12863,942.1763
"2019",77.96506,942.18945
"2020",77.82834,942.20264
"2021",77.71603,942.2158
"2022",77.62325,942.229
"2023",77.55001,942.2422
"2024",77.488976,942.2554
"2025",77.435265,942.26855
"2026",77.39132,942.28174
"2027",77.35714,942.2949
"2028",77.32052,942.3081
"2029",77.28878,942.3213
"2030",77.25216,942.3345
"2031",77.21553,942.34766
"2032",77.1667,942.36084
"2033",77.10811,942.374
"2034",77.03731,942.3872
"2035",76.96651,942.4004
"2036",76.92256,942.4136
"2037",76.96895,942.42676
"2038",77.19112,942.43994
"2039",77.67696,942.4531
"2040",78.44846,942.4663
"2041",79.4519,942.4795
"2042",80.56519,942.4927
"2043",81.62478,942.50586
"2044",82.47196,942.51904
"2045",83.01152,942.5322
"2046",83.23369,942.5454
"2047",83.177536,942.5586
"2048",82.92851,942.5718
"2049",82.56962,942.58496
"2050",82.18143,942.59814
"2051",81.815216,942.6113
"2052",81.497826,942.6245
"2053",81.22926,942.6377
"2054",80.987564,942.6509
"2055",80.75563,942.66406
"2056",80.53101,942.67725
"2057",80.31861,942.6904
"2058",80.14038,942.7036
"2059",80.02075,942.7168
"2060",79.96948,942.73
"2061",79.97681,942.74316
"2062",80.025635,942.75635
"2063",80.079346,942.76953
"2064",80.111084,942.7827
"2065",80.096436,942.7959
"2066",80.02319,942.8091
"2067",79.888916,942.82227
"2068",79.708244,942.83545
"2069",79.48852,942.84863
"2070",79.26147,942.8618
"2071",79.03685,942.875
"2072",78.82933,942.8882
"2073",78.64622,942.90137
"2074",78.49485,942.91455
"2075",78.37522,942.92773
"2076",78.28733,942.9409
"2077",78.22873,942.9541
"2078",78.18967,942.9673
"2079",78.170135,942.98047
"2080",78.16525,942.99365
"2081",78.17258,943.00684
"2082",78.17746,943.02
"2083",78.17502,943.0332
"2084",78.16037,943.0464
"2085",78.12131,943.0596
"2086",78.06271,943.07275
"2087",77.994354,943.08594
"2088",77.93332,943.0991
"2089",77.91135,943.1123
"2090",78.00656,943.1255
"2091",78.30198,943.1387
"2092",78.856186,943.15186
"2093",79.67162,943.16504
"2094",80.66041,943.1782
"2095",81.688255,943.1914
"2096",82.58671,943.2046
"2097",83.226364,943.2178
"2098",83.55108,943.23096
"2099",83.58282,943.24414
"2100",83.387505,943.2573
"2101",83.04814,943.2705
"2102",82.64286,943.2837
"2103",82.24246,943.2969
"2104",81.88602,943.31006
"2105",81.58816,943.32324
"2106",81.339134,943.3364
"2107",81.11452,943.3496
"2108",80.88991,943.3628
"2109",80.66529,943.376
"2110",80.45533,943.38916
"2111",80.27711,943.40234
"2112",80.15259,943.4155
"2113",80.093994,943.4287
"2114",80.08423,943.4419
"2115",80.10376,943.4551
"2116",80.12329,943.46826
"2117",80.11597,943.48145
"2118",80.06714,943.4946
"2119",79.96704,943.5078
"2120",79.815674,943.521
"2121",79.63012,943.5342
"2122",79.4226,943.54736
"2123",79.21507,943.56055
"2124",79.012436,943.5737
"2125",78.82689,943.5869
"2126",78.66819,943.6001
"2127",78.54124,943.6133
"2128",78.44602,943.62646
"2129",78.382545,943.63965
"2130",78.34104,943.65283
"2131",78.314186,943.666
"2132",78.294655,943.6792
"2133",78.28001,943.6924
"2134",78.26536,943.70557
"2135",78.25071,943.71875
"2136",78.23605,943.73193
"2137",78.21652,943.7451
"2138",78.19699,943.7583
"2139",78.167694,943.7715
"2140",78.12619,943.78467
"2141",78.07248,943.79785
"2142",78.011444,943.81104
"2143",77.96994,943.8242
"2144",77.98947,943.8374
"2145",78.16037,943.8506
"2146",78.57053,943.8638
"2147",79.26635,943.87695
"2148",80.216064,943.89014
"2149",81.31228,943.9033
"2150",82.39384,943.9165
"2151",83.28741,943.9297
"2152",83.86847,943.9429
"2153",84.11261,943.95605
"2154",84.06134,943.96924
"2155",83.80011,943.9824
"2156",83.421684,943.9956
"2157",83.00908,944.0088
"2158",82.62089,944.022
"2159",82.30106,944.03516
"2160",82.04227,944.04834
"2161",81.832306,944.0615
"2162",81.636986,944.0747
"2163",81.42947,944.0879
"2164",81.20241,944.1011
"2165",80.96559,944.11426
"2166",80.74586,944.12744
"2167",80.56519,944.1406
"2168",80.44312,944.1538
"2169",80.36988,944.167
"2170",80.3357,944.1802
"2171",80.31861,944.19336
"2172",80.30152,944.20654
"2173",80.26246,944.2197
"2174",80.19165,944.2329
"2175",80.08423,944.2461
"2176",79.9353,944.2593
"2177",79.766846,944.27246
"2178",79.58373,944.28564
"2179",79.40307,944.2988
"2180",79.22972,944.312
"2181",79.07591,944.3252
"2182",78.941635,944.3384
"2183",78.82933,944.35156
"2184",78.73655,944.36475
"2185",78.66331,944.3779
"2186",78.607155,944.3911
"2187",78.56565,944.4043
"2188",78.53391,944.4175
"2189",78.51682,944.43066
"2190",78.50706,944.44385
"2191",78.49973,944.45703
"2192",78.49485,944.4702
"2193",78.48997,944.4834
"2194",78.485085,944.4966
"2195",78.47288,944.50977
"2196",78.45579,944.52295
"2197",78.42405,944.53613
"2198",78.38499,944.5493
"2199",78.33372,944.5625
"2200",78.27024,944.5757
"2201",78.20676,944.58887
"2202",78.15793,944.60205
"2203",78.16525,944.61523
"2204",78.31907,944.6284
"2205",78.71458,944.6416
"2206",79.412834,944.6548
"2207",80.38697,944.66797
"2208",81.52712,944.68115
"2209",82.66239,944.69434
"2210",83.60479,944.7075
"2211",84.22247,944.7207
"2212",84.48127,944.7339
"2213",84.43244,944.7471
"2214",84.159,944.76025
"2215",83.756165,944.77344
"2216",83.30694,944.7866
"2217",82.879684,944.7998
"2218",82.50614,944.813
"2219",82.19852,944.8262
"2220",81.94461,944.83936
"2221",81.722435,944.85254
"2222",81.51003,944.8657
"2223",81.30251,944.8789
"2224",81.11696,944.8921
"2225",80.96315,944.9053
"2226",80.86061,944.91846
"2227",80.81178,944.93164
"2228",80.80202,944.9448
"2229",80.80446,944.958
"2230",80.799576,944.9712
"2231",80.765396,944.9844
"2232",80.68726,944.99756
"2233",80.56519,945.01074
"2234",80.40162,945.0239
"2235",80.20386,945.0371
"2236",79.98657,945.0503
"2237",79.766846,945.0635
"2238",79.551994,945.07666
"2239",79.35668,945.08984
"2240",79.18822,945.103
"2241",79.05394,945.1162
"2242",78.94652,945.1294
"2243",78.86839,945.1426
"2244",78.81224,945.15576
"2245",78.77318,945.16895
"2246",78.74387,945.1821
"2247",78.71946,945.1953
"2248",78.69993,945.2085
"2249",78.68528,945.2217
"2250",78.66575,945.23486
"2251",78.641335,945.24805
"2252",78.607155,945.2612
"2253",78.56077,945.2744
"2254",78.49973,945.2876
"2255",78.43137,945.3008
"2256",78.363014,945.31396
"2257",78.3386,945.32715
"2258",78.43137,945.34033
"2259",78.746315,945.3535
"2260",79.361565,945.3667
"2261",80.27711,945.3799
"2262",81.40261,945.39307
"2263",82.579384,945.40625
"2264",83.61944,945.41943
"2265",84.36408,945.4326
"2266",84.749825,945.4458
"2267",84.805984,945.459
"2268",84.6009,945.47217
"2269",84.227356,945.48535
"2270",83.775696,945.49854
"2271",83.319145,945.5117
"2272",82.90166,945.5249
"2273",82.55009,945.5381
"2274",82.262,945.5513
"2275",82.01541,945.56445
"2276",81.78592,945.57764
"2277",81.5613,945.5908
"2278",81.341576,945.604
"2279",81.146255,945.6172
"2280",80.98512,945.6304
"2281",80.87282,945.64355
"2282",80.8069,945.65674
"2283",80.77516,945.6699
"2284",80.75075,945.6831
"2285",80.71656,945.6963
"2286",80.66285,945.7095
"2287",80.57252,945.72266
"2288",80.4358,945.73584
"2289",80.257576,945.749
"2290",80.04761,945.7622
"2291",79.815674,945.7754
"2292",79.57885,945.7886
"2293",79.34936,945.80176
"2294",79.13695,945.81494
"2295",78.9514,945.8281
"2296",78.79271,945.8413
"2297",78.66819,945.8545
"2298",78.56809,945.8677
"2299",78.49729,945.88086
"2300",78.45335,945.89404
"2301",78.42161,945.9072
"2302",78.40208,945.9204
"2303",78.38499,945.9336
"2304",78.3679,945.9468
"2305",78.345924,945.95996
"2306",78.31907,945.97314
"2307",78.28733,945.9863
"2308",78.24582,945.9995
"2309",78.187225,946.0127
"2310",78.11398,946.0259
"2311",78.04562,946.03906
"2312",78.02609,946.05225
"2313",78.150604,946.0654
"2314",78.53391,946.0786
"2315",79.23949,946.0918
"2316",80.24536,946.105
"2317",81.444115,946.11816
"2318",82.65751,946.13135
"2319",83.69024,946.14453
"2320",84.39826,946.1577
"2321",84.72785,946.1709
"2322",84.72541,946.1841
"2323",84.471504,946.19727
"2324",84.06378,946.21045
"2325",83.59014,946.22363
"2326",83.11894,946.2368
"2327",82.69657,946.25
"2328",82.33524,946.2632
"2329",82.022736,946.27637
"2330",81.74197,946.28955
"2331",81.480736,946.30273
"2332",81.234146,946.3159
"2333",81.01198,946.3291
"2334",80.831314,946.3423
"2335",80.70435,946.35547
"2336",80.635994,946.36865
"2337",80.61402,946.38184
"2338",80.61646,946.395
"2339",80.618904,946.4082
"2340",80.59693,946.4214
"2341",80.533455,946.4346
"2342",80.41627,946.44775
"2343",80.25269,946.46094
"2344",80.042725,946.4741
"2345",79.80835,946.4873
"2346",79.56176,946.5005
"2347",79.31762,946.5137
"2348",79.08324,946.52686
"2349",78.86595,946.54004
"2350",78.677956,946.5532
"2351",78.519264,946.5664
"2352",78.39231,946.5796
"2353",78.29221,946.5928
"2354",78.21896,946.60596
"2355",78.16281,946.61914
"2356",78.12131,946.6323
"2357",78.09201,946.6455
"2358",78.07004,946.6587
"2359",78.05051,946.6719
"2360",78.03342,946.68506
"2361",78.009,946.69824
"2362",77.97238,946.7114
"2363",77.925995,946.7246
"2364",77.86984,946.7378
"2365",77.7966,946.751
"2366",77.713585,946.76416
"2367",77.625694,946.77734
"2368",77.55001,946.7905
"2369",77.53536,946.8037
"2370",77.68673,946.8169
"2371",78.12375,946.8301
"2372",78.91966,946.84326
"2373",80.045166,946.85645
"2374",81.36843,946.8696
"2375",82.68925,946.8828
"2376",83.79767,946.896
"2377",84.53986,946.9092
"2378",84.876785,946.92236
"2379",84.857254,946.93555
"2380",84.56916,946.9487
"2381",84.11749,946.9619
"2382",83.58526,946.9751
"2383",83.0457,946.9883
"2384",82.55009,947.00146
"2385",82.11795,947.01465
"2386",81.739525,947.02783
"2387",81.40261,947.041
"2388",81.10231,947.0542
"2389",80.8362,947.0674
"2390",80.61158,947.08057
"2391",80.45045,947.09375
"2392",80.360115,947.10693
"2393",80.33814,947.1201
"2394",80.365,947.1333
"2395",80.4065,947.1465
"2396",80.43336,947.15967
"2397",80.413826,947.17285
"2398",80.33814,947.18604
"2399",80.198975,947.1992
"2400",80.00366,947.2124
"2401",79.766846,947.2256
"2402",79.51049,947.2388
"2403",79.24925,947.25195
"2404",78.99779,947.26514
"2405",78.76097,947.2783
"2406",78.54368,947.2915
"2407",78.348366,947.3047
"2408",78.18234,947.3179
"2409",78.0383,947.33105
"2410",77.92355,947.34424
"2411",77.838104,947.3574
"2412",77.77951,947.3706
"2413",77.74044,947.3838
"2414",77.713585,947.397
"2415",77.70138,947.41016
"2416",77.68917,947.42334
"2417",77.67452,947.4365
"2418",77.65499,947.4497
"2419",77.628136,947.4629
"2420",77.593956,947.4761
"2421",77.55489,947.48926
"2422",77.50851,947.50244
"2423",77.454796,947.5156
"2424",77.38888,947.5288
"2425",77.315636,947.542
"2426",77.24483,947.5552
"2427",77.23262,947.56836
"2428",77.38644,947.58154
"2429",77.83566,947.5947
"2430",78.66331,947.6079
"2431",79.83765,947.6211
"2432",81.22194,947.6343
"2433",82.60624,947.64746
"2434",83.758606,947.66064
"2435",84.52766,947.6738
"2436",84.8719,947.687
"2437",84.84993,947.7002
"2438",84.559395,947.7134
"2439",84.09308,947.72656
"2440",83.53887,947.73975
"2441",82.96269,947.7529
"2442",82.41337,947.7661
"2443",81.91287,947.7793
"2444",81.46609,947.7925
"2445",81.07301,947.80566
"2446",80.72877,947.81885
"2447",80.44312,947.83203
"2448",80.22583,947.8452
"2449",80.09888,947.8584
"2450",80.062256,947.8716
"2451",80.10132,947.88477
"2452",80.18677,947.89795
"2453",80.27711,947.91113
"2454",80.3357,947.9243
"2455",80.33326,947.9375
"2456",80.26246,947.9507
"2457",80.12085,947.96387
"2458",79.91333,947.97705
"2459",79.66186,947.99023
"2460",79.3933,948.0034
"2461",79.11742,948.0166
"2462",78.8513,948.0298
"2463",78.59495,948.04297
"2464",78.365456,948.05615
"2465",78.16281,948.06934
"2466",77.99191,948.0825
"2467",77.85031,948.0957
"2468",77.74532,948.1089
"2469",77.6672,948.1221
"2470",77.61593,948.13525
"2471",77.58175,948.14844
"2472",77.56222,948.1616
"2473",77.55245,948.1748
"2474",77.55001,948.188
"2475",77.540245,948.2012
"2476",77.53048,948.21436
"2477",77.51339,948.22754
"2478",77.49142,948.2407
"2479",77.46212,948.2539
"2480",77.42794,948.2671
"2481",77.38155,948.2803
"2482",77.32296,948.29346
"2483",77.25704,948.30664
"2484",77.19356,948.3198
"2485",77.17647,948.333
"2486",77.30831,948.3462
"2487",77.730675,948.3594
"2488",78.53147,948.37256
"2489",79.693596,948.38574
"2490",81.08766,948.3989
"2491",82.50126,948.4121
"2492",83.702446,948.4253
"2493",84.52033,948.4385
"2494",84.910965,948.45166
"2495",84.93294,948.46484
"2496",84.67414,948.478
"2497",84.23224,948.4912
"2498",83.685356,948.5044
"2499",83.106735,948.5176
"2500",82.53544,948.53076
"2501",82.003204,948.54395
"2502",81.5198,948.5571
"2503",81.08766,948.5703
"2504",80.706795,948.5835
"2505",80.394295,948.5967
"2506",80.16968,948.60986
"2507",80.05005,948.62305
"2508",80.0354,948.6362
"2509",80.11597,948.6494
"2510",80.2478,948.6626
"2511",80.38941,948.6758
"2512",80.49439,948.68896
"2513",80.5359,948.70215
"2514",80.49439,948.71533
"2515",80.37232,948.7285
"2516",80.18677,948.7417
"2517",79.94995,948.7549
"2518",79.68627,948.76807
"2519",79.412834,948.78125
"2520",79.14183,948.79443
"2521",78.88304,948.8076
"2522",78.643776,948.8208
"2523",78.42893,948.834
"2524",78.24582,948.84717
"2525",78.09445,948.86035
"2526",77.97238,948.87354
"2527",77.88205,948.8867
"2528",77.821014,948.8999
"2529",77.78439,948.9131
"2530",77.7673,948.9263
"2531",77.76242,948.93945
"2532",77.76486,948.95264
"2533",77.76486,948.9658
"2534",77.76486,948.979
"2535",77.75754,948.9922
"2536",77.747765,949.0054
"2537",77.730675,949.01855
"2538",77.70138,949.03174
"2539",77.659874,949.0449
"2540",77.60372,949.0581
"2541",77.5378,949.0713
"2542",77.46456,949.0845
"2543",77.418175,949.09766
"2544",77.467,949.11084
"2545",77.75021,949.124
"2546",78.397194,949.1372
"2547",79.44457,949.1504
"2548",80.8069,949.1636
"2549",82.303505,949.17676
"2550",83.69756,949.18994
"2551",84.771805,949.2031
"2552",85.41146,949.2163
"2553",85.62386,949.2295
"2554",85.49691,949.2427
"2555",85.13313,949.25586
"2556",84.61799,949.26904
"2557",84.034485,949.2822
"2558",83.438774,949.2954
"2559",82.86748,949.3086
"2560",82.3328,949.3218
"2561",81.84207,949.33496
"2562",81.40261,949.34814
"2563",81.03395,949.3613
"2564",80.75563,949.3745
"2565",80.58961,949.3877
"2566",80.54322,949.4009
"2567",80.60914,949.41406
"2568",80.75563,949.42725
"2569",80.936295,949.4404
"2570",81.09743,949.4536
"2571",81.197525,949.4668
"2572",81.20729,949.48
"2573",81.1194,949.49316
"2574",80.94118,949.50635
"2575",80.69947,949.51953
"2576",80.41627,949.5327
"2577",80.11597,949.5459
"2578",79.81079,949.5591
"2579",79.5227,949.57227
"2580",79.256584,949.58545
"2581",79.01488,949.59863
"2582",78.80492,949.6118
"2583",78.626686,949.625
"2584",78.47288,949.6382
"2585",78.34104,949.65137
"2586",78.23605,949.66455
"2587",78.150604,949.67773
"2588",78.08957,949.6909
"2589",78.05051,949.7041
"2590",78.028534,949.7173
"2591",78.02121,949.73047
"2592",78.011444,949.74365
"2593",77.994354,949.75684
"2594",77.97238,949.77
"2595",77.943085,949.7832
"2596",77.90158,949.7964
"2597",77.85275,949.8096
"2598",77.79416,949.82275
"2599",77.71847,949.83594
"2600",77.63302,949.8491
"2601",77.56222,949.8623
"2602",77.57198,949.8755
"2603",77.78195,949.8887
"2604",78.331276,949.90186
"2605",79.281,949.91504
"2606",80.5774,949.9282
"2607",82.054474,949.9414
"2608",83.49004,949.9546
"2609",84.65705,949.9678
"2610",85.41634,949.98096
"2611",85.74593,949.99414
"2612",85.714195,950.0073
"2613",85.40902,950.0205
"2614",84.91341,950.0337
"2615",84.315254,950.0469
"2616",83.682915,950.06006
"2617",83.06523,950.07324
"2618",82.48173,950.0864
"2619",81.94217,950.0996
"2620",81.45632,950.1128
"2621",81.03639,950.126
"2622",80.69947,950.13916
"2623",80.47486,950.15234
"2624",80.37965,950.1655
"2625",80.411385,950.1787
"2626",80.54566,950.1919
"2627",80.73365,950.2051
"2628",80.92409,950.21826
"2629",81.06569,950.23145
"2630",81.12184,950.2446
"2631",81.077896,950.2578
"2632",80.938736,950.271
"2633",80.726326,950.2842
"2634",80.462654,950.29736
"2635",80.16968,950.31055
"2636",79.869385,950.3237
"2637",79.569084,950.3369
"2638",79.28588,950.3501
"2639",79.0222,950.3633
"2640",78.78783,950.37646
"2641",78.58518,950.38965
"2642",78.42161,950.40283
"2643",78.29221,950.416
"2644",78.19699,950.4292
"2645",78.133514,950.4424
"2646",78.09445,950.45557
"2647",78.07736,950.46875
"2648",78.07248,950.48193
"2649",78.07736,950.4951
"2650",78.082245,950.5083
"2651",78.08957,950.5215
"2652",78.09201,950.53467
"2653",78.09201,950.54785
"2654",78.0798,950.56104
"2655",78.05539,950.5742
"2656",78.013885,950.5874
"2657",77.95285,950.6006
"2658",77.87717,950.6138
"2659",77.80148,950.62695
"2660",77.769745,950.64014
"2661",77.86252,950.6533
"2662",78.21652,950.6665
"2663",78.93431,950.6797
"2664",80.04028,950.6929
"2665",81.42458,950.70605
"2666",82.899216,950.71924
"2667",84.2298,950.7324
"2668",85.21858,950.7456
"2669",85.7728,950.7588
"2670",85.91684,950.772
"2671",85.73373,950.78516
"2672",85.30648,950.79834
"2673",84.73029,950.8115
"2674",84.07843,950.8247
"2675",83.39971,950.8379
"2676",82.73319,950.8511
"2677",82.09842,950.86426
"2678",81.514915,950.87744
"2679",81.00954,950.8906
"2680",80.6067,950.9038
"2681",80.34058,950.917
"2682",80.23071,950.9302
"2683",80.274666,950.94336
"2684",80.43824,950.95654
"2685",80.67506,950.9697
"2686",80.91188,950.9829
"2687",81.092545,950.9961
"2688",81.17555,951.0093
"2689",81.1487,951.02246
"2690",81.01198,951.03564
"2691",80.782486,951.0488
"2692",80.48951,951.062
"2693",80.15991,951.0752
"2694",79.815674,951.0884
"2695",79.47631,951.10156
"2696",79.14671,951.11475
"2697",78.84642,951.1279
"2698",78.57786,951.1411
"2699",78.348366,951.1543
"2700",78.16281,951.1675
"2701",78.02609,951.18066
"2702",77.925995,951.19385
"2703",77.86008,951.20703
"2704",77.81613,951.2202
"2705",77.789276,951.2334
"2706",77.77463,951.2466
"2707",77.769745,951.25977
"2708",77.77219,951.27295
"2709",77.77951,951.28613
"2710",77.77951,951.2993
"2711",77.7673,951.3125
"2712",77.74044,951.3257
"2713",77.69405,951.33887
"2714",77.63058,951.35205
"2715",77.55245,951.36523
"2716",77.49874,951.3784
"2717",77.55245,951.3916
"2718",77.86008,951.4048
"2719",78.551,951.41797
"2720",79.68383,951.43115
"2721",81.17311,951.44434
"2722",82.83574,951.4575
"2723",84.41779,951.4707
"2724",85.697105,951.4839
"2725",86.53452,951.4971
"2726",86.925156,951.51025
"2727",86.93248,951.52344
"2728",86.64439,951.5366
"2729",86.153656,951.5498
"2730",85.54574,951.563
"2731",84.893875,951.5762
"2732",84.25178,951.58936
"2733",83.648735,951.60254
"2734",83.089645,951.6157
"2735",82.58427,951.6289
"2736",82.13748,951.6421
"2737",81.76639,951.6553
"2738",81.49294,951.66846
"2739",81.32937,951.68164
"2740",81.27566,951.6948
"2741",81.30007,951.708
"2742",81.36355,951.7212
"2743",81.42214,951.7344
"2744",81.43679,951.74756
"2745",81.3782,951.76074
"2746",81.23659,951.7739
"2747",81.02174,951.7871
"2748",80.73853,951.8003
"2749",80.411385,951.8135
"2750",80.05493,951.82666
"2751",79.69848,951.83984
"2752",79.344475,951.853
"2753",79.01488,951.8662
"2754",78.709694,951.8794
"2755",78.44358,951.8926
"2756",78.21164,951.90576
"2757",78.01633,951.91895
"2758",77.86008,951.9321
"2759",77.74044,951.9453
"2760",77.64767,951.9585
"2761",77.58663,951.9717
"2762",77.540245,951.98486
"2763",77.506065,951.99805
"2764",77.47921,952.0112
"2765",77.452354,952.0244
"2766",77.42794,952.0376
"2767",77.40353,952.0508
"2768",77.37423,952.06396
"2769",77.33517,952.07715
"2770",77.2839,952.09033
"2771",77.22041,952.1035
"2772",77.14717,952.1167
"2773",77.07149,952.1299
"2774",77.03731,952.14307
"2775",77.13252,952.15625
"2776",77.49874,952.16943
"2777",78.260475,952.1826
"2778",79.449455,952.1958
"2779",80.98024,952.209
"2780",82.667274,952.22217
"2781",84.27131,952.23535
"2782",85.56771,952.24854
"2783",86.42466,952.2617
"2784",86.83971,952.2749
"2785",86.86656,952.2881
"2786",86.588234,952.3013
"2787",86.10971,952.31445
"2788",85.52621,952.32764
"2789",84.91341,952.3408
"2790",84.32014,952.354
"2791",83.76837,952.3672
"2792",83.26055,952.3804
"2793",82.79912,952.39355
"2794",82.38163,952.40674
"2795",82.022736,952.4199
"2796",81.73464,952.4331
"2797",81.532005,952.4463
"2798",81.41238,952.4595
"2799",81.36111,952.47266
"2800",81.3489,952.48584
"2801",81.33425,952.499
"2802",81.287865,952.5122
"2803",81.18288,952.5254
"2804",81.01442,952.5386
"2805",80.7776,952.55176
"2806",80.482185,952.56494
"2807",80.14526,952.5781
"2808",79.79126,952.5913
"2809",79.429924,952.6045
"2810",79.080795,952.6177
"2811",78.751205,952.63086
"2812",78.45335,952.64404
"2813",78.187225,952.6572
"2814",77.95529,952.6704
"2815",77.76242,952.6836
"2816",77.59884,952.6968
"2817",77.469444,952.70996
"2818",77.366905,952.72314
"2819",77.28878,952.7363
"2820",77.23018,952.7495
"2821",77.18135,952.7627
"2822",77.13985,952.7759
"2823",77.0959,952.78906
"2824",77.04463,952.80225
"2825",76.99092,952.8154
"2826",76.93233,952.8286
"2827",76.86885,952.8418
"2828",76.79561,952.855
"2829",76.71259,952.86816
"2830",76.610054,952.88135
"2831",76.49287,952.89453
"2832",76.37812,952.9077
"2833",76.314644,952.9209
"2834",76.40986,952.9341
"2835",76.80293,952.94727
"2836",77.608604,952.96045
"2837",78.84398,952.97363
"2838",80.413826,952.9868
"2839",82.11551,953
"2840",83.70733,953.0132
"2841",84.972,953.02637
"2842",85.79965,953.03955
"2843",86.18051,953.05273
"2844",86.17807,953.0659
"2845",85.88022,953.0791
"2846",85.39437,953.0923
"2847",84.81575,953.10547
"2848",84.22247,953.11865
"2849",83.66094,953.13184
"2850",83.15068,953.145
"2851",82.686806,953.1582
"2852",82.25468,953.1714
"2853",81.866486,953.1846
"2854",81.52468,953.19775
"2855",81.24635,953.21094
"2856",81.04616,953.2241
"2857",80.92409,953.2373
"2858",80.85329,953.2505
"2859",80.80934,953.2637
"2860",80.765396,953.27686
"2861",80.69215,953.29004
"2862",80.57496,953.3032
"2863",80.40162,953.3164
"2864",80.17212,953.3296
"2865",79.888916,953.3428
"2866",79.571526,953.35596
"2867",79.22972,953.36914
"2868",78.88548,953.3823
"2869",78.551,953.3955
"2870",78.23605,953.4087
"2871",77.945526,953.4219
"2872",77.69405,953.43506
"2873",77.48165,953.44824
"2874",77.313194,953.4614
"2875",77.18379,953.4746
"2876",77.08858,953.4878
"2877",77.01045,953.501
"2878",76.946976,953.51416
"2879",76.893265,953.52734
"2880",76.841995,953.5405
"2881",76.79805,953.5537
"2882",76.76387,953.5669
"2883",76.72968,953.5801
"2884",76.6955,953.59326
"2885",76.654,953.60645
"2886",76.610054,953.6196
"2887",76.561226,953.6328
"2888",76.5124,953.646
"2889",76.46113,953.6592
"2890",76.404976,953.67236
"2891",76.33906,953.68555
"2892",76.265816,953.6987
"2893",76.192566,953.7119
"2894",76.16327,953.7251
"2895",76.27802,953.7383
"2896",76.67841,953.75146
"2897",77.47677,953.76465
"2898",78.695045,953.77783
"2899",80.24292,953.791
"2900",81.92752,953.8042
"2901",83.50713,953.8174
"2902",84.76448,953.83057
"2903",85.5848,953.84375
"2904",85.96567,953.85693
"2905",85.96567,953.8701
"2906",85.67513,953.8833
"2907",85.20149,953.8965
"2908",84.63508,953.90967
"2909",84.054016,953.92285
"2910",83.49737,953.93604
"2911",82.98711,953.9492
"2912",82.52567,953.9624
"2913",82.1033,953.9756
"2914",81.71999,953.9888
"2915",81.38552,954.00195
"2916",81.1194,954.01514
"2917",80.93385,954.0283
"2918",80.8362,954.0415
"2919",80.814224,954.0547
"2920",80.833755,954.0679
"2921",80.86061,954.08105
"2922",80.85573,954.09424
"2923",80.797134,954.1074
"2924",80.66773,954.1206
"2925",80.45777,954.1338
"2926",80.17944,954.147
"2927",79.85718,954.16016
"2928",79.50317,954.17334
"2929",79.14183,954.1865
"2930",78.79271,954.1997
"2931",78.467995,954.2129
"2932",78.17502,954.2261
"2933",77.92111,954.23926
"2934",77.713585,954.25244
"2935",77.54757,954.2656
"2936",77.42306,954.2788
"2937",77.332726,954.292
"2938",77.27169,954.3052
"2939",77.22774,954.31836
"2940",77.196,954.33154
"2941",77.171585,954.3447
"2942",77.14961,954.3579
"2943",77.12764,954.3711
"2944",77.100784,954.3843
"2945",77.06172,954.39746
"2946",77.01045,954.41064
"2947",76.946976,954.4238
"2948",76.859085,954.437
"2949",76.754105,954.4502
"2950",76.64179,954.4634
"2951",76.54658,954.47656
"2952",76.524605,954.48975
"2953",76.67841,954.5029
"2954",77.14717,954.5161
"2955",78.011444,954.5293
"2956",79.259026,954.5425
"2957",80.76051,954.55566
"2958",82.320595,954.56885
"2959",83.71221,954.58203
"2960",84.749825,954.5952
"2961",85.36019,954.6084
"2962",85.56771,954.6216
"2963",85.44076,954.63477
"2964",85.07454,954.64795
"2965",84.56428,954.66113
"2966",84.00275,954.6743
"2967",83.45098,954.6875
"2968",82.93584,954.7007
"2969",82.459755,954.71387
"2970",82.022736,954.72705
"2971",81.61013,954.74023
"2972",81.231705,954.7534
"2973",80.907,954.7666
"2974",80.65797,954.7798
"2975",80.50416,954.79297
"2976",80.44312,954.80615
"2977",80.45533,954.81934
"2978",80.51148,954.8325
"2979",80.56031,954.8457
"2980",80.567635,954.8589
"2981",80.50416,954.8721
"2982",80.35767,954.88525
"2983",80.13306,954.89844
"2984",79.84253,954.9116
"2985",79.50805,954.9248
"2986",79.151596,954.938
"2987",78.79515,954.9512
"2988",78.45823,954.96436
"2989",78.153046,954.97754
"2990",77.891815,954.9907
"2991",77.67696,955.0039
"2992",77.51095,955.0171
"2993",77.38644,955.0303
"2994",77.31075,955.04346
"2995",77.25948,955.05664
"2996",77.22774,955.0698
"2997",77.21309,955.083
"2998",77.20332,955.0962
"2999",77.18623,955.1094
"3000",77.1667,955.12256
"3001",77.14229,955.13574
"3002",77.09834,955.1489
"3003",77.03731,955.1621
"3004",76.9543,955.1753
"3005",76.8542,955.1885
"3006",76.756546,955.20166
"3007",76.717476,955.21484
"3008",76.82735,955.228
"3009",77.22041,955.2412
"3010",77.98703,955.2544
"3011",79.132065,955.2676
"3012",80.552986,955.28076
"3013",82.07156,955.29395
"3014",83.46563,955.3071
"3015",84.55451,955.3203
"3016",85.240555,955.3335
"3017",85.523766,955.3467
"3018",85.472496,955.35986
"3019",85.18196,955.37305
"3020",84.74738,955.3862
"3021",84.2591,955.3994
"3022",83.773254,955.4126
"3023",83.32159,955.4258
"3024",82.899216,955.43896
"3025",82.49149,955.45215
"3026",82.09354,955.46533
"3027",81.71267,955.4785
"3028",81.36599,955.4917
"3029",81.075455,955.5049
"3030",80.86549,955.51807
"3031",80.73853,955.53125
"3032",80.689705,955.54443
"3033",80.68726,955.5576
"3034",80.69947,955.5708
"3035",80.69215,955.584
"3036",80.638435,955.59717
"3037",80.51148,955.61035
"3038",80.31617,955.62354
"3039",80.05737,955.6367
"3040",79.75464,955.6499
"3041",79.4226,955.6631
"3042",79.080795,955.6763
"3043",78.74143,955.68945
"3044",78.42405,955.70264
"3045",78.1384,955.7158
"3046",77.88937,955.729
"3047",77.68673,955.7422
"3048",77.53048,955.7554
"3049",77.418175,955.76855
"3050",77.34005,955.78174
"3051",77.28878,955.7949
"3052",77.25216,955.8081
"3053",77.22041,955.8213
"3054",77.18135,955.8345
"3055",77.134964,955.84766
"3056",77.07881,955.86084
"3057",77.00801,955.874
"3058",76.927444,955.8872
"3059",76.82979,955.9004
"3060",76.7248,955.9136
"3061",76.63691,955.92676
"3062",76.63935,955.93994
"3063",76.84932,955.9531
"3064",77.38888,955.9663
"3065",78.32395,955.9795
"3066",79.62035,955.9927
"3067",81.14137,956.00586
"3068",82.67704,956.01904
"3069",84.01251,956.0322
"3070",84.98909,956.0454
"3071",85.56039,956.0586
"3072",85.75571,956.0718
"3073",85.65316,956.08496
"3074",85.34066,956.09814
"3075",84.91829,956.1113
"3076",84.454414,956.1245
"3077",84.00275,956.1377
"3078",83.58526,956.1509
"3079",83.192184,956.16406
"3080",82.80156,956.17725
"3081",82.4036,956.1904
"3082",81.99832,956.2036
"3083",81.602806,956.2168
"3084",81.24147,956.23
"3085",80.953384,956.24316
"3086",80.75319,956.25635
"3087",80.63355,956.26953
"3088",80.570076,956.2827
"3089",80.533455,956.2959
"3090",80.482185,956.3091
"3091",80.38697,956.32227
"3092",80.233154,956.33545
"3093",80.01831,956.34863
"3094",79.74731,956.3618
"3095",79.429924,956.375
"3096",79.09056,956.3882
"3097",78.74387,956.40137
"3098",78.40452,956.41455
"3099",78.08957,956.42773
"3100",77.81369,956.4409
"3101",77.574425,956.4541
"3102",77.37423,956.4673
"3103",77.21553,956.48047
"3104",77.086136,956.49365
"3105",76.98848,956.50684
"3106",76.91524,956.52
"3107",76.85664,956.5332
"3108",76.805374,956.5464
"3109",76.75899,956.5596
"3110",76.71015,956.57275
"3111",76.65888,956.58594
"3112",76.59785,956.5991
"3113",76.51972,956.6123
"3114",76.42451,956.6255
"3115",76.32197,956.6387
"3116",76.22919,956.65186
"3117",76.19989,956.66504
"3118",76.3415,956.6782
"3119",76.78096,956.6914
"3120",77.59884,956.7046
"3121",78.78783,956.7178
"3122",80.24292,956.73096
"3123",81.77615,956.74414
"3124",83.16533,956.7573
"3125",84.242004,956.7705
"3126",84.92073,956.7837
"3127",85.21858,956.7969
"3128",85.20149,956.81006
"3129",84.95491,956.82324
"3130",84.576485,956.8364
"3131",84.14923,956.8496
"3132",83.73174,956.8628
"3133",83.34844,956.876
"3134",82.99443,956.88916
"3135",82.652626,956.90234
"3136",82.29618,956.9155
"3137",81.91531,956.9287
"3138",81.51736,956.9419
"3139",81.13649,956.9551
"3140",80.79469,956.96826
"3141",80.51881,956.98145
"3142",80.31373,956.9946
"3143",80.17212,957.0078
"3144",80.06714,957.021
"3145",79.971924,957.0342
"3146",79.8645,957.04736
"3147",79.72045,957.06055
"3148",79.53002,957.0737
"3149",79.290764,957.0869
"3150",79.009995,957.1001
"3151",78.70237,957.1133
"3152",78.380104,957.12646
"3153",78.07248,957.13965
"3154",77.78195,957.15283
"3155",77.51583,957.166
"3156",77.2839,957.1792
"3157",77.08858,957.1924
"3158",76.92256,957.20557
"3159",76.78584,957.21875
"3160",76.67841,957.23193
"3161",76.595406,957.2451
"3162",76.52705,957.2583
"3163",76.46601,957.2715
"3164",76.41474,957.28467
"3165",76.368355,957.29785
"3166",76.32441,957.31104
"3167",76.282906,957.3242
"3168",76.241394,957.3374
"3169",76.19745,957.3506
"3170",76.15106,957.3638
"3171",76.09491,957.37695
"3172",76.02899,957.39014
"3173",75.95575,957.4033
"3174",75.90448,957.4165
"3175",75.928894,957.4297
"3176",76.1413,957.4429
"3177",76.66132,957.45605
"3178",77.557335,957.46924
"3179",78.802475,957.4824
"3180",80.26734,957.4956
"3181",81.76395,957.5088
"3182",83.07744,957.522
"3183",84.0589,957.53516
"3184",84.65217,957.54834
"3185",84.88655,957.5615
"3186",84.83528,957.5747
"3187",84.58625,957.5879
"3188",84.2298,957.6011
"3189",83.84161,957.61426
"3190",83.46807,957.62744
"3191",83.12871,957.6406
"3192",82.82597,957.6538
"3193",82.53788,957.667
"3194",82.23514,957.6802
"3195",81.90311,957.69336
"3196",81.55642,957.70654
"3197",81.20729,957.7197
"3198",80.8777,957.7329
"3199",80.601814,957.7461
"3200",80.38453,957.7593
"3201",80.22095,957.77246
"3202",80.093994,957.78564
"3203",79.97925,957.7988
"3204",79.8645,957.812
"3205",79.727776,957.8252
"3206",79.56176,957.8384
"3207",79.35668,957.85156
"3208",79.12474,957.86475
"3209",78.86595,957.8779
"3210",78.59495,957.8911
"3211",78.32395,957.9043
"3212",78.065155,957.9175
"3213",77.823456,957.93066
"3214",77.60616,957.94385
"3215",77.418175,957.95703
"3216",77.25948,957.9702
"3217",77.13008,957.9834
"3218",77.02998,957.9966
"3219",76.95186,958.00977
"3220",76.88838,958.02295
"3221",76.83467,958.03613
"3222",76.78584,958.0493
"3223",76.74189,958.0625
"3224",76.700386,958.0757
"3225",76.663765,958.08887
"3226",76.63203,958.10205
"3227",76.60029,958.11523
"3228",76.57099,958.1284
"3229",76.541695,958.1416
"3230",76.51484,958.1548
"3231",76.49287,958.16797
"3232",76.47578,958.18115
"3233",76.456245,958.19434
"3234",76.43183,958.2075
"3235",76.39521,958.2207
"3236",76.35859,958.2339
"3237",76.34882,958.2471
"3238",76.44648,958.26025
"3239",76.771194,958.27344
"3240",77.44015,958.2866
"3241",78.485085,958.2998
"3242",79.84985,958.313
"3243",81.373314,958.3262
"3244",82.845505,958.33936
"3245",84.06378,958.35254
"3246",84.90364,958.3657
"3247",85.34554,958.3789
"3248",85.44808,958.3921
"3249",85.28939,958.4053
"3250",84.96956,958.41846
"3251",84.578926,958.43164
"3252",84.18097,958.4448
"3253",83.81964,958.458
"3254",83.5169,958.4712
"3255",83.25323,958.4844
"3256",83.001755,958.49756
"3257",82.73319,958.51074
"3258",82.4329,958.5239
"3259",82.10086,958.5371
"3260",81.75906,958.5503
"3261",81.43679,958.5635
"3262",81.15602,958.57666
"3263",80.93385,958.58984
"3264",80.75807,958.603
"3265",80.61646,958.6162
"3266",80.49439,958.6294
"3267",80.36988,958.6426
"3268",80.22827,958.65576
"3269",80.059814,958.66895
"3270",79.85962,958.6821
"3271",79.63256,958.6953
"3272",79.38842,958.7085
"3273",79.13451,958.7217
"3274",78.88304,958.73486
"3275",78.643776,958.74805
"3276",78.42161,958.7612
"3277",78.22385,958.7744
"3278",78.04562,958.7876
"3279",77.89426,958.8008
"3280",77.76486,958.81396
"3281",77.65743,958.82715
"3282",77.56466,958.84033
"3283",77.48409,958.8535
"3284",77.40841,958.8667
"3285",77.33761,958.8799
"3286",77.27169,958.89307
"3287",77.21065,958.90625
"3288",77.152054,958.91943
"3289",77.100784,958.9326
"3290",77.051956,958.9458
"3291",77.00557,958.959
"3292",76.96651,958.97217
"3293",76.929886,958.98535
"3294",76.895706,958.99854
"3295",76.86885,959.0117
"3296",76.839554,959.0249
"3297",76.81026,959.0381
"3298",76.78584,959.0513
"3299",76.76143,959.06445
"3300",76.732124,959.07764
"3301",76.6955,959.0908
"3302",76.680855,959.104
"3303",76.73945,959.1172
"3304",76.981155,959.1304
"3305",77.53292,959.14355
"3306",78.46555,959.15674
"3307",79.744865,959.1699
"3308",81.231705,959.1831
"3309",82.72831,959.1963
"3310",84.02228,959.2095
"3311",84.964676,959.22266
"3312",85.504234,959.23584
"3313",85.68246,959.249
"3314",85.575035,959.2622
"3315",85.27474,959.2754
"3316",84.86946,959.2886
"3317",84.439766,959.30176
"3318",84.034485,959.31494
"3319",83.682915,959.3281
"3320",83.38506,959.3413
"3321",83.1165,959.3545
"3322",82.85039,959.3677
"3323",82.5745,959.38086
"3324",82.28153,959.39404
"3325",81.98367,959.4072
"3326",81.71267,959.4204
"3327",81.48806,959.4336
"3328",81.31716,959.4468
"3329",81.18776,959.45996
"3330",81.08522,959.47314
"3331",80.98512,959.4863
"3332",80.867935,959.4995
"3333",80.723885,959.5127
"3334",80.5481,959.5259
"3335",80.343025,959.53906
"3336",80.111084,959.55225
"3337",79.85474,959.5654
"3338",79.5935,959.5786
"3339",79.33227,959.5918
"3340",79.078354,959.605
"3341",78.84154,959.61816
"3342",78.63157,959.63135
"3343",78.44846,959.64453
"3344",78.29221,959.6577
"3345",78.16281,959.6709
"3346",78.05295,959.6841
"3347",77.96506,959.69727
"3348",77.89426,959.71045
"3349",77.83566,959.72363
"3350",77.78195,959.7368
"3351",77.733116,959.75
"3352",77.68429,959.7632
"3353",77.63546,959.77637
"3354",77.57931,959.78955
"3355",77.5256,959.80273
"3356",77.471886,959.8159
"3357",77.41573,959.8291
"3358",77.36202,959.8423
"3359",77.313194,959.85547
"3360",77.26925,959.86865
"3361",77.23262,959.88184
"3362",77.205765,959.895
"3363",77.17647,959.9082
"3364",77.154495,959.9214
"3365",77.12764,959.9346
"3366",77.09834,959.94775
"3367",77.06172,959.96094
"3368",77.02754,959.9741
"3369",77.015335,959.9873
"3370",77.08858,960.0005
"3371",77.366905,960.0137
"3372",77.979706,960.02686
"3373",78.99046,960.04004
"3374",80.35035,960.0532
"3375",81.90799,960.0664
"3376",83.44854,960.0796
"3377",84.74494,960.0928
"3378",85.64828,960.10596
"3379",86.1268,960.11914
"3380",86.22446,960.1323
"3381",86.03647,960.1455
"3382",85.65804,960.1587
"3383",85.17952,960.1719
"3384",84.67414,960.18506
"3385",84.20294,960.19824
"3386",83.78058,960.2114
"3387",83.40948,960.2246
"3388",83.07988,960.2378
"3389",82.76738,960.251
"3390",82.47196,960.26416
"3391",82.19119,960.27734
"3392",81.94217,960.2905
"3393",81.73708,960.3037
"3394",81.58572,960.3169
"3395",81.48318,960.3301
"3396",81.41482,960.34326
"3397",81.356224,960.35645
"3398",81.28054,960.3696
"3399",81.17555,960.3828
"3400",81.02907,960.396
"3401",80.83864,960.4092
"3402",80.60914,960.42236
"3403",79.79614,960.4619
"3404",79.51293,960.4751
"3405",79.24681,960.4883
"3406",79.00023,960.50146
"3407",78.785385,960.51465
"3408",78.59739,960.52783
"3409",78.43626,960.541
"3410",78.29954,960.5542
"3411",78.184784,960.5674
"3412",78.09445,960.58057
"3413",78.01877,960.59375
"3414",77.95773,960.60693
"3415",77.90646,960.6201
"3416",77.86252,960.6333
"3417",77.81857,960.6465
"3418",77.769745,960.65967
"3419",77.71603,960.67285
"3420",77.659874,960.68604
"3421",77.59884,960.6992
"3422",77.5378,960.7124
"3423",77.47921,960.7256
"3424",77.42794,960.7388
"3425",77.37667,960.75195
"3426",77.330284,960.76514
"3427",77.28878,960.7783
"3428",77.24971,960.7915
"3429",77.205765,960.8047
"3430",77.15694,960.8179
"3431",77.09834,960.83105
"3432",77.04219,960.84424
"3433",77.00801,960.8574
"3434",77.086136,960.8706
"3435",77.40597,960.8838
"3436",78.09445,960.897
"3437",79.19554,960.91016
"3438",80.62867,960.92334
"3439",82.21805,960.9365
"3440",83.72686,960.9497
"3441",84.945145,960.9629
"3442",85.73861,960.9761
"3443",86.10727,960.98926
"3444",86.11215,961.00244
"3445",85.8436,961.0156
"3446",85.39437,961.0288
"3447",84.85237,961.042
"3448",84.2884,961.0552
"3449",83.75128,961.06836
"3450",83.265434,961.08154
"3451",82.828415,961.0947
"3452",82.43534,961.1079
"3453",82.07889,961.1211
"3454",81.75906,961.1343
"3455",81.48806,961.14746
"3456",81.2781,961.16064
"3457",81.13893,961.1738
"3458",81.06569,961.187
"3459",81.04616,961.2002
"3460",81.04616,961.2134
"3461",81.041275,961.22656
"3462",81.00221,961.23975
"3463",80.90944,961.2529
"3464",80.76051,961.2661
"3465",80.552986,961.2793
"3466",80.30396,961.2925
"3467",80.028076,961.30566
"3468",79.73754,961.31885
"3469",79.44213,961.33203
"3470",79.16136,961.3452
"3471",78.89769,961.3584
"3472",78.658424,961.3716
"3473",78.450905,961.38477
"3474",78.27024,961.39795
"3475",78.12619,961.41113
"3476",78.00656,961.4243
"3477",77.91379,961.4375
"3478",77.84543,961.4507
"3479",77.79172,961.46387
"3480",77.75021,961.47705
"3481",77.713585,961.49023
"3482",77.68185,961.5034
"3483",77.64767,961.5166
"3484",77.611046,961.5298
"3485",77.576866,961.54297
"3486",77.53536,961.55615
"3487",77.49386,961.56934
"3488",77.452354,961.5825
"3489",77.41329,961.5957
"3490",77.37423,961.6089
"3491",77.34249,961.6221
"3492",77.31075,961.63525
"3493",77.27657,961.64844
"3494",77.2375,961.6616
"3495",77.19356,961.6748
"3496",77.137405,961.688
"3497",77.07637,961.7012
"3498",77.03487,961.71436
"3499",77.07393,961.72754
"3500",77.32052,961.7407
"3501",77.92355,961.7539
"3502",78.96361,961.7671
"3503",80.396736,961.7803
"3504",82.06912,961.79346
"3505",83.736626,961.80664
"3506",85.14534,961.8198
"3507",86.1268,961.833
"3508",86.63462,961.8462
"3509",86.73228,961.8594
"3510",86.51011,961.87256
"3511",86.07309,961.88574
"3512",85.51156,961.8989
"3513",84.910965,961.9121
"3514",84.32014,961.9253
"3515",83.76837,961.9385
"3516",83.267876,961.95166
"3517",82.81865,961.96484
"3518",82.4036,961.978
"3519",82.03494,961.9912
"3520",81.72976,962.0044
"3521",81.50027,962.0176
"3522",81.35378,962.03076
"3523",81.29275,962.04395
"3524",81.290306,962.0571
"3525",81.31472,962.0703
"3526",81.33181,962.0835
"3527",81.31472,962.0967
"3528",81.24391,962.10986
"3529",81.10719,962.12305
"3530",80.90944,962.1362
"3531",80.655525,962.1494
"3532",80.36744,962.1626
"3533",80.05493,962.1758
"3534",79.742424,962.18896
"3535",79.43969,962.20215
"3536",79.166245,962.21533
"3537",78.93431,962.2285
"3538",78.74876,962.2417
"3539",78.61448,962.2549
"3540",78.519264,962.26807
"3541",78.45335,962.28125
"3542",78.4094,962.29443
"3543",78.37522,962.3076
"3544",78.345924,962.3208
"3545",78.31663,962.334
"3546",78.28489,962.34717
"3547",78.24094,962.36035
"3548",78.184784,962.37354
"3549",78.12131,962.3867
"3550",78.048065,962.3999
"3551",77.96506,962.4131
"3552",77.874725,962.4263
"3553",77.78439,962.43945
"3554",77.68917,962.45264
"3555",77.60128,962.4658
"3556",77.52071,962.479
"3557",77.454796,962.4922
"3558",77.3962,962.5054
"3559",77.347374,962.51855
"3560",77.30587,962.53174
"3561",77.26681,962.5449
"3562",77.23262,962.5581
"3563",77.22774,962.5713
"3564",77.30343,962.5845
"3565",77.593956,962.59766
"3566",78.24338,962.61084
"3567",79.32983,962.624
"3568",80.80202,962.6372
"3569",82.493935,962.6504
"3570",84.1712,962.6636
"3571",85.58236,962.67676
"3572",86.55894,962.68994
"3573",87.06676,962.7031
"3574",87.15709,962.7163
"3575",86.925156,962.7295
"3576",86.46128,962.7427
"3577",85.86069,962.75586
"3578",85.19905,962.76904
"3579",84.53986,962.7822
"3580",83.914856,962.7954
"3581",83.34112,962.8086
"3582",82.82597,962.8218
"3583",82.35966,962.83496
"3584",81.94949,962.84814
"3585",81.61013,962.8613
"3586",81.35378,962.8745
"3587",81.18288,962.8877
"3588",81.10475,962.9009
"3589",81.09743,962.91406
"3590",81.129166,962.92725
"3591",81.160904,962.9404
"3592",81.15358,962.9536
"3593",81.08766,962.9668
"3594",80.9485,962.98
"3595",80.73853,962.99316
"3596",80.462654,963.00635
"3597",80.147705,963.01953
"3598",79.80347,963.0327
"3599",79.449455,963.0459
"3600",79.10277,963.0591
"3601",78.7805,963.07227
"3602",78.485085,963.08545
"3603",78.22629,963.09863
"3604",78.00168,963.1118
"3605",77.81613,963.125
"3606",77.662315,963.1382
"3607",77.5378,963.15137
"3608",77.44259,963.16455
"3609",77.37179,963.17773
"3610",77.31808,963.1909
"3611",77.27413,963.2041
"3612",77.242386,963.2173
"3613",77.21309,963.23047
"3614",77.188675,963.24365
"3615",77.15938,963.25684
"3616",77.12764,963.27
"3617",77.0959,963.2832
"3618",77.06416,963.2964
"3619",77.032425,963.3096
"3620",77.00069,963.32275
"3621",76.96895,963.33594
"3622",76.93477,963.3491
"3623",76.88838,963.3623
"3624",76.83223,963.3755
"3625",76.76875,963.3887
"3626",76.700386,963.40186
"3627",76.654,963.41504
"3628",76.70771,963.4282
"3629",77.00069,963.4414
"3630",77.69161,963.4546
"3631",78.86351,963.4678
"3632",80.45777,963.48096
"3633",82.2913,963.49414
"3634",84.102844,963.5073
"3635",85.628746,963.5205
"3636",86.68833,963.5337
"3637",87.24986,963.5469
"3638",87.379265,963.56006
"3639",87.17662,963.57324
"3640",86.7396,963.5864
"3641",86.168304,963.5996
"3642",85.53597,963.6128
"3643",84.9012,963.626
"3644",84.298164,963.63916
"3645",83.74151,963.65234
"3646",83.226364,963.6655
"3647",82.757614,963.6787
"3648",82.340126,963.6919
"3649",81.991,963.7051
"3650",81.7322,963.71826
"3651",81.57839,963.73145
"3652",81.52468,963.7446
"3653",81.54421,963.7578
"3654",81.60769,963.771
"3655",81.6614,963.7842
"3656",81.67361,963.79736
"3657",81.61501,963.81055
"3658",81.480736,963.8237
"3659",81.26345,963.8369
"3660",80.9778,963.8501
"3661",80.64332,963.8633
"3662",80.28687,963.87646
"3663",79.923096,963.88965
"3664",79.56664,963.90283
"3665",79.22972,963.916
"3666",78.91722,963.9292
"3667",78.62913,963.9424
"3668",78.37522,963.95557
"3669",78.15549,963.96875
"3670",77.97238,963.98193
"3671",77.82834,963.9951
"3672",77.72091,964.0083
"3673",77.642784,964.0215
"3674",77.58907,964.03467
"3675",77.55245,964.04785
"3676",77.523155,964.06104
"3677",77.49142,964.0742
"3678",77.45968,964.0874
"3679",77.42306,964.1006
"3680",77.37911,964.1138
"3681",77.32784,964.12695
"3682",77.26925,964.14014
"3683",77.19844,964.1533
"3684",77.11055,964.1665
"3685",77.00801,964.1797
"3686",76.89815,964.1929
"3687",76.805374,964.20605
"3688",76.8127,964.21924
"3689",77.05684,964.2324
"3690",77.679405,964.2456
"3691",78.75365,964.2588
"3692",80.233154,964.272
"3693",81.94705,964.28516
"3694",83.65118,964.29834
"3695",85.103836,964.3115
"3696",86.136566,964.3247
"3697",86.712746,964.3379
"3698",86.87877,964.3511
"3699",86.71763,964.36426
"3700",86.32212,964.37744
"3701",85.78012,964.3906
"3702",85.169754,964.4038
"3703",84.53986,964.417
"3704",83.92706,964.4302
"3705",83.34112,964.44336
"3706",82.791794,964.45654
"3707",82.28153,964.4697
"3708",81.83475,964.4829
"3709",81.47097,964.4961
"3710",81.21217,964.5093
"3711",81.06569,964.52246
"3712",81.02907,964.53564
"3713",81.08278,964.5488
"3714",81.180435,964.562
"3715",81.27322,964.5752
"3716",81.3196,964.5884
"3717",81.28054,964.60156
"3718",81.13405,964.61475
"3719",80.89479,964.6279
"3720",80.584724,964.6411
"3721",80.22827,964.6543
"3722",79.84741,964.6675
"3723",79.466545,964.68066
"3724",79.10033,964.69385
"3725",78.75365,964.70703
"3726",78.4387,964.7202
"3727",78.15793,964.7334
"3728",77.91623,964.7466
"3729",77.713585,964.75977
"3730",77.55489,964.77295
"3731",77.437706,964.78613
"3732",77.35958,964.7993
"3733",77.30831,964.8125
"3734",77.26925,964.8257
"3735",77.239944,964.83887
"3736",77.21309,964.85205
"3737",77.18623,964.86523
"3738",77.14961,964.8784
"3739",77.100784,964.8916
"3740",77.032425,964.9048
"3741",76.94209,964.91797
"3742",76.83467,964.93115
"3743",76.732124,964.94434
"3744",76.69062,964.9575
"3745",76.82002,964.9707
"3746",77.25948,964.9839
"3747",78.116425,964.9971
"3748",79.3933,965.01025
"3749",80.98024,965.02344
"3750",82.6746,965.0366
"3751",84.23468,965.0498
"3752",85.46517,965.063
"3753",86.26597,965.0762
"3754",86.641945,965.08936
"3755",86.65415,965.10254
"3756",86.3856,965.1157
"3757",85.924164,965.1289
"3758",85.35531,965.1421
"3759",84.749825,965.1553
"3760",84.14679,965.16846
"3761",83.56817,965.18164
"3762",83.018845,965.1948
"3763",82.50126,965.208
"3764",82.02762,965.2212
"3765",81.617455,965.2344
"3766",81.29763,965.24756
"3767",81.08522,965.26074
"3768",80.987564,965.2739
"3769",80.98512,965.2871
"3770",81.03395,965.3003
"3771",81.0901,965.3135
"3772",81.109634,965.32666
"3773",81.06569,965.33984
"3774",80.936295,965.353
"3775",80.723885,965.3662
"3776",80.43824,965.3794
"3777",80.09888,965.3926
"3778",79.725334,965.40576
"3779",79.33471,965.41895
"3780",78.94652,965.4321
"3781",78.572975,965.4453
"3782",78.23117,965.4585
"3783",77.92844,965.4717
"3784",77.67452,965.48486
"3785",77.471886,965.49805
"3786",77.313194,965.5112
"3787",77.19356,965.5244
"3788",77.10567,965.5376
"3789",77.03975,965.5508
"3790",76.98848,965.56396
"3791",76.94942,965.57715
"3792",76.91524,965.59033
"3793",76.87862,965.6035
"3794",76.83467,965.6167
"3795",76.773636,965.6299
"3796",76.68574,965.64307
"3797",76.58076,965.65625
"3798",76.47822,965.66943
"3799",76.42695,965.6826
"3800",76.53193,965.6958
"3801",76.927444,965.709
"3802",77.72579,965.72217
"3803",78.94408,965.73535
"3804",80.49683,965.74854
"3805",82.2034,965.7617
"3806",83.83185,965.7749
"3807",85.16731,965.7881
"3808",86.08774,965.8013
"3809",86.573586,965.81445
"3810",86.676125,965.82764
"3811",86.47593,965.8408
"3812",86.07309,965.854
"3813",85.557945,965.8672
"3814",85.00374,965.8804
"3815",84.45197,965.89355
"3816",83.914856,965.90674
"3817",83.39483,965.9199
"3818",82.88945,965.9331
"3819",82.39872,965.9463
"3820",81.93973,965.9595
"3821",81.54421,965.97266
"3822",81.234146,965.98584
"3823",81.02174,965.999
"3824",80.902115,966.0122
"3825",80.850845,966.0254
"3826",80.8362,966.0386
"3827",80.816666,966.05176
"3828",80.75807,966.06494
"3829",80.62623,966.0781
"3830",80.41627,966.0913
"3831",80.13306,966.1045
"3832",79.79126,966.1177
"3833",79.41772,966.13086
"3834",79.029526,966.14404
"3835",78.643776,966.1572
"3836",78.2678,966.1704
"3837",77.92111,966.1836
"3838",77.61349,966.1968
"3839",77.349815,966.20996
"3840",77.13985,966.22314
"3841",76.978714,966.2363
"3842",76.8542,966.2495
"3843",76.76143,966.2627
"3844",76.69062,966.2759
"3845",76.63691,966.28906
"3846",76.58808,966.30225
"3847",76.541695,966.3154
"3848",76.49287,966.3286
"3849",76.42939,966.3418
"3850",76.34394,966.355
"3851",76.23895,966.36816
"3852",76.121765,966.38135
"3853",76.016785,966.39453
"3854",75.98749,966.4077
"3855",76.15106,966.4209
"3856",76.64423,966.4341
"3857",77.557335,966.44727
"3858",78.89281,966.46045
"3859",80.54078,966.47363
"3860",82.29862,966.4868
"3861",83.929504,966.5
"3862",85.23567,966.5132
"3863",86.11215,966.52637
"3864",86.54429,966.53955
"3865",86.590675,966.55273
"3866",86.348976,966.5659
"3867",85.92172,966.5791
"3868",85.40902,966.5923
"3869",84.876785,966.60547
"3870",84.37141,966.61865
"3871",83.89288,966.63184
"3872",83.42901,966.645
"3873",82.96513,966.6582
"3874",82.493935,966.6714
"3875",82.03006,966.6846
"3876",81.600365,966.69775
"3877",81.234146,966.71094
"3878",80.94606,966.7241
"3879",80.743416,966.7373
"3880",80.6067,966.7505
"3881",80.50904,966.7637
"3882",80.411385,966.77686
"3883",80.289314,966.79004
"3884",80.11597,966.8032
"3885",79.88159,966.8164
"3886",79.58373,966.8296
"3887",79.237045,966.8428
"3888",78.853745,966.85596
"3889",78.45823,966.86914
"3890",78.06271,966.8823
"3891",77.68917,966.8955
"3892",77.347374,966.9087
"3893",77.049515,966.9219
"3894",76.79561,966.93506
"3895",76.58564,966.94824
"3896",76.41474,966.9614
"3897",76.280464,966.9746
"3898",76.18036,966.9878
"3899",76.10712,967.001
"3900",76.050964,967.01416
"3901",75.999695,967.02734
"3902",75.95087,967.0405
"3903",75.897156,967.0537
"3904",75.843445,967.0669
"3905",75.78241,967.0801
"3906",75.7116,967.09326
"3907",75.62615,967.10645
"3908",75.52361,967.1196
"3909",75.421074,967.1328
"3910",75.37469,967.146
"3911",75.48211,967.1592
"3912",75.88251,967.17236
"3913",76.69062,967.18555
"3914",77.93088,967.1987
"3915",79.517815,967.2119
"3916",81.28054,967.2251
"3917",82.9749,967.2383
"3918",84.38117,967.25146
"3919",85.365074,967.26465
"3920",85.90219,967.27783
"3921",86.03891,967.291
"3922",85.86069,967.3042
"3923",85.472496,967.3174
"3924",84.98665,967.33057
"3925",84.48615,967.34375
"3926",84.01251,967.35693
"3927",83.580376,967.3701
"3928",83.17265,967.3833
"3929",82.7625,967.3965
"3930",82.33036,967.40967
"3931",81.87137,967.42285
"3932",81.41726,967.43604
"3933",80.99977,967.4492
"3934",80.6482,967.4624
"3935",80.37476,967.4756
"3936",80.17944,967.4888
"3937",80.03784,967.50195
"3938",79.920654,967.51514
"3939",79.798584,967.5283
"3940",79.65209,967.5415
"3941",79.45434,967.5547
"3942",79.202866,967.5679
"3943",78.905014,967.58105
"3944",78.572975,967.59424
"3945",78.21652,967.6074
"3946",77.857635,967.6206
"3947",77.51095,967.6338
"3948",77.19356,967.647
"3949",76.910355,967.66016
"3950",76.67109,967.67334
"3951",76.47822,967.6865
"3952",76.32441,967.6997
"3953",76.20233,967.7129
"3954",76.10712,967.7261
"3955",76.03143,967.73926
"3956",75.965515,967.75244
"3957",75.911804,967.7656
"3958",75.86542,967.7788
"3959",75.82147,967.792
"3960",75.77753,967.8052
"3961",75.733574,967.81836
"3962",75.69207,967.83154
"3963",75.65301,967.8447
"3964",75.6115,967.8579
"3965",75.56756,967.8711
"3966",75.52117,967.8843
"3967",75.46502,967.89746
"3968",75.403984,967.91064
"3969",75.355156,967.9238
"3970",75.37469,967.937
"3971",75.55779,967.9502
"3972",76.04608,967.9634
"3973",76.93965,967.97656
"3974",78.25071,967.98975
"3975",79.86694,968.0029
"3976",81.59792,968.0161
"3977",83.194626,968.0293
"3978",84.456856,968.0425
"3979",85.279625,968.05566
"3980",85.66781,968.06885
"3981",85.69222,968.08203
"3982",85.452965,968.0952
"3983",85.05257,968.1084
"3984",84.58869,968.1216
"3985",84.12726,968.13477
"3986",83.70489,968.14795
"3987",83.32647,968.16113
"3988",82.9749,968.1743
"3989",82.62821,968.1875
"3990",82.25712,968.2007
"3991",81.864044,968.21387
"3992",81.46609,968.22705
"3993",81.0901,968.24023
"3994",80.765396,968.2534
"3995",80.5066,968.2666
"3996",80.31373,968.2798
"3997",80.16724,968.29297
"3998",80.05005,968.30615
"3999",79.93286,968.31934
"4000",79.801025,968.3325
"4001",79.635,968.3457
"4002",79.429924,968.3589
"4003",79.183334,968.3721
"4004",78.9099,968.38525
"4005",78.61936,968.39844
"4006",78.32151,968.4116
"4007",78.0383,968.4248
"4008",77.77219,968.438
"4009",77.53536,968.4512
"4010",77.332726,968.46436
"4011",77.1667,968.47754
"4012",77.032425,968.4907
"4013",76.927444,968.5039
"4014",76.84688,968.5171
"4015",76.7834,968.5303
"4016",76.732124,968.54346
"4017",76.69062,968.55664
"4018",76.654,968.5698
"4019",76.62226,968.583
"4020",76.58808,968.5962
"4021",76.5539,968.6094
"4022",76.51728,968.62256
"4023",76.4831,968.63574
"4024",76.44648,968.6489
"4025",76.40986,968.6621
"4026",76.37812,968.6753
"4027",76.351265,968.6885
"4028",76.32197,968.70166
"4029",76.29267,968.71484
"4030",76.26093,968.728
"4031",76.22186,968.7412
"4032",76.17792,968.7544
"4033",76.15106,968.7676
"4034",76.190125,968.78076
"4035",76.40009,968.79395
"4036",76.912796,968.8071
"4037",77.823456,968.8203
"4038",79.11742,968.8335
"4039",80.68482,968.8467
"4040",82.31815,968.85986
"4041",83.78302,968.87305
"4042",84.893875,968.8862
"4043",85.56771,968.8994
"4044",85.83383,968.9126
"4045",85.76547,968.9258
"4046",85.46273,968.93896
"4047",85.030594,968.95215
"4048",84.54963,968.96533
"4049",84.088196,968.9785
"4050",83.682915,968.9917
"4051",83.33379,969.0049
"4052",83.02373,969.01807
"4053",82.7161,969.03125
"4054",82.391396,969.04443
"4055",82.04471,969.0576
"4056",81.688255,969.0708
"4057",81.356224,969.084
"4058",81.075455,969.09717
"4059",80.85817,969.11035
"4060",80.70435,969.12354
"4061",80.59693,969.1367
"4062",80.51148,969.1499
"4063",80.42359,969.1631
"4064",80.31373,969.1763
"4065",80.16968,969.18945
"4066",79.98413,969.20264
"4067",79.75464,969.2158
"4068",79.49584,969.229
"4069",79.219955,969.2422
"4070",78.941635,969.2554
"4071",78.66575,969.26855
"4072",78.41184,969.28174
"4073",78.18967,969.2949
"4074",77.996796,969.3081
"4075",77.83322,969.3213
"4076",77.70626,969.3345
"4077",77.60616,969.34766
"4078",77.51827,969.36084
"4079",77.44747,969.374
"4080",77.38888,969.3872
"4081",77.33761,969.4004
"4082",77.298546,969.4136
"4083",77.27169,969.42676
"4084",77.24483,969.43994
"4085",77.21553,969.4531
"4086",77.18135,969.4663
"4087",77.13985,969.4795
"4088",77.0959,969.4927
"4089",77.0544,969.50586
"4090",77.01778,969.51904
"4091",76.98604,969.5322
"4092",76.961624,969.5454
"4093",76.93721,969.5586
"4094",76.91524,969.5718
"4095",76.893265,969.58496
"4096",76.87373,969.59814
"4097",76.84932,969.6113
"4098",76.824905,969.6245
"4099",76.80049,969.6377
"4100",76.81514,969.6509
"4101",76.95186,969.66406
"4102",77.34249,969.67725
"4103",78.099335,969.6904
"4104",79.24681,969.7036
"4105",80.69703,969.7168
"4106",82.266884,969.73
"4107",83.73174,969.74316
"4108",84.88167,969.75635
"4109",85.61166,969.76953
"4110",85.91928,969.7827
"4111",85.88022,969.7959
"4112",85.58968,969.8091
"4113",85.14534,969.82227
"4114",84.6424,969.83545
"4115",84.15167,969.84863
"4116",83.71221,969.8618
"4117",83.33379,969.875
"4118",83.01152,969.8882
"4119",82.70878,969.90137
"4120",82.408485,969.91455
"4121",82.10086,969.92773
"4122",81.78836,969.9409
"4123",81.49294,969.9541
"4124",81.23903,969.9673
"4125",81.041275,969.98047
"4126",80.90456,969.99365
"4127",80.80934,970.00684
"4128",80.73365,970.02
"4129",80.655525,970.0332
"4130",80.56275,970.0464
"4131",80.43336,970.0596
"4132",80.26246,970.07275
"4133",80.059814,970.08594
"4134",79.82788,970.0991
"4135",79.57397,970.1123
"4136",79.31518,970.1255
"4137",79.05638,970.1387
"4138",78.80736,970.15186
"4139",78.5803,970.16504
"4140",78.37766,970.1782
"4141",78.2092,970.1914
"4142",78.07248,970.2046
"4143",77.96506,970.2178
"4144",77.87961,970.23096
"4145",77.80881,970.24414
"4146",77.747765,970.2573
"4147",77.69405,970.2705
"4148",77.645226,970.2837
"4149",77.60128,970.2969
"4150",77.5671,970.31006
"4151",77.53292,970.32324
"4152",77.49874,970.3364
"4153",77.46456,970.3496
"4154",77.4255,970.3628
"4155",77.37911,970.376
"4156",77.32784,970.38916
"4157",77.279015,970.40234
"4158",77.22774,970.4155
"4159",77.188675,970.4287
"4160",77.154495,970.4419
"4161",77.1252,970.4551
"4162",77.09834,970.46826
"4163",77.07149,970.48145
"4164",77.04219,970.4946
"4165",77.00557,970.5078
"4166",76.961624,970.521
"4167",76.91768,970.5342
"4168",76.88594,970.54736
"4169",76.912796,970.56055
"4170",77.100784,970.5737
"4171",77.58175,970.5869
"4172",78.45823,970.6001
"4173",79.72289,970.6133
"4174",81.253685,970.62646
"4175",82.83574,970.63965
"4176",84.23468,970.65283
"4177",85.25765,970.666
"4178",85.83627,970.6792
"4179",86.00717,970.6924
"4180",85.86557,970.70557
"4181",85.50912,970.71875
"4182",85.03548,970.73193
"4183",84.52277,970.7451
"4184",84.03693,970.7583
"4185",83.60967,970.7715
"4186",83.24834,970.78467
"4187",82.93828,970.79785
"4188",82.66239,970.81104
"4189",82.40116,970.8242
"4190",82.14725,970.8374
"4191",81.898224,970.8506
"4192",81.67605,970.8638
"4193",81.48562,970.87695
"4194",81.341576,970.89014
"4195",81.23659,970.9033
"4196",81.15846,970.9165
"4197",81.092545,970.9297
"4198",81.02174,970.9429
"4199",80.921646,970.95605
"4200",80.77516,970.96924
"4201",80.5774,970.9824
"4202",80.34058,970.9956
"4203",80.08667,971.0088
"4204",79.82544,971.022
"4205",79.571526,971.03516
"4206",79.33715,971.04834
"4207",79.11742,971.0615
"4208",78.9099,971.0747
"4209",78.7219,971.0879
"4210",78.56565,971.1011
"4211",78.433815,971.11426
"4212",78.32395,971.12744
"4213",78.23605,971.1406
"4214",78.167694,971.1538
"4215",78.1091,971.167
"4216",78.06271,971.1802
"4217",78.02121,971.19336
"4218",77.98947,971.20654
"4219",77.960175,971.2197
"4220",77.93088,971.2329
"4221",77.89914,971.2461
"4222",77.86252,971.2593
"4223",77.81857,971.27246
"4224",77.77463,971.28564
"4225",77.730675,971.2988
"4226",77.68917,971.312
"4227",77.65255,971.3252
"4228",77.625694,971.3384
"4229",77.611046,971.35156
"4230",77.60128,971.36475
"4231",77.5964,971.3779
"4232",77.58907,971.3911
"4233",77.574425,971.4043
"4234",77.54513,971.4175
"4235",77.50851,971.43066
"4236",77.467,971.44385
"4237",77.4255,971.45703
"4238",77.418175,971.4702
"4239",77.52071,971.4834
"4240",77.86252,971.4966
"4241",78.57053,971.50977
"4242",79.68871,971.52295
"4243",81.13893,971.53613
"4244",82.74296,971.5493
"4245",84.26154,971.5625
"4246",85.47494,971.5757
"4247",86.258644,971.58887
"4248",86.61021,971.60205
"4249",86.60288,971.61523
"4250",86.32456,971.6284
"4251",85.87778,971.6416
"4252",85.33822,971.6548
"4253",84.77669,971.66797
"4254",84.24689,971.68115
"4255",83.775696,971.69434
"4256",83.36553,971.7075
"4257",83.00664,971.7207
"4258",82.68192,971.7339
"4259",82.38651,971.7471
"4260",82.11795,971.76025
"4261",81.89578,971.77344
"4262",81.7322,971.7866
"4263",81.62722,971.7998
"4264",81.57107,971.813
"4265",81.54665,971.8262
"4266",81.52468,971.83936
"4267",81.48318,971.85254
"4268",81.40505,971.8657
"4269",81.2781,971.8789
"4270",81.09743,971.8921
"4271",80.87038,971.9053
"4272",80.6067,971.91846
"4273",80.31617,971.93164
"4274",80.01343,971.9448
"4275",79.71557,971.958
"4276",79.432365,971.9712
"4277",79.17357,971.9844
"4278",78.94652,971.99756
"4279",78.751205,972.01074
"4280",78.58762,972.0239
"4281",78.45335,972.0371
"4282",78.34348,972.0503
"4283",78.25559,972.0635
"4284",78.184784,972.07666
"4285",78.12375,972.08984
"4286",78.065155,972.103
"4287",78.011444,972.1162
"4288",77.96506,972.1294
"4289",77.92111,972.1426
"4290",77.88205,972.15576
"4291",77.840546,972.16895
"4292",77.79172,972.1821
"4293",77.738,972.1953
"4294",77.679405,972.2085
"4295",77.62081,972.2217
"4296",77.56954,972.23486
"4297",77.51827,972.24805
"4298",77.471886,972.2612
"4299",77.4255,972.2744
"4300",77.37911,972.2876
"4301",77.330284,972.3008
"4302",77.279015,972.31396
"4303",77.21553,972.32715
"4304",77.152054,972.34033
"4305",77.11299,972.3535
"4306",77.17403,972.3667
"4307",77.48409,972.3799
"4308",78.17258,972.39307
"4309",79.290764,972.40625
"4310",80.77028,972.41943
"4311",82.42802,972.4326
"4312",84.017395,972.4458
"4313",85.30892,972.459
"4314",86.15854,972.47217
"4315",86.556496,972.48535
"4316",86.5687,972.49854
"4317",86.295265,972.5117
"4318",85.82895,972.5249
"4319",85.25277,972.5381
"4320",84.63996,972.5513
"4321",84.04669,972.56445
"4322",83.50713,972.57764
"4323",83.021286,972.5908
"4324",82.58915,972.604
"4325",82.2034,972.6172
"4326",81.85916,972.6304
"4327",81.56374,972.64355
"4328",81.341576,972.65674
"4329",81.20241,972.6699
"4330",81.14137,972.6831
"4331",81.14137,972.6963
"4332",81.16823,972.7095
"4333",81.18776,972.72266
"4334",81.17311,972.73584
"4335",81.10231,972.749
"4336",80.972916,972.7622
"4337",80.7776,972.7754
"4338",80.533455,972.7886
"4339",80.255135,972.80176
"4340",79.954834,972.81494
"4341",79.65209,972.8281
"4342",79.35424,972.8413
"4343",79.07347,972.8545
"4344",78.81224,972.8677
"4345",78.58518,972.88086
"4346",78.38743,972.89404
"4347",78.22385,972.9072
"4348",78.09201,972.9204
"4349",77.98947,972.9336
"4350",77.90402,972.9468
"4351",77.838104,972.95996
"4352",77.789276,972.97314
"4353",77.752655,972.9863
"4354",77.72091,972.9995
"4355",77.69161,973.0127
"4356",77.659874,973.0259
"4357",77.61349,973.03906
"4358",77.56466,973.05225
"4359",77.51827,973.0654
"4360",77.47433,973.0786
"4361",77.435265,973.0918
"4362",77.40353,973.105
"4363",77.37179,973.11816
"4364",77.33761,973.13135
"4365",77.30099,973.14453
"4366",77.26681,973.1577
"4367",77.23506,973.1709
"4368",77.20088,973.1841
"4369",77.16182,973.19727
"4370",77.11299,973.21045
"4371",77.06416,973.22363
"4372",77.05684,973.2368
"4373",77.18379,973.25
"4374",77.5964,973.2632
"4375",78.42161,973.27637
"4376",79.68627,973.28955
"4377",81.28054,973.30273
"4378",82.99931,973.3159
"4379",84.58381,973.3291
"4380",85.80698,973.3423
"4381",86.556496,973.35547
"4382",86.84703,973.36865
"4383",86.76402,973.38184
"4384",86.41245,973.395
"4385",85.892426,973.4082
"4386",85.29183,973.4214
"4387",84.67658,973.4346
"4388",84.09064,973.44775
"4389",83.55596,973.46094
"4390",83.075,973.4741
"4391",82.64286,973.4873
"4392",82.25468,973.5005
"4393",81.9202,973.5137
"4394",81.651634,973.52686
"4395",81.461205,973.54004
"4396",81.35378,973.5532
"4397",81.322044,973.5664
"4398",81.33669,973.5796
"4399",81.36843,973.5928
"4400",81.38064,973.60596
"4401",81.35378,973.61914
"4402",81.26833,973.6323
"4403",81.11452,973.6455
"4404",80.89479,973.6587
"4405",80.621346,973.6719
"4406",80.31373,973.68506
"4407",79.98901,973.69824
"4408",79.66918,973.7114
"4409",79.36645,973.7246
"4410",79.09056,973.7378
"4411",78.836655,973.751
"4412",78.61448,973.76416
"4413",78.42161,973.77734
"4414",78.25803,973.7905
"4415",78.12619,973.8037
"4416",78.02609,973.8169
"4417",77.95285,973.8301
"4418",77.8967,973.84326
"4419",77.855194,973.85645
"4420",77.821014,973.8696
"4421",77.789276,973.8828
"4422",77.752655,973.896
"4423",77.713585,973.9092
"4424",77.66964,973.92236
"4425",77.62325,973.93555
"4426",77.576866,973.9487
"4427",77.53048,973.9619
"4428",77.48409,973.9751
"4429",77.44503,973.9883
"4430",77.40597,974.00146
"4431",77.36446,974.01465
"4432",77.32052,974.02783
"4433",77.26681,974.041
"4434",77.20088,974.0542
"4435",77.1252,974.0674
"4436",77.049515,974.08057
"4437",77.01289,974.09375
"4438",77.100784,974.10693
"4439",77.44503,974.1201
"4440",78.170135,974.1333
"4441",79.310295,974.1465
"4442",80.7776,974.15967
"4443",82.38651,974.17285
"4444",83.895325,974.18604
"4445",85.08919,974.1992
"4446",85.838715,974.2124
"4447",86.151215,974.2256
"4448",86.09018,974.2388
"4449",85.75815,974.25195
"4450",85.25033,974.26514
"4451",84.65949,974.2783
"4452",84.054016,974.2915
"4453",83.48516,974.3047
"4454",82.967575,974.3179
"4455",82.511024,974.33105
"4456",82.10574,974.34424
"4457",81.74441,974.3574
"4458",81.43191,974.3706
"4459",81.17555,974.3838
"4460",80.99245,974.397
"4461",80.88747,974.41016
"4462",80.85817,974.42334
"4463",80.87526,974.4365
"4464",80.907,974.4497
"4465",80.921646,974.4629
"4466",80.89235,974.4761
"4467",80.8069,974.48926
"4468",80.65797,974.50244
"4469",80.448006,974.5156
"4470",80.19409,974.5288
"4471",79.90845,974.542
"4472",79.61059,974.5552
"4473",79.31518,974.56836
"4474",79.03685,974.58154
"4475",78.7805,974.5947
"4476",78.553444,974.6079
"4477",78.35325,974.6211
"4478",78.18234,974.6343
"4479",78.04562,974.64746
"4480",77.93576,974.66064
"4481",77.85031,974.6738
"4482",77.789276,974.687
"4483",77.74532,974.7002
"4484",77.71114,974.7134
"4485",77.68185,974.72656
"4486",77.65499,974.73975
"4487",77.625694,974.7529
"4488",77.593956,974.7661
"4489",77.56222,974.7793
"4490",77.52804,974.7925
"4491",77.49142,974.80566
"4492",77.44991,974.81885
"4493",77.41085,974.83203
"4494",77.37179,974.8452
"4495",77.332726,974.8584
"4496",77.298546,974.8716
"4497",77.261925,974.88477
"4498",77.222855,974.89795
"4499",77.18135,974.91113
"4500",77.12764,974.9243
"4501",77.07149,974.9375
"4502",77.0251,974.9507
"4503",77.02754,974.96387
"4504",77.17647,974.97705
"4505",77.61593,974.99023
"4506",78.45579,975.0034
"4507",79.69604,975.0166
"4508",81.22438,975.0298
"4509",82.83818,975.04297
"4510",84.29084,975.05615
"4511",85.384605,975.06934
"4512",86.02182,975.0825
"4513",86.23422,975.0957
"4514",86.10239,975.1089
"4515",85.72396,975.1221
"4516",85.19173,975.13525
"4517",84.59846,975.14844
"4518",84.00275,975.1616
"4519",83.44854,975.1748
"4520",82.95293,975.188
"4521",82.51591,975.2012
"4522",82.13016,975.21436
"4523",81.78592,975.22754
"4524",81.497826,975.2407
"4525",81.26589,975.2539
"4526",81.10719,975.2671
"4527",81.024185,975.2803
"4528",81.007095,975.29346
"4529",81.03395,975.30664
"4530",81.07057,975.3198
"4531",81.08766,975.333
"4532",81.06081,975.3462
"4533",80.97536,975.3594
"4534",80.82155,975.37256
"4535",80.61158,975.38574
"4536",80.35523,975.3989
"4537",80.06958,975.4121
"4538",79.77173,975.4253
"4539",79.47387,975.4385
"4540",79.1931,975.45166
"4541",78.93675,975.46484
"4542",78.709694,975.478
"4543",78.51194,975.4912
"4544",78.348366,975.5044
"4545",78.21896,975.5176
"4546",78.1091,975.53076
"4547",78.030975,975.54395
"4548",77.97482,975.5571
"4549",77.9382,975.5703
"4550",77.90646,975.5835
"4551",77.88205,975.5967
"4552",77.857635,975.60986
"4553",77.82834,975.62305
"4554",77.79416,975.6362
"4555",77.75754,975.6494
"4556",77.71847,975.6626
"4557",77.67696,975.6758
"4558",77.64034,975.68896
"4559",77.60372,975.70215
"4560",77.5671,975.71533
"4561",77.53048,975.7285
"4562",77.49874,975.7417
"4563",77.46456,975.7549
"4564",77.42306,975.76807
"4565",77.37423,975.78125
"4566",77.31808,975.79443
"4567",77.25216,975.8076
"4568",77.208206,975.8208
"4569",77.25948,975.834
"4570",77.52804,975.84717
"4571",78.14572,975.86035
"4572",79.17113,975.87354
"4573",80.552986,975.8867
"4574",82.13016,975.8999
