"","ppg","time"
"1",82.65751,639.4993
"2",82.00809,639.51263
"3",81.26833,639.52594
"4",80.4773,639.53925
"5",79.674065,639.55255
"6",78.907455,639.56586
"7",78.204315,639.57916
"8",77.58175,639.59247
"9",77.03487,639.6058
"10",76.56611,639.6191
"11",76.17059,639.6324
"12",75.85809,639.6457
"13",75.62615,639.659
"14",75.47234,639.6723
"15",75.38201,639.6856
"16",75.335625,639.6989
"17",75.31121,639.7122
"18",75.301445,639.7255
"19",75.30877,639.73883
"20",75.35027,639.75214
"21",75.48943,639.76544
"22",75.82391,639.77875
"23",76.453804,639.79205
"24",77.43038,639.80536
"25",78.71702,639.81866
"26",80.17944,639.832
"27",81.619896,639.8453
"28",82.82597,639.8586
"29",83.66094,639.8719
"30",84.07599,639.8852
"31",84.11505,639.8985
"32",83.878235,639.9118
"33",83.48028,639.9251
"34",83.02617,639.9384
"35",82.598915,639.9517
"36",82.24002,639.965
"37",81.94461,639.97833
"38",81.6907,639.99164
"39",81.449,640.00494
"40",81.19997,640.01825
"41",80.95094,640.03156
"42",80.71656,640.04486
"43",80.51881,640.05817
"44",80.36256,640.0715
"45",80.24292,640.0848
"46",80.14038,640.0981
"47",80.03052,640.1114
"48",79.89624,640.1247
"49",79.727776,640.138
"50",79.52514,640.1513
"51",79.27856,640.1646
"52",78.98314,640.1779
"53",78.65598,640.1912
"54",78.311745,640.2045
"55",77.9675,640.21783
"56",77.64034,640.23114
"57",77.349815,640.24445
"58",77.103226,640.25775
"59",76.90059,640.27106
"60",76.74189,640.28436
"61",76.6247,640.29767
"62",76.5539,640.311
"63",76.507515,640.3243
"64",76.473335,640.3376
"65",76.44404,640.3509
"66",76.404976,640.3642
"67",76.35615,640.3775
"68",76.30244,640.3908
"69",76.26093,640.4041
"70",76.29511,640.4174
"71",76.50507,640.4307
"72",77.00801,640.44403
"73",77.855194,640.45734
"74",79.01488,640.47064
"75",80.34058,640.48395
"76",81.62478,640.49725
"77",82.652626,640.51056
"78",83.299614,640.52386
"79",83.543755,640.5372
"80",83.458305,640.5505
"81",83.158005,640.5638
"82",82.774704,640.5771
"83",82.40116,640.5904
"84",82.10086,640.6037
"85",81.8909,640.617
"86",81.77127,640.6303
"87",81.71023,640.6436
"88",81.67849,640.6569
"89",81.64919,640.6702
"90",81.600365,640.68353
"91",81.50759,640.69684
"92",81.36111,640.71014
"93",81.15602,640.72345
"94",80.93141,640.73676
"95",80.719,640.75006
"96",80.5481,640.76337
"97",80.430916,640.7767
"98",80.35035,640.79
"99",80.26002,640.8033
"100",80.13306,640.8166
"101",79.95972,640.8299
"102",79.76196,640.8432
"103",79.554436,640.8565
"104",79.35668,640.8698
"105",79.17113,640.8831
"106",78.995346,640.8964
"107",78.81712,640.9097
"108",78.62913,640.92303
"109",78.433815,640.93634
"110",78.23117,640.94965
"111",78.02609,640.96295
"112",77.823456,640.97626
"113",77.6379,640.98956
"114",77.47677,641.00287
"115",77.34249,641.0162
"116",77.23262,641.0295
"117",77.154495,641.0428
"118",77.117874,641.0561
"119",77.16914,641.0694
"120",77.39132,641.0827
"121",77.89914,641.096
"122",78.75853,641.1093
"123",79.94995,641.1226
"124",81.35378,641.1359
"125",82.77226,641.14923
"126",83.97833,641.16254
"127",84.81087,641.17584
"128",85.22102,641.18915
"129",85.25765,641.20245
"130",85.015945,641.21576
"131",84.60578,641.22906
"132",84.1297,641.2424
"133",83.648735,641.2557
"134",83.1873,641.269
"135",82.75517,641.2823
"136",82.34501,641.2956
"137",81.94217,641.3089
"138",81.54421,641.3222
"139",81.15846,641.3355
"140",80.80934,641.3488
"141",80.52369,641.3621
"142",80.308846,641.3754
"143",80.15991,641.38873
"144",80.05737,641.40204
"145",79.974365,641.41534
"146",79.88159,641.42865
"147",79.75708,641.44196
"148",79.59594,641.45526
"149",79.40063,641.46857
"150",79.17113,641.4819
"151",78.91966,641.4952
"152",78.65354,641.5085
"153",78.382545,641.5218
"154",78.11154,641.5351
"155",77.85031,641.5484
"156",77.61593,641.5617
"157",77.42794,641.575
"158",77.27657,641.5883
"159",77.16426,641.6016
"160",77.083694,641.6149
"161",77.02754,641.62823
"162",76.9836,641.64154
"163",76.9543,641.65485
"164",76.93721,641.66815
"165",76.929886,641.68146
"166",76.92012,641.69476
"167",76.90791,641.70807
"168",76.876175,641.7214
"169",76.824905,641.7347
"170",76.756546,641.748
"171",76.700386,641.7613
"172",76.7248,641.7746
"173",76.9543,641.7879
"174",77.523155,641.8012
"175",78.502174,641.8145
"176",79.85962,641.8278
"177",81.43679,641.8411
"178",83.0164,641.85443
"179",84.349434,641.86774
"180",85.27474,641.88104
"181",85.73861,641.89435
"182",85.79477,641.90765
"183",85.5433,641.92096
"184",85.10628,641.93427
"185",84.58869,641.9476
"186",84.071106,641.9609
"187",83.59258,641.9742
"188",83.160446,641.9875
"189",82.760056,642.0008
"190",82.371864,642.0141
"191",81.98367,642.0274
"192",81.61257,642.0407
"193",81.27566,642.054
"194",81.004654,642.0673
"195",80.80934,642.0806
"196",80.68482,642.09393
"197",80.6067,642.10724
"198",80.54078,642.12054
"199",80.45777,642.13385
"200",80.33814,642.14716
"201",80.17944,642.16046
"202",79.97681,642.17377
"203",79.73998,642.1871
"204",79.48119,642.2004
"205",79.21019,642.2137
"206",78.93431,642.227
"207",78.66819,642.2403
"208",78.42161,642.2536
"209",78.19943,642.2669
"210",78.00412,642.2802
"211",77.838104,642.2935
"212",77.70138,642.3068
"213",77.5964,642.3201
"214",77.51827,642.33344
"215",77.47433,642.34674
"216",77.45724,642.36005
"217",77.45968,642.37335
"218",77.47433,642.38666
"219",77.49386,642.39996
"220",77.50851,642.41327
"221",77.503624,642.4266
"222",77.47433,642.4399
"223",77.420616,642.4532
"224",77.35226,642.4665
"225",77.31808,642.4798
"226",77.41573,642.4931
"227",77.78439,642.5064
"228",78.54124,642.5197
"229",79.70336,642.533
"230",81.18532,642.5463
"231",82.78935,642.55963
"232",84.266426,642.57294
"233",85.39681,642.58624
"234",86.07065,642.59955
"235",86.29282,642.61285
"236",86.1561,642.62616
"237",85.785,642.63947
"238",85.29916,642.6528
"239",84.788895,642.6661
"240",84.31037,642.6794
"241",83.878235,642.6927
"242",83.48272,642.706
"243",83.089645,642.7193
"244",82.68925,642.7326
"245",82.28886,642.7459
"246",81.90311,642.7592
"247",81.55398,642.7725
"248",81.26833,642.7858
"249",81.04616,642.79913
"250",80.88014,642.81244
"251",80.74586,642.82574
"252",80.60914,642.83905
"253",80.448006,642.85236
"254",80.25025,642.86566
"255",80.00122,642.87897
"256",79.71557,642.8923
"257",79.40307,642.9056
"258",79.080795,642.9189
"259",78.76341,642.9322
"260",78.467995,642.9455
"261",78.19943,642.9588
"262",77.962616,642.9721
"263",77.75998,642.9854
"264",77.5964,642.9987
"265",77.467,643.012
"266",77.383995,643.0253
"267",77.34493,643.03864
"268",77.347374,643.05194
"269",77.37911,643.06525
"270",77.43282,643.07855
"271",77.49874,643.09186
"272",77.574425,643.10516
"273",77.66476,643.11847
"274",77.769745,643.1318
"275",77.88205,643.1451
"276",77.99924,643.1584
"277",78.135956,643.1717
"278",78.34104,643.185
"279",78.71946,643.1983
"280",79.40063,643.2116
"281",80.46754,643.2249
"282",81.88846,643.2382
"283",83.5169,643.2515
"284",85.12825,643.26483
"285",86.47105,643.27814
"286",87.3695,643.29144
"287",87.767456,643.30475
"288",87.73327,643.31805
"289",87.38903,643.33136
"290",86.87877,643.34467
"291",86.32212,643.358
"292",85.80942,643.3713
"293",85.3724,643.3846
"294",85.0013,643.3979
"295",84.65705,643.4112
"296",84.29328,643.4245
"297",83.88068,643.4378
"298",83.424126,643.4511
"299",82.95293,643.4644
"300",82.51835,643.4777
"301",82.161896,643.491
"302",81.89334,643.50433
"303",81.705345,643.51764
"304",81.55642,643.53094
"305",81.409935,643.54425
"306",81.23903,643.55756
"307",81.024185,643.57086
"308",80.75807,643.58417
"309",80.44068,643.5975
"310",80.08179,643.6108
"311",79.68383,643.6241
"312",79.26391,643.6374
"313",78.82933,643.6507
"314",78.40208,643.664
"315",77.99191,643.6773
"316",77.611046,643.6906
"317",77.27169,643.7039
"318",76.978714,643.7172
"319",76.72724,643.7305
"320",76.52705,643.74384
"321",76.37812,643.75714
"322",76.27802,643.77045
"323",76.226746,643.78375
"324",76.21454,643.79706
"325",76.23407,643.81036
"326",76.25849,643.82367
"327",76.27558,643.837
"328",76.27314,643.8503
"329",76.25361,643.8636
"330",76.209656,643.8769
"331",76.14618,643.8902
"332",76.09491,643.9035
"333",76.11444,643.9168
"334",76.32197,643.9301
"335",76.859085,643.9434
"336",77.82834,643.9567
"337",79.21019,643.97003
"338",80.87038,643.98334
"339",82.579384,643.99664
"340",84.07599,644.00995
"341",85.16243,644.02325
"342",85.767914,644.03656
"343",85.926605,644.04987
"344",85.73617,644.0632
"345",85.32845,644.0765
"346",84.823074,644.0898
"347",84.30793,644.1031
"348",83.83429,644.1164
"349",83.40948,644.1297
"350",83.0164,644.143
"351",82.62577,644.1563
"352",82.210724,644.1696
"353",81.778595,644.1829
"354",81.34646,644.1962
"355",80.9485,644.20953
"356",80.621346,644.22284
"357",80.38941,644.23615
"358",80.24292,644.24945
"359",80.15015,644.26276
"360",80.06958,644.27606
"361",79.96216,644.28937
"362",79.79614,644.3027
"363",79.56176,644.316
"364",79.26635,644.3293
"365",78.92699,644.3426
"366",78.56809,644.3559
"367",78.204315,644.3692
"368",77.855194,644.3825
"369",77.53292,644.3958
"370",77.24971,644.4091
"371",77.01045,644.4224
"372",76.822464,644.4357
"373",76.67597,644.44904
"374",76.57343,644.46234
"375",76.50263,644.47565
"376",76.45136,644.48895
"377",76.422066,644.50226
"378",76.40986,644.51556
"379",76.40986,644.5289
"380",76.41474,644.5422
"381",76.4123,644.5555
"382",76.39277,644.5688
"383",76.34638,644.5821
"384",76.27558,644.5954
"385",76.18524,644.6087
"386",76.08026,644.622
"387",75.9704,644.6353
"388",75.89227,644.6486
"389",75.93622,644.6619
"390",76.226746,644.67523
"391",76.893265,644.68854
"392",78.00168,644.70184
"393",79.49828,644.71515
"394",81.20729,644.72845
"395",82.88945,644.74176
"396",84.298164,644.75507
"397",85.27474,644.7684
"398",85.78256,644.7817
"399",85.88266,644.795
"400",85.68246,644.8083
"401",85.30404,644.8216
"402",84.857254,644.8349
"403",84.40803,644.8482
"404",83.983215,644.8615
"405",83.580376,644.8748
"406",83.18486,644.8881
"407",82.77959,644.9014
"408",82.357216,644.91473
"409",81.93729,644.92804
"410",81.54421,644.94135
"411",81.20973,644.95465
"412",80.94606,644.96796
"413",80.75319,644.98126
"414",80.60914,644.99457
"415",80.48707,645.0079
"416",80.34547,645.0212
"417",80.15991,645.0345
"418",79.92798,645.0478
"419",79.65453,645.0611
"420",79.34936,645.0744
"421",79.029526,645.0877
"422",78.70481,645.101
"423",78.382545,645.1143
"424",78.05783,645.1276
"425",77.74288,645.1409
"426",77.44991,645.15424
"427",77.196,645.16754
"428",76.98848,645.18085
"429",76.824905,645.19415
"430",76.70283,645.20746
"431",76.610054,645.22076
"432",76.53925,645.2341
"433",76.4831,645.2474
"434",76.436714,645.2607
"435",76.40009,645.274
"436",76.37568,645.2873
"437",76.35615,645.3006
"438",76.334175,645.3139
"439",76.30976,645.3272
"440",76.27558,645.3405
"441",76.21698,645.3538
"442",76.13641,645.3671
"443",76.033875,645.38043
"444",75.93622,645.39374
"445",75.8996,645.40704
"446",76.04364,645.42035
"447",76.51728,645.43365
"448",77.42794,645.44696
"449",78.77318,645.46027
"450",80.44312,645.4736
"451",82.2034,645.4869
"452",83.790344,645.5002
"453",84.98665,645.5135
"454",85.694664,645.5268
"455",85.93881,645.5401
"456",85.81918,645.5534
"457",85.46517,645.5667
"458",84.99397,645.58
"459",84.50324,645.5933
"460",84.04425,645.6066
"461",83.631645,645.61993
"462",83.25567,645.63324
"463",82.88945,645.64655
"464",82.52323,645.65985
"465",82.16434,645.67316
"466",81.83719,645.68646
"467",81.56374,645.69977
"468",81.35378,645.7131
"469",81.19997,645.7264
"470",81.08278,645.7397
"471",80.955826,645.753
"472",80.79469,645.7663
"473",80.57984,645.7796
"474",80.30396,645.7929
"475",79.974365,645.8062
"476",79.60815,645.8195
"477",79.219955,645.8328
"478",78.83421,645.8461
"479",78.470436,645.85944
"480",78.1384,645.87274
"481",77.855194,645.88605
"482",77.628136,645.89935
"483",77.46212,645.91266
"484",77.347374,645.92596
"485",77.281456,645.9393
"486",77.24971,645.9526
"487",77.2375,645.9659
"488",77.23506,645.9792
"489",77.22774,645.9925
"490",77.21065,646.0058
"491",77.17891,646.0191
"492",77.12276,646.0324
"493",77.049515,646.0457
"494",76.95918,646.059
"495",76.8542,646.0723
"496",76.73945,646.08563
"497",76.63691,646.09894
"498",76.578316,646.11224
"499",76.646675,646.12555
"500",76.961624,646.13885
"501",77.64034,646.15216
"502",78.729225,646.16547
"503",80.15747,646.1788
"504",81.75662,646.1921
"505",83.29717,646.2054
"506",84.559395,646.2187
"507",85.40658,646.232
"508",85.81186,646.2453
"509",85.838715,646.2586
"510",85.58968,646.2719
"511",85.17952,646.2852
"512",84.70344,646.2985
"513",84.21759,646.3118
"514",83.756165,646.32513
"515",83.3167,646.33844
"516",82.882126,646.35175
"517",82.4329,646.36505
"518",81.98367,646.37836
"519",81.5613,646.39166
"520",81.20485,646.40497
"521",80.94362,646.4183
"522",80.78737,646.4316
"523",80.706795,646.4449
"524",80.65308,646.4582
"525",80.57984,646.4715
"526",80.45289,646.4848
"527",80.24536,646.4981
"528",79.96216,646.5114
"529",79.622795,646.5247
"530",79.24925,646.538
"531",78.873276,646.55133
"532",78.51682,646.56464
"533",78.20187,646.57794
"534",77.92844,646.59125
"535",77.69894,646.60455
"536",77.503624,646.61786
"537",77.332726,646.63116
"538",77.17403,646.6445
"539",77.032425,646.6578
"540",76.912796,646.6711
"541",76.82979,646.6844
"542",76.79317,646.6977
"543",76.80293,646.711
"544",76.859085,646.7243
"545",76.93965,646.7376
"546",77.02754,646.7509
"547",77.103226,646.7642
"548",77.14961,646.7775
"549",77.14961,646.79083
"550",77.103226,646.80414
"551",77.02754,646.81744
"552",76.981155,646.83075
"553",77.07637,646.84406
"554",77.47433,646.85736
"555",78.30686,646.87067
"556",79.61059,646.884
"557",81.30007,646.8973
"558",83.175095,646.9106
"559",84.947586,646.9239
"560",86.37583,646.9372
"561",87.31579,646.9505
"562",87.76013,646.9638
"563",87.79431,646.9771
"564",87.555046,646.9904
"565",87.17906,647.0037
"566",86.76402,647.017
"567",86.37095,647.03033
"568",86.02426,647.04364
"569",85.697105,647.05695
"570",85.36019,647.07025
"571",84.95979,647.08356
"572",84.48371,647.09686
"573",83.946594,647.11017
"574",83.38262,647.1235
"575",82.83086,647.1368
"576",82.34745,647.1501
"577",81.95926,647.1634
"578",81.66384,647.1767
"579",81.43923,647.19
"580",81.25124,647.2033
"581",81.07057,647.2166
"582",80.85817,647.2299
"583",80.59693,647.2432
"584",80.27955,647.25653
"585",79.903564,647.26984
"586",79.48119,647.28314
"587",79.03685,647.29645
"588",78.58762,647.30975
"589",78.15793,647.32306
"590",77.769745,647.33636
"591",77.437706,647.3497
"592",77.154495,647.363
"593",76.92012,647.3763
"594",76.71992,647.3896
"595",76.5539,647.4029
"596",76.41718,647.4162
"597",76.30976,647.4295
"598",76.226746,647.4428
"599",76.16571,647.4561
"600",76.11688,647.4694
"601",76.07782,647.4827
"602",76.06073,647.49603
"603",76.053406,647.50934
"604",76.053406,647.52264
"605",76.0412,647.53595
"606",76.01434,647.54926
"607",75.95819,647.56256
"608",75.87518,647.57587
"609",75.77997,647.5892
"610",75.72625,647.6025
"611",75.81659,647.6158
"612",76.19501,647.6291
"613",76.99092,647.6424
"614",78.260475,647.6557
"615",79.923096,647.669
"616",81.778595,647.6823
"617",83.560844,647.6956
"618",85.02815,647.7089
"619",86.029144,647.7222
"620",86.556496,647.73553
"621",86.69077,647.74884
"622",86.55894,647.76215
"623",86.275734,647.77545
"624",85.93881,647.78876
"625",85.60677,647.80206
"626",85.29183,647.81537
"627",84.96712,647.8287
"628",84.596016,647.842
"629",84.156555,647.8553
"630",83.64629,647.8686
"631",83.08232,647.8819
"632",82.513466,647.8952
"633",81.986115,647.9085
"634",81.532005,647.9218
"635",81.163345,647.9351
"636",80.86305,647.9484
"637",80.61646,647.96173
"638",80.394295,647.97504
"639",80.17212,647.98834
"640",79.92798,648.00165
"641",79.64721,648.01495
"642",79.31518,648.02826
"643",78.93919,648.04156
"644",78.52659,648.0549
"645",78.099335,648.0682
"646",77.68673,648.0815
"647",77.31808,648.0948
"648",77.02754,648.1081
"649",76.82735,648.1214
"650",76.72236,648.1347
"651",76.69306,648.148
"652",76.70771,648.1613
"653",76.71992,648.1746
"654",76.70771,648.1879
"655",76.663765,648.20123
"656",76.610054,648.21454
"657",76.57099,648.22784
"658",76.578316,648.24115
"659",76.627144,648.25446
"660",76.68818,648.26776
"661",76.71259,648.28107
"662",76.67109,648.2944
"663",76.54658,648.3077
"664",76.34882,648.321
"665",76.11688,648.3343
"666",75.88495,648.3476
"667",75.665215,648.3609
"668",75.46258,648.3742
"669",75.26971,648.3875
"670",75.089035,648.4008
"671",74.94499,648.4141
"672",74.85954,648.4274
"673",74.864426,648.44073
"674",75.01579,648.45404
"675",75.41131,648.46735
"676",76.18036,648.48065
"677",77.4255,648.49396
"678",79.1638,648.50726
"679",81.26833,648.52057
"680",83.49737,648.5339
"681",85.52621,648.5472
"682",87.061874,648.5605
"683",87.90662,648.5738
"684",88.04089,648.5871
"685",87.59167,648.6004
"686",86.79332,648.6137
"687",85.907074,648.627
"688",85.14778,648.6403
"689",84.63264,648.6536
"690",84.34699,648.66693
"691",84.18829,648.68024
"692",84.02472,648.69354
"693",83.76593,648.70685
"694",83.38262,648.72015
"695",82.899216,648.73346
"696",82.37919,648.74677
"697",81.87381,648.7601
"698",81.427025,648.7734
"699",81.05104,648.7867
"700",80.73609,648.8
"701",80.45533,648.8133
"702",80.19165,648.8266
"703",79.93286,648.8399
"704",79.66918,648.8532
"705",79.398186,648.8665
"706",79.11986,648.8798
"707",78.82689,648.8931
"708",78.519264,648.90643
"709",78.19943,648.91974
"710",77.86496,648.93304
"711",77.53048,648.94635
"712",77.21553,648.95966
"713",76.929886,648.97296
"714",76.67353,648.98627
"715",76.453804,648.9996
"716",76.2707,649.0129
"717",76.11444,649.0262
"718",75.98505,649.0395
"719",75.88983,649.0528
"720",75.82391,649.0661
"721",75.789734,649.0794
"722",75.77997,649.0927
"723",75.78485,649.106
"724",75.80438,649.1193
"725",75.843445,649.1326
"726",75.90936,649.14594
"727",75.98993,649.15924
"728",76.08026,649.17255
"729",76.16327,649.18585
"730",76.209656,649.19916
"731",76.19989,649.21246
"732",76.13153,649.22577
"733",76.016785,649.2391
"734",75.90204,649.2524
"735",75.880066,649.2657
"736",76.087585,649.279
"737",76.68574,649.2923
"738",77.769745,649.3056
"739",79.31762,649.3189
"740",81.18532,649.3322
"741",83.11894,649.3455
"742",84.83528,649.3588
"743",86.117035,649.37213
"744",86.873886,649.38544
"745",87.13023,649.39874
"746",86.99596,649.41205
"747",86.598,649.42535
"748",86.07309,649.43866
"749",85.521324,649.45197
"750",85.013504,649.4653
"751",84.56428,649.4786
"752",84.15167,649.4919
"753",83.73174,649.5052
"754",83.282524,649.5185
"755",82.791794,649.5318
"756",82.28886,649.5451
"757",81.82498,649.5584
"758",81.444115,649.5717
"759",81.17555,649.585
"760",81.004654,649.5983
"761",80.89479,649.61163
"762",80.80202,649.62494
"763",80.68726,649.63824
"764",80.52369,649.65155
"765",80.306404,649.66486
"766",80.03784,649.67816
"767",79.727776,649.69147
"768",79.3933,649.7048
"769",79.03441,649.7181
"770",78.66331,649.7314
"771",78.28733,649.7447
"772",77.92844,649.758
"773",77.60616,649.7713
"774",77.332726,649.7846
"775",77.10567,649.7979
"776",76.91524,649.8112
"777",76.756546,649.8245
"778",76.610054,649.8378
"779",76.48066,649.85114
"780",76.368355,649.86444
"781",76.28779,649.87775
"782",76.23895,649.89105
"783",76.21698,649.90436
"784",76.21454,649.91766
"785",76.23163,649.93097
"786",76.25117,649.9443
"787",76.27314,649.9576
"788",76.29023,649.9709
"789",76.29267,649.9842
"790",76.280464,649.9975
"791",76.24872,650.0108
"792",76.20233,650.0241
"793",76.14374,650.0374
"794",76.09247,650.0507
"795",76.11932,650.064
"796",76.35615,650.07733
"797",76.95918,650.09064
"798",78.05051,650.10394
"799",79.622795,650.11725
"800",81.53689,650.13055
"801",83.543755,650.14386
"802",85.36263,650.15717
"803",86.76158,650.1705
"804",87.640495,650.1838
"805",88.01648,650.1971
"806",87.98474,650.2104
"807",87.67223,650.2237
"808",87.203476,650.237
"809",86.6981,650.2503
"810",86.2269,650.2636
"811",85.82651,650.2769
"812",85.489586,650.2902
"813",85.172195,650.3035
"814",84.81331,650.31683
"815",84.37873,650.33014
"816",83.85626,650.34344
"817",83.2752,650.35675
"818",82.69413,650.37006
"819",82.16678,650.38336
"820",81.71999,650.39667
"821",81.356224,650.41
"822",81.05104,650.4233
"823",80.762955,650.4366
"824",80.46754,650.4499
"825",80.14038,650.4632
"826",79.76929,650.4765
"827",79.3518,650.4898
"828",78.905014,650.5031
"829",78.46555,650.5164
"830",78.06271,650.5297
"831",77.71114,650.543
"832",77.420616,650.55634
"833",77.18135,650.56964
"834",76.97139,650.58295
"835",76.78096,650.59625
"836",76.60761,650.60956
"837",76.46845,650.62286
"838",76.36591,650.63617
"839",76.30488,650.6495
"840",76.27558,650.6628
"841",76.27314,650.6761
"842",76.28535,650.6894
"843",76.30976,650.7027
"844",76.34638,650.716
"845",76.387886,650.7293
"846",76.42451,650.7426
"847",76.44648,650.7559
"848",76.436714,650.7692
"849",76.37324,650.78253
"850",76.263374,650.79584
"851",76.104675,650.80914
"852",75.911804,650.82245
"853",75.718925,650.83575
"854",75.60662,650.84906
"855",75.718925,650.86237
"856",76.21942,650.8757
"857",77.23506,650.889
"858",78.76097,650.9023
"859",80.66041,650.9156
"860",82.669716,650.9289
"861",84.47639,650.9422
"862",85.8436,650.9555
"863",86.659035,650.9688
"864",86.959335,650.9821
"865",86.871445,650.9954
"866",86.55161,651.0087
"867",86.14389,651.02203
"868",85.750824,651.03534
"869",85.40902,651.04865
"870",85.12825,651.06195
"871",84.8719,651.07526
"872",84.58869,651.08856
"873",84.21271,651.10187
"874",83.717094,651.1152
"875",83.104294,651.1285
"876",82.43046,651.1418
"877",81.76883,651.1551
"878",81.20485,651.1684
"879",80.79225,651.1817
"880",80.52613,651.195
"881",80.36744,651.2083
"882",80.2478,651.2216
"883",80.12085,651.2349
"884",79.954834,651.2482
"885",79.73754,651.26154
"886",79.47387,651.27484
"887",79.17845,651.28815
"888",78.85863,651.30145
"889",78.52903,651.31476
"890",78.20676,651.32806
"891",77.90402,651.3414
"892",77.63546,651.3547
"893",77.40841,651.368
"894",77.22774,651.3813
"895",77.09102,651.3946
"896",76.99092,651.4079
"897",76.91768,651.4212
"898",76.86153,651.4345
"899",76.79805,651.4478
"900",76.71992,651.4611
"901",76.63447,651.4744
"902",76.558784,651.48773
"903",76.50263,651.50104
"904",76.470894,651.51434
"905",76.45869,651.52765
"906",76.44892,651.54095
"907",76.42451,651.55426
"908",76.3708,651.56757
"909",76.28535,651.5809
"910",76.175476,651.5942
"911",76.04852,651.6075
"912",75.931335,651.6208
"913",75.880066,651.6341
"914",76.00946,651.6474
"915",76.473335,651.6607
"916",77.3962,651.674
"917",78.802475,651.6873
"918",80.587166,651.7006
"919",82.51591,651.7139
"920",84.300606,651.72723
"921",85.6849,651.74054
"922",86.53452,651.75385
"923",86.85924,651.76715
"924",86.75914,651.78046
"925",86.37827,651.79376
"926",85.87045,651.80707
"927",85.347984,651.8204
"928",84.89876,651.8337
"929",84.54719,651.847
"930",84.2884,651.8603
"931",84.068665,651.8736
"932",83.83185,651.8869
"933",83.529106,651.9002
"934",83.14336,651.9135
"935",82.69413,651.9268
"936",82.22049,651.9401
"937",81.778595,651.9534
"938",81.41238,651.96674
"939",81.15114,651.98004
"940",80.98024,651.99335
"941",80.867935,652.00665
"942",80.7776,652.01996
"943",80.6775,652.03326
"944",80.5481,652.0466
"945",80.38697,652.0599
"946",80.20874,652.0732
"947",80.02075,652.0865
"948",79.82544,652.0998
"949",79.61547,652.1131
"950",79.38842,652.1264
"951",79.14427,652.1397
"952",78.8806,652.153
"953",78.60471,652.1663
"954",78.328835,652.1796
"955",78.07004,652.19293
"956",77.84543,652.20624
"957",77.662315,652.21954
"958",77.5256,652.23285
"959",77.43038,652.24615
"960",77.37423,652.25946
"961",77.347374,652.27277
"962",77.34249,652.2861
"963",77.349815,652.2994
"964",77.35714,652.3127
"965",77.349815,652.326
"966",77.31075,652.3393
"967",77.2375,652.3526
"968",77.13008,652.3659
"969",77.00801,652.3792
"970",76.910355,652.3925
"971",76.93965,652.4058
"972",77.24727,652.4191
"973",77.98459,652.43243
"974",79.21263,652.44574
"975",80.86305,652.45905
"976",82.74296,652.47235
"977",84.56184,652.48566
"978",86.046234,652.49896
"979",87.02037,652.51227
"980",87.45739,652.5256
"981",87.43786,652.5389
"982",87.09361,652.5522
"983",86.56626,652.5655
"984",85.980316,652.5788
"985",85.4139,652.5921
"986",84.91585,652.6054
"987",84.48127,652.6187
"988",84.08087,652.632
"989",83.67071,652.6453
"990",83.2166,652.6586
"991",82.703896,652.67194
"992",82.15457,652.68524
"993",81.60525,652.69855
"994",81.09987,652.71185
"995",80.66529,652.72516
"996",80.306404,652.73846
"997",79.9939,652.7518
"998",79.69848,652.7651
"999",79.40307,652.7784
"1000",79.09544,652.7917
"1001",78.765854,652.805
"1002",78.42161,652.8183
"1003",78.0676,652.8316
"1004",77.7087,652.8449
"1005",77.347374,652.8582
"1006",76.998245,652.8715
"1007",76.67353,652.8848
"1008",76.38056,652.89813
"1009",76.12665,652.91144
"1010",75.91913,652.92474
"1011",75.755554,652.93805
"1012",75.63592,652.95135
"1013",75.5407,652.96466
"1014",75.474785,652.97797
"1015",75.423515,652.9913
"1016",75.38201,653.0046
"1017",75.34295,653.0179
"1018",75.31609,653.0312
"1019",75.301445,653.0445
"1020",75.28924,653.0578
"1021",75.27459,653.0711
"1022",75.25506,653.0844
"1023",75.228195,653.0977
"1024",75.20622,653.111
"1025",75.228195,653.1243
"1026",75.34295,653.13763
"1027",75.57488,653.15094
"1028",75.911804,653.16425
"1029",76.30976,653.17755
"1030",76.717476,653.19086
"1031",77.09834,653.20416
"1032",77.51827,653.21747
"1033",78.14328,653.2308
"1034",79.14671,653.2441
"1035",80.621346,653.2574
"1036",82.50858,653.2707
"1037",84.60334,653.284
"1038",86.61265,653.2973
"1039",88.26063,653.3106
"1040",89.37881,653.3239
"1041",89.95743,653.3372
"1042",90.08682,653.3505
"1043",89.90616,653.36383
"1044",89.5375,653.37714
"1045",89.08095,653.39044
"1046",88.59998,653.40375
"1047",88.13367,653.41705
"1048",87.68444,653.43036
"1049",87.235214,653.44366
"1050",86.75426,653.457
"1051",86.21713,653.4703
"1052",85.60189,653.4836
"1053",84.91585,653.4969
"1054",84.20294,653.5102
"1055",83.52422,653.5235
"1056",82.92851,653.5368
"1057",82.442665,653.5501
"1058",82.05936,653.5634
"1059",81.74441,653.5767
"1060",81.461205,653.59
"1061",81.17799,653.60333
"1062",80.88014,653.61664
"1063",80.56519,653.62994
"1064",80.24292,653.64325
"1065",79.920654,653.65656
"1066",79.59594,653.66986
"1067",79.26391,653.68317
"1068",78.91478,653.6965
"1069",78.54612,653.7098
"1070",78.15549,653.7231
"1071",77.75021,653.7364
"1072",77.34493,653.7497
"1073",76.961624,653.763
"1074",76.629585,653.7763
"1075",76.3708,653.7896
"1076",76.192566,653.8029
"1077",76.08026,653.8162
"1078",76.02167,653.8295
"1079",75.97772,653.84283
"1080",75.91669,653.85614
"1081",75.81659,653.86945
"1082",75.67742,653.88275
"1083",75.491875,653.89606
"1084",75.28191,653.90936
"1085",75.0573,653.92267
"1086",74.83513,653.936
"1087",74.62028,653.9493
"1088",74.424965,653.9626
"1089",74.25407,653.9759
"1090",74.1149,653.9892
"1091",74.0148,654.0025
"1092",73.968414,654.0158
"1093",73.99283,654.0291
"1094",74.15396,654.0424
"1095",74.57389,654.0557
"1096",75.386894,654.06903
"1097",76.67353,654.08234
"1098",78.397194,654.09564
"1099",80.38209,654.10895
"1100",82.35233,654.12225
"1101",84.0296,654.13556
"1102",85.21858,654.14886
"1103",85.86557,654.1622
"1104",86.03891,654.1755
"1105",85.86069,654.1888
"1106",85.46761,654.2021
"1107",84.97688,654.2154
"1108",84.47639,654.2287
"1109",84.01495,654.242
"1110",83.612114,654.2553
"1111",83.26055,654.2686
"1112",82.92851,654.2819
"1113",82.581825,654.2952
"1114",82.20584,654.30853
"1115",81.812775,654.32184
"1116",81.42458,654.33514
"1117",81.075455,654.34845
"1118",80.79225,654.36176
"1119",80.5774,654.37506
"1120",80.41627,654.38837
"1121",80.28443,654.4017
"1122",80.16235,654.415
"1123",80.025635,654.4283
"1124",79.86206,654.4416
"1125",79.65942,654.4549
"1126",79.42748,654.4682
"1127",79.166245,654.4815
"1128",78.89769,654.4948
"1129",78.63401,654.5081
"1130",78.38499,654.5214
"1131",78.16037,654.5347
"1132",77.960175,654.54803
"1133",77.78439,654.56134
"1134",77.62325,654.57465
"1135",77.47677,654.58795
"1136",77.34493,654.60126
"1137",77.21553,654.61456
"1138",77.08125,654.62787
"1139",76.944534,654.6412
"1140",76.8127,654.6545
"1141",76.70283,654.6678
"1142",76.62226,654.6811
"1143",76.575874,654.6944
"1144",76.55146,654.7077
"1145",76.52216,654.721
"1146",76.46357,654.7343
"1147",76.37812,654.7476
"1148",76.27314,654.7609
"1149",76.16571,654.77423
"1150",76.070496,654.78754
"1151",76.00458,654.80084
"1152",75.98016,654.81415
"1153",76.04852,654.82745
"1154",76.31953,654.84076
"1155",76.94209,654.85406
"1156",78.03586,654.8674
"1157",79.60815,654.8807
"1158",81.53689,654.894
"1159",83.580376,654.9073
"1160",85.45052,654.9206
"1161",86.908066,654.9339
"1162",87.8407,654.9472
"1163",88.255745,654.9605
"1164",88.24353,654.9738
"1165",87.92615,654.9871
"1166",87.40856,655.0004
"1167",86.76158,655.01373
"1168",86.03647,655.02704
"1169",85.26986,655.04034
"1170",84.50324,655.05365
"1171",83.758606,655.06696
"1172",83.075,655.08026
"1173",82.48173,655.09357
"1174",82.00076,655.1069
"1175",81.64187,655.1202
"1176",81.40505,655.1335
"1177",81.27566,655.1468
"1178",81.234146,655.1601
"1179",81.234146,655.1734
"1180",81.22438,655.1867
"1181",81.163345,655.2
"1182",81.00954,655.2133
"1183",80.75319,655.2266
"1184",80.40894,655.2399
"1185",80.00122,655.25323
"1186",79.55932,655.26654
"1187",79.114975,655.27985
"1188",78.69016,655.29315
"1189",78.29954,655.30646
"1190",77.95041,655.31976
"1191",77.642784,655.33307
"1192",77.37423,655.3464
"1193",77.13252,655.3597
"1194",76.910355,655.373
"1195",76.717476,655.3863
"1196",76.55634,655.3996
"1197",76.43183,655.4129
"1198",76.351265,655.4262
"1199",76.30732,655.4395
"1200",76.29511,655.4528
"1201",76.297554,655.4661
"1202",76.3122,655.47943
"1203",76.32929,655.49274
"1204",76.334175,655.50604
"1205",76.32685,655.51935
"1206",76.30732,655.53265
"1207",76.2707,655.54596
"1208",76.21942,655.55927
"1209",76.15106,655.5726
"1210",76.07538,655.5859
"1211",75.99725,655.5992
"1212",75.93866,655.6125
"1213",75.95819,655.6258
"1214",76.17792,655.6391
"1215",76.771194,655.6524
"1216",77.872284,655.6657
"1217",79.500725,655.679
"1218",81.532005,655.6923
"1219",83.717094,655.7056
"1220",85.72884,655.71893
"1221",87.29626,655.73224
"1222",88.28016,655.74554
"1223",88.70008,655.75885
"1224",88.66834,655.77216
"1225",88.33631,655.78546
"1226",87.850464,655.79877
"1227",87.32311,655.8121
"1228",86.820175,655.8254
"1229",86.37339,655.8387
"1230",85.96811,655.852
"1231",85.57748,655.8653
"1232",85.16243,655.8786
"1233",84.69611,655.8919
"1234",84.173645,655.9052
"1235",83.61944,655.9185
"1236",83.07988,655.9318
"1237",82.60624,655.9451
"1238",82.22293,655.95844
"1239",81.92508,655.97174
"1240",81.69558,655.98505
"1241",81.48562,655.99835
"1242",81.25857,656.01166
"1243",80.990005,656.02496
"1244",80.66041,656.03827
"1245",80.27711,656.0516
"1246",79.84985,656.0649
"1247",79.40307,656.0782
"1248",78.95384,656.0915
"1249",78.519264,656.1048
"1250",78.11154,656.1181
"1251",77.73556,656.1314
"1252",77.3962,656.1447
"1253",77.09346,656.158
"1254",76.82979,656.1713
"1255",76.59785,656.18463
"1256",76.402534,656.19794
"1257",76.241394,656.21124
"1258",76.112,656.22455
"1259",76.0119,656.23785
"1260",75.93378,656.25116
"1261",75.8703,656.26447
"1262",75.81415,656.2778
"1263",75.76288,656.2911
"1264",75.72137,656.3044
"1265",75.684746,656.3177
"1266",75.65545,656.331
"1267",75.631035,656.3443
"1268",75.60174,656.3576
"1269",75.55535,656.3709
"1270",75.491875,656.3842
"1271",75.41375,656.3975
"1272",75.31365,656.4108
"1273",75.20622,656.42413
"1274",75.15251,656.43744
"1275",75.27947,656.45074
"1276",75.75067,656.46405
"1277",76.72236,656.47736
"1278",78.24338,656.49066
"1279",80.21362,656.50397
"1280",82.38651,656.5173
"1281",84.437325,656.5306
"1282",86.080414,656.5439
"1283",87.15221,656.5572
"1284",87.64294,656.5705
"1285",87.65026,656.5838
"1286",87.327995,656.5971
"1287",86.82262,656.6104
"1288",86.25376,656.6237
"1289",85.697105,656.637
"1290",85.19417,656.6503
"1291",84.7425,656.66364
"1292",84.32014,656.67694
"1293",83.88068,656.69025
"1294",83.407036,656.70355
"1295",82.88945,656.71686
"1296",82.3621,656.73016
"1297",81.86893,656.74347
"1298",81.449,656.7568
"1299",81.11696,656.7701
"1300",80.867935,656.7834
"1301",80.67017,656.7967
"1302",80.48951,656.81
"1303",80.30152,656.8233
"1304",80.08423,656.8366
"1305",79.82056,656.8499
"1306",79.50805,656.8632
"1307",79.15648,656.8765
"1308",78.77562,656.88983
"1309",78.382545,656.90314
"1310",78.00656,656.91644
"1311",77.65743,656.92975
"1312",77.347374,656.94305
"1313",77.08125,656.95636
"1314",76.85664,656.96967
"1315",76.66865,656.983
"1316",76.51972,656.9963
"1317",76.40009,657.0096
"1318",76.30488,657.0229
"1319",76.23163,657.0362
"1320",76.18036,657.0495
"1321",76.138855,657.0628
"1322",76.104675,657.0761
"1323",76.07782,657.0894
"1324",76.05829,657.1027
"1325",76.04608,657.116
"1326",76.033875,657.12933
"1327",76.02411,657.14264
"1328",76.016785,657.15594
"1329",76.00702,657.16925
"1330",75.98993,657.18256
"1331",75.96307,657.19586
"1332",75.92645,657.20917
"1333",75.87518,657.2225
"1334",75.81171,657.2358
"1335",75.74822,657.2491
"1336",75.7409,657.2624
"1337",75.90204,657.2757
"1338",76.404976,657.289
"1339",77.39132,657.3023
"1340",78.907455,657.3156
"1341",80.850845,657.3289
"1342",82.97246,657.3422
"1343",84.95003,657.3555
"1344",86.4979,657.36884
"1345",87.45983,657.38214
"1346",87.82849,657.39545
"1347",87.71618,657.40875
"1348",87.276726,657.42206
"1349",86.67124,657.43536
"1350",86.02182,657.44867
"1351",85.42123,657.462
"1352",84.910965,657.4753
"1353",84.48615,657.4886
"1354",84.11017,657.5019
"1355",83.736626,657.5152
"1356",83.33379,657.5285
"1357",82.9041,657.5418
"1358",82.4744,657.5551
"1359",82.08377,657.5684
"1360",81.77127,657.5817
"1361",81.55398,657.59503
"1362",81.40749,657.60834
"1363",81.30007,657.62164
"1364",81.19508,657.63495
"1365",81.06081,657.64825
"1366",80.867935,657.66156
"1367",80.61158,657.67487
"1368",80.2942,657.6882
"1369",79.93042,657.7015
"1370",79.534904,657.7148
"1371",79.13939,657.7281
"1372",78.75853,657.7414
"1373",78.40696,657.7547
"1374",78.09445,657.768
"1375",77.821014,657.7813
"1376",77.58907,657.7946
"1377",77.39376,657.8079
"1378",77.23018,657.8212
"1379",77.09834,657.83453
"1380",76.99092,657.84784
"1381",76.90547,657.86115
"1382",76.84444,657.87445
"1383",76.79561,657.88776
"1384",76.76143,657.90106
"1385",76.73701,657.91437
"1386",76.70283,657.9277
"1387",76.65888,657.941
"1388",76.595406,657.9543
"1389",76.51728,657.9676
"1390",76.419624,657.9809
"1391",76.30976,657.9942
"1392",76.21454,658.0075
"1393",76.16571,658.0208
"1394",76.25361,658.0341
"1395",76.6247,658.0474
"1396",77.4255,658.0607
"1397",78.71702,658.07404
"1398",80.44312,658.08734
"1399",82.406044,658.10065
"1400",84.32258,658.11395
"1401",85.91196,658.12726
"1402",86.99596,658.14056
"1403",87.53307,658.1539
"1404",87.59411,658.1672
"1405",87.31579,658.1805
"1406",86.83971,658.1938
"1407",86.2855,658.2071
"1408",85.73861,658.2204
"1409",85.24544,658.2337
"1410",84.805984,658.247
"1411",84.38361,658.2603
"1412",83.949036,658.2736
"1413",83.475395,658.2869
"1414",82.96025,658.30023
"1415",82.43534,658.31354
"1416",81.951935,658.32684
"1417",81.549095,658.34015
"1418",81.23659,658.35345
"1419",81.00221,658.36676
"1420",80.816666,658.38007
"1421",80.635994,658.3934
"1422",80.42603,658.4067
"1423",80.16968,658.42
"1424",79.8645,658.4333
"1425",79.51293,658.4466
"1426",79.1223,658.4599
"1427",78.71702,658.4732
"1428",78.314186,658.4865
"1429",77.92844,658.4998
"1430",77.576866,658.5131
"1431",77.26681,658.5264
"1432",76.998245,658.53973
"1433",76.773636,658.55304
"1434",76.58564,658.56635
"1435",76.42939,658.57965
"1436",76.30976,658.59296
"1437",76.21698,658.60626
"1438",76.14862,658.61957
"1439",76.09979,658.6329
"1440",76.070496,658.6462
"1441",76.04608,658.6595
"1442",76.02899,658.6728
"1443",76.01434,658.6861
"1444",76.00458,658.6994
"1445",75.99481,658.7127
"1446",75.98016,658.726
"1447",75.95819,658.7393
"1448",75.914246,658.7526
"1449",75.85321,658.7659
"1450",75.772644,658.77924
"1451",75.69207,658.79254
"1452",75.63592,658.80585
"1453",75.66033,658.81915
"1454",75.88251,658.83246
"1455",76.46113,658.84576
"1456",77.51827,658.8591
"1457",79.080795,658.8724
"1458",81.03883,658.8857
"1459",83.140915,658.899
"1460",85.07942,658.9123
"1461",86.598,658.9256
"1462",87.56481,658.9389
"1463",87.98474,658.9522
"1464",87.97009,658.9655
"1465",87.66979,658.9788
"1466",87.22789,658.9921
"1467",86.744484,659.00543
"1468",86.295265,659.01874
"1469",85.90219,659.03204
"1470",85.555504,659.04535
"1471",85.20882,659.05865
"1472",84.81819,659.07196
"1473",84.35432,659.08527
"1474",83.824524,659.0986
"1475",83.25811,659.1119
"1476",82.70878,659.1252
"1477",82.2327,659.1385
"1478",81.846954,659.1518
"1479",81.53933,659.1651
"1480",81.28542,659.1784
"1481",81.05348,659.1917
"1482",80.80202,659.205
"1483",80.516365,659.2183
"1484",80.18677,659.2316
"1485",79.818115,659.24493
"1486",79.415276,659.25824
"1487",78.99779,659.27155
"1488",78.58518,659.28485
"1489",78.184784,659.29816
"1490",77.806366,659.31146
"1491",77.467,659.32477
"1492",77.17403,659.3381
"1493",76.92256,659.3514
"1494",76.71015,659.3647
"1495",76.53437,659.378
"1496",76.387886,659.3913
"1497",76.25849,659.4046
"1498",76.14374,659.4179
"1499",76.0412,659.4312
"1500",75.95331,659.4445
"1501",75.87518,659.4578
"1502",75.80438,659.4711
"1503",75.74822,659.48444
"1504",75.701836,659.49774
"1505",75.665215,659.51105
"1506",75.63348,659.52435
"1507",75.60174,659.53766
"1508",75.57244,659.55096
"1509",75.55047,659.5643
"1510",75.53094,659.5776
"1511",75.51385,659.5909
"1512",75.4992,659.6042
"1513",75.48211,659.6175
"1514",75.457695,659.6308
"1515",75.4284,659.6441
"1516",75.39666,659.6574
"1517",75.37469,659.6707
"1518",75.41131,659.684
"1519",75.62127,659.6973
"1520",76.173035,659.71063
"1521",77.19844,659.72394
"1522",78.73167,659.73724
"1523",80.66529,659.75055
"1524",82.75517,659.76385
"1525",84.69123,659.77716
"1526",86.20737,659.79047
"1527",87.166855,659.8038
"1528",87.57458,659.8171
"1529",87.54528,659.8304
"1530",87.22789,659.8437
"1531",86.766464,659.857
"1532",86.275734,659.8703
"1533",85.821625,659.8836
"1534",85.43099,659.8969
"1535",85.084305,659.9102
"1536",84.74494,659.9235
"1537",84.37141,659.9368
"1538",83.94171,659.95013
"1539",83.44854,659.96344
"1540",82.92851,659.97675
"1541",82.425575,659.99005
"1542",81.988556,660.00336
"1543",81.63943,660.01666
"1544",81.373314,660.02997
"1545",81.15358,660.0433
"1546",80.94606,660.0566
"1547",80.71412,660.0699
"1548",80.45045,660.0832
"1549",80.14526,660.0965
"1550",79.80347,660.1098
"1551",79.44457,660.1231
"1552",79.080795,660.1364
"1553",78.7219,660.1497
"1554",78.37034,660.163
"1555",78.0383,660.17633
"1556",77.730675,660.18964
"1557",77.452354,660.20294
"1558",77.208206,660.21625
"1559",77.00557,660.22955
"1560",76.84688,660.24286
"1561",76.72236,660.25616
"1562",76.6247,660.2695
"1563",76.54902,660.2828
"1564",76.48798,660.2961
"1565",76.436714,660.3094
"1566",76.39033,660.3227
"1567",76.34882,660.336
"1568",76.299995,660.3493
"1569",76.25117,660.3626
"1570",76.19989,660.3759
"1571",76.14374,660.3892
"1572",76.09247,660.4025
"1573",76.050964,660.41583
"1574",76.016785,660.42914
"1575",75.99237,660.44244
"1576",75.982605,660.45575
"1577",75.99237,660.46906
"1578",76.00946,660.48236
"1579",76.033875,660.49567
"1580",76.06561,660.509
"1581",76.09735,660.5223
"1582",76.121765,660.5356
"1583",76.13641,660.5489
"1584",76.138855,660.5622
"1585",76.13397,660.5755
"1586",76.12665,660.5888
"1587",76.17059,660.6021
"1588",76.36591,660.6154
"1589",76.86641,660.6287
"1590",77.81613,660.642
"1591",79.259026,660.65533
"1592",81.09743,660.66864
"1593",83.09941,660.68195
"1594",84.96712,660.69525
"1595",86.431984,660.70856
"1596",87.34264,660.72186
"1597",87.70397,660.73517
"1598",87.61608,660.7485
"1599",87.220566,660.7618
"1600",86.66636,660.7751
"1601",86.07065,660.7884
"1602",85.523766,660.8017
"1603",85.05989,660.815
"1604",84.67658,660.8283
"1605",84.34455,660.8416
"1606",84.01984,660.8549
"1607",83.665825,660.8682
"1608",83.27764,660.88153
"1609",82.87724,660.89484
"1610",82.511024,660.90814
"1611",82.20584,660.92145
"1612",81.98367,660.93475
"1613",81.82742,660.94806
"1614",81.7029,660.96136
"1615",81.57351,660.9747
"1616",81.40505,660.988
"1617",81.18288,661.0013
"1618",80.90456,661.0146
"1619",80.58228,661.0279
"1620",80.22583,661.0412
"1621",79.85962,661.0545
"1622",79.500725,661.0678
"1623",79.166245,661.0811
"1624",78.86107,661.0944
"1625",78.59983,661.1077
"1626",78.37522,661.12103
"1627",78.187225,661.13434
"1628",78.028534,661.14764
"1629",77.89426,661.16095
"1630",77.77951,661.17426
"1631",77.68185,661.18756
"1632",77.60128,661.20087
"1633",77.53536,661.2142
"1634",77.47921,661.2275
"1635",77.43282,661.2408
"1636",77.383995,661.2541
"1637",77.33761,661.2674
"1638",77.29366,661.2807
"1639",77.25704,661.294
"1640",77.23506,661.3073
"1641",77.2375,661.3206
"1642",77.279015,661.3339
"1643",77.38155,661.3472
"1644",77.57198,661.36053
"1645",77.86252,661.37384
"1646",78.24826,661.38715
"1647",78.70237,661.40045
"1648",79.168686,661.41376
"1649",79.59594,661.42706
"1650",79.93286,661.44037
"1651",80.15747,661.4537
"1652",80.27955,661.467
"1653",80.38697,661.4803
"1654",80.63355,661.4936
"1655",81.17555,661.5069
"1656",82.091095,661.5202
"1657",83.34356,661.5335
"1658",84.7596,661.5468
"1659",86.07309,661.5601
"1660",87.030136,661.5734
"1661",87.48669,661.58673
"1662",87.450066,661.60004
"1663",87.03746,661.61334
"1664",86.40513,661.62665
"1665",85.70687,661.63995
"1666",85.05745,661.65326
"1667",84.51301,661.66656
"1668",84.09064,661.6799
"1669",83.77081,661.6932
"1670",83.509575,661.7065
"1671",83.25323,661.7198
"1672",82.95781,661.7331
"1673",82.6038,661.7464
"1674",82.20828,661.7597
"1675",81.80301,661.773
"1676",81.43191,661.7863
"1677",81.13405,661.7996
"1678",80.90944,661.8129
"1679",80.73365,661.82623
"1680",80.57496,661.83954
"1681",80.396736,661.85284
"1682",80.177,661.86615
"1683",79.903564,661.87946
"1684",79.57641,661.89276
"1685",79.2224,661.90607
"1686",78.8513,661.9194
"1687",78.47532,661.9327
"1688",78.11398,661.946
"1689",77.7673,661.9593
"1690",77.44503,661.9726
"1691",77.15938,661.9859
"1692",76.92256,661.9992
"1693",76.74433,662.0125
"1694",76.62226,662.0258
"1695",76.544136,662.0391
"1696",76.50507,662.0524
"1697",76.490425,662.06573
"1698",76.490425,662.07904
"1699",76.50263,662.09235
"1700",76.51728,662.10565
"1701",76.52949,662.11896
"1702",76.524605,662.13226
"1703",76.50507,662.14557
"1704",76.46601,662.1589
"1705",76.41474,662.1722
"1706",76.36103,662.1855
"1707",76.314644,662.1988
"1708",76.280464,662.2121
"1709",76.26093,662.2254
"1710",76.243835,662.2387
"1711",76.21942,662.252
"1712",76.18036,662.2653
"1713",76.12665,662.2786
"1714",76.05585,662.29193
"1715",75.97284,662.30524
"1716",75.88983,662.31854
"1717",75.81659,662.33185
"1718",75.80682,662.34515
"1719",75.97284,662.35846
"1720",76.46113,662.37177
"1721",77.38888,662.3851
"1722",78.75853,662.3984
"1723",80.45777,662.4117
"1724",82.25468,662.425
"1725",83.86847,662.4383
"1726",85.084305,662.4516
"1727",85.804535,662.4649
"1728",86.05356,662.4782
"1729",85.93881,662.4915
"1730",85.59457,662.5048
"1731",85.14534,662.5181
"1732",84.68879,662.53143
"1733",84.283516,662.54474
"1734",83.949036,662.55804
"1735",83.67803,662.57135
"1736",83.441216,662.58466
"1737",83.209274,662.59796
"1738",82.95537,662.61127
"1739",82.6746,662.6246
"1740",82.37919,662.6379
"1741",82.09354,662.6512
"1742",81.83963,662.6645
"1743",81.62966,662.6778
"1744",81.449,662.6911
"1745",81.28054,662.7044
"1746",81.09987,662.7177
"1747",80.89235,662.731
"1748",80.65308,662.7443
"1749",80.394295,662.7576
"1750",80.113525,662.77094
"1751",79.815674,662.78424
"1752",79.49584,662.79755
"1753",79.166245,662.81085
"1754",78.83421,662.82416
"1755",78.51194,662.83746
"1756",78.21164,662.85077
"1757",77.943085,662.8641
"1758",77.70382,662.8774
"1759",77.49386,662.8907
"1760",77.30831,662.904
"1761",77.14473,662.9173
"1762",77.00801,662.9306
"1763",76.893265,662.9439
"1764",76.807816,662.9572
"1765",76.74433,662.9705
"1766",76.68818,662.9838
"1767",76.63691,662.99713
"1768",76.5832,663.01044
"1769",76.52949,663.02374
"1770",76.473335,663.03705
"1771",76.42695,663.05035
"1772",76.39033,663.06366
"1773",76.35859,663.07697
"1774",76.33173,663.0903
"1775",76.30976,663.1036
"1776",76.29511,663.1169
"1777",76.29267,663.1302
"1778",76.30244,663.1435
"1779",76.3122,663.1568
"1780",76.32197,663.1701
"1781",76.32197,663.1834
"1782",76.30976,663.1967
"1783",76.29511,663.21
"1784",76.29511,663.2233
"1785",76.35859,663.23663
"1786",76.59785,663.24994
"1787",77.14961,663.26324
"1788",78.118866,663.27655
"1789",79.517815,663.28986
"1790",81.22682,663.30316
"1791",83.021286,663.31647
"1792",84.630196,663.3298
"1793",85.83627,663.3431
"1794",86.536964,663.3564
"1795",86.76402,663.3697
"1796",86.63218,663.383
"1797",86.27085,663.3963
"1798",85.804535,663.4096
"1799",85.31869,663.4229
"1800",84.87923,663.4362
"1801",84.508125,663.4495
"1802",84.19318,663.4628
"1803",83.90997,663.47614
"1804",83.6292,663.48944
"1805",83.32159,663.50275
"1806",82.98222,663.51605
"1807",82.63798,663.52936
"1808",82.32304,663.54266
"1809",82.06424,663.55597
"1810",81.866486,663.5693
"1811",81.71755,663.5826
"1812",81.58572,663.5959
"1813",81.444115,663.6092
"1814",81.270775,663.6225
"1815",81.05104,663.6358
"1816",80.78981,663.6491
"1817",80.49195,663.6624
"1818",80.15747,663.6757
"1819",79.81079,663.689
"1820",79.46899,663.70233
"1821",79.14183,663.71564
"1822",78.839096,663.72894
"1823",78.57053,663.74225
"1824",78.34104,663.75555
"1825",78.14572,663.76886
"1826",77.98703,663.78217
"1827",77.855194,663.7955
"1828",77.75021,663.8088
"1829",77.662315,663.8221
"1830",77.58663,663.8354
"1831",77.52071,663.8487
"1832",77.46212,663.862
"1833",77.41329,663.8753
"1834",77.366905,663.8886
"1835",77.3254,663.9019
"1836",77.28634,663.9152
"1837",77.25704,663.9285
"1838",77.23506,663.94183
"1839",77.22041,663.95514
"1840",77.21065,663.96844
"1841",77.19356,663.98175
"1842",77.1667,663.99506
"1843",77.12764,664.00836
"1844",77.07393,664.02167
"1845",77.015335,664.035
"1846",76.95186,664.0483
"1847",76.893265,664.0616
"1848",76.86397,664.0749
"1849",76.92256,664.0882
"1850",77.17891,664.1015
"1851",77.75754,664.1148
"1852",78.73167,664.1281
"1853",80.07202,664.1414
"1854",81.63943,664.1547
"1855",83.211716,664.168
"1856",84.55207,664.18134
"1857",85.49447,664.19464
"1858",85.9852,664.20795
"1859",86.06821,664.22125
"1860",85.84604,664.23456
"1861",85.4432,664.24786
"1862",84.964676,664.26117
"1863",84.488594,664.2745
"1864",84.068665,664.2878
"1865",83.71465,664.3011
"1866",83.41436,664.3144
"1867",83.13359,664.3277
"1868",82.847946,664.341
"1869",82.55009,664.3543
"1870",82.24979,664.3676
"1871",81.97391,664.3809
"1872",81.74441,664.3942
"1873",81.57107,664.40753
"1874",81.444115,664.42084
"1875",81.339134,664.43414
"1876",81.231705,664.44745
"1877",81.09743,664.46075
"1878",80.92409,664.47406
"1879",80.71168,664.48737
"1880",80.45777,664.5007
"1881",80.177,664.514
"1882",79.869385,664.5273
"1883",79.55932,664.5406
"1884",79.2517,664.5539
"1885",78.95628,664.5672
"1886",78.68772,664.5805
"1887",78.44602,664.5938
"1888",78.23605,664.6071
"1889",78.05783,664.6204
"1890",77.90646,664.6337
"1891",77.77707,664.64703
"1892",77.67208,664.66034
"1893",77.58175,664.67365
"1894",77.503624,664.68695
"1895",77.437706,664.70026
"1896",77.37911,664.71356
"1897",77.32784,664.72687
"1898",77.27657,664.7402
"1899",77.22774,664.7535
"1900",77.17647,664.7668
"1901",77.13008,664.7801
"1902",77.086136,664.7934
"1903",77.0544,664.8067
"1904",77.02266,664.82
"1905",76.99092,664.8333
"1906",76.9543,664.8466
"1907",76.910355,664.8599
"1908",76.859085,664.8732
"1909",76.807816,664.88654
"1910",76.75899,664.89984
"1911",76.72968,664.91315
"1912",76.771194,664.92645
"1913",76.98848,664.93976
"1914",77.51583,664.95306
"1915",78.44114,664.9664
"1916",79.76196,664.9797
"1917",81.36355,664.993
"1918",83.03349,665.0063
"1919",84.53254,665.0196
"1920",85.66781,665.0329
"1921",86.3563,665.0462
"1922",86.61753,665.0595
"1923",86.54673,665.0728
"1924",86.2562,665.0861
"1925",85.86313,665.0994
"1926",85.46517,665.11273
"1927",85.11604,665.12604
"1928",84.83284,665.13934
"1929",84.60578,665.15265
"1930",84.4007,665.16595
"1931",84.16876,665.17926
"1932",83.88068,665.19257
"1933",83.53643,665.2059
"1934",83.158005,665.2192
"1935",82.774704,665.2325
"1936",82.4329,665.2458
"1937",82.159454,665.2591
"1938",81.94705,665.2724
"1939",81.77127,665.2857
"1940",81.60525,665.299
"1941",81.42458,665.3123
"1942",81.20485,665.3256
"1943",80.938736,665.3389
"1944",80.64088,665.35223
"1945",80.31861,665.36554
"1946",79.98413,665.37885
"1947",79.64477,665.39215
"1948",79.31762,665.40546
"1949",79.00755,665.41876
"1950",78.72678,665.43207
"1951",78.47532,665.4454
"1952",78.25559,665.4587
"1953",78.06271,665.472
"1954",77.89426,665.4853
"1955",77.752655,665.4986
"1956",77.63302,665.5119
"1957",77.53292,665.5252
"1958",77.44503,665.5385
"1959",77.36446,665.5518
"1960",77.28878,665.5651
"1961",77.21309,665.5784
"1962",77.12764,665.59174
"1963",77.04463,665.60504
"1964",76.964066,665.61835
"1965",76.893265,665.63165
"1966",76.83711,665.64496
"1967",76.79317,665.65826
"1968",76.75899,665.6716
"1969",76.734566,665.6849
"1970",76.71015,665.6982
"1971",76.68818,665.7115
"1972",76.663765,665.7248
"1973",76.63935,665.7381
"1974",76.610054,665.7514
"1975",76.56855,665.7647
"1976",76.52216,665.778
"1977",76.4831,665.7913
"1978",76.48066,665.8046
"1979",76.5832,665.81793
"1980",76.90303,665.83124
"1981",77.56222,665.84454
"1982",78.626686,665.85785
"1983",80.062256,665.87115
"1984",81.71999,665.88446
"1985",83.3753,665.89777
"1986",84.79866,665.9111
"1987",85.821625,665.9244
"1988",86.397804,665.9377
"1989",86.573586,665.951
"1990",86.44663,665.9643
"1991",86.12924,665.9776
"1992",85.73861,665.9909
"1993",85.36019,666.0042
"1994",85.03792,666.0175
"1995",84.77913,666.0308
"1996",84.56672,666.0441
"1997",84.35432,666.05743
"1998",84.09552,666.07074
"1999",83.773254,666.08405
"2000",83.407036,666.09735
"2001",83.02373,666.11066
"2002",82.65507,666.12396
"2003",82.3328,666.13727
"2004",82.06912,666.1506
"2005",81.85184,666.1639
"2006",81.654076,666.1772
"2007",81.45876,666.1905
"2008",81.24147,666.2038
"2009",80.990005,666.2171
"2010",80.70191,666.2304
"2011",80.38453,666.2437
"2012",80.042725,666.257
"2013",79.691154,666.2703
"2014",79.34203,666.2836
"2015",79.00755,666.29694
"2016",78.69993,666.31024
"2017",78.42405,666.32355
"2018",78.17746,666.33685
"2019",77.960175,666.35016
"2020",77.77219,666.36346
"2021",77.61349,666.3768
"2022",77.47433,666.3901
"2023",77.35714,666.4034
"2024",77.25704,666.4167
"2025",77.17891,666.43
"2026",77.11055,666.4433
"2027",77.049515,666.4566
"2028",76.998245,666.4699
"2029",76.95186,666.4832
"2030",76.90303,666.4965
"2031",76.85176,666.5098
"2032",76.80049,666.52313
"2033",76.749214,666.53644
"2034",76.697945,666.54974
"2035",76.654,666.56305
"2036",76.610054,666.57635
"2037",76.57343,666.58966
"2038",76.541695,666.60297
"2039",76.51972,666.6163
"2040",76.50996,666.6296
"2041",76.50507,666.6429
"2042",76.507515,666.6562
"2043",76.507515,666.6695
"2044",76.49531,666.6828
"2045",76.473335,666.6961
"2046",76.44404,666.7094
"2047",76.41474,666.7227
"2048",76.39277,666.736
"2049",76.41474,666.7493
"2050",76.561226,666.76263
"2051",76.95918,666.77594
"2052",77.72823,666.78925
"2053",78.91478,666.80255
"2054",80.45777,666.81586
"2055",82.19119,666.82916
"2056",83.87091,666.84247
"2057",85.26498,666.8558
"2058",86.23422,666.8691
"2059",86.744484,666.8824
"2060",86.85191,666.8957
"2061",86.66392,666.909
"2062",86.30259,666.9223
"2063",85.872894,666.9356
"2064",85.45785,666.9489
"2065",85.101395,666.9622
"2066",84.808426,666.9755
"2067",84.55207,666.98883
"2068",84.300606,667.00214
"2069",84.017395,667.01544
"2070",83.69024,667.02875
"2071",83.33868,667.04205
"2072",82.99199,667.05536
"2073",82.67948,667.06866
"2074",82.42069,667.082
"2075",82.213165,667.0953
"2076",82.037384,667.1086
"2077",81.85916,667.1219
"2078",81.66628,667.1352
"2079",81.43679,667.1485
"2080",81.17311,667.1618
"2081",80.87526,667.1751
"2082",80.552986,667.1884
"2083",80.21362,667.2017
"2084",79.869385,667.215
"2085",79.53002,667.22833
"2086",79.202866,667.24164
"2087",78.90013,667.25494
"2088",78.63157,667.26825
"2089",78.397194,667.28156
"2090",78.19699,667.29486
"2091",78.028534,667.30817
"2092",77.88693,667.3215
"2093",77.7673,667.3348
"2094",77.659874,667.3481
"2095",77.56222,667.3614
"2096",77.471886,667.3747
"2097",77.38888,667.388
"2098",77.31075,667.4013
"2099",77.23506,667.4146
"2100",77.171585,667.4279
"2101",77.117874,667.4412
"2102",77.07881,667.4545
"2103",77.049515,667.46783
"2104",77.02266,667.48114
"2105",76.98604,667.49445
"2106",76.94209,667.50775
"2107",76.893265,667.52106
"2108",76.84932,667.53436
"2109",76.822464,667.54767
"2110",76.807816,667.561
"2111",76.79805,667.5743
"2112",76.78096,667.5876
"2113",76.756546,667.6009
"2114",76.72724,667.6142
"2115",76.69306,667.6275
"2116",76.663765,667.6408
"2117",76.663765,667.6541
"2118",76.74189,667.6674
"2119",77.00069,667.6807
"2120",77.57198,667.69403
"2121",78.53147,667.70734
"2122",79.871826,667.72064
"2123",81.47585,667.73395
"2124",83.14336,667.74725
"2125",84.63264,667.76056
"2126",85.753265,667.77386
"2127",86.414894,667.7872
"2128",86.6395,667.8005
"2129",86.50767,667.8138
"2130",86.14145,667.8271
"2131",85.662926,667.8404
"2132",85.169754,667.8537
"2133",84.7132,667.867
"2134",84.32502,667.8803
"2135",83.99542,667.8936
"2136",83.69756,667.9069
"2137",83.407036,667.9202
"2138",83.11406,667.93353
"2139",82.81621,667.94684
"2140",82.53544,667.96014
"2141",82.2913,667.97345
"2142",82.09842,667.98676
"2143",81.94949,668.00006
"2144",81.82742,668.01337
"2145",81.705345,668.0267
"2146",81.55398,668.04
"2147",81.356224,668.0533
"2148",81.109634,668.0666
"2149",80.81911,668.0799
"2150",80.49195,668.0932
"2151",80.14526,668.1065
"2152",79.79614,668.1198
"2153",79.45678,668.1331
"2154",79.13939,668.1464
"2155",78.84398,668.1597
"2156",78.57786,668.17303
"2157",78.3386,668.18634
"2158",78.135956,668.19965
"2159",77.96506,668.21295
"2160",77.8259,668.22626
"2161",77.71114,668.23956
"2162",77.61837,668.25287
"2163",77.53048,668.2662
"2164",77.45724,668.2795
"2165",77.39864,668.2928
"2166",77.35958,668.3061
"2167",77.330284,668.3194
"2168",77.31808,668.3327
"2169",77.30831,668.346
"2170",77.298546,668.3593
"2171",77.28634,668.3726
"2172",77.27169,668.3859
"2173",77.24971,668.39923
"2174",77.21553,668.41254
"2175",77.171585,668.42584
"2176",77.1252,668.43915
"2177",77.06416,668.45245
"2178",76.99336,668.46576
"2179",76.910355,668.47906
"2180",76.82735,668.4924
"2181",76.80293,668.5057
"2182",76.94209,668.519
"2183",77.37179,668.5323
"2184",78.19211,668.5456
"2185",79.42748,668.5589
"2186",80.98512,668.5722
"2187",82.6746,668.5855
"2188",84.263985,668.5988
"2189",85.54574,668.6121
"2190",86.40269,668.6254
"2191",86.81773,668.63873
"2192",86.86412,668.65204
"2193",86.65171,668.66534
"2194",86.30015,668.67865
"2195",85.89975,668.69196
"2196",85.51156,668.70526
"2197",85.16731,668.71857
"2198",84.86946,668.7319
"2199",84.58869,668.7452
"2200",84.298164,668.7585
"2201",83.97833,668.7718
"2202",83.62188,668.7851
"2203",83.24101,668.7984
"2204",82.862595,668.8117
"2205",82.52323,668.825
"2206",82.2327,668.8383
"2207",81.99344,668.8516
"2208",81.78348,668.8649
"2209",81.58083,668.87823
"2210",81.35378,668.89154
"2211",81.094986,668.90485
"2212",80.80202,668.91815
"2213",80.47242,668.93146
"2214",80.11841,668.94476
"2215",79.74975,668.95807
"2216",79.381096,668.9714
"2217",79.0222,668.9847
"2218",78.6804,668.998
"2219",78.365456,669.0113
"2220",78.09201,669.0246
"2221",77.86252,669.0379
"2222",77.67208,669.0512
"2223",77.51583,669.0645
"2224",77.38644,669.0778
"2225",77.27169,669.0911
"2226",77.1667,669.10443
"2227",77.07149,669.11774
"2228",76.995804,669.13104
"2229",76.93721,669.14435
"2230",76.893265,669.15765
"2231",76.8542,669.17096
"2232",76.82735,669.18427
"2233",76.79561,669.1976
"2234",76.76143,669.2109
"2235",76.7248,669.2242
"2236",76.6833,669.2375
"2237",76.629585,669.2508
"2238",76.56367,669.2641
"2239",76.48554,669.2774
"2240",76.404976,669.2907
"2241",76.32685,669.304
"2242",76.27802,669.3173
"2243",76.33173,669.3306
"2244",76.60029,669.34393
"2245",77.20332,669.35724
"2246",78.21408,669.37054
"2247",79.61059,669.38385
"2248",81.26345,669.39716
"2249",82.95781,669.41046
"2250",84.44953,669.42377
"2251",85.56283,669.4371
"2252",86.22934,669.4504
"2253",86.47105,669.4637
"2254",86.37827,669.477
"2255",86.07065,669.4903
"2256",85.6556,669.5036
"2257",85.22102,669.5169
"2258",84.823074,669.5302
"2259",84.471504,669.5435
"2260",84.16144,669.5568
"2261",83.861145,669.5701
"2262",83.53887,669.58344
"2263",83.17265,669.59674
"2264",82.76982,669.61005
"2265",82.357216,669.62335
"2266",81.969025,669.63666
"2267",81.63943,669.64996
"2268",81.375755,669.66327
"2269",81.16579,669.6766
"2270",80.98268,669.6899
"2271",80.79469,669.7032
"2272",80.58228,669.7165
"2273",80.33082,669.7298
"2274",80.03296,669.7431
"2275",79.70336,669.7564
"2276",79.3518,669.7697
"2277",78.99046,669.783
"2278",78.63645,669.7963
"2279",78.30442,669.80963
"2280",78.00168,669.82294
"2281",77.73556,669.83624
"2282",77.506065,669.84955
"2283",77.31075,669.86285
"2284",77.14229,669.87616
"2285",77.00069,669.88947
"2286",76.876175,669.9028
"2287",76.771194,669.9161
"2288",76.6833,669.9294
"2289",76.61494,669.9427
"2290",76.56367,669.956
"2291",76.524605,669.9693
"2292",76.49531,669.9826
"2293",76.46357,669.9959
"2294",76.436714,670.0092
"2295",76.402534,670.0225
"2296",76.368355,670.0358
"2297",76.32929,670.04913
"2298",76.29023,670.06244
"2299",76.24872,670.07574
"2300",76.20233,670.08905
"2301",76.15106,670.10236
"2302",76.104675,670.11566
"2303",76.07294,670.12897
"2304",76.07538,670.1423
"2305",76.18524,670.1556
"2306",76.51728,670.1689
"2307",77.19356,670.1822
"2308",78.27512,670.1955
"2309",79.73266,670.2088
"2310",81.42214,670.2221
"2311",83.12138,670.2354
"2312",84.58381,670.2487
"2313",85.64095,670.262
"2314",86.239105,670.2753
"2315",86.42466,670.28864
"2316",86.295265,670.30194
"2317",85.97055,670.31525
"2318",85.55062,670.32855
"2319",85.12337,670.34186
"2320",84.73029,670.35516
"2321",84.39338,670.36847
"2322",84.088196,670.3818
"2323",83.7879,670.3951
"2324",83.46319,670.4084
"2325",83.09697,670.4217
"2326",82.69901,670.435
"2327",82.31327,670.4483
"2328",81.97635,670.4616
"2329",81.7029,670.4749
"2330",81.50027,670.4882
"2331",81.33669,670.5015
"2332",81.180435,670.51483
"2333",80.99977,670.52814
"2334",80.7776,670.54144
"2335",80.51148,670.55475
"2336",80.20874,670.56805
"2337",79.87671,670.58136
"2338",79.53246,670.59467
"2339",79.18822,670.608
"2340",78.856186,670.6213
"2341",78.551,670.6346
"2342",78.277565,670.6479
"2343",78.04318,670.6612
"2344",77.84299,670.6745
"2345",77.67208,670.6878
"2346",77.5256,670.7011
"2347",77.39864,670.7144
"2348",77.29122,670.7277
"2349",77.19844,670.741
"2350",77.12276,670.75433
"2351",77.05928,670.76764
"2352",77.00557,670.78094
"2353",76.961624,670.79425
"2354",76.925,670.80756
"2355",76.893265,670.82086
"2356",76.86641,670.83417
"2357",76.84444,670.8475
"2358",76.83223,670.8608
"2359",76.822464,670.8741
"2360",76.81026,670.8874
"2361",76.788284,670.9007
"2362",76.75166,670.914
"2363",76.6955,670.9273
"2364",76.63203,670.9406
"2365",76.56611,670.9539
"2366",76.50507,670.9672
"2367",76.46113,670.9805
"2368",76.49287,670.99384
"2369",76.6955,671.00714
"2370",77.20088,671.02045
"2371",78.1091,671.03375
"2372",79.42748,671.04706
"2373",81.05104,671.06036
"2374",82.777145,671.07367
"2375",84.34455,671.087
"2376",85.55306,671.1003
"2377",86.29038,671.1136
"2378",86.56138,671.1269
"2379",86.4564,671.1402
"2380",86.09506,671.1535
"2381",85.60189,671.1668
"2382",85.09163,671.1801
"2383",84.63508,671.1934
"2384",84.25178,671.2067
"2385",83.93927,671.22003
"2386",83.65606,671.23334
"2387",83.370415,671.24664
"2388",83.05058,671.25995
"2389",82.71122,671.27325
"2390",82.371864,671.28656
"2391",82.06424,671.29987
"2392",81.812775,671.3132
"2393",81.61501,671.3265
"2394",81.45632,671.3398
"2395",81.30984,671.3531
"2396",81.15114,671.3664
"2397",80.95094,671.3797
"2398",80.70191,671.393
"2399",80.39918,671.4063
"2400",80.062256,671.4196
"2401",79.708244,671.4329
"2402",79.3518,671.4462
"2403",79.00267,671.45953
"2404",78.67307,671.47284
"2405",78.37522,671.48615
"2406",78.1091,671.49945
"2407",77.87961,671.51276
"2408",77.68429,671.52606
"2409",77.5256,671.53937
"2410",77.40353,671.5527
"2411",77.31075,671.566
"2412",77.24727,671.5793
"2413",77.205765,671.5926
"2414",77.18379,671.6059
"2415",77.16914,671.6192
"2416",77.154495,671.6325
"2417",77.13985,671.6458
"2418",77.12276,671.6591
"2419",77.103226,671.6724
"2420",77.07637,671.6857
"2421",77.03975,671.69904
"2422",76.995804,671.71234
"2423",76.94209,671.72565
"2424",76.86885,671.73895
"2425",76.78584,671.75226
"2426",76.700386,671.76556
"2427",76.627144,671.7789
"2428",76.60273,671.7922
"2429",76.70527,671.8055
"2430",77.051956,671.8188
"2431",77.76486,671.8321
"2432",78.90013,671.8454
"2433",80.4065,671.8587
"2434",82.125275,671.872
"2435",83.80255,671.8853
"2436",85.19905,671.8986
"2437",86.16586,671.9119
"2438",86.67368,671.92523
"2439",86.77379,671.93854
"2440",86.58091,671.95184
"2441",86.21225,671.96515
"2442",85.76547,671.97845
"2443",85.31136,671.99176
"2444",84.893875,672.00507
"2445",84.53254,672.0184
"2446",84.210266,672.0317
"2447",83.895325,672.045
"2448",83.5584,672.0583
"2449",83.18242,672.0716
"2450",82.78447,672.0849
"2451",82.38651,672.0982
"2452",82.02762,672.1115
"2453",81.72488,672.1248
"2454",81.48806,672.1381
"2455",81.29763,672.1514
"2456",81.126724,672.16473
"2457",80.94118,672.17804
"2458",80.72877,672.19135
"2459",80.47486,672.20465
"2460",80.17944,672.21796
"2461",79.84985,672.23126
"2462",79.500725,672.24457
"2463",79.14427,672.2579
"2464",78.79515,672.2712
"2465",78.46311,672.2845
"2466",78.16525,672.2978
"2467",77.908905,672.3111
"2468",77.69894,672.3244
"2469",77.52804,672.3377
"2470",77.39376,672.351
"2471",77.2839,672.3643
"2472",77.188675,672.3776
"2473",77.103226,672.3909
"2474",77.02754,672.40424
"2475",76.964066,672.41754
"2476",76.910355,672.43085
"2477",76.86397,672.44415
"2478",76.822464,672.45746
"2479",76.7834,672.47076
"2480",76.74189,672.4841
"2481",76.700386,672.4974
"2482",76.66865,672.5107
"2483",76.63691,672.524
"2484",76.60761,672.5373
"2485",76.578316,672.5506
"2486",76.544136,672.5639
"2487",76.50019,672.5772
"2488",76.44892,672.5905
"2489",76.39033,672.6038
"2490",76.32929,672.6171
"2491",76.2707,672.63043
"2492",76.24872,672.64374
"2493",76.334175,672.65704
"2494",76.65156,672.67035
"2495",77.33761,672.68365
"2496",78.47288,672.69696
"2497",80.028076,672.71027
"2498",81.85428,672.7236
"2499",83.702446,672.7369
"2500",85.30892,672.7502
"2501",86.47837,672.7635
"2502",87.14,672.7768
"2503",87.3402,672.7901
"2504",87.186386,672.8034
"2505",86.81285,672.8167
"2506",86.33921,672.83
"2507",85.855804,672.8433
"2508",85.4139,672.8566
"2509",85.033035,672.86993
"2510",84.701,672.88324
"2511",84.37629,672.89655
"2512",84.034485,672.90985
"2513",83.65362,672.92316
"2514",83.23125,672.93646
"2515",82.79668,672.94977
"2516",82.391396,672.9631
"2517",82.04227,672.9764
"2518",81.75906,672.9897
"2519",81.532005,673.003
"2520",81.33181,673.0163
"2521",81.126724,673.0296
"2522",80.89723,673.0429
"2523",80.62379,673.0562
"2524",80.308846,673.0695
"2525",79.96216,673.0828
"2526",79.59838,673.0961
"2527",79.2224,673.10944
"2528",78.8513,673.12274
"2529",78.49485,673.13605
"2530",78.16525,673.14935
"2531",77.86008,673.16266
"2532",77.593956,673.17596
"2533",77.36446,673.1893
"2534",77.17647,673.2026
"2535",77.02022,673.2159
"2536",76.895706,673.2292
"2537",76.79805,673.2425
"2538",76.71992,673.2558
"2539",76.654,673.2691
"2540",76.60029,673.2824
"2541",76.5539,673.2957
"2542",76.5124,673.309
"2543",76.473335,673.3223
"2544",76.43183,673.33563
"2545",76.39277,673.34894
"2546",76.35859,673.36224
"2547",76.334175,673.37555
"2548",76.31953,673.38885
"2549",76.314644,673.40216
"2550",76.30976,673.41547
"2551",76.299995,673.4288
"2552",76.280464,673.4421
"2553",76.25361,673.4554
"2554",76.22186,673.4687
"2555",76.18768,673.482
"2556",76.1535,673.4953
"2557",76.13641,673.5086
"2558",76.18768,673.5219
"2559",76.41718,673.5352
"2560",76.97627,673.5485
"2561",77.99191,673.5618
"2562",79.47143,673.57513
"2563",81.304955,673.58844
"2564",83.25567,673.60175
"2565",85.0428,673.61505
"2566",86.42466,673.62836
"2567",87.28161,673.64166
"2568",87.62585,673.65497
"2569",87.55016,673.6683
"2570",87.1815,673.6816
"2571",86.659035,673.6949
"2572",86.09018,673.7082
"2573",85.55306,673.7215
"2574",85.08675,673.7348
"2575",84.69367,673.7481
"2576",84.34699,673.7614
"2577",84.00763,673.7747
"2578",83.64141,673.788
"2579",83.245895,673.80133
"2580",82.84306,673.81464
"2581",82.4622,673.82794
"2582",82.142365,673.84125
"2583",81.898224,673.85455
"2584",81.71755,673.86786
"2585",81.56374,673.88116
"2586",81.40261,673.8945
"2587",81.20729,673.9078
"2588",80.96559,673.9211
"2589",80.672615,673.9344
"2590",80.34058,673.9477
"2591",79.971924,673.961
"2592",79.588615,673.9743
"2593",79.19798,673.9876
"2594",78.819565,674.0009
"2595",78.470436,674.0142
"2596",78.16281,674.0275
"2597",77.8967,674.04083
"2598",77.67696,674.05414
"2599",77.4963,674.06744
"2600",77.347374,674.08075
"2601",77.22774,674.09406
"2602",77.134964,674.10736
"2603",77.07149,674.12067
"2604",77.02754,674.134
"2605",76.995804,674.1473
"2606",76.97139,674.1606
"2607",76.95186,674.1739
"2608",76.929886,674.1872
"2609",76.910355,674.2005
"2610",76.90059,674.2138
"2611",76.89082,674.2271
"2612",76.87862,674.2404
"2613",76.859085,674.2537
"2614",76.82735,674.267
"2615",76.771194,674.28033
"2616",76.69062,674.29364
"2617",76.59785,674.30695
"2618",76.50019,674.32025
"2619",76.42451,674.33356
"2620",76.436714,674.34686
"2621",76.64423,674.36017
"2622",77.188675,674.3735
"2623",78.170135,674.3868
"2624",79.603264,674.4001
"2625",81.373314,674.4134
"2626",83.26055,674.4267
"2627",84.99397,674.44
"2628",86.33677,674.4533
"2629",87.16441,674.4666
"2630",87.47936,674.4799
"2631",87.37194,674.4932
"2632",86.976425,674.50653
"2633",86.42466,674.51984
"2634",85.83383,674.53314
"2635",85.26986,674.54645
"2636",84.76936,674.55975
"2637",84.33723,674.57306
"2638",83.949036,674.58636
"2639",83.58282,674.5997
"2640",83.21904,674.613
"2641",82.862595,674.6263
"2642",82.52079,674.6396
"2643",82.21805,674.6529
"2644",81.969025,674.6662
"2645",81.778595,674.6795
"2646",81.619896,674.6928
"2647",81.47097,674.7061
"2648",81.304955,674.7194
"2649",81.094986,674.7327
"2650",80.82887,674.74603
"2651",80.5066,674.75934
"2652",80.1355,674.77264
"2653",79.7351,674.78595
"2654",79.3225,674.79926
"2655",78.91478,674.81256
"2656",78.53391,674.82587
"2657",78.19211,674.8392
"2658",77.88693,674.8525
"2659",77.62325,674.8658
"2660",77.401085,674.8791
"2661",77.21309,674.8924
"2662",77.051956,674.9057
"2663",76.90791,674.919
"2664",76.790726,674.9323
"2665",76.69306,674.9456
"2666",76.61982,674.9589
"2667",76.56855,674.9722
"2668",76.53193,674.98553
"2669",76.50996,674.99884
"2670",76.49287,675.01215
"2671",76.470894,675.02545
"2672",76.44892,675.03876
"2673",76.419624,675.05206
"2674",76.383,675.06537
"2675",76.33173,675.0787
"2676",76.265816,675.092
"2677",76.18768,675.1053
"2678",76.102234,675.1186
"2679",76.019226,675.1319
"2680",75.97528,675.1452
"2681",76.04608,675.1585
"2682",76.37812,675.1718
"2683",77.11055,675.1851
"2684",78.33372,675.1984
"2685",80.0061,675.21173
"2686",81.96658,675.22504
"2687",83.946594,675.23834
"2688",85.66781,675.25165
"2689",86.92027,675.26495
"2690",87.63317,675.27826
"2691",87.84558,675.29156
"2692",87.66247,675.3049
"2693",87.237656,675.3182
"2694",86.70786,675.3315
"2695",86.168304,675.3448
"2696",85.68246,675.3581
"2697",85.26986,675.3714
"2698",84.910965,675.3847
"2699",84.559395,675.398
"2700",84.173645,675.4113
"2701",83.734184,675.4246
"2702",83.245895,675.4379
"2703",82.735634,675.45123
"2704",82.247345,675.46454
"2705",81.82742,675.47784
"2706",81.50027,675.49115
"2707",81.25124,675.50446
"2708",81.0486,675.51776
"2709",80.85329,675.53107
"2710",80.62867,675.5444
"2711",80.35035,675.5577
"2712",80.01587,675.571
"2713",79.63744,675.5843
"2714",79.23216,675.5976
"2715",78.81712,675.6109
"2716",78.41428,675.6242
"2717",78.03586,675.6375
"2718",77.69405,675.6508
"2719",77.39376,675.6641
"2720",77.137405,675.6774
"2721",76.92256,675.69073
"2722",76.74189,675.70404
"2723",76.60029,675.71735
"2724",76.49531,675.73065
"2725",76.42939,675.74396
"2726",76.39277,675.75726
"2727",76.383,675.77057
"2728",76.385445,675.7839
"2729",76.39033,675.7972
"2730",76.37812,675.8105
"2731",76.351265,675.8238
"2732",76.30732,675.8371
"2733",76.24872,675.8504
"2734",76.17792,675.8637
"2735",76.09735,675.877
"2736",76.01434,675.8903
"2737",75.93378,675.9036
"2738",75.85565,675.91693
"2739",75.78241,675.93024
"2740",75.7116,675.94354
"2741",75.6408,675.95685
"2742",75.57488,675.97015
"2743",75.54803,675.98346
"2744",75.648125,675.99677
"2745",76.019226,676.0101
"2746",76.81758,676.0234
"2747",78.135956,676.0367
"2748",79.92554,676.05
"2749",82.00809,676.0633
"2750",84.09796,676.0766
"2751",85.89731,676.0899
"2752",87.186386,676.1032
"2753",87.89197,676.1165
"2754",88.06531,676.1298
"2755",87.8407,676.1431
"2756",87.36462,676.15643
"2757",86.78111,676.16974
"2758",86.19272,676.18304
"2759",85.66537,676.19635
"2760",85.2137,676.20966
"2761",84.825516,676.22296
"2762",84.454414,676.23627
"2763",84.0589,676.2496
"2764",83.61944,676.2629
"2765",83.14824,676.2762
"2766",82.669716,676.2895
"2767",82.230255,676.3028
"2768",81.85916,676.3161
"2769",81.55642,676.3294
"2770",81.304955,676.3427
"2771",81.075455,676.356
"2772",80.84352,676.3693
"2773",80.584724,676.3826
"2774",80.28199,676.39594
"2775",79.9353,676.40924
"2776",79.54711,676.42255
"2777",79.132065,676.43585
"2778",78.70237,676.44916
"2779",78.277565,676.46246
"2780",77.874725,676.47577
"2781",77.506065,676.4891
"2782",77.18135,676.5024
"2783",76.90791,676.5157
"2784",76.68818,676.529
"2785",76.5124,676.5423
"2786",76.37568,676.5556
"2787",76.26826,676.5689
"2788",76.18768,676.5822
"2789",76.11932,676.5955
"2790",76.05585,676.6088
"2791",76.00214,676.62213
"2792",75.95087,676.63544
"2793",75.90204,676.64874
"2794",75.860535,676.66205
"2795",75.826355,676.67535
"2796",75.79706,676.68866
"2797",75.76288,676.70197
"2798",75.72869,676.7153
"2799",75.684746,676.7286
"2800",75.64324,676.7419
"2801",75.596855,676.7552
"2802",75.562675,676.7685
"2803",75.543144,676.7818
"2804",75.53338,676.7951
"2805",75.53094,676.8084
"2806",75.53338,676.8217
"2807",75.53582,676.835
"2808",75.53338,676.8483
"2809",75.53094,676.86163
"2810",75.560234,676.87494
"2811",75.70428,676.88824
"2812",76.12909,676.90155
"2813",77.00557,676.91486
"2814",78.42405,676.92816
"2815",80.33326,676.94147
"2816",82.54032,676.9548
"2817",84.73762,676.9681
"2818",86.61265,676.9814
"2819",87.957886,676.9947
"2820",88.71961,677.008
"2821",88.9662,677.0213
"2822",88.82704,677.0346
"2823",88.44129,677.0479
"2824",87.93591,677.0612
"2825",87.40368,677.0745
"2826",86.908066,677.0878
"2827",86.46372,677.10114
"2828",86.07309,677.11444
"2829",85.70199,677.12775
"2830",85.31869,677.14105
"2831",84.9012,677.15436
"2832",84.4593,677.16766
"2833",84.02716,677.18097
"2834",83.648735,677.1943
"2835",83.370415,677.2076
"2836",83.19707,677.2209
"2837",83.09453,677.2342
"2838",83.01152,677.2475
"2839",82.89433,677.2608
"2840",82.703896,677.2741
"2841",82.41825,677.2874
"2842",82.037384,677.3007
"2843",81.5906,677.314
"2844",81.10719,677.32733
"2845",80.621346,677.34064
"2846",80.15747,677.35394
"2847",79.73754,677.36725
"2848",79.364006,677.38055
"2849",79.03929,677.39386
"2850",78.75853,677.40717
"2851",78.51682,677.4205
"2852",78.2971,677.4338
"2853",78.09445,677.4471
"2854",77.89914,677.4604
"2855",77.7087,677.4737
"2856",77.52071,677.487
"2857",77.3547,677.5003
"2858",77.21553,677.5136
"2859",77.100784,677.5269
"2860",77.00801,677.5402
"2861",76.93233,677.5535
"2862",76.86397,677.56683
"2863",76.79561,677.58014
"2864",76.72236,677.59344
"2865",76.64912,677.60675
"2866",76.57099,677.62006
"2867",76.47822,677.63336
"2868",76.36347,677.64667
"2869",76.224304,677.66
"2870",76.068054,677.6733
"2871",75.945984,677.6866
"2872",75.98016,677.6999
"2873",76.33906,677.7132
"2874",77.171585,677.7265
"2875",78.52415,677.7398
"2876",80.31617,677.7531
"2877",82.32548,677.7664
"2878",84.25178,677.7797
"2879",85.81918,677.793
"2880",86.8568,677.80634
"2881",87.327995,677.81964
"2882",87.31823,677.83295
"2883",86.9691,677.84625
"2884",86.42466,677.85956
"2885",85.82895,677.87286
"2886",85.27718,677.88617
"2887",84.81087,677.8995
"2888",84.43244,677.9128
"2889",84.09308,677.9261
"2890",83.74151,677.9394
"2891",83.34844,677.9527
"2892",82.913864,677.966
"2893",82.4622,677.9793
"2894",82.04959,677.9926
"2895",81.71755,678.0059
"2896",81.47585,678.0192
"2897",81.307396,678.03253
"2898",81.17555,678.04584
"2899",81.04372,678.05914
"2900",80.88258,678.07245
"2901",80.672615,678.08575
"2902",80.413826,678.09906
"2903",80.10132,678.11237
"2904",79.75464,678.1257
"2905",79.38842,678.139
"2906",79.01732,678.1523
"2907",78.643776,678.1656
"2908",78.25803,678.1789
"2909",77.86008,678.1922
"2910",77.45968,678.2055
"2911",77.07149,678.2188
"2912",76.72724,678.2321
"2913",76.44648,678.2454
"2914",76.241394,678.2587
"2915",76.104675,678.27203
"2916",76.016785,678.28534
"2917",75.95819,678.29865
"2918",75.92401,678.31195
"2919",75.90448,678.32526
"2920",75.89227,678.33856
"2921",75.880066,678.35187
"2922",75.85565,678.3652
"2923",75.80682,678.3785
"2924",75.72381,678.3918
"2925",75.613945,678.4051
"2926",75.508965,678.4184
"2927",75.494316,678.4317
"2928",75.70916,678.445
"2929",76.314644,678.4583
"2930",77.401085,678.4716
"2931",78.94652,678.4849
"2932",80.78981,678.4982
"2933",82.68192,678.51154
"2934",84.34699,678.52484
"2935",85.57992,678.53815
"2936",86.30259,678.55145
"2937",86.54673,678.56476
"2938",86.417336,678.57806
"2939",86.046234,678.5914
"2940",85.55306,678.6047
"2941",85.030594,678.618
"2942",84.53742,678.6313
"2943",84.1004,678.6446
"2944",83.702446,678.6579
"2945",83.30694,678.6712
"2946",82.896774,678.6845
"2947",82.4622,678.6978
"2948",82.01785,678.7111
"2949",81.60769,678.7244
"2950",81.28298,678.73773
"2951",81.05592,678.75104
"2952",80.91676,678.76434
"2953",80.82643,678.77765
"2954",80.743416,678.79095
"2955",80.618904,678.80426
"2956",80.428474,678.81757
"2957",80.164795,678.8309
"2958",79.83276,678.8442
"2959",79.44457,678.8575
"2960",79.01976,678.8708
"2961",78.57786,678.8841
"2962",78.14816,678.8974
"2963",77.738,678.9107
"2964",77.35958,678.924
"2965",77.01045,678.9373
"2966",76.70283,678.9506
"2967",76.4416,678.9639
"2968",76.23651,678.97723
"2969",76.087585,678.99054
"2970",75.999695,679.00385
"2971",75.95575,679.01715
"2972",75.93866,679.03046
"2973",75.928894,679.04376
"2974",75.91913,679.05707
"2975",75.90936,679.0704
"2976",75.894714,679.0837
"2977",75.88251,679.097
"2978",75.87518,679.1103
"2979",75.87274,679.1236
"2980",75.87274,679.1369
"2981",75.87518,679.1502
"2982",75.86786,679.1635
"2983",75.85077,679.1768
"2984",75.81659,679.1901
"2985",75.76532,679.2034
"2986",75.69695,679.21674
"2987",75.63836,679.23004
"2988",75.64324,679.24335
"2989",75.82147,679.25665
"2990",76.334175,679.26996
"2991",77.33517,679.28326
"2992",78.8806,679.2966
"2993",80.89479,679.3099
"2994",83.15068,679.3232
"2995",85.33822,679.3365
"2996",87.149765,679.3498
"2997",88.40711,679.3631
"2998",89.06386,679.3764
"2999",89.20546,679.3897
"3000",88.971085,679.403
"3001",88.51209,679.4163
"3002",87.938354,679.4296
"3003",87.327995,679.44293
"3004",86.72251,679.45624
"3005",86.136566,679.46954
"3006",85.557945,679.48285
"3007",84.964676,679.49615
"3008",84.34699,679.50946
"3009",83.717094,679.52277
"3010",83.104294,679.5361
"3011",82.545204,679.5494
"3012",82.07645,679.5627
"3013",81.71999,679.576
"3014",81.45388,679.5893
"3015",81.25124,679.6026
"3016",81.08522,679.6159
"3017",80.92897,679.6292
"3018",80.76051,679.6425
"3019",80.57252,679.6558
"3020",80.35523,679.6691
"3021",80.10864,679.68243
"3022",79.81079,679.69574
"3023",79.449455,679.70905
"3024",79.012436,679.72235
"3025",78.51682,679.73566
"3026",77.98703,679.74896
"3027",77.467,679.76227
"3028",76.99336,679.7756
"3029",76.58808,679.7889
"3030",76.25117,679.8022
"3031",75.96063,679.8155
"3032",75.70428,679.8288
"3033",75.47234,679.8421
"3034",75.26971,679.8554
"3035",75.10857,679.8687
"3036",74.99626,679.882
"3037",74.932785,679.8953
"3038",74.915695,679.9086
"3039",74.932785,679.92194
"3040",74.97429,679.93524
"3041",75.03288,679.94855
"3042",75.09636,679.96185
"3043",75.16716,679.97516
"3044",75.2404,679.98846
"3045",75.30389,680.0018
"3046",75.34295,680.0151
"3047",75.352715,680.0284
"3048",75.3283,680.0417
"3049",75.27215,680.055
"3050",75.194016,680.0683
"3051",75.15007,680.0816
"3052",75.2404,680.0949
"3053",75.62615,680.1082
"3054",76.473335,680.1215
"3055",77.872284,680.1348
"3056",79.766846,680.14813
"3057",81.951935,680.16144
"3058",84.12482,680.17474
"3059",85.97543,680.18805
"3060",87.293816,680.20135
"3061",88.01648,680.21466
"3062",88.20935,680.22797
"3063",88.01404,680.2413
"3064",87.57946,680.2546
"3065",87.03746,680.2679
"3066",86.48814,680.2812
"3067",85.994965,680.2945
"3068",85.57259,680.3078
"3069",85.19661,680.3211
"3070",84.82796,680.3344
"3071",84.42512,680.3477
"3072",83.966125,680.361
"3073",83.458305,680.3743
"3074",82.94072,680.38763
"3075",82.45731,680.40094
"3076",82.039825,680.41425
"3077",81.69314,680.42755
"3078",81.392845,680.44086
"3079",81.112076,680.45416
"3080",80.814224,680.46747
"3081",80.48707,680.4808
"3082",80.12085,680.4941
"3083",79.73266,680.5074
"3084",79.32983,680.5207
"3085",78.93431,680.534
"3086",78.553444,680.5473
"3087",78.19455,680.5606
"3088",77.8674,680.5739
"3089",77.576866,680.5872
"3090",77.32784,680.6005
"3091",77.12276,680.61383
"3092",76.9543,680.62714
"3093",76.82735,680.64044
"3094",76.734566,680.65375
"3095",76.65156,680.66705
"3096",76.541695,680.68036
"3097",76.37812,680.69366
"3098",76.155945,680.707
"3099",75.88739,680.7203
"3100",75.60418,680.7336
"3101",75.36004,680.7469
"3102",75.18425,680.7602
"3103",75.06706,680.7735
"3104",74.99626,680.7868
"3105",74.94011,680.8001
"3106",74.87663,680.8134
"3107",74.79851,680.8267
"3108",74.683754,680.84
"3109",74.527504,680.85333
"3110",74.33463,680.86664
"3111",74.11978,680.87994
"3112",73.917145,680.89325
"3113",73.82193,680.90656
"3114",73.985504,680.91986
"3115",74.59098,680.93317
"3116",75.76044,680.9465
"3117",77.47921,680.9598
"3118",79.58373,680.9731
"3119",81.778595,680.9864
"3120",83.73174,680.9997
"3121",85.17708,681.013
"3122",86.00717,681.0263
"3123",86.258644,681.0396
"3124",86.063324,681.0529
"3125",85.5848,681.0662
"3126",84.979324,681.0795
"3127",84.36652,681.09283
"3128",83.83185,681.10614
"3129",83.407036,681.11945
"3130",83.075,681.13275
"3131",82.78935,681.14606
"3132",82.50126,681.15936
"3133",82.178986,681.17267
"3134",81.8201,681.186
"3135",81.449,681.1993
"3136",81.10475,681.2126
"3137",80.82399,681.2259
"3138",80.62379,681.2392
"3139",80.49439,681.2525
"3140",80.40162,681.2658
"3141",80.31373,681.2791
"3142",80.19409,681.2924
"3143",80.025635,681.3057
"3144",79.79614,681.31903
"3145",79.52514,681.33234
"3146",79.219955,681.34564
"3147",78.90257,681.35895
"3148",78.58762,681.37225
"3149",78.2971,681.38556
"3150",78.04318,681.39886
"3151",77.83322,681.4122
"3152",77.6672,681.4255
"3153",77.540245,681.4388
"3154",77.437706,681.4521
"3155",77.35714,681.4654
"3156",77.296104,681.4787
"3157",77.25216,681.492
"3158",77.225296,681.5053
"3159",77.208206,681.5186
"3160",77.19844,681.5319
"3161",77.19112,681.5452
"3162",77.18135,681.55853
"3163",77.15938,681.57184
"3164",77.11055,681.58514
"3165",77.03731,681.59845
"3166",76.93965,681.61176
"3167",76.822464,681.62506
"3168",76.71015,681.63837
"3169",76.64179,681.6517
"3170",76.68574,681.665
"3171",76.95674,681.6783
"3172",77.60372,681.6916
"3173",78.72434,681.7049
"3174",80.2942,681.7182
"3175",82.16434,681.7315
"3176",84.08087,681.7448
"3177",85.750824,681.7581
"3178",86.942245,681.7714
"3179",87.569695,681.7847
"3180",87.674675,681.79803
"3181",87.38171,681.81134
"3182",86.83238,681.82465
"3183",86.170746,681.83795
"3184",85.49447,681.85126
"3185",84.86946,681.86456
"3186",84.32014,681.87787
"3187",83.844055,681.8912
"3188",83.404594,681.9045
"3189",82.97002,681.9178
"3190",82.52567,681.9311
"3191",82.07645,681.9444
"3192",81.654076,681.9577
"3193",81.30007,681.971
"3194",81.03883,681.9843
"3195",80.867935,681.9976
"3196",80.75807,682.0109
"3197",80.66529,682.02423
"3198",80.55543,682.03754
"3199",80.396736,682.05084
"3200",80.17944,682.06415
"3201",79.89868,682.07745
"3202",79.5642,682.09076
"3203",79.18089,682.10406
"3204",78.77074,682.1174
"3205",78.35325,682.1307
"3206",77.95773,682.144
"3207",77.593956,682.1573
"3208",77.27413,682.1706
"3209",77.00801,682.1839
"3210",76.79561,682.1972
"3211",76.63935,682.2105
"3212",76.541695,682.2238
"3213",76.50019,682.2371
"3214",76.50263,682.2504
"3215",76.53193,682.26373
"3216",76.57343,682.27704
"3217",76.61738,682.29034
"3218",76.654,682.30365
"3219",76.67597,682.31696
"3220",76.67597,682.33026
"3221",76.64912,682.34357
"3222",76.58076,682.3569
"3223",76.46601,682.3702
"3224",76.31953,682.3835
"3225",76.190125,682.3968
"3226",76.18036,682.4101
"3227",76.46357,682.4234
"3228",77.21309,682.4367
"3229",78.51682,682.45
"3230",80.30152,682.4633
"3231",82.35233,682.4766
"3232",84.36164,682.4899
"3233",86.012054,682.50323
"3234",87.1107,682.51654
"3235",87.62585,682.52985
"3236",87.65026,682.54315
"3237",87.327995,682.55646
"3238",86.81773,682.56976
"3239",86.24155,682.58307
"3240",85.69955,682.5964
"3241",85.23811,682.6097
"3242",84.86946,682.623
"3243",84.56916,682.6363
"3244",84.29084,682.6496
"3245",83.98566,682.6629
"3246",83.631645,682.6762
"3247",83.22392,682.6895
"3248",82.79668,682.7028
"3249",82.38651,682.7161
"3250",82.03006,682.72943
"3251",81.739525,682.74274
"3252",81.51003,682.75604
"3253",81.32937,682.76935
"3254",81.16579,682.78265
"3255",81.00221,682.79596
"3256",80.831314,682.80927
"3257",80.66773,682.8226
"3258",80.516365,682.8359
"3259",80.39185,682.8492
"3260",80.28687,682.8625
"3261",80.18677,682.8758
"3262",80.06958,682.8891
"3263",79.91821,682.9024
"3264",79.725334,682.9157
"3265",79.49584,682.929
"3266",79.23216,682.9423
"3267",78.9514,682.9556
"3268",78.66819,682.96893
"3269",78.39231,682.98224
"3270",78.13107,682.99554
"3271",77.891815,683.00885
"3272",77.66476,683.02216
"3273",77.44991,683.03546
"3274",77.24971,683.04877
"3275",77.05928,683.0621
"3276",76.88838,683.0754
"3277",76.73701,683.0887
"3278",76.59785,683.102
"3279",76.44404,683.1153
"3280",76.263374,683.1286
"3281",76.050964,683.1419
"3282",75.81171,683.1552
"3283",75.58221,683.1685
"3284",75.47967,683.1818
"3285",75.67742,683.1951
"3286",76.36591,683.20844
"3287",77.65255,683.22174
"3288",79.49584,683.23505
"3289",81.688255,683.24835
"3290",83.90021,683.26166
"3291",85.79965,683.27496
"3292",87.14732,683.28827
"3293",87.87732,683.3016
"3294",88.06287,683.3149
"3295",87.85535,683.3282
"3296",87.40368,683.3415
"3297",86.84459,683.3548
"3298",86.278175,683.3681
"3299",85.74593,683.3814
"3300",85.26009,683.3947
"3301",84.79866,683.408
"3302",84.334785,683.4213
"3303",83.82941,683.43463
"3304",83.27032,683.44794
"3305",82.6746,683.46124
"3306",82.074005,683.47455
"3307",81.52712,683.48785
"3308",81.077896,683.50116
"3309",80.75075,683.51447
"3310",80.52857,683.5278
"3311",80.37965,683.5411
"3312",80.24536,683.5544
"3313",80.0647,683.5677
"3314",79.801025,683.581
"3315",79.449455,683.5943
"3316",79.01488,683.6076
"3317",78.52415,683.6209
"3318",78.013885,683.6342
"3319",77.506065,683.6475
"3320",77.00801,683.6608
"3321",76.53681,683.67413
"3322",76.104675,683.68744
"3323",75.72381,683.70074
"3324",75.3991,683.71405
"3325",75.13054,683.72736
"3326",74.91325,683.74066
"3327",74.74967,683.75397
"3328",74.63737,683.7673
"3329",74.57389,683.7806
"3330",74.55192,683.7939
"3331",74.57633,683.8072
"3332",74.63981,683.8205
"3333",74.73258,683.8338
"3334",74.85466,683.8471
"3335",74.9987,683.8604
"3336",75.15495,683.8737
"3337",75.31365,683.887
"3338",75.46014,683.9003
"3339",75.58465,683.91364
"3340",75.67742,683.92694
"3341",75.736015,683.94025
"3342",75.75067,683.95355
"3343",75.72869,683.96686
"3344",75.67742,683.98016
"3345",75.63348,683.99347
"3346",75.66277,684.0068
"3347",75.928894,684.0201
"3348",76.63203,684.0334
"3349",77.92111,684.0467
"3350",79.801025,684.06
"3351",82.10086,684.0733
"3352",84.5008,684.0866
"3353",86.61753,684.0999
"3354",88.1532,684.1132
"3355",89.00038,684.1265
"3356",89.215225,684.13983
"3357",88.94911,684.15314
"3358",88.38514,684.16644
"3359",87.682,684.17975
"3360",86.95201,684.19305
"3361",86.26841,684.20636
"3362",85.66781,684.21967
"3363",85.14778,684.233
"3364",84.67414,684.2463
"3365",84.2005,684.2596
"3366",83.69512,684.2729
"3367",83.160446,684.2862
"3368",82.62089,684.2995
"3369",82.127716,684.3128
"3370",81.71755,684.3261
"3371",81.40749,684.3394
"3372",81.17799,684.3527
"3373",80.99489,684.366
"3374",80.814224,684.37933
"3375",80.601814,684.39264
"3376",80.343025,684.40594
"3377",80.03296,684.41925
"3378",79.68627,684.43256
"3379",79.31274,684.44586
"3380",78.92943,684.45917
"3381",78.54124,684.4725
"3382",78.16281,684.4858
"3383",77.80148,684.4991
"3384",77.46456,684.5124
"3385",77.15694,684.5257
"3386",76.88838,684.539
"3387",76.654,684.5523
"3388",76.46113,684.5656
"3389",76.299995,684.5789
"3390",76.16815,684.5922
"3391",76.05829,684.6055
"3392",75.96796,684.61884
"3393",75.894714,684.63214
"3394",75.83368,684.64545
"3395",75.789734,684.65875
"3396",75.755554,684.67206
"3397",75.72625,684.68536
"3398",75.70672,684.69867
"3399",75.69207,684.712
"3400",75.682304,684.7253
"3401",75.67254,684.7386
"3402",75.66277,684.7519
"3403",75.650566,684.7652
"3404",75.63348,684.7785
"3405",75.60418,684.7918
"3406",75.56512,684.8051
"3407",75.51873,684.8184
"3408",75.47234,684.8317
"3409",75.46746,684.84503
"3410",75.63348,684.85834
"3411",76.16327,684.87164
"3412",77.242386,684.88495
"3413",78.94408,684.89825
"3414",81.160904,684.91156
"3415",83.60235,684.92487
"3416",85.892426,684.9382
"3417",87.682,684.9515
"3418",88.77821,684.9648
"3419",89.178604,684.9781
"3420",89.007706,684.9914
"3421",88.45594,685.0047
"3422",87.69665,685.018
"3423",86.871445,685.0313
"3424",86.09018,685.0446
"3425",85.41146,685.0579
"3426",84.84749,685.0712
"3427",84.36652,685.08453
"3428",83.92218,685.09784
"3429",83.46807,685.11115
"3430",82.99443,685.12445
"3431",82.52079,685.13776
"3432",82.08865,685.15106
"3433",81.7322,685.16437
"3434",81.47097,685.1777
"3435",81.287865,685.191
"3436",81.1487,685.2043
"3437",81.00954,685.2176
"3438",80.84108,685.2309
"3439",80.62379,685.2442
"3440",80.35035,685.2575
"3441",80.02075,685.2708
"3442",79.639885,685.2841
"3443",79.23949,685.2974
"3444",78.839096,685.3107
"3445",78.45579,685.32404
"3446",78.10422,685.33734
"3447",77.7966,685.35065
"3448",77.51583,685.36395
"3449",77.264366,685.37726
"3450",77.03975,685.39056
"3451",76.84444,685.4039
"3452",76.67841,685.4172
"3453",76.55146,685.4305
"3454",76.46113,685.4438
"3455",76.40742,685.4571
"3456",76.383,685.4704
"3457",76.37812,685.4837
"3458",76.39033,685.497
"3459",76.40009,685.5103
"3460",76.404976,685.5236
"3461",76.40009,685.5369
"3462",76.385445,685.55023
"3463",76.351265,685.56354
"3464",76.297554,685.57684
"3465",76.21942,685.59015
"3466",76.12421,685.60345
"3467",76.02411,685.61676
"3468",75.982605,685.63007
"3469",76.13397,685.6434
"3470",76.65888,685.6567
"3471",77.733116,685.67
"3472",79.3933,685.6833
"3473",81.51003,685.6966
"3474",83.79523,685.7099
"3475",85.89731,685.7232
"3476",87.49645,685.7365
"3477",88.43885,685.7498
"3478",88.7367,685.7631
"3479",88.51942,685.7764
"3480",87.955444,685.78973
"3481",87.20836,685.80304
"3482",86.40513,685.81635
"3483",85.643394,685.82965
"3484",84.972,685.84296
"3485",84.4007,685.85626
"3486",83.90753,685.86957
"3487",83.44854,685.8829
"3488",82.99687,685.8962
"3489",82.54032,685.9095
"3490",82.091095,685.9228
"3491",81.688255,685.9361
"3492",81.36599,685.9494
"3493",81.126724,685.9627
"3494",80.955826,685.976
"3495",80.816666,685.9893
"3496",80.66773,686.0026
"3497",80.479744,686.0159
"3498",80.233154,686.02924
"3499",79.93042,686.04254
"3500",79.57641,686.05585
"3501",79.185776,686.06915
"3502",78.768295,686.08246
"3503",78.345924,686.09576
"3504",77.93576,686.1091
"3505",77.55489,686.1224
"3506",77.21309,686.1357
"3507",76.912796,686.149
"3508",76.65644,686.1623
"3509",76.44648,686.1756
"3510",76.2707,686.1889
"3511",76.13397,686.2022
"3512",76.02411,686.2155
"3513",75.94354,686.2288
"3514",75.88495,686.2421
"3515",75.85077,686.25543
"3516",75.83368,686.26874
"3517",75.83368,686.28204
"3518",75.84589,686.29535
"3519",75.85565,686.30865
"3520",75.85809,686.32196
"3521",75.84833,686.33527
"3522",75.81659,686.3486
"3523",75.76288,686.3619
"3524",75.68719,686.3752
"3525",75.60418,686.3885
"3526",75.55779,686.4018
"3527",75.67254,686.4151
"3528",76.15106,686.4284
"3529",77.18135,686.4417
"3530",78.84398,686.455
"3531",81.03883,686.4683
"3532",83.49737,686.4816
"3533",85.84604,686.49493
"3534",87.7235,686.50824
"3535",88.9247,686.52155
"3536",89.4374,686.53485
"3537",89.37881,686.54816
"3538",88.92714,686.56146
"3539",88.2533,686.57477
"3540",87.501335,686.5881
"3541",86.77135,686.6014
"3542",86.11215,686.6147
"3543",85.53597,686.628
"3544",85.02327,686.6413
"3545",84.5301,686.6546
"3546",84.017395,686.6679
"3547",83.47051,686.6812
"3548",82.9041,686.6945
"3549",82.35233,686.7078
"3550",81.8616,686.7211
"3551",81.45876,686.73444
"3552",81.1487,686.74774
"3553",80.91188,686.76105
"3554",80.70435,686.77435
"3555",80.49683,686.78766
"3556",80.26246,686.80096
"3557",79.98169,686.8143
"3558",79.65453,686.8276
"3559",79.28832,686.8409
"3560",78.88548,686.8542
"3561",78.46311,686.8675
"3562",78.04074,686.8808
"3563",77.6379,686.8941
"3564",77.26681,686.9074
"3565",76.93721,686.9207
"3566",76.646675,686.934
"3567",76.39277,686.9473
"3568",76.16815,686.96063
"3569",75.97528,686.97394
"3570",75.82147,686.98724
"3571",75.7116,687.00055
"3572",75.64324,687.01385
"3573",75.60662,687.02716
"3574",75.59441,687.04047
"3575",75.596855,687.0538
"3576",75.58953,687.0671
"3577",75.56512,687.0804
"3578",75.52361,687.0937
"3579",75.45281,687.107
"3580",75.34539,687.1203
"3581",75.20622,687.1336
"3582",75.06462,687.1469
"3583",74.97917,687.1602
"3584",75.09636,687.1735
"3585",75.61639,687.1868
"3586",76.70771,687.20013
"3587",78.41917,687.21344
"3588",80.618904,687.22675
"3589",83.0164,687.24005
"3590",85.243,687.25336
"3591",86.97398,687.26666
"3592",88.03601,687.27997
"3593",88.44129,687.2933
"3594",88.31434,687.3066
"3595",87.83093,687.3199
"3596",87.16441,687.3332
"3597",86.44419,687.3465
"3598",85.76547,687.3598
"3599",85.16487,687.3731
"3600",84.647285,687.3864
"3601",84.18341,687.3997
"3602",83.7293,687.413
"3603",83.243454,687.42633
"3604",82.720985,687.43964
"3605",82.19119,687.45294
"3606",81.6907,687.46625
"3607",81.26833,687.47955
"3608",80.953384,687.49286
"3609",80.73365,687.50616
"3610",80.567635,687.5195
"3611",80.41627,687.5328
"3612",80.24048,687.5461
"3613",80.01343,687.5594
"3614",79.72289,687.5727
"3615",79.381096,687.586
"3616",78.995346,687.5993
"3617",78.58274,687.6126
"3618",78.15549,687.6259
"3619",77.730675,687.6392
"3620",77.3254,687.6525
"3621",76.946976,687.66583
"3622",76.59785,687.67914
"3623",76.28535,687.69244
"3624",76.02655,687.70575
"3625",75.81659,687.71906
"3626",75.65789,687.73236
"3627",75.55047,687.74567
"3628",75.48943,687.759
"3629",75.457695,687.7723
"3630",75.44305,687.7856
"3631",75.43816,687.7989
"3632",75.43084,687.8122
"3633",75.406425,687.8255
"3634",75.355156,687.8388
"3635",75.27215,687.8521
"3636",75.16472,687.8654
"3637",75.04509,687.8787
"3638",74.949875,687.892
"3639",74.95232,687.90533
"3640",75.1989,687.91864
"3641",75.88495,687.93195
"3642",77.154495,687.94525
"3643",79.01488,687.95856
"3644",81.30251,687.97186
"3645",83.71221,687.98517
"3646",85.872894,687.9985
"3647",87.48669,688.0118
"3648",88.41932,688.0251
"3649",88.707405,688.0384
"3650",88.49012,688.0517
"3651",87.938354,688.065
"3652",87.218124,688.0783
"3653",86.44907,688.0916
"3654",85.71908,688.1049
"3655",85.06966,688.1182
"3656",84.49348,688.13153
"3657",83.95636,688.14484
"3658",83.42657,688.15814
"3659",82.89433,688.17145
"3660",82.36454,688.18475
"3661",81.87381,688.19806
"3662",81.46609,688.21136
"3663",81.16823,688.2247
"3664",80.96803,688.238
"3665",80.82643,688.2513
"3666",80.69947,688.2646
"3667",80.54078,688.2779
"3668",80.325935,688.2912
"3669",80.03784,688.3045
"3670",79.68139,688.3178
"3671",79.27123,688.3311
"3672",78.82933,688.3444
"3673",78.37034,688.3577
"3674",77.91379,688.37103
"3675",77.48165,688.38434
"3676",77.086136,688.39764
"3677",76.74433,688.41095
"3678",76.44892,688.42426
"3679",76.2121,688.43756
"3680",76.02899,688.45087
"3681",75.90204,688.4642
"3682",75.81659,688.4775
"3683",75.7702,688.4908
"3684",75.75067,688.5041
"3685",75.75311,688.5174
"3686",75.76044,688.5307
"3687",75.76288,688.544
"3688",75.75311,688.5573
"3689",75.72381,688.5706
"3690",75.66033,688.5839
"3691",75.56756,688.5972
"3692",75.45525,688.61053
"3693",75.369804,688.62384
"3694",75.41619,688.63715
"3695",75.7702,688.65045
"3696",76.61494,688.66376
"3697",78.05051,688.67706
"3698",80.01343,688.69037
"3699",82.27909,688.7037
"3700",84.508125,688.717
"3701",86.35874,688.7303
"3702",87.59899,688.7436
"3703",88.16785,688.7569
"3704",88.145874,688.7702
"3705",87.691765,688.7835
"3706",86.97154,688.7968
"3707",86.14633,688.8101
"3708",85.32601,688.8234
"3709",84.58869,688.83673
"3710",83.9588,688.85004
"3711",83.424126,688.86334
"3712",82.94072,688.87665
"3713",82.476845,688.88995
"3714",82.02762,688.90326
"3715",81.60769,688.91656
"3716",81.248795,688.9299
"3717",80.98024,688.9432
"3718",80.8069,688.9565
"3719",80.69459,688.9698
"3720",80.59937,688.9831
"3721",80.479744,688.9964
"3722",80.2942,689.0097
"3723",80.0354,689.023
"3724",79.691154,689.0363
"3725",79.27856,689.0496
"3726",78.81468,689.0629
"3727",78.328835,689.07623
"3728",77.838104,689.08954
"3729",77.37423,689.10284
"3730",76.95186,689.11615
"3731",76.5832,689.12946
"3732",76.27314,689.14276
"3733",76.02411,689.15607
"3734",75.8288,689.1694
"3735",75.682304,689.1827
"3736",75.58221,689.196
"3737",75.528496,689.2093
"3738",75.50408,689.2226
"3739",75.50164,689.2359
"3740",75.50652,689.2492
"3741",75.511406,689.2625
"3742",75.491875,689.2758
"3743",75.45037,689.2891
"3744",75.38445,689.3024
"3745",75.29412,689.31573
"3746",75.20378,689.32904
"3747",75.18913,689.34235
"3748",75.39178,689.35565
"3749",76.016785,689.36896
"3750",77.22774,689.38226
"3751",79.04906,689.39557
"3752",81.324486,689.4089
"3753",83.75128,689.4222
"3754",85.95102,689.4355
"3755",87.60876,689.4488
"3756",88.5658,689.4621
"3757",88.85634,689.4754
"3758",88.61463,689.4887
"3759",88.03113,689.502
"3760",87.276726,689.5153
"3761",86.49302,689.5286
"3762",85.76303,689.54193
"3763",85.11604,689.55524
"3764",84.542305,689.56854
"3765",84.000305,689.58185
"3766",83.45098,689.59515
"3767",82.88945,689.60846
"3768",82.33036,689.62177
"3769",81.812775,689.6351
"3770",81.3782,689.6484
"3771",81.05348,689.6617
"3772",80.82643,689.675
"3773",80.67017,689.6883
"3774",80.533455,689.7016
"3775",80.37476,689.7149
"3776",80.16235,689.7282
"3777",79.88159,689.7415
"3778",79.53002,689.7548
"3779",79.114975,689.7681
"3780",78.658424,689.78143
"3781",78.18234,689.79474
"3782",77.7087,689.80804
"3783",77.2546,689.82135
"3784",76.83711,689.83466
"3785",76.46601,689.84796
"3786",76.14862,689.86127
"3787",75.880066,689.8746
"3788",75.665215,689.8879
"3789",75.50164,689.9012
"3790",75.39178,689.9145
"3791",75.32586,689.9278
"3792",75.29656,689.9411
"3793",75.29168,689.9544
"3794",75.30389,689.9677
"3795",75.32586,689.981
"3796",75.35027,689.9943
"3797",75.369804,690.0076
"3798",75.36736,690.02094
"3799",75.33318,690.03424
"3800",75.26971,690.04755
"3801",75.17937,690.06085
"3802",75.07683,690.07416
"3803",74.98894,690.08746
"3804",75.01335,690.10077
"3805",75.33074,690.1141
"3806",76.15106,690.1274
"3807",77.61837,690.1407
"3808",79.72289,690.154
"3809",82.247345,690.1673
"3810",84.83284,690.1806
"3811",87.078964,690.1939
"3812",88.687874,690.2072
"3813",89.55703,690.2205
"3814",89.759674,690.2338
"3815",89.461815,690.24713
"3816",88.85634,690.26044
"3817",88.10193,690.27374
"3818",87.31335,690.28705
"3819",86.571144,690.30035
"3820",85.90219,690.31366
"3821",85.29427,690.32697
"3822",84.701,690.3403
"3823",84.09308,690.3536
"3824",83.455864,690.3669
"3825",82.80156,690.3802
"3826",82.178986,690.3935
"3827",81.65652,690.4068
"3828",81.26833,690.4201
"3829",81.0193,690.4334
"3830",80.86305,690.4467
"3831",80.74586,690.46
"3832",80.6067,690.4733
"3833",80.39918,690.48663
"3834",80.09155,690.49994
"3835",79.691154,690.51324
"3836",79.219955,690.52655
"3837",78.69993,690.53986
"3838",78.15793,690.55316
"3839",77.62325,690.56647
"3840",77.120316,690.5798
"3841",76.67597,690.5931
"3842",76.299995,690.6064
"3843",75.999695,690.6197
"3844",75.76288,690.633
"3845",75.579765,690.6463
"3846",75.44549,690.6596
"3847",75.35027,690.6729
"3848",75.299,690.6862
"3849",75.284355,690.6995
"3850",75.301445,690.7128
"3851",75.34051,690.72614
"3852",75.39178,690.73944
"3853",75.43816,690.75275
"3854",75.4699,690.76605
"3855",75.48211,690.77936
"3856",75.47967,690.79266
"3857",75.46258,690.80597
"3858",75.42596,690.8193
"3859",75.369804,690.8326
"3860",75.29412,690.8459
"3861",75.20134,690.8592
"3862",75.10124,690.8725
"3863",75.035324,690.8858
"3864",75.09392,690.8991
"3865",75.45037,690.9124
"3866",76.30488,690.9257
"3867",77.79416,690.939
"3868",79.88403,690.95233
"3869",82.36454,690.96564
"3870",84.8719,690.97894
"3871",87.02037,690.99225
"3872",88.516975,691.00555
"3873",89.26894,691.01886
"3874",89.35439,691.03217
"3875",88.93935,691.0455
"3876",88.216675,691.0588
"3877",87.35973,691.0721
"3878",86.49302,691.0854
"3879",85.69222,691.0987
"3880",84.98909,691.112
"3881",84.37629,691.1253
"3882",83.81964,691.1386
"3883",83.28985,691.1519
"3884",82.78203,691.1652
"3885",82.303505,691.1785
"3886",81.87381,691.19183
"3887",81.52468,691.20514
"3888",81.270775,691.21844
"3889",81.092545,691.23175
"3890",80.96315,691.24506
"3891",80.84108,691.25836
"3892",80.68726,691.27167
"3893",80.4773,691.285
"3894",80.198975,691.2983
"3895",79.84985,691.3116
"3896",79.43969,691.3249
"3897",78.992905,691.3382
"3898",78.53391,691.3515
"3899",78.07736,691.3648
"3900",77.65255,691.3781
"3901",77.26925,691.3914
"3902",76.93721,691.4047
"3903",76.65644,691.418
"3904",76.42939,691.43134
"3905",76.24872,691.44464
"3906",76.112,691.45795
"3907",76.01434,691.47125
"3908",75.948425,691.48456
"3909",75.90692,691.49786
"3910",75.894714,691.51117
"3911",75.90448,691.5245
"3912",75.93622,691.5378
"3913",75.9704,691.5511
"3914",75.99481,691.5644
"3915",76.00458,691.5777
"3916",75.98993,691.591
"3917",75.9411,691.6043
"3918",75.86542,691.6176
"3919",75.7702,691.6309
"3920",75.66277,691.6442
"3921",75.55535,691.65753
"3922",75.50164,691.67084
"3923",75.62615,691.68414
"3924",76.12665,691.69745
"3925",77.18379,691.71075
"3926",78.853745,691.72406
"3927",81.02174,691.73737
"3928",83.40948,691.7507
"3929",85.64095,691.764
"3930",87.36706,691.7773
"3931",88.40955,691.7906
"3932",88.75624,691.8039
"3933",88.52918,691.8172
"3934",87.9115,691.8305
"3935",87.081406,691.8438
"3936",86.187836,691.8571
"3937",85.350426,691.8704
"3938",84.62287,691.8837
"3939",84.00763,691.89703
"3940",83.475395,691.91034
"3941",82.98222,691.92365
"3942",82.5037,691.93695
"3943",82.056915,691.95026
"3944",81.67849,691.96356
"3945",81.40261,691.97687
"3946",81.24147,691.9902
"3947",81.17555,692.0035
"3948",81.1487,692.0168
"3949",81.10475,692.0301
"3950",81.00221,692.0434
"3951",80.814224,692.0567
"3952",80.5359,692.07
"3953",80.181885,692.0833
"3954",79.77661,692.0966
"3955",79.34936,692.1099
"3956",78.91966,692.1232
"3957",78.504616,692.13654
"3958",78.118866,692.14984
"3959",77.7673,692.16315
"3960",77.45724,692.17645
"3961",77.19844,692.18976
"3962",76.98604,692.20306
"3963",76.82002,692.2164
"3964",76.6955,692.2297
"3965",76.60761,692.243
"3966",76.561226,692.2563
"3967",76.55146,692.2696
"3968",76.56855,692.2829
"3969",76.59785,692.2962
"3970",76.6247,692.3095
"3971",76.63691,692.3228
"3972",76.612495,692.3361
"3973",76.5539,692.3494
"3974",76.470894,692.36273
"3975",76.36347,692.37604
"3976",76.24628,692.38934
"3977",76.15106,692.40265
"3978",76.16815,692.41595
"3979",76.45869,692.42926
"3980",77.205765,692.44257
"3981",78.519264,692.4559
"3982",80.35767,692.4692
"3983",82.513466,692.4825
"3984",84.661934,692.4958
"3985",86.47105,692.5091
"3986",87.691765,692.5224
"3987",88.25819,692.5357
"3988",88.25086,692.549
"3989",87.81384,692.5623
"3990",87.11803,692.5756
"3991",86.312355,692.5889
"3992",85.504234,692.60223
"3993",84.7596,692.61554
"3994",84.1004,692.62885
"3995",83.51202,692.64215
"3996",82.96269,692.65546
"3997",82.4329,692.66876
"3998",81.92752,692.68207
"3999",81.480736,692.6954
"4000",81.13893,692.7087
"4001",80.938736,692.722
"4002",80.87526,692.7353
"4003",80.902115,692.7486
"4004",80.94362,692.7619
"4005",80.93141,692.7752
"4006",80.81178,692.7885
"4007",80.567635,692.8018
"4008",80.21118,692.8151
"4009",79.766846,692.8284
"4010",79.27123,692.84174
"4011",78.75853,692.85504
"4012",78.26292,692.86835
"4013",77.80148,692.88165
"4014",77.39376,692.89496
"4015",77.04707,692.90826
"4016",76.76387,692.9216
"4017",76.544136,692.9349
"4018",76.39277,692.9482
"4019",76.3122,692.9615
"4020",76.297554,692.9748
"4021",76.334175,692.9881
"4022",76.404976,693.0014
"4023",76.48798,693.0147
"4024",76.55146,693.028
"4025",76.57099,693.0413
"4026",76.524605,693.0546
"4027",76.40986,693.06793
"4028",76.241394,693.08124
"4029",76.04608,693.09454
"4030",75.85565,693.10785
"4031",75.701836,693.12115
"4032",75.63348,693.13446
"4033",75.74334,693.14777
"4034",76.190125,693.1611
"4035",77.14717,693.1744
"4036",78.69749,693.1877
"4037",80.76051,693.201
"4038",83.11162,693.2143
"4039",85.39193,693.2276
"4040",87.24498,693.2409
"4041",88.43641,693.2542
"4042",88.92226,693.2675
"4043",88.81239,693.2808
"4044",88.292366,693.2941
"4045",87.569695,693.30743
"4046",86.80797,693.32074
"4047",86.11459,693.33405
"4048",85.52621,693.34735
"4049",85.033035,693.36066
"4050",84.596016,693.37396
"4051",84.16632,693.38727
"4052",83.70733,693.4006
"4053",83.21904,693.4139
"4054",82.720985,693.4272
"4055",82.252235,693.4405
"4056",81.85672,693.4538
"4057",81.56374,693.4671
"4058",81.36111,693.4804
"4059",81.20973,693.4937
"4060",81.06569,693.507
"4061",80.89235,693.5203
"4062",80.65797,693.5336
"4063",80.360115,693.54694
"4064",80.00366,693.56024
"4065",79.605705,693.57355
"4066",79.17845,693.58685
"4067",78.73411,693.60016
"4068",78.28977,693.61346
"4069",77.8674,693.6268
"4070",77.471886,693.6401
"4071",77.11543,693.6534
"4072",76.80293,693.6667
"4073",76.53681,693.68
"4074",76.317085,693.6933
"4075",76.15106,693.7066
"4076",76.0412,693.7199
"4077",75.98505,693.7332
"4078",75.97284,693.7465
"4079",76.00214,693.7598
"4080",76.053406,693.77313
"4081",76.10712,693.78644
"4082",76.1535,693.79974
"4083",76.173035,693.81305
"4084",76.15839,693.82635
"4085",76.10956,693.83966
"4086",76.04852,693.85297
"4087",76.07538,693.8663
"4088",76.34882,693.8796
"4089",77.06172,693.8929
"4090",78.328835,693.9062
"4091",80.1355,693.9195
"4092",82.28397,693.9328
"4093",84.46662,693.9461
"4094",86.33921,693.9594
"4095",87.65514,693.9727
"4096",88.33387,693.986
"4097",88.44129,693.9993
"4098",88.12634,694.01263
"4099",87.555046,694.02594
"4100",86.873886,694.03925
"4101",86.19028,694.05255
"4102",85.56039,694.06586
"4103",84.99397,694.07916
"4104",84.46662,694.09247
"4105",83.93683,694.1058
"4106",83.36797,694.1191
"4107",82.76738,694.1324
"4108",82.16678,694.1457
"4109",81.617455,694.159
"4110",81.16579,694.1723
"4111",80.831314,694.1856
"4112",80.59937,694.1989
"4113",80.42359,694.2122
"4114",80.255135,694.2255
"4115",80.05005,694.23883
"4116",79.798584,694.25214
"4117",79.48608,694.26544
"4118",79.11986,694.27875
"4119",78.70725,694.29205
"4120",78.27024,694.30536
"4121",77.81857,694.31866
"4122",77.36446,694.332
"4123",76.92256,694.3453
"4124",76.50996,694.3586
"4125",76.13153,694.3719
"4126",75.792175,694.3852
"4127",75.50652,694.3985
"4128",75.27459,694.4118
"4129",75.10124,694.4251
"4130",74.984055,694.4384
"4131",74.92302,694.4517
"4132",74.90837,694.465
"4133",74.932785,694.47833
"4134",74.98161,694.49164
"4135",75.037766,694.50494
"4136",75.07927,694.51825
"4137",75.08415,694.53156
"4138",75.04753,694.54486
"4139",74.97917,694.55817
"4140",74.89128,694.5715
"4141",74.82292,694.5848
"4142",74.86687,694.5981
"4143",75.18425,694.6114
"4144",75.95331,694.6247
"4145",77.298546,694.638
"4146",79.200424,694.6513
"4147",81.47341,694.6646
"4148",83.80011,694.6779
"4149",85.824066,694.6912
"4150",87.291374,694.7045
"4151",88.097046,694.71783
"4152",88.30457,694.73114
"4153",88.0531,694.74445
"4154",87.52087,694.75775
"4155",86.86656,694.77106
"4156",86.19516,694.78436
"4157",85.56039,694.79767
"4158",84.972,694.811
"4159",84.403145,694.8243
"4160",83.83429,694.8376
"4161",83.25323,694.8509
"4162",82.68192,694.8642
"4163",82.16434,694.8775
"4164",81.73708,694.8908
"4165",81.42458,694.9041
"4166",81.231705,694.9174
"4167",81.126724,694.9307
"4168",81.06569,694.94403
"4169",80.99733,694.95734
"4170",80.87282,694.97064
"4171",80.66773,694.98395
"4172",80.37476,694.99725
"4173",80.01099,695.01056
"4174",79.62035,695.02386
"4175",79.237045,695.0372
"4176",78.87816,695.0505
"4177",78.53147,695.0638
"4178",78.1799,695.0771
"4179",77.80148,695.0904
"4180",77.3962,695.1037
"4181",76.99336,695.117
"4182",76.63447,695.1303
"4183",76.36103,695.1436
"4184",76.18036,695.1569
"4185",76.07782,695.1702
"4186",76.02655,695.18353
"4187",76.00458,695.19684
"4188",75.99237,695.21014
"4189",75.97772,695.22345
"4190",75.95575,695.23676
"4191",75.91669,695.25006
"4192",75.862976,695.26337
"4193",75.80194,695.2767
"4194",75.74578,695.29
"4195",75.7116,695.3033
"4196",75.75311,695.3166
"4197",75.98505,695.3299
"4198",76.5832,695.3432
"4199",77.69161,695.3565
"4200",79.34936,695.3698
"4201",81.43435,695.3831
"4202",83.685356,695.3964
"4203",85.76059,695.4097
"4204",87.37194,695.42303
"4205",88.38514,695.43634
"4206",88.80995,695.44965
"4207",88.77089,695.46295
"4208",88.4242,695.47626
"4209",87.92615,695.48956
"4210",87.38171,695.50287
"4211",86.84947,695.5162
"4212",86.33677,695.5295
"4213",85.80209,695.5428
"4214",85.189285,695.5561
"4215",84.47639,695.5694
"4216",83.66827,695.5827
"4217",82.81865,695.596
"4218",82.003204,695.6093
"4219",81.29519,695.6226
"4220",80.73365,695.6359
"4221",80.31617,695.64923
"4222",80.01099,695.66254
"4223",79.77173,695.67584
"4224",79.551994,695.68915
"4225",79.30785,695.70245
"4226",79.01976,695.71576
"4227",78.69016,695.72906
"4228",78.328835,695.7424
"4229",77.95529,695.7557
"4230",77.60372,695.769
"4231",77.28878,695.7823
"4232",77.01045,695.7956
"4233",76.76631,695.8089
"4234",76.55146,695.8222
"4235",76.36347,695.8355
"4236",76.20233,695.8488
"4237",76.07782,695.8621
"4238",75.98993,695.8754
"4239",75.945984,695.88873
"4240",75.93866,695.90204
"4241",75.948425,695.91534
"4242",75.948425,695.92865
"4243",75.914246,695.94196
"4244",75.83124,695.95526
"4245",75.718925,695.96857
"4246",75.60662,695.9819
"4247",75.51629,695.9952
"4248",75.4699,696.0085
"4249",75.46746,696.0218
"4250",75.49676,696.0351
"4251",75.543144,696.0484
"4252",75.596855,696.0617
"4253",75.65545,696.075
"4254",75.716484,696.0883
"4255",75.82147,696.1016
"4256",76.06561,696.1149
"4257",76.61738,696.12823
"4258",77.65011,696.14154
"4259",79.24437,696.15485
"4260",81.31716,696.16815
"4261",83.6292,696.18146
"4262",85.83139,696.19476
"4263",87.58434,696.20807
"4264",88.68299,696.2214
"4265",89.093155,696.2347
"4266",88.9247,696.248
"4267",88.37293,696.2613
"4268",87.620964,696.2746
"4269",86.80797,696.2879
"4270",86.00717,696.3012
"4271",85.23811,696.3145
"4272",84.473946,696.3278
"4273",83.69024,696.3411
"4274",82.87236,696.35443
"4275",82.02518,696.36774
"4276",81.16823,696.38104
"4277",80.34547,696.39435
"4278",79.61059,696.40765
"4279",79.01732,696.42096
"4280",78.59495,696.43427
"4281",78.345924,696.4476
"4282",78.221405,696.4609
"4283",78.14572,696.4742
"4284",78.05051,696.4875
"4285",77.891815,696.5008
"4286",77.66476,696.5141
"4287",77.39376,696.5274
"4288",77.11055,696.5407
"4289",76.84688,696.554
"4290",76.62226,696.5673
"4291",76.44404,696.5806
"4292",76.314644,696.59393
"4293",76.22186,696.60724
"4294",76.16327,696.62054
"4295",76.12665,696.63385
"4296",76.104675,696.64716
"4297",76.09735,696.66046
"4298",76.102234,696.67377
"4299",76.112,696.6871
"4300",76.121765,696.7004
"4301",76.14374,696.7137
"4302",76.17792,696.727
"4303",76.22186,696.7403
"4304",76.25117,696.7536
"4305",76.263374,696.7669
"4306",76.25361,696.7802
"4307",76.226746,696.7935
"4308",76.190125,696.8068
"4309",76.16083,696.8201
"4310",76.12909,696.83344
"4311",76.08026,696.84674
"4312",76.00214,696.86005
"4313",75.894714,696.87335
"4314",75.772644,696.88666
"4315",75.650566,696.89996
"4316",75.53582,696.91327
"4317",75.4284,696.9266
"4318",75.32342,696.9399
"4319",75.27459,696.9532
"4320",75.41619,696.9665
"4321",75.96796,696.9798
"4322",77.13008,696.9931
"4323",78.97337,697.0064
"4324",81.375755,697.0197
"4325",84.01984,697.033
"4326",86.50767,697.0463
"4327",88.47059,697.05963
"4328",89.69863,697.07294
"4329",90.17471,697.08624
"4330",90.02579,697.09955
"4331",89.444725,697.11285
"4332",88.62684,697.12616
"4333",87.745476,697.13947
"4334",86.91783,697.1528
"4335",86.204926,697.1661
"4336",85.61166,697.1794
"4337",85.09651,697.1927
"4338",84.613106,697.206
"4339",84.12482,697.2193
"4340",83.614555,697.2326
"4341",83.09209,697.2459
"4342",82.59159,697.2592
"4343",82.13992,697.2725
"4344",81.75906,697.2858
"4345",81.45388,697.29913
"4346",81.19264,697.31244
"4347",80.936295,697.32574
"4348",80.63355,697.33905
"4349",80.25025,697.35236
"4350",79.77417,697.36566
"4351",79.219955,697.37897
"4352",78.63157,697.3923
"4353",78.05783,697.4056
"4354",77.54757,697.4189
"4355",77.1252,697.4322
"4356",76.8127,697.4455
"4357",76.610054,697.4588
"4358",76.52216,697.4721
"4359",76.5539,697.4854
"4360",76.70283,697.4987
"4361",76.94942,697.512
"4362",77.264366,697.5253
"4363",77.608604,697.53864
"4364",77.945526,697.55194
"4365",78.24338,697.56525
"4366",78.49973,697.57855
"4367",78.712135,697.59186
"4368",78.8806,697.60516
"4369",79.00511,697.61847
"4370",79.07103,697.6318
"4371",79.07591,697.6451
"4372",79.01488,697.6584
"4373",78.89281,697.6717
"4374",78.709694,697.685
"4375",78.467995,697.6983
"4376",78.17502,697.7116
"4377",77.840546,697.7249
"4378",77.49386,697.7382
"4379",77.16426,697.7515
"4380",76.87129,697.76483
"4381",76.62226,697.77814
"4382",76.40986,697.79144
"4383",76.21454,697.80475
"4384",76.02899,697.81805
"4385",75.862976,697.83136
"4386",75.78485,697.84467
"4387",75.93866,697.858
"4388",76.51484,697.8713
"4389",77.67696,697.8846
"4390",79.45678,697.8979
"4391",81.7029,697.9112
"4392",84.10773,697.9245
"4393",86.29771,697.9378
"4394",87.94568,697.9511
"4395",88.89784,697.9644
"4396",89.17372,697.9777
"4397",88.91737,697.991
"4398",88.31922,698.00433
"4399",87.555046,698.01764
"4400",86.766464,698.03094
"4401",86.03647,698.04425
"4402",85.418785,698.05756
"4403",84.90608,698.07086
"4404",84.46906,698.08417
"4405",84.054016,698.0975
"4406",83.63653,698.1108
"4407",83.211716,698.1241
"4408",82.79668,698.1374
"4409",82.425575,698.1507
"4410",82.13016,698.164
"4411",81.9202,698.1773
"4412",81.76883,698.1906
"4413",81.6321,698.2039
"4414",81.463646,698.2172
"4415",81.22926,698.2305
"4416",80.91432,698.24384
"4417",80.516365,698.25714
"4418",80.05493,698.27045
"4419",79.56176,698.28375
"4420",79.06615,698.29706
"4421",78.59739,698.31036
"4422",78.17746,698.32367
"4423",77.81369,698.337
"4424",77.503624,698.3503
"4425",77.23506,698.3636
"4426",76.99092,698.3769
"4427",76.771194,698.3902
"4428",76.57343,698.4035
"4429",76.39277,698.4168
"4430",76.21698,698.4301
"4431",76.02899,698.4434
"4432",75.81415,698.4567
"4433",75.59197,698.47003
"4434",75.39178,698.48334
"4435",75.24773,698.49664
"4436",75.18181,698.50995
"4437",75.18913,698.52325
"4438",75.23064,698.53656
"4439",75.25994,698.54987
"4440",75.24284,698.5632
"4441",75.16472,698.5765
"4442",75.037766,698.5898
"4443",74.87663,698.6031
"4444",74.71549,698.6164
"4445",74.5861,698.6297
"4446",74.52506,698.643
"4447",74.58366,698.6563
"4448",74.88396,698.6696
"4449",75.60906,698.6829
"4450",76.910355,698.6962
"4451",78.82445,698.70953
"4452",81.22194,698.72284
"4453",83.81964,698.73615
"4454",86.239105,698.74945
"4455",88.13855,698.76276
"4456",89.325096,698.77606
"4457",89.796295,698.78937
"4458",89.6791,698.8027
"4459",89.1664,698.816
"4460",88.44129,698.8293
"4461",87.6527,698.8426
"4462",86.89586,698.8559
"4463",86.21713,698.8692
"4464",85.609215,698.8825
"4465",85.033035,698.8958
"4466",84.44953,698.9091
"4467",83.83185,698.9224
"4468",83.18242,698.9357
"4469",82.533,698.94904
"4470",81.94217,698.96234
"4471",81.45144,698.97565
"4472",81.092545,698.98895
"4473",80.867935,699.00226
"4474",80.7483,699.01556
"4475",80.68482,699.0289
"4476",80.61646,699.0422
"4477",80.50172,699.0555
"4478",80.31617,699.0688
"4479",80.04761,699.0821
"4480",79.7058,699.0954
"4481",79.310295,699.1087
"4482",78.870834,699.122
"4483",78.39231,699.1353
"4484",77.88937,699.1486
"4485",77.37667,699.1619
"4486",76.87862,699.17523
"4487",76.41718,699.18854
"4488",76.00702,699.20184
"4489",75.65789,699.21515
"4490",75.37713,699.22845
"4491",75.16716,699.24176
"4492",75.03288,699.25507
"4493",74.969406,699.2684
"4494",74.97673,699.2817
"4495",75.03288,699.295
"4496",75.125656,699.3083
"4497",75.23308,699.3216
"4498",75.34295,699.3349
"4499",75.43816,699.3482
"4500",75.508965,699.3615
"4501",75.55779,699.3748
"4502",75.579765,699.3881
"4503",75.57,699.4014
"4504",75.526054,699.41473
"4505",75.45281,699.42804
"4506",75.36492,699.44135
"4507",75.32098,699.45465
"4508",75.46746,699.46796
"4509",76.019226,699.48126
"4510",77.15938,699.49457
"4511",78.92943,699.5079
"4512",81.18532,699.5212
"4513",83.62676,699.5345
"4514",85.86801,699.5478
"4515",87.572136,699.5611
"4516",88.57801,699.5744
"4517",88.91249,699.5877
"4518",88.71717,699.601
"4519",88.16785,699.6143
"4520",87.4403,699.6276
"4521",86.66392,699.6409
"4522",85.93393,699.65424
"4523",85.29916,699.66754
"4524",84.771805,699.68085
"4525",84.32258,699.69415
"4526",83.897766,699.70746
"4527",83.455864,699.72076
"4528",82.984665,699.7341
"4529",82.5037,699.7474
"4530",82.056915,699.7607
"4531",81.688255,699.774
"4532",81.42214,699.7873
"4533",81.23659,699.8006
"4534",81.092545,699.8139
"4535",80.93385,699.8272
"4536",80.73121,699.8405
"4537",80.46754,699.8538
"4538",80.13794,699.8671
"4539",79.7522,699.88043
"4540",79.31518,699.89374
"4541",78.836655,699.90704
"4542",78.33372,699.92035
"4543",77.83566,699.93365
"4544",77.366905,699.94696
"4545",76.964066,699.96027
"4546",76.64423,699.9736
"4547",76.41474,699.9869
"4548",76.2707,700.0002
"4549",76.19989,700.0135
"4550",76.18768,700.0268
"4551",76.224304,700.0401
"4552",76.29267,700.0534
"4553",76.37812,700.0667
"4554",76.46357,700.08
"4555",76.53681,700.0933
"4556",76.60029,700.1066
"4557",76.646675,700.11993
"4558",76.680855,700.13324
"4559",76.6955,700.14655
"4560",76.68818,700.15985
"4561",76.66132,700.17316
"4562",76.64179,700.18646
"4563",76.6955,700.19977
"4564",76.96895,700.2131
"4565",77.65743,700.2264
"4566",78.89769,700.2397
"4567",80.69459,700.253
"4568",82.88945,700.2663
"4569",85.18196,700.2796
"4570",87.21568,700.2929
"4571",88.707405,700.3062
"4572",89.52529,700.3195
"4573",89.705956,700.3328
