"","ppg","time"
"1",80.45777,23.082642
"2",80.24292,23.095947
"3",80.059814,23.109314
"4",79.90845,23.12262
"5",79.7937,23.135986
"6",79.727776,23.149292
"7",79.710686,23.162659
"8",79.74975,23.175964
"9",79.82788,23.189331
"10",79.9353,23.202637
"11",80.04761,23.216003
"12",80.15015,23.22931
"13",80.216064,23.242615
"14",80.235596,23.255981
"15",80.20874,23.269287
"16",80.13794,23.282654
"17",80.03784,23.29596
"18",79.91089,23.309326
"19",79.77173,23.322632
"20",79.63012,23.335999
"21",79.4934,23.349304
"22",79.364006,23.36267
"23",79.25414,23.375977
"24",79.1638,23.389282
"25",79.09544,23.402649
"26",79.04173,23.415955
"27",79.00511,23.429321
"28",78.97826,23.442627
"29",78.96605,23.455994
"30",78.96849,23.4693
"31",78.97826,23.482666
"32",78.99779,23.495972
"33",79.01976,23.509338
"34",79.03685,23.522644
"35",79.05394,23.53595
"36",79.07103,23.549316
"37",79.1223,23.562622
"38",79.259026,23.575989
"39",79.537346,23.589294
"40",79.991455,23.602661
"41",80.604256,23.615967
"42",81.31472,23.629333
"43",82.01785,23.64264
"44",82.60624,23.656006
"45",83.004196,23.669312
"46",83.1873,23.682617
"47",83.17021,23.695984
"48",82.99687,23.70929
"49",82.7161,23.722656
"50",82.38163,23.735962
"51",82.03006,23.749329
"52",81.70046,23.762634
"53",81.40505,23.776001
"54",81.1487,23.789307
"55",80.93385,23.802673
"56",80.7483,23.815979
"57",80.587166,23.829285
"58",80.448006,23.842651
"59",80.33082,23.855957
"60",80.2478,23.869324
"61",80.20386,23.88263
"62",80.201416,23.895996
"63",80.24292,23.909302
"64",80.31617,23.922668
"65",80.39918,23.935974
"66",80.47486,23.94934
"67",80.52613,23.962646
"68",80.54078,23.975952
"69",80.51881,23.989319
"70",80.465096,24.002625
"71",80.37965,24.015991
"72",80.26978,24.029297
"73",80.14526,24.042664
"74",80.01831,24.05597
"75",79.886475,24.069336
"76",79.76196,24.082642
"77",79.64721,24.095947
"78",79.54711,24.109314
"79",79.46899,24.12262
"80",79.412834,24.135986
"81",79.37377,24.149292
"82",79.3518,24.162659
"83",79.34203,24.175964
"84",79.33715,24.189331
"85",79.33471,24.202637
"86",79.327385,24.216003
"87",79.31518,24.22931
"88",79.293205,24.242615
"89",79.259026,24.255981
"90",79.22728,24.269287
"91",79.24193,24.282654
"92",79.35668,24.29596
"93",79.62035,24.309326
"94",80.059814,24.322632
"95",80.6482,24.335999
"96",81.31228,24.349304
"97",81.93973,24.36267
"98",82.4329,24.375977
"99",82.73319,24.389282
"100",82.82109,24.402649
"101",82.718544,24.415955
"102",82.48417,24.429321
"103",82.1741,24.442627
"104",81.829865,24.455994
"105",81.4905,24.4693
"106",81.18776,24.482666
"107",80.92897,24.495972
"108",80.71412,24.509338
"109",80.5359,24.522644
"110",80.37965,24.53595
"111",80.22583,24.549316
"112",80.06958,24.562622
"113",79.91333,24.575989
"114",79.77173,24.589294
"115",79.6643,24.602661
"116",79.605705,24.615967
"117",79.60082,24.629333
"118",79.63744,24.64264
"119",79.69848,24.656006
"120",79.766846,24.669312
"121",79.818115,24.682617
"122",79.84253,24.695984
"123",79.83032,24.70929
"124",79.78638,24.722656
"125",79.708244,24.735962
"126",79.61547,24.749329
"127",79.51049,24.762634
"128",79.40551,24.776001
"129",79.30053,24.789307
"130",79.200424,24.802612
"131",79.10521,24.815979
"132",79.01732,24.829285
"133",78.941635,24.842651
"134",78.8806,24.855957
"135",78.83177,24.869324
"136",78.79515,24.88263
"137",78.768295,24.895996
"138",78.75365,24.909302
"139",78.74876,24.922668
"140",78.75365,24.935974
"141",78.765854,24.94928
"142",78.7805,24.962646
"143",78.785385,24.975952
"144",78.79027,24.989319
"145",78.79027,25.002625
"146",78.79759,25.015991
"147",78.82689,25.029297
"148",78.92699,25.042664
"149",79.149155,25.05597
"150",79.53979,25.069336
"151",80.10376,25.082642
"152",80.80202,25.095947
"153",81.55886,25.109314
"154",82.25712,25.12262
"155",82.791794,25.135986
"156",83.106735,25.149292
"157",83.18974,25.162659
"158",83.06767,25.175964
"159",82.79912,25.189331
"160",82.44511,25.202637
"161",82.06668,25.216003
"162",81.69802,25.22931
"163",81.36599,25.242615
"164",81.075455,25.255981
"165",80.82643,25.269287
"166",80.61646,25.282654
"167",80.43824,25.29596
"168",80.28199,25.309326
"169",80.14282,25.322632
"170",80.01343,25.335999
"171",79.89136,25.349304
"172",79.79126,25.36267
"173",79.72045,25.375977
"174",79.68139,25.389282
"175",79.676506,25.402649
"176",79.693596,25.415955
"177",79.71801,25.429321
"178",79.73266,25.442627
"179",79.725334,25.455994
"180",79.693596,25.4693
"181",79.63744,25.482666
"182",79.554436,25.495972
"183",79.45678,25.509338
"184",79.34692,25.522644
"185",79.23216,25.53595
"186",79.1223,25.549316
"187",79.0222,25.562622
"188",78.93675,25.575989
"189",78.85863,25.589294
"190",78.79271,25.602661
"191",78.73167,25.615967
"192",78.67063,25.629333
"193",78.61204,25.64264
"194",78.56565,25.656006
"195",78.53147,25.669312
"196",78.51438,25.682617
"197",78.51682,25.695984
"198",78.536354,25.70929
"199",78.57053,25.722656
"200",78.61692,25.735962
"201",78.66331,25.749329
"202",78.709694,25.762634
"203",78.74387,25.776001
"204",78.765854,25.789307
"205",78.77806,25.802612
"206",78.77806,25.815979
"207",78.765854,25.829285
"208",78.75609,25.842651
"209",78.765854,25.855957
"210",78.836655,25.869324
"211",79.029526,25.88263
"212",79.3933,25.895996
"213",79.94263,25.909302
"214",80.63355,25.922668
"215",81.3782,25.935974
"216",82.07645,25.94928
"217",82.62089,25.962646
"218",82.96025,25.975952
"219",83.087204,25.989319
"220",83.038376,26.002625
"221",82.86015,26.015991
"222",82.6038,26.029297
"223",82.303505,26.042664
"224",81.99344,26.05597
"225",81.685814,26.069336
"226",81.39773,26.082642
"227",81.126724,26.095947
"228",80.8777,26.109314
"229",80.64576,26.12262
"230",80.43336,26.135986
"231",80.233154,26.149292
"232",80.05249,26.162659
"233",79.90845,26.175964
"234",79.80347,26.189331
"235",79.74731,26.202637
"236",79.74731,26.216003
"237",79.798584,26.22931
"238",79.886475,26.242615
"239",79.98657,26.255981
"240",80.079346,26.269287
"241",80.14282,26.282654
"242",80.16235,26.29596
"243",80.1355,26.309326
"244",80.06958,26.322632
"245",79.971924,26.335999
"246",79.84741,26.349304
"247",79.710686,26.36267
"248",79.57397,26.375977
"249",79.43481,26.389282
"250",79.29809,26.402649
"251",79.168686,26.415955
"252",79.04906,26.429321
"253",78.93431,26.442627
"254",78.83177,26.455994
"255",78.746315,26.4693
"256",78.6804,26.482666
"257",78.63401,26.495972
"258",78.60227,26.509277
"259",78.590065,26.522644
"260",78.590065,26.53595
"261",78.60227,26.549316
"262",78.624245,26.562622
"263",78.658424,26.575989
"264",78.69993,26.589294
"265",78.751205,26.602661
"266",78.80736,26.615967
"267",78.86107,26.629333
"268",78.90013,26.64264
"269",78.92699,26.656006
"270",78.93919,26.669312
"271",78.93675,26.682617
"272",78.91966,26.695984
"273",78.89281,26.70929
"274",78.86595,26.722656
"275",78.87572,26.735962
"276",78.97337,26.749329
"277",79.2224,26.762634
"278",79.65942,26.776001
"279",80.26734,26.789307
"280",80.972916,26.802673
"281",81.67605,26.815979
"282",82.25468,26.829346
"283",82.63065,26.842651
"284",82.777145,26.856018
"285",82.71122,26.869324
"286",82.48173,26.88269
"287",82.14725,26.895996
"288",81.75174,26.909302
"289",81.34646,26.922668
"290",80.96071,26.935974
"291",80.61158,26.94934
"292",80.31617,26.962646
"293",80.076904,26.976013
"294",79.88403,26.989319
"295",79.72289,27.002686
"296",79.58373,27.015991
"297",79.466545,27.029358
"298",79.36645,27.042664
"299",79.29809,27.05603
"300",79.26147,27.069336
"301",79.26147,27.082703
"302",79.30053,27.096008
"303",79.36645,27.109375
"304",79.4519,27.12268
"305",79.534904,27.135986
"306",79.5935,27.149353
"307",79.61303,27.162659
"308",79.59106,27.176025
"309",79.53246,27.189331
"310",79.447014,27.202698
"311",79.344475,27.216003
"312",79.234604,27.22937
"313",79.12474,27.242676
"314",79.01732,27.256042
"315",78.91966,27.269348
"316",78.836655,27.282715
"317",78.77074,27.29602
"318",78.712135,27.309387
"319",78.66575,27.322693
"320",78.6218,27.335999
"321",78.58762,27.349365
"322",78.55833,27.36267
"323",78.54124,27.376038
"324",78.536354,27.389343
"325",78.538795,27.40271
"326",78.538795,27.416016
"327",78.54612,27.429382
"328",78.55833,27.442688
"329",78.572975,27.456055
"330",78.59739,27.46936
"331",78.63645,27.482727
"332",78.68284,27.496033
"333",78.729225,27.5094
"334",78.77074,27.522705
"335",78.8098,27.53601
"336",78.84398,27.549377
"337",78.905014,27.562683
"338",79.03929,27.57605
"339",79.310295,27.589355
"340",79.75464,27.602722
"341",80.36988,27.616028
"342",81.094986,27.629395
"343",81.829865,27.6427
"344",82.459755,27.656067
"345",82.896774,27.669373
"346",83.10185,27.68274
"347",83.08232,27.696045
"348",82.88701,27.709412
"349",82.56962,27.722717
"350",82.18387,27.736084
"351",81.77615,27.74939
"352",81.3782,27.762695
"353",81.01442,27.776062
"354",80.69459,27.789368
"355",80.42359,27.802734
"356",80.19409,27.81604
"357",80.00122,27.829407
"358",79.83032,27.842712
"359",79.674065,27.85608
"360",79.537346,27.869385
"361",79.42748,27.882751
"362",79.361565,27.896057
"363",79.34203,27.909424
"364",79.36889,27.92273
"365",79.42748,27.936096
"366",79.50805,27.949402
"367",79.58373,27.962769
"368",79.64477,27.976074
"369",79.68139,27.98938
"370",79.68139,28.002747
"371",79.64233,28.016052
"372",79.56664,28.029419
"373",79.4641,28.042725
"374",79.344475,28.056091
"375",79.2224,28.069397
"376",79.11009,28.082764
"377",79.012436,28.09607
"378",78.924545,28.109436
"379",78.84886,28.122742
"380",78.78294,28.136108
"381",78.7219,28.149414
"382",78.66819,28.16278
"383",78.61692,28.176086
"384",78.56809,28.189392
"385",78.52659,28.202759
"386",78.49241,28.216064
"387",78.470436,28.229431
"388",78.45823,28.242737
"389",78.45579,28.256104
"390",78.46067,28.26941
"391",78.467995,28.282776
"392",78.470436,28.296082
"393",78.47532,28.309448
"394",78.49729,28.322754
"395",78.58762,28.33612
"396",78.80003,28.349426
"397",79.185776,28.362793
"398",79.75708,28.376099
"399",80.46998,28.389404
"400",81.22194,28.402771
"401",81.898224,28.416077
"402",82.40116,28.429443
"403",82.6746,28.442749
"404",82.7161,28.456116
"405",82.55985,28.469421
"406",82.26444,28.482788
"407",81.88846,28.496094
"408",81.480736,28.50946
"409",81.08766,28.522766
"410",80.73365,28.536133
"411",80.428474,28.549438
"412",80.16968,28.562805
"413",79.95972,28.57611
"414",79.78638,28.589478
"415",79.64233,28.602783
"416",79.53002,28.616089
"417",79.447014,28.629456
"418",79.40063,28.642761
"419",79.3933,28.656128
"420",79.42504,28.669434
"421",79.500725,28.6828
"422",79.605705,28.696106
"423",79.72045,28.709473
"424",79.83032,28.722778
"425",79.90845,28.736145
"426",79.94751,28.74945
"427",79.940186,28.762817
"428",79.8938,28.776123
"429",79.815674,28.78949
"430",79.72045,28.802795
"431",79.61791,28.816162
"432",79.51537,28.829468
"433",79.415276,28.842773
"434",79.3225,28.85614
"435",79.23949,28.869446
"436",79.168686,28.882812
"437",79.11253,28.896118
"438",79.07591,28.909485
"439",79.0515,28.92279
"440",79.03929,28.936157
"441",79.03197,28.949463
"442",79.02464,28.96283
"443",79.01732,28.976135
"444",79.009995,28.989502
"445",79.00023,29.002808
"446",79.00267,29.016174
"447",79.04173,29.02948
"448",79.166245,29.042786
"449",79.432365,29.056152
"450",79.869385,29.069458
"451",80.46754,29.082825
"452",81.16579,29.09613
"453",81.866486,29.109497
"454",82.45487,29.122803
"455",82.847946,29.13617
"456",83.018845,29.149475
"457",82.97246,29.162842
"458",82.75273,29.176147
"459",82.41337,29.189514
"460",82.01053,29.20282
"461",81.58572,29.216187
"462",81.17555,29.229492
"463",80.80202,29.242798
"464",80.4773,29.256165
"465",80.198975,29.26947
"466",79.96704,29.282837
"467",79.77905,29.296143
"468",79.61791,29.30951
"469",79.49096,29.322815
"470",79.40307,29.336182
"471",79.3518,29.349487
"472",79.34692,29.362854
"473",79.38598,29.37616
"474",79.4641,29.389526
"475",79.56664,29.402832
"476",79.676506,29.416199
"477",79.77905,29.429504
"478",79.85718,29.442871
"479",79.89624,29.456177
"480",79.89136,29.469482
"481",79.84741,29.48285
"482",79.764404,29.496155
"483",79.656975,29.509521
"484",79.53979,29.522827
"485",79.4226,29.536194
"486",79.310295,29.5495
"487",79.21507,29.562866
"488",79.13451,29.576172
"489",79.07103,29.589539
"490",79.01732,29.602844
"491",78.97093,29.61621
"492",78.924545,29.629517
"493",78.88304,29.642883
"494",78.84154,29.656189
"495",78.8098,29.669556
"496",78.79515,29.682861
"497",78.82445,29.696167
"498",78.941635,29.709534
"499",79.20531,29.72284
"500",79.65209,29.736206
"501",80.274666,29.749512
"502",81.00221,29.762878
"503",81.72488,29.776184
"504",82.32792,29.78955
"505",82.72343,29.802856
"506",82.87724,29.816223
"507",82.80156,29.829529
"508",82.55009,29.842896
"509",82.18143,29.856201
"510",81.75906,29.869568
"511",81.33425,29.882874
"512",80.94362,29.89618
"513",80.60914,29.909546
"514",80.32838,29.922852
"515",80.09888,29.936218
"516",79.903564,29.949524
"517",79.7351,29.96289
"518",79.58129,29.976196
"519",79.45434,29.989563
"520",79.35668,30.002869
"521",79.29809,30.016235
"522",79.281,30.029541
"523",79.30785,30.042908
"524",79.37133,30.056213
"525",79.45678,30.06958
"526",79.54955,30.082886
"527",79.63256,30.096191
"528",79.693596,30.109558
"529",79.71557,30.122864
"530",79.69848,30.13623
"531",79.64721,30.149536
"532",79.569084,30.162903
"533",79.48119,30.176208
"534",79.38842,30.189575
"535",79.30053,30.20288
"536",79.21263,30.216248
"537",79.12718,30.229553
"538",79.04173,30.24292
"539",78.96849,30.256226
"540",78.907455,30.269592
"541",78.86351,30.282898
"542",78.82933,30.296265
"543",78.80736,30.30957
"544",78.802475,30.322876
"545",78.83177,30.336243
"546",78.9514,30.349548
"547",79.22484,30.362915
"548",79.693596,30.37622
"549",80.33814,30.389587
"550",81.08766,30.402893
"551",81.832306,30.41626
"552",82.45243,30.429565
"553",82.862595,30.442932
"554",83.03105,30.456238
"555",82.98711,30.469604
"556",82.76982,30.48291
"557",82.44022,30.496277
"558",82.04959,30.509583
"559",81.64187,30.52295
"560",81.25857,30.536255
"561",80.91676,30.54956
"562",80.621346,30.562927
"563",80.36988,30.576233
"564",80.147705,30.5896
"565",79.94263,30.602905
"566",79.7522,30.616272
"567",79.58129,30.629578
"568",79.44213,30.642944
"569",79.344475,30.65625
"570",79.30053,30.669617
"571",79.310295,30.682922
"572",79.364006,30.69629
"573",79.449455,30.709595
"574",79.54223,30.722961
"575",79.622795,30.736267
"576",79.66918,30.749573
"577",79.67895,30.76294
"578",79.65209,30.776245
"579",79.59594,30.789612
"580",79.517815,30.802917
"581",79.429924,30.816284
"582",79.33471,30.82959
"583",79.24193,30.842957
"584",79.15404,30.856262
"585",79.07347,30.869629
"586",79.00267,30.882935
"587",78.941635,30.896301
"588",78.890366,30.909607
"589",78.84642,30.922974
"590",78.81468,30.93628
"591",78.79271,30.949585
"592",78.78783,30.962952
"593",78.81712,30.976257
"594",78.93187,30.989624
"595",79.18822,31.00293
"596",79.63012,31.016296
"597",80.257576,31.029602
"598",81.01686,31.042969
"599",81.80301,31.056274
"600",82.496376,31.069641
"601",82.98955,31.082947
"602",83.23125,31.096313
"603",83.23369,31.10962
"604",83.035934,31.122986
"605",82.69901,31.136292
"606",82.2913,31.149658
"607",81.87625,31.162964
"608",81.4905,31.17627
"609",81.160904,31.189636
"610",80.88991,31.202942
"611",80.67017,31.216309
"612",80.482185,31.229614
"613",80.31373,31.242981
"614",80.15259,31.256287
"615",80.00366,31.269653
"616",79.871826,31.282959
"617",79.766846,31.296326
"618",79.70336,31.309631
"619",79.68383,31.322998
"620",79.70092,31.336304
"621",79.7522,31.34967
"622",79.815674,31.362976
"623",79.87427,31.376343
"624",79.91089,31.389648
"625",79.920654,31.402954
"626",79.8938,31.41632
"627",79.84009,31.429626
"628",79.764404,31.442993
"629",79.66918,31.456299
"630",79.55688,31.469666
"631",79.43969,31.482971
"632",79.31762,31.496338
"633",79.1931,31.509644
"634",79.07103,31.52301
"635",78.958725,31.536316
"636",78.8513,31.549683
"637",78.75609,31.562988
"638",78.67063,31.576355
"639",78.58762,31.58966
"640",78.504616,31.602966
"641",78.42161,31.616333
"642",78.345924,31.629639
"643",78.29954,31.643005
"644",78.331276,31.656311
"645",78.49973,31.669678
"646",78.84642,31.682983
"647",79.361565,31.69635
"648",79.98657,31.709656
"649",80.61646,31.723022
"650",81.13649,31.736328
"651",81.45144,31.749695
"652",81.53445,31.763
"653",81.41482,31.776367
"654",81.15114,31.789673
"655",80.80446,31.802979
"656",80.43824,31.816345
"657",80.09155,31.82965
"658",79.79126,31.843018
"659",79.54467,31.856323
"660",79.3518,31.86969
"661",79.19798,31.882996
"662",79.06859,31.896362
"663",78.95384,31.909668
"664",78.856186,31.923035
"665",78.77318,31.93634
"666",78.7219,31.949707
"667",78.712135,31.963013
"668",78.75365,31.97638
"669",78.84154,31.989685
"670",78.96605,32.00305
"671",79.11009,32.016357
"672",79.25414,32.029663
"673",79.378654,32.04303
"674",79.45922,32.056335
"675",79.49828,32.069702
"676",79.49584,32.083008
"677",79.46166,32.096375
"678",79.40795,32.10968
"679",79.34692,32.123047
"680",79.27856,32.136353
"681",79.217514,32.14972
"682",79.16136,32.163025
"683",79.114975,32.17639
"684",79.080795,32.189697
"685",79.0515,32.203064
"686",79.03685,32.21637
"687",79.029526,32.229736
"688",79.027084,32.243042
"689",79.03197,32.256348
"690",79.04173,32.269714
"691",79.0515,32.28302
"692",79.063705,32.296387
"693",79.09056,32.309692
"694",79.17113,32.32306
"695",79.36889,32.336365
"696",79.74731,32.34973
"697",80.33326,32.363037
"698",81.094986,32.376404
"699",81.94217,32.38971
"700",82.7454,32.403076
"701",83.3753,32.41638
"702",83.74395,32.42975
"703",83.84161,32.443054
"704",83.70489,32.45636
"705",83.39971,32.469727
"706",82.99443,32.483032
"707",82.55009,32.4964
"708",82.12039,32.509705
"709",81.72732,32.52307
"710",81.392845,32.536377
"711",81.112076,32.549744
"712",80.88014,32.56305
"713",80.67994,32.576416
"714",80.499275,32.58972
"715",80.3357,32.60309
"716",80.19409,32.616394
"717",80.076904,32.62976
"718",79.99634,32.643066
"719",79.957275,32.656372
"720",79.957275,32.66974
"721",79.98169,32.683044
"722",80.025635,32.69641
"723",80.07202,32.709717
"724",80.096436,32.723083
"725",80.09155,32.73639
"726",80.04761,32.749756
"727",79.96216,32.76306
"728",79.84253,32.77643
"729",79.69604,32.789734
"730",79.537346,32.8031
"731",79.37621,32.816406
"732",79.22972,32.829773
"733",79.10521,32.84308
"734",79.009995,32.856445
"735",78.93675,32.86975
"736",78.890366,32.883057
"737",78.86107,32.896423
"738",78.84398,32.90973
"739",78.83177,32.923096
"740",78.82201,32.9364
"741",78.81712,32.949768
"742",78.81712,32.963074
"743",78.82201,32.97644
"744",78.83421,32.989746
"745",78.8513,33.003113
"746",78.870834,33.01642
"747",78.88548,33.029785
"748",78.90013,33.04309
"749",78.9099,33.056458
"750",78.91966,33.069763
"751",78.92943,33.08313
"752",78.96361,33.096436
"753",79.07103,33.10974
"754",79.3225,33.123108
"755",79.77173,33.136414
"756",80.428474,33.14978
"757",81.24147,33.163086
"758",82.10574,33.176453
"759",82.882126,33.18976
"760",83.44854,33.203125
"761",83.74883,33.21643
"762",83.78546,33.229797
"763",83.60479,33.243103
"764",83.27764,33.25647
"765",82.87724,33.269775
"766",82.459755,33.283142
"767",82.0618,33.296448
"768",81.70779,33.309753
"769",81.40505,33.32312
"770",81.15602,33.336426
"771",80.95094,33.349792
"772",80.77516,33.3631
"773",80.618904,33.376465
"774",80.47486,33.38977
"775",80.34547,33.403137
"776",80.235596,33.416443
"777",80.15747,33.42981
"778",80.113525,33.443115
"779",80.1062,33.456482
"780",80.12573,33.469788
"781",80.15747,33.483154
"782",80.184326,33.49646
"783",80.19409,33.509766
"784",80.16968,33.523132
"785",80.11841,33.536438
"786",80.0354,33.549805
"787",79.923096,33.56311
"788",79.79614,33.576477
"789",79.66186,33.589783
"790",79.52514,33.60315
"791",79.395744,33.616455
"792",79.281,33.62982
"793",79.17845,33.643127
"794",79.09544,33.656494
"795",79.0222,33.6698
"796",78.96605,33.683167
"797",78.91722,33.696472
"798",78.87572,33.70984
"799",78.836655,33.723145
"800",78.80492,33.73645
"801",78.77806,33.749817
"802",78.768295,33.763123
"803",78.77806,33.77649
"804",78.802475,33.789795
"805",78.84154,33.80316
"806",78.887924,33.816467
"807",78.94408,33.829834
"808",79.00755,33.84314
"809",79.07347,33.856506
"810",79.13695,33.869812
"811",79.1931,33.88318
"812",79.234604,33.896484
"813",79.26147,33.90985
"814",79.28588,33.923157
"815",79.30785,33.936523
"816",79.33227,33.94983
"817",79.36645,33.963135
"818",79.449455,33.9765
"819",79.635,33.989807
"820",79.991455,34.003174
"821",80.55543,34.01648
"822",81.30984,34.029846
"823",82.17166,34.04315
"824",83.021286,34.05652
"825",83.72686,34.069824
"826",84.190735,34.08319
"827",84.37873,34.096497
"828",84.317696,34.109863
"829",84.05646,34.12317
"830",83.66827,34.136536
"831",83.22148,34.14984
"832",82.777145,34.163147
"833",82.36454,34.176514
"834",82.003204,34.18982
"835",81.688255,34.203186
"836",81.41482,34.21649
"837",81.163345,34.22986
"838",80.93141,34.243164
"839",80.72144,34.25653
"840",80.5359,34.269836
"841",80.37965,34.283203
"842",80.257576,34.29651
"843",80.17212,34.309875
"844",80.113525,34.32318
"845",80.08179,34.336548
"846",80.059814,34.349854
"847",80.03784,34.36316
"848",80.00366,34.376526
"849",79.94751,34.38983
"850",79.85962,34.4032
"851",79.742424,34.416504
"852",79.59838,34.42987
"853",79.44457,34.443176
"854",79.28588,34.456543
"855",79.132065,34.46985
"856",78.995346,34.483215
"857",78.87816,34.49652
"858",78.77074,34.509888
"859",78.675514,34.523193
"860",78.59251,34.53656
"861",78.521706,34.549866
"862",78.46067,34.563232
"863",78.41428,34.576538
"864",78.38987,34.589844
"865",78.37766,34.60321
"866",78.380104,34.616516
"867",78.399635,34.629883
"868",78.44114,34.64319
"869",78.50706,34.656555
"870",78.59739,34.66986
"871",78.70725,34.683228
"872",78.82933,34.696533
"873",78.9514,34.7099
"874",79.06615,34.723206
"875",79.168686,34.736572
"876",79.26147,34.749878
"877",79.344475,34.763245
"878",79.412834,34.77655
"879",79.45922,34.789917
"880",79.4934,34.803223
"881",79.51293,34.81653
"882",79.51537,34.829895
"883",79.50805,34.8432
"884",79.50805,34.856567
"885",79.551994,34.869873
"886",79.69604,34.88324
"887",79.99634,34.896545
"888",80.46754,34.909912
"889",81.08278,34.923218
"890",81.76639,34.936584
"891",82.406044,34.94989
"892",82.88457,34.963257
"893",83.140915,34.976562
"894",83.16289,34.98993
"895",82.97246,35.003235
"896",82.62089,35.01654
"897",82.17166,35.029907
"898",81.68337,35.043213
"899",81.197525,35.05658
"900",80.743416,35.069885
"901",80.34058,35.083252
"902",79.99634,35.096558
"903",79.71313,35.109924
"904",79.48119,35.12323
"905",79.30541,35.136597
"906",79.17845,35.149902
"907",79.11253,35.16327
"908",79.10521,35.176575
"909",79.166245,35.18994
"910",79.281,35.203247
"911",79.44213,35.216553
"912",79.61059,35.22992
"913",79.75708,35.243225
"914",79.85474,35.25659
"915",79.886475,35.269897
"916",79.84741,35.283264
"917",79.74975,35.29657
"918",79.60082,35.309937
"919",79.42016,35.323242
"920",79.2224,35.33661
"921",79.01732,35.349915
"922",78.81224,35.36328
"923",78.624245,35.376587
"924",78.45335,35.389954
"925",78.3093,35.40326
"926",78.19211,35.416626
"927",78.10422,35.42993
"928",78.04318,35.443237
"929",78.00412,35.456604
"930",77.98703,35.46991
"931",77.98459,35.483276
"932",77.99924,35.496582
"933",78.028534,35.50995
"934",78.0676,35.523254
"935",78.11154,35.53662
"936",78.15549,35.549927
"937",78.19943,35.563293
"938",78.24338,35.5766
"939",78.28733,35.589966
"940",78.33372,35.60327
"941",78.37766,35.61664
"942",78.42405,35.629944
"943",78.470436,35.64331
"944",78.519264,35.656616
"945",78.57053,35.66992
"946",78.624245,35.68329
"947",78.68772,35.696594
"948",78.77806,35.70996
"949",78.9514,35.723267
"950",79.26391,35.736633
"951",79.742424,35.74994
"952",80.377205,35.763306
"953",81.10719,35.77661
"954",81.829865,35.789978
"955",82.43046,35.803284
"956",82.82597,35.81665
"957",82.984665,35.829956
"958",82.916306,35.843323
"959",82.667274,35.85663
"960",82.28886,35.869934
"961",81.83475,35.8833
"962",81.356224,35.896606
"963",80.89479,35.909973
"964",80.46998,35.92328
"965",80.09155,35.936646
"966",79.76929,35.94995
"967",79.49584,35.963318
"968",79.273674,35.976624
"969",79.11009,35.98999
"970",79.012436,36.003296
"971",78.99046,36.016663
"972",79.04173,36.02997
"973",79.15892,36.043335
"974",79.32983,36.05664
"975",79.52514,36.069946
"976",79.71801,36.083313
"977",79.88403,36.09662
"978",79.99634,36.109985
"979",80.05249,36.12329
"980",80.04761,36.136658
"981",79.9939,36.149963
"982",79.906006,36.16333
"983",79.80347,36.176636
"984",79.68627,36.190002
"985",79.569084,36.20331
"986",79.45434,36.216675
"987",79.34692,36.22998
"988",79.24925,36.243347
"989",79.17113,36.256653
"990",79.10765,36.27002
"991",79.07103,36.283325
"992",79.0515,36.29663
"993",79.04906,36.309998
"994",79.05394,36.323303
"995",79.06859,36.33667
"996",79.08568,36.349976
"997",79.10277,36.363342
"998",79.11986,36.376648
"999",79.13695,36.390015
"1000",79.151596,36.40332
"1001",79.166245,36.416687
"1002",79.17845,36.429993
"1003",79.19798,36.44336
"1004",79.25414,36.456665
"1005",79.39086,36.47003
"1006",79.6643,36.483337
"1007",80.10376,36.496704
"1008",80.69947,36.51001
"1009",81.38796,36.523315
"1010",82.06668,36.536682
"1011",82.62821,36.549988
"1012",82.99199,36.563354
"1013",83.12627,36.57666
"1014",83.04326,36.590027
"1015",82.78691,36.603333
"1016",82.41581,36.6167
"1017",81.98123,36.630005
"1018",81.529564,36.64337
"1019",81.08766,36.656677
"1020",80.6775,36.670044
"1021",80.308846,36.68335
"1022",79.98413,36.696716
"1023",79.70336,36.710022
"1024",79.47143,36.723328
"1025",79.28832,36.736694
"1026",79.16136,36.75
"1027",79.097885,36.763367
"1028",79.114975,36.776672
"1029",79.20531,36.79004
"1030",79.361565,36.803345
"1031",79.56176,36.81671
"1032",79.766846,36.830017
"1033",79.94507,36.843384
"1034",80.07202,36.85669
"1035",80.130615,36.870056
"1036",80.11597,36.88336
"1037",80.045166,36.89673
"1038",79.93042,36.910034
"1039",79.79126,36.92334
"1040",79.64233,36.936707
"1041",79.4934,36.950012
"1042",79.35424,36.96338
"1043",79.2224,36.976685
"1044",79.10765,36.99005
"1045",79.009995,37.003357
"1046",78.93675,37.016724
"1047",78.88304,37.03003
"1048",78.84154,37.043396
"1049",78.8098,37.0567
"1050",78.78294,37.07007
"1051",78.76097,37.083374
"1052",78.74387,37.09674
"1053",78.73655,37.110046
"1054",78.75365,37.123413
"1055",78.836655,37.13672
"1056",79.04173,37.150024
"1057",79.42016,37.16339
"1058",79.98657,37.176697
"1059",80.70435,37.190063
"1060",81.48318,37.20337
"1061",82.2034,37.216736
"1062",82.75517,37.23004
"1063",83.072556,37.24341
"1064",83.14336,37.256714
"1065",82.99687,37.27008
"1066",82.69413,37.283386
"1067",82.29374,37.296753
"1068",81.846954,37.31006
"1069",81.40505,37.323425
"1070",80.987564,37.33673
"1071",80.61402,37.350098
"1072",80.28687,37.363403
"1073",80.008545,37.37671
"1074",79.77173,37.390076
"1075",79.58129,37.40338
"1076",79.43725,37.416748
"1077",79.34692,37.430054
"1078",79.31518,37.44342
"1079",79.34936,37.456726
"1080",79.44213,37.470093
"1081",79.57885,37.4834
"1082",79.73998,37.496765
"1083",79.89624,37.51007
"1084",80.025635,37.523438
"1085",80.1062,37.536743
"1086",80.130615,37.55011
"1087",80.093994,37.563416
"1088",80.008545,37.57672
"1089",79.886475,37.590088
"1090",79.73998,37.603394
"1091",79.59106,37.61676
"1092",79.449455,37.630066
"1093",79.31762,37.643433
"1094",79.200424,37.65674
"1095",79.11009,37.670105
"1096",79.03197,37.68341
"1097",78.97093,37.696777
"1098",78.91966,37.710083
"1099",78.88304,37.72345
"1100",78.853745,37.736755
"1101",78.83177,37.750122
"1102",78.819565,37.763428
"1103",78.8513,37.776733
"1104",78.96361,37.7901
"1105",79.22972,37.803406
"1106",79.68871,37.816772
"1107",80.3357,37.83008
"1108",81.10475,37.843445
"1109",81.8909,37.85675
"1110",82.56718,37.870117
"1111",83.03105,37.883423
"1112",83.243454,37.89679
"1113",83.22148,37.910095
"1114",83.001755,37.923462
"1115",82.652626,37.936768
"1116",82.230255,37.950134
"1117",81.7908,37.96344
"1118",81.36843,37.976807
"1119",80.987564,37.990112
"1120",80.65064,38.003418
"1121",80.365,38.016785
"1122",80.11597,38.03009
"1123",79.906006,38.043457
"1124",79.727776,38.056763
"1125",79.5935,38.07013
"1126",79.51049,38.083435
"1127",79.48608,38.0968
"1128",79.52514,38.110107
"1129",79.61791,38.123474
"1130",79.74731,38.13678
"1131",79.8938,38.150146
"1132",80.03052,38.163452
"1133",80.1355,38.17682
"1134",80.18677,38.190125
"1135",80.18677,38.20349
"1136",80.1355,38.216797
"1137",80.045166,38.230103
"1138",79.93042,38.24347
"1139",79.80591,38.256775
"1140",79.67895,38.27014
"1141",79.55688,38.283447
"1142",79.44457,38.296814
"1143",79.34692,38.31012
"1144",79.26391,38.323486
"1145",79.18822,38.336792
"1146",79.114975,38.35016
"1147",79.04906,38.363464
"1148",78.9807,38.37683
"1149",78.91966,38.390137
"1150",78.890366,38.403503
"1151",78.93431,38.41681
"1152",79.114975,38.430115
"1153",79.483635,38.44348
"1154",80.05249,38.456787
"1155",80.782486,38.470154
"1156",81.566185,38.48346
"1157",82.28397,38.496826
"1158",82.82597,38.51013
"1159",83.123825,38.5235
"1160",83.17265,38.536804
"1161",83.00908,38.55017
"1162",82.684364,38.563477
"1163",82.26444,38.576843
"1164",81.80057,38.59015
"1165",81.339134,38.603516
"1166",80.91432,38.61682
"1167",80.5359,38.630127
"1168",80.20874,38.643494
"1169",79.93042,38.6568
"1170",79.70092,38.670166
"1171",79.51293,38.68347
"1172",79.37133,38.69684
"1173",79.27856,38.710144
"1174",79.24437,38.72351
"1175",79.26147,38.736816
"1176",79.33471,38.750183
"1177",79.447014,38.76349
"1178",79.586174,38.776855
"1179",79.72289,38.79016
"1180",79.82788,38.803528
"1181",79.886475,38.816833
"1182",79.8938,38.8302
"1183",79.84741,38.843506
"1184",79.76196,38.85681
"1185",79.65453,38.87018
"1186",79.53979,38.883484
"1187",79.4226,38.89685
"1188",79.31274,38.910156
"1189",79.21263,38.923523
"1190",79.12474,38.93683
"1191",79.0515,38.950195
"1192",78.98558,38.9635
"1193",78.93431,38.976868
"1194",78.89525,38.990173
"1195",78.86351,39.00354
"1196",78.83421,39.016846
"1197",78.81712,39.030212
"1198",78.819565,39.043518
"1199",78.887924,39.056885
"1200",79.07591,39.07019
"1201",79.45434,39.083496
"1202",80.042725,39.096863
"1203",80.80202,39.11017
"1204",81.63943,39.123535
"1205",82.425575,39.13684
"1206",83.03349,39.150208
"1207",83.38506,39.163513
"1208",83.46807,39.17688
"1209",83.31426,39.190186
"1210",82.98955,39.203552
"1211",82.55741,39.216858
"1212",82.07889,39.230225
"1213",81.60769,39.24353
"1214",81.17555,39.256897
"1215",80.797134,39.270203
"1216",80.47242,39.28351
"1217",80.201416,39.296875
"1218",79.97681,39.31018
"1219",79.79126,39.323547
"1220",79.64233,39.336853
"1221",79.53246,39.35022
"1222",79.47143,39.363525
"1223",79.46166,39.376892
"1224",79.500725,39.390198
"1225",79.57885,39.403564
"1226",79.68383,39.41687
"1227",79.7937,39.430237
"1228",79.87915,39.443542
"1229",79.92798,39.45691
"1230",79.92798,39.470215
"1231",79.87915,39.48352
"1232",79.78638,39.496887
"1233",79.66674,39.510193
"1234",79.53002,39.52356
"1235",79.38842,39.536865
"1236",79.25414,39.550232
"1237",79.12962,39.563538
"1238",79.01976,39.576904
"1239",78.924545,39.59021
"1240",78.8513,39.603577
"1241",78.79271,39.616882
"1242",78.74387,39.63025
"1243",78.70481,39.643555
"1244",78.67307,39.65692
"1245",78.64622,39.670227
"1246",78.62913,39.683594
"1247",78.624245,39.6969
"1248",78.63645,39.710205
"1249",78.69993,39.72357
"1250",78.86595,39.736877
"1251",79.202866,39.750244
"1252",79.742424,39.76355
"1253",80.47242,39.776917
"1254",81.322044,39.790222
"1255",82.16678,39.80359
"1256",82.87236,39.816895
"1257",83.34112,39.83026
"1258",83.53887,39.843567
"1259",83.4876,39.856934
"1260",83.23613,39.87024
"1261",82.85771,39.883606
"1262",82.41581,39.89691
"1263",81.96414,39.91028
"1264",81.53933,39.923584
"1265",81.15602,39.93689
"1266",80.831314,39.950256
"1267",80.55787,39.963562
"1268",80.33326,39.97693
"1269",80.14038,39.990234
"1270",79.97681,40.0036
"1271",79.84253,40.016907
"1272",79.73998,40.030273
"1273",79.674065,40.04358
"1274",79.66186,40.056946
"1275",79.70092,40.07025
"1276",79.781494,40.08362
"1277",79.88159,40.096924
"1278",79.97681,40.11029
"1279",80.045166,40.123596
"1280",80.07202,40.1369
"1281",80.042725,40.15027
"1282",79.96704,40.163574
"1283",79.85718,40.17694
"1284",79.72289,40.190247
"1285",79.57397,40.203613
"1286",79.429924,40.21692
"1287",79.28832,40.230286
"1288",79.15892,40.24359
"1289",79.044174,40.256958
"1290",78.941635,40.270264
"1291",78.856186,40.28363
"1292",78.78294,40.296936
"1293",78.72678,40.310303
"1294",78.6804,40.32361
"1295",78.643776,40.336914
"1296",78.6096,40.35028
"1297",78.58518,40.363586
"1298",78.56809,40.376953
"1299",78.56321,40.39026
"1300",78.572975,40.403625
"1301",78.62913,40.41693
"1302",78.7805,40.430298
"1303",79.08812,40.443604
"1304",79.59838,40.45697
"1305",80.30152,40.470276
"1306",81.13405,40.483643
"1307",81.98367,40.49695
"1308",82.70634,40.510315
"1309",83.20439,40.52362
"1310",83.43145,40.536987
"1311",83.404594,40.550293
"1312",83.17265,40.5636
"1313",82.80888,40.576965
"1314",82.37675,40.59027
"1315",81.92752,40.603638
"1316",81.50271,40.616943
"1317",81.12184,40.63031
"1318",80.80202,40.643616
"1319",80.533455,40.656982
"1320",80.306404,40.670288
"1321",80.1062,40.683655
"1322",79.92798,40.69696
"1323",79.77173,40.710327
"1324",79.64965,40.723633
"1325",79.57641,40.737
"1326",79.55688,40.750305
"1327",79.5935,40.76367
"1328",79.67162,40.776978
"1329",79.77417,40.790283
"1330",79.87915,40.80365
"1331",79.95972,40.816956
"1332",79.9939,40.830322
"1333",79.98413,40.843628
"1334",79.93042,40.856995
"1335",79.83765,40.8703
"1336",79.71557,40.883667
"1337",79.57885,40.896973
"1338",79.43969,40.91034
"1339",79.30053,40.923645
"1340",79.168686,40.93701
"1341",79.04906,40.950317
"1342",78.94896,40.963684
"1343",78.856186,40.97699
"1344",78.77562,40.990295
"1345",78.70237,41.003662
"1346",78.6511,41.016968
"1347",78.61692,41.030334
"1348",78.60227,41.04364
"1349",78.60227,41.057007
"1350",78.61692,41.070312
"1351",78.63645,41.08368
"1352",78.658424,41.096985
"1353",78.677956,41.11035
"1354",78.692604,41.123657
"1355",78.70237,41.137024
"1356",78.709694,41.15033
"1357",78.74387,41.163696
"1358",78.84398,41.177002
"1359",79.08324,41.190308
"1360",79.51293,41.203674
"1361",80.15015,41.21698
"1362",80.94606,41.230347
"1363",81.80301,41.243652
"1364",82.58671,41.25702
"1365",83.17998,41.270325
"1366",83.51934,41.28369
"1367",83.58526,41.296997
"1368",83.421684,41.310364
"1369",83.09453,41.32367
"1370",82.67216,41.337036
"1371",82.21561,41.35034
"1372",81.77371,41.36371
"1373",81.373314,41.377014
"1374",81.02907,41.39038
"1375",80.73365,41.403687
"1376",80.48951,41.416992
"1377",80.28443,41.43036
"1378",80.1062,41.443665
"1379",79.957275,41.45703
"1380",79.835205,41.470337
"1381",79.7522,41.483704
"1382",79.71313,41.49701
"1383",79.71557,41.510376
"1384",79.76196,41.52368
"1385",79.83276,41.53705
"1386",79.906006,41.550354
"1387",79.96216,41.56372
"1388",79.98657,41.577026
"1389",79.95972,41.590393
"1390",79.886475,41.6037
"1391",79.77905,41.617065
"1392",79.639885,41.63037
"1393",79.47143,41.643677
"1394",79.29565,41.657043
"1395",79.1223,41.67035
"1396",78.96117,41.683716
"1397",78.819565,41.69702
"1398",78.69749,41.71039
"1399",78.58762,41.723694
"1400",78.487526,41.73706
"1401",78.397194,41.750366
"1402",78.32151,41.763733
"1403",78.27024,41.77704
"1404",78.238495,41.790405
"1405",78.22385,41.80371
"1406",78.221405,41.817078
"1407",78.22385,41.830383
"1408",78.23117,41.84369
"1409",78.24338,41.857056
"1410",78.26536,41.87036
"1411",78.28733,41.883728
"1412",78.30686,41.897034
"1413",78.328835,41.9104
"1414",78.35081,41.923706
"1415",78.3679,41.937073
"1416",78.38499,41.95038
"1417",78.4094,41.963745
"1418",78.45823,41.97705
"1419",78.58518,41.990417
"1420",78.86351,42.003723
"1421",79.344475,42.01709
"1422",80.03296,42.030396
"1423",80.86305,42.0437
"1424",81.72976,42.057068
"1425",82.493935,42.070374
"1426",83.038376,42.08374
"1427",83.30938,42.097046
"1428",83.319145,42.110413
"1429",83.1165,42.12372
"1430",82.774704,42.137085
"1431",82.357216,42.15039
"1432",81.92508,42.163757
"1433",81.512474,42.177063
"1434",81.143814,42.19043
"1435",80.82643,42.203735
"1436",80.56275,42.217102
"1437",80.343025,42.230408
"1438",80.15747,42.243774
"1439",79.991455,42.25708
"1440",79.84253,42.270386
"1441",79.72045,42.283752
"1442",79.63012,42.29706
"1443",79.58129,42.310425
"1444",79.58129,42.32373
"1445",79.61791,42.337097
"1446",79.676506,42.350403
"1447",79.7351,42.36377
"1448",79.77417,42.377075
"1449",79.77661,42.39044
"1450",79.73998,42.403748
"1451",79.6643,42.417114
"1452",79.55688,42.43042
"1453",79.429924,42.443787
"1454",79.28344,42.457092
"1455",79.132065,42.47046
"1456",78.98558,42.483765
"1457",78.84642,42.49707
"1458",78.7219,42.510437
"1459",78.61204,42.523743
"1460",78.51682,42.53711
"1461",78.43626,42.550415
"1462",78.37278,42.56378
"1463",78.32395,42.577087
"1464",78.28977,42.590454
"1465",78.27512,42.60376
"1466",78.27268,42.617126
"1467",78.277565,42.630432
"1468",78.28733,42.643738
"1469",78.30442,42.657104
"1470",78.32639,42.67041
"1471",78.345924,42.683777
"1472",78.37034,42.697083
"1473",78.39475,42.71045
"1474",78.42893,42.723755
"1475",78.467995,42.73706
"1476",78.51194,42.750427
"1477",78.553444,42.763733
"1478",78.58518,42.7771
"1479",78.60471,42.790405
"1480",78.6218,42.803772
"1481",78.65598,42.817078
"1482",78.75365,42.830444
"1483",78.98558,42.84375
"1484",79.41039,42.857056
"1485",80.04028,42.870422
"1486",80.84108,42.883728
"1487",81.71511,42.897095
"1488",82.533,42.9104
"1489",83.16777,42.923767
"1490",83.546196,42.937073
"1491",83.6585,42.95044
"1492",83.53643,42.963745
"1493",83.243454,42.97705
"1494",82.845505,42.990417
"1495",82.406044,43.003723
"1496",81.9617,43.01709
"1497",81.54665,43.030396
"1498",81.180435,43.043762
"1499",80.87038,43.057068
"1500",80.61158,43.070374
"1501",80.39185,43.08374
"1502",80.2063,43.097046
"1503",80.05005,43.110413
"1504",79.93042,43.12372
"1505",79.84497,43.137085
"1506",79.80591,43.15039
"1507",79.81323,43.163696
"1508",79.85962,43.177063
"1509",79.923096,43.19037
"1510",79.991455,43.203735
"1511",80.042725,43.21704
"1512",80.0647,43.230408
"1513",80.042725,43.243713
"1514",79.97681,43.25708
"1515",79.871826,43.270386
"1516",79.73266,43.28369
"1517",79.57641,43.29706
"1518",79.41039,43.310364
"1519",79.24681,43.32373
"1520",79.093,43.337036
"1521",78.958725,43.350403
"1522",78.839096,43.36371
"1523",78.73411,43.377075
"1524",78.643776,43.39038
"1525",78.57053,43.403687
"1526",78.504616,43.417053
"1527",78.44846,43.43036
"1528",78.40452,43.443726
"1529",78.37034,43.45703
"1530",78.35081,43.470398
"1531",78.34348,43.483704
"1532",78.35081,43.49701
"1533",78.38987,43.52368
"1534",78.416725,43.53705
"1535",78.44846,43.550354
"1536",78.4802,43.56372
"1537",78.5095,43.577026
"1538",78.53391,43.590332
"1539",78.553444,43.6037
"1540",78.56321,43.617004
"1541",78.57053,43.63037
"1542",78.57786,43.643677
"1543",78.6096,43.657043
"1544",78.712135,43.67035
"1545",78.94652,43.683716
"1546",79.37377,43.69702
"1547",79.99878,43.710327
"1548",80.77028,43.723694
"1549",81.5906,43.737
"1550",82.337685,43.750366
"1551",82.89189,43.76367
"1552",83.18974,43.77704
"1553",83.23369,43.790344
"1554",83.06523,43.80371
"1555",82.7454,43.817017
"1556",82.3328,43.830322
"1557",81.8909,43.84369
"1558",81.45876,43.856995
"1559",81.058365,43.87036
"1560",80.709236,43.883667
"1561",80.411385,43.897034
"1562",80.15503,43.91034
"1563",79.937744,43.923645
"1564",79.75708,43.93701
"1565",79.61547,43.950317
"1566",79.520256,43.963684
"1567",79.48119,43.97699
"1568",79.500725,43.990356
"1569",79.56664,44.003662
"1570",79.66918,44.016968
"1571",79.78638,44.030334
"1572",79.89868,44.04364
"1573",79.98169,44.057007
"1574",80.02319,44.070312
"1575",80.01587,44.08368
"1576",79.957275,44.096985
"1577",79.852295,44.11035
"1578",79.72045,44.123657
"1579",79.57641,44.136963
"1580",79.42504,44.15033
"1581",79.281,44.163635
"1582",79.14427,44.177002
"1583",79.01976,44.190308
"1584",78.9099,44.203674
"1585",78.81712,44.21698
"1586",78.74143,44.230347
"1587",78.6804,44.243652
"1588",78.626686,44.256958
"1589",78.58518,44.270325
"1590",78.55833,44.28363
"1591",78.54612,44.296997
"1592",78.54124,44.310303
"1593",78.54856,44.32367
"1594",78.56077,44.336975
"1595",78.5803,44.35028
"1596",78.60227,44.363647
"1597",78.62913,44.376953
"1598",78.65598,44.39032
"1599",78.68528,44.403625
"1600",78.70725,44.416992
"1601",78.729225,44.430298
"1602",78.75609,44.443604
"1603",78.80492,44.45697
"1604",78.91478,44.470276
"1605",79.14183,44.483643
"1606",79.53246,44.49695
"1607",80.096436,44.510315
"1608",80.79469,44.52362
"1609",81.53689,44.536987
"1610",82.20584,44.550293
"1611",82.703896,44.5636
"1612",82.967575,44.576965
"1613",82.99931,44.59027
"1614",82.8333,44.603638
"1615",82.52079,44.616943
"1616",82.11063,44.63031
"1617",81.66628,44.643616
"1618",81.22682,44.656982
"1619",80.81178,44.670288
"1620",80.44068,44.683594
"1621",80.11841,44.69696
"1622",79.84497,44.710266
"1623",79.61303,44.723633
"1624",79.432365,44.73694
"1625",79.310295,44.750305
"1626",79.26147,44.76361
"1627",79.28344,44.776917
"1628",79.37377,44.790283
"1629",79.517815,44.80359
"1630",79.693596,44.816956
"1631",79.869385,44.83026
"1632",80.02075,44.843628
"1633",80.130615,44.856934
"1634",80.181885,44.87024
"1635",80.17456,44.883606
"1636",80.111084,44.89691
"1637",80.0061,44.91028
"1638",79.87671,44.923584
"1639",79.73754,44.93695
"1640",79.59594,44.950256
"1641",79.46166,44.963623
"1642",79.33959,44.97693
"1643",79.234604,44.990234
"1644",79.13939,45.0036
"1645",79.063705,45.016907
"1646",79.00267,45.030273
"1647",78.95384,45.04358
"1648",78.91966,45.056946
"1649",78.89281,45.07025
"1650",78.87572,45.08362
"1651",78.86351,45.096924
"1652",78.85863,45.11023
"1653",78.86107,45.123596
"1654",78.873276,45.1369
"1655",78.89281,45.15027
"1656",78.91722,45.163574
"1657",78.94408,45.17694
"1658",78.97093,45.190247
"1659",78.99046,45.203552
"1660",79.01488,45.21692
"1661",79.063705,45.230225
"1662",79.183334,45.24359
"1663",79.429924,45.256897
"1664",79.84253,45.270264
"1665",80.41871,45.28357
"1666",81.10719,45.296875
"1667",81.80789,45.31024
"1668",82.406044,45.323547
"1669",82.81865,45.336914
"1670",82.99443,45.35022
"1671",82.9456,45.363586
"1672",82.718544,45.376892
"1673",82.36698,45.39026
"1674",81.934845,45.403564
"1675",81.478294,45.41687
"1676",81.024185,45.430237
"1677",80.601814,45.443542
"1678",80.22095,45.45691
"1679",79.8938,45.470215
"1680",79.62035,45.48358
"1681",79.40795,45.496887
"1682",79.259026,45.510254
"1683",79.18089,45.52356
"1684",79.185776,45.536865
"1685",79.27123,45.550232
"1686",79.4226,45.563538
"1687",79.61303,45.576904
"1688",79.818115,45.59021
"1689",80.00122,45.603577
"1690",80.13794,45.616882
"1691",80.218506,45.630188
"1692",80.24048,45.643555
"1693",80.201416,45.65686
"1694",80.113525,45.670227
"1695",79.99634,45.683533
"1696",79.85718,45.6969
"1697",79.708244,45.710205
"1698",79.5642,45.72351
"1699",79.429924,45.736877
"1700",79.30541,45.750183
"1701",79.1931,45.76355
"1702",79.093,45.776855
"1703",79.012436,45.790222
"1704",78.94652,45.803528
"1705",78.89769,45.816895
"1706",78.86351,45.8302
"1707",78.84154,45.843506
"1708",78.82445,45.856873
"1709",78.81468,45.87018
"1710",78.8098,45.883545
"1711",78.80492,45.89685
"1712",78.80736,45.910217
"1713",78.81712,45.923523
"1714",78.83421,45.93689
"1715",78.856186,45.950195
"1716",78.890366,45.9635
"1717",78.94896,45.976868
"1718",79.078354,45.990173
"1719",79.33227,46.00354
"1720",79.744865,46.016846
"1721",80.32105,46.030212
"1722",81.007095,46.043518
"1723",81.7029,46.056824
"1724",82.29862,46.07019
"1725",82.701454,46.083496
"1726",82.8748,46.096863
"1727",82.82353,46.11017
"1728",82.59403,46.123535
"1729",82.23758,46.13684
"1730",81.812775,46.150146
"1731",81.36111,46.163513
"1732",80.91432,46.17682
"1733",80.49195,46.190186
"1734",80.10864,46.20349
"1735",79.77417,46.216858
"1736",79.49096,46.230164
"1737",79.26391,46.24353
"1738",79.11009,46.256836
"1739",79.03441,46.27014
"1740",79.04173,46.28351
"1741",79.13695,46.296814
"1742",79.30053,46.31018
"1743",79.51537,46.323486
"1744",79.744865,46.336853
"1745",79.957275,46.35016
"1746",80.128174,46.363525
"1747",80.23804,46.37683
"1748",80.27711,46.390137
"1749",80.25269,46.403503
"1750",80.17944,46.41681
"1751",80.07202,46.430176
"1752",79.94507,46.44348
"1753",79.81323,46.45685
"1754",79.68139,46.470154
"1755",79.55932,46.48346
"1756",79.447014,46.496826
"1757",79.344475,46.51013
"1758",79.25414,46.5235
"1759",79.17845,46.536804
"1760",79.11253,46.55017
"1761",79.063705,46.563477
"1762",79.02464,46.576782
"1763",78.99779,46.59015
"1764",78.98802,46.603455
"1765",78.992905,46.61682
"1766",79.00511,46.630127
"1767",79.02464,46.643494
"1768",79.044174,46.6568
"1769",79.06615,46.670166
"1770",79.093,46.68347
"1771",79.149155,46.696777
"1772",79.27856,46.710144
"1773",79.53002,46.72345
"1774",79.940186,46.736816
"1775",80.50904,46.750122
"1776",81.18532,46.76349
"1777",81.87381,46.776794
"1778",82.46464,46.79016
"1779",82.86992,46.803467
"1780",83.053024,46.816772
"1781",83.01152,46.83014
"1782",82.78691,46.843445
"1783",82.43778,46.85681
"1784",82.01785,46.870117
"1785",81.566185,46.883484
"1786",81.11696,46.89679
"1787",80.69215,46.910095
"1788",80.30396,46.923462
"1789",79.95972,46.936768
"1790",79.66918,46.950134
"1791",79.43969,46.96344
"1792",79.28588,46.976807
"1793",79.21019,46.990112
"1794",79.2224,47.003418
"1795",79.32006,47.016785
"1796",79.49096,47.03009
"1797",79.710686,47.043457
"1798",79.94507,47.056763
"1799",80.164795,47.07013
"1800",80.34058,47.083435
"1801",80.45533,47.0968
"1802",80.50172,47.110107
"1803",80.479744,47.123413
"1804",80.40894,47.13678
"1805",80.30152,47.150085
"1806",80.16968,47.163452
"1807",80.03296,47.176758
"1808",79.89624,47.190125
"1809",79.77173,47.20343
"1810",79.65942,47.216797
"1811",79.55932,47.230103
"1812",79.47143,47.24341
"1813",79.3933,47.256775
"1814",79.33227,47.27008
"1815",79.28588,47.283447
"1816",79.24925,47.296753
"1817",79.217514,47.31012
"1818",79.1931,47.323425
"1819",79.17357,47.33673
"1820",79.15648,47.350098
"1821",79.15404,47.363403
"1822",79.18822,47.37677
"1823",79.30053,47.390076
"1824",79.54223,47.403442
"1825",79.94995,47.416748
"1826",80.52613,47.430054
"1827",81.21706,47.44342
"1828",81.92752,47.456726
"1829",82.55009,47.470093
"1830",82.97978,47.4834
"1831",83.17265,47.496765
"1832",83.13603,47.51007
"1833",82.913864,47.523438
"1834",82.55741,47.536743
"1835",82.12283,47.55005
"1836",81.65652,47.563416
"1837",81.1902,47.57672
"1838",80.74586,47.590088
"1839",80.3357,47.603394
"1840",79.974365,47.61676
"1841",79.66918,47.630066
"1842",79.42748,47.643433
"1843",79.259026,47.65674
"1844",79.168686,47.670044
"1845",79.168686,47.68341
"1846",79.24925,47.696716
"1847",79.40795,47.710083
"1848",79.62035,47.72339
"1849",79.852295,47.736755
"1850",80.076904,47.75006
"1851",80.257576,47.763367
"1852",80.37232,47.776733
"1853",80.411385,47.79004
"1854",80.38209,47.803406
"1855",80.2942,47.81671
"1856",80.17212,47.83008
"1857",80.0354,47.843384
"1858",79.89624,47.85669
"1859",79.75708,47.870056
"1860",79.62524,47.88336
"1861",79.50317,47.89673
"1862",79.3933,47.910034
"1863",79.30297,47.9234
"1864",79.22972,47.936707
"1865",79.17113,47.950073
"1866",79.11986,47.96338
"1867",79.078354,47.976685
"1868",79.03441,47.99005
"1869",79.00023,48.003357
"1870",78.98558,48.016724
"1871",79.01732,48.03003
"1872",79.13451,48.043396
"1873",79.40307,48.0567
"1874",79.85962,48.07007
"1875",80.49195,48.083374
"1876",81.234146,48.09668
"1877",81.988556,48.110046
"1878",82.62577,48.123352
"1879",83.05791,48.13672
"1880",83.23613,48.150024
"1881",83.17998,48.16339
"1882",82.933395,48.176697
"1883",82.55497,48.190002
"1884",82.09842,48.20337
"1885",81.61501,48.216675
"1886",81.146255,48.23004
"1887",80.719,48.243347
"1888",80.34058,48.256714
"1889",80.01587,48.27002
"1890",79.75464,48.283325
"1891",79.554436,48.29669
"1892",79.4226,48.309998
"1893",79.36645,48.323364
"1894",79.39086,48.33667
"1895",79.49096,48.350037
"1896",79.65209,48.363342
"1897",79.84985,48.37671
"1898",80.05493,48.390015
"1899",80.23804,48.40332
"1900",80.36988,48.416687
"1901",80.43824,48.429993
"1902",80.4358,48.44336
"1903",80.37232,48.456665
"1904",80.26246,48.47003
"1905",80.11841,48.483337
"1906",79.9646,48.496704
"1907",79.80347,48.51001
"1908",79.65209,48.523315
"1909",79.51049,48.536682
"1910",79.38354,48.549988
"1911",79.27123,48.563354
"1912",79.17601,48.57666
"1913",79.09056,48.590027
"1914",79.01976,48.603333
"1915",78.958725,48.61664
"1916",78.9099,48.630005
"1917",78.870834,48.64331
"1918",78.86107,48.656677
"1919",78.93187,48.669983
"1920",79.13939,48.68335
"1921",79.537346,48.696655
"1922",80.128174,48.70996
"1923",80.867935,48.723328
"1924",81.64919,48.736633
"1925",82.35233,48.75
"1926",82.865036,48.763306
"1927",83.12871,48.776672
"1928",83.13603,48.789978
"1929",82.92851,48.803345
"1930",82.5745,48.81665
"1931",82.127716,48.829956
"1932",81.64919,48.843323
"1933",81.180435,48.85663
"1934",80.74586,48.869995
"1935",80.36256,48.8833
"1936",80.03296,48.896667
"1937",79.75952,48.909973
"1938",79.53979,48.92334
"1939",79.37377,48.936646
"1940",79.273674,48.94995
"1941",79.24437,48.963318
"1942",79.293205,48.976624
"1943",79.41039,48.98999
"1944",79.57885,49.003296
"1945",79.77173,49.016663
"1946",79.95239,49.02997
"1947",80.093994,49.043274
"1948",80.177,49.05664
"1949",80.19653,49.069946
"1950",80.15015,49.083313
"1951",80.05493,49.09662
"1952",79.923096,49.109985
"1953",79.77417,49.12329
"1954",79.62035,49.136597
"1955",79.47143,49.149963
"1956",79.33959,49.16327
"1957",79.2224,49.176636
"1958",79.114975,49.18994
"1959",79.01732,49.20331
"1960",78.93187,49.216614
"1961",78.853745,49.22998
"1962",78.79515,49.243286
"1963",78.751205,49.25659
"1964",78.73167,49.26996
"1965",78.76341,49.283264
"1966",78.89769,49.29663
"1967",79.1931,49.309937
"1968",79.68627,49.323303
"1969",80.36256,49.33661
"1970",81.15358,49.349976
"1971",81.94949,49.36328
"1972",82.62333,49.376587
"1973",83.08232,49.389954
"1974",83.28008,49.40326
"1975",83.23125,49.416626
"1976",82.984665,49.42993
"1977",82.598915,49.4433
"1978",82.13992,49.456604
"1979",81.65896,49.46991
"1980",81.20241,49.483276
"1981",80.78737,49.496582
"1982",80.430916,49.50995
"1983",80.1355,49.523254
"1984",79.8938,49.53662
"1985",79.70092,49.549927
"1986",79.56176,49.563232
"1987",79.48119,49.5766
"1988",79.4641,49.589905
"1989",79.51049,49.60327
"1990",79.61791,49.616577
"1991",79.76196,49.629944
"1992",79.91577,49.64325
"1993",80.05005,49.656616
"1994",80.14282,49.66992
"1995",80.181885,49.683228
"1996",80.16235,49.696594
"1997",80.08423,49.7099
"1998",79.96216,49.723267
"1999",79.81323,49.736572
"2000",79.66186,49.74994
"2001",79.51293,49.763245
"2002",79.378654,49.77661
"2003",79.26147,49.789917
"2004",79.15892,49.803223
"2005",79.061264,49.81659
"2006",78.975815,49.829895
"2007",78.90257,49.84326
"2008",78.84154,49.856567
"2009",78.79271,49.869934
"2010",78.75609,49.88324
"2011",78.73655,49.896545
"2012",78.75853,49.909912
"2013",78.873276,49.923218
"2014",79.14427,49.936584
"2015",79.62035,49.94989
"2016",80.29664,49.963257
"2017",81.109634,49.976562
"2018",81.94461,49.98987
"2019",82.66483,50.003235
"2020",83.160446,50.01654
"2021",83.38018,50.029907
"2022",83.336235,50.043213
"2023",83.089645,50.05658
"2024",82.701454,50.069885
"2025",82.247345,50.083252
"2026",81.78348,50.096558
"2027",81.341576,50.109863
"2028",80.95094,50.12323
"2029",80.61646,50.136536
"2030",80.34058,50.149902
"2031",80.10864,50.163208
"2032",79.91333,50.176575
"2033",79.74975,50.18988
"2034",79.622795,50.203247
"2035",79.54711,50.216553
"2036",79.53002,50.22986
"2037",79.57641,50.243225
"2038",79.66674,50.25653
"2039",79.781494,50.269897
"2040",79.89136,50.283203
"2041",79.97681,50.29657
"2042",80.008545,50.309875
"2043",79.98169,50.32318
"2044",79.89868,50.336548
"2045",79.77661,50.349854
"2046",79.62524,50.36322
"2047",79.45922,50.376526
"2048",79.293205,50.389893
"2049",79.13695,50.4032
"2050",78.992905,50.416504
"2051",78.86351,50.42987
"2052",78.751205,50.443176
"2053",78.66331,50.456543
"2054",78.59983,50.46985
"2055",78.54612,50.483215
"2056",78.51194,50.49652
"2057",78.48997,50.509888
"2058",78.47532,50.523193
"2059",78.46311,50.5365
"2060",78.45579,50.549866
"2061",78.46067,50.56317
"2062",78.521706,50.576538
"2063",78.68772,50.589844
"2064",79.02464,50.60321
"2065",79.56664,50.616516
"2066",80.30396,50.629883
"2067",81.15114,50.64319
"2068",81.991,50.656494
"2069",82.69413,50.66986
"2070",83.16289,50.683167
"2071",83.36065,50.696533
"2072",83.302055,50.70984
"2073",83.038376,50.723206
"2074",82.64774,50.73651
"2075",82.18875,50.749817
"2076",81.72488,50.763184
"2077",81.29763,50.77649
"2078",80.92897,50.789856
"2079",80.62867,50.80316
"2080",80.38453,50.81653
"2081",80.181885,50.829834
"2082",80.0061,50.84314
"2083",79.85718,50.856506
"2084",79.7351,50.869812
"2085",79.65209,50.88318
"2086",79.61791,50.896484
"2087",79.63744,50.90985
"2088",79.69848,50.923157
"2089",79.781494,50.936523
"2090",79.8645,50.94983
"2091",79.923096,50.963135
"2092",79.94507,50.9765
"2093",79.91821,50.989807
"2094",79.84009,51.003174
"2095",79.71801,51.01648
"2096",79.56176,51.029846
"2097",79.38354,51.04315
"2098",79.202866,51.05652
"2099",79.03197,51.069824
"2100",78.88304,51.08313
"2101",78.75365,51.096497
"2102",78.64866,51.109802
"2103",78.56321,51.12317
"2104",78.49973,51.136475
"2105",78.44358,51.14984
"2106",78.399635,51.163147
"2107",78.35813,51.176453
"2108",78.32639,51.18982
"2109",78.30442,51.203125
"2110",78.294655,51.21649
"2111",78.29954,51.229797
"2112",78.31907,51.243164
"2113",78.345924,51.25647
"2114",78.37766,51.269775
"2115",78.40696,51.283142
"2116",78.4387,51.296448
"2117",78.46555,51.309814
"2118",78.48264,51.32312
"2119",78.49241,51.336487
"2120",78.48997,51.349792
"2121",78.49729,51.36316
"2122",78.555885,51.376465
"2123",78.73167,51.38977
"2124",79.09544,51.403137
"2125",79.67895,51.416443
"2126",80.445564,51.42981
"2127",81.31228,51.443115
"2128",82.15213,51.456482
"2129",82.828415,51.469788
"2130",83.25323,51.483154
"2131",83.40215,51.49646
"2132",83.30694,51.509766
"2133",83.021286,51.523132
"2134",82.62821,51.536438
"2135",82.193634,51.549805
"2136",81.77615,51.56311
"2137",81.409935,51.576477
"2138",81.109634,51.589783
"2139",80.87526,51.60309
"2140",80.689705,51.616455
"2141",80.533455,51.62976
"2142",80.38941,51.643127
"2143",80.25269,51.656433
"2144",80.12329,51.6698
"2145",80.01343,51.683105
"2146",79.937744,51.69641
"2147",79.903564,51.709778
"2148",79.906006,51.723083
"2149",79.93286,51.73645
"2150",79.96948,51.749756
"2151",79.99878,51.763123
"2152",79.99878,51.77643
"2153",79.95972,51.789795
"2154",79.87915,51.8031
"2155",79.764404,51.816406
"2156",79.622795,51.829773
"2157",79.4641,51.84308
"2158",79.30053,51.856445
"2159",79.14427,51.86975
"2160",79.00023,51.883118
"2161",78.86839,51.896423
"2162",78.75609,51.90979
"2163",78.658424,51.923096
"2164",78.58274,51.9364
"2165",78.51682,51.949768
"2166",78.46555,51.963074
"2167",78.42649,51.97644
"2168",78.40452,51.989746
"2169",78.39231,52.003113
"2170",78.39475,52.01642
"2171",78.40452,52.029724
"2172",78.42405,52.04309
"2173",78.4387,52.056396
"2174",78.45335,52.069763
"2175",78.467995,52.08307
"2176",78.4802,52.096436
"2177",78.49241,52.10974
"2178",78.502174,52.123047
"2179",78.5095,52.136414
"2180",78.51438,52.14972
"2181",78.51194,52.163086
"2182",78.504616,52.17639
"2183",78.49485,52.18976
"2184",78.487526,52.203064
"2185",78.47532,52.21643
"2186",78.46555,52.229736
"2187",78.46067,52.243042
"2188",78.46311,52.25641
"2189",78.46555,52.269714
"2190",78.47532,52.28308
"2191",78.487526,52.296387
"2192",78.49973,52.309753
"2193",78.50706,52.32306
"2194",78.51194,52.336426
"2195",78.52659,52.34973
"2196",78.58518,52.363037
"2197",78.75365,52.376404
"2198",79.10765,52.38971
"2199",79.69848,52.403076
"2200",80.5066,52.41638
"2201",81.45876,52.42975
"2202",82.41337,52.443054
"2203",83.226364,52.45636
"2204",83.78302,52.469727
"2205",84.03937,52.483032
"2206",84.01495,52.4964
"2207",83.773254,52.509705
"2208",83.38506,52.52307
"2209",82.930954,52.536377
"2210",82.46952,52.549683
"2211",82.04471,52.56305
"2212",81.68093,52.576355
"2213",81.38796,52.58972
"2214",81.163345,52.603027
"2215",80.987564,52.616394
"2216",80.84352,52.6297
"2217",80.709236,52.643066
"2218",80.58228,52.656372
"2219",80.462654,52.669678
"2220",80.365,52.683044
"2221",80.30152,52.69635
"2222",80.27711,52.709717
"2223",80.28443,52.723022
"2224",80.31129,52.73639
"2225",80.3357,52.749695
"2226",80.3357,52.76306
"2227",80.30152,52.776367
"2228",80.22827,52.789673
"2229",80.11597,52.80304
"2230",79.971924,52.816345
"2231",79.80347,52.829712
"2232",79.622795,52.843018
"2233",79.44213,52.856384
"2234",79.26879,52.86969
"2235",79.11253,52.882996
"2236",78.975815,52.896362
"2237",78.853745,52.909668
"2238",78.746315,52.923035
"2239",78.660866,52.93634
"2240",78.59739,52.949707
"2241",78.553444,52.963013
"2242",78.52903,52.97632
"2243",78.51438,52.989685
"2244",78.5095,53.00299
"2245",78.504616,53.016357
"2246",78.504616,53.029663
"2247",78.5095,53.04303
"2248",78.521706,53.056335
"2249",78.54124,53.069702
"2250",78.56809,53.083008
"2251",78.59251,53.096313
"2252",78.61204,53.10968
"2253",78.626686,53.122986
"2254",78.63401,53.136353
"2255",78.63645,53.14966
"2256",78.626686,53.163025
"2257",78.61448,53.17633
"2258",78.59983,53.189697
"2259",78.5803,53.203003
"2260",78.55833,53.21631
"2261",78.54368,53.229675
"2262",78.536354,53.24298
"2263",78.53391,53.256348
"2264",78.53391,53.269653
"2265",78.54368,53.28302
"2266",78.55833,53.296326
"2267",78.572975,53.30963
"2268",78.58518,53.322998
"2269",78.59739,53.336304
"2270",78.60471,53.34967
"2271",78.60471,53.362976
"2272",78.607155,53.376343
"2273",78.61204,53.38965
"2274",78.624245,53.402954
"2275",78.66575,53.41632
"2276",78.802475,53.429626
"2277",79.09544,53.442993
"2278",79.603264,53.4563
"2279",80.32838,53.469666
"2280",81.19997,53.48297
"2281",82.1033,53.496338
"2282",82.89433,53.509644
"2283",83.455864,53.52295
"2284",83.74151,53.536316
"2285",83.758606,53.54962
"2286",83.55596,53.56299
"2287",83.20195,53.576294
"2288",82.76982,53.58966
"2289",82.31571,53.602966
"2290",81.88602,53.616333
"2291",81.5198,53.62964
"2292",81.22682,53.642944
"2293",81.004654,53.65631
"2294",80.8362,53.669617
"2295",80.69947,53.682983
"2296",80.5774,53.69629
"2297",80.46021,53.709656
"2298",80.34791,53.72296
"2299",80.255135,53.736267
"2300",80.18677,53.749634
"2301",80.15015,53.76294
"2302",80.14282,53.776306
"2303",80.15503,53.78961
"2304",80.17456,53.80298
"2305",80.184326,53.816284
"2306",80.177,53.82959
"2307",80.14038,53.842957
"2308",80.07202,53.856262
"2309",79.96704,53.86963
"2310",79.835205,53.882935
"2311",79.68627,53.8963
"2312",79.52758,53.909607
"2313",79.37133,53.922974
"2314",79.22728,53.93628
"2315",79.10033,53.949585
"2316",78.99046,53.96295
"2317",78.89769,53.976257
"2318",78.82445,53.989624
"2319",78.768295,54.00293
"2320",78.729225,54.016296
"2321",78.695045,54.029602
"2322",78.67063,54.04297
"2323",78.65598,54.056274
"2324",78.6511,54.06958
"2325",78.6511,54.082947
"2326",78.66331,54.096252
"2327",78.68284,54.10962
"2328",78.70481,54.122925
"2329",78.72678,54.13629
"2330",78.746315,54.149597
"2331",78.765854,54.162903
"2332",78.785385,54.17627
"2333",78.802475,54.189575
"2334",78.82201,54.20294
"2335",78.836655,54.216248
"2336",78.8513,54.229614
"2337",78.86107,54.24292
"2338",78.86839,54.256226
"2339",78.870834,54.269592
"2340",78.870834,54.282898
"2341",78.86351,54.296265
"2342",78.856186,54.30957
"2343",78.853745,54.322937
"2344",78.84886,54.336243
"2345",78.84642,54.34961
"2346",78.84154,54.362915
"2347",78.836655,54.37622
"2348",78.83421,54.389587
"2349",78.836655,54.402893
"2350",78.84642,54.41626
"2351",78.86351,54.429565
"2352",78.88304,54.442932
"2353",78.89525,54.456238
"2354",78.91722,54.469604
"2355",78.97826,54.48291
"2356",79.13939,54.496216
"2357",79.46899,54.509583
"2358",80.008545,54.52289
"2359",80.743416,54.536255
"2360",81.60525,54.54956
"2361",82.47196,54.562927
"2362",83.209274,54.576233
"2363",83.719536,54.58954
"2364",83.963684,54.602905
"2365",83.95636,54.61621
"2366",83.74151,54.629578
"2367",83.38506,54.642883
"2368",82.950485,54.65625
"2369",82.49149,54.669556
"2370",82.054474,54.68286
"2371",81.67361,54.696228
"2372",81.35378,54.709534
"2373",81.10475,54.7229
"2374",80.90944,54.736206
"2375",80.7483,54.749573
"2376",80.6067,54.76288
"2377",80.4773,54.776245
"2378",80.36256,54.78955
"2379",80.26978,54.802856
"2380",80.2063,54.816223
"2381",80.177,54.82953
"2382",80.184326,54.842896
"2383",80.21362,54.8562
"2384",80.2478,54.869568
"2385",80.2649,54.882874
"2386",80.257576,54.89624
"2387",80.21362,54.909546
"2388",80.128174,54.92285
"2389",80.01343,54.93622
"2390",79.88159,54.949524
"2391",79.742424,54.96289
"2392",79.59594,54.976196
"2393",79.45434,54.989563
"2394",79.3225,55.00287
"2395",79.202866,55.016174
"2396",79.09544,55.02954
"2397",79.009995,55.042847
"2398",78.93919,55.056213
"2399",78.88304,55.06952
"2400",78.839096,55.082886
"2401",78.80492,55.09619
"2402",78.77318,55.109497
"2403",78.746315,55.122864
"2404",78.72678,55.13617
"2405",78.71458,55.149536
"2406",78.71458,55.16284
"2407",78.7219,55.17621
"2408",78.74143,55.189514
"2409",78.76341,55.20288
"2410",78.78294,55.216187
"2411",78.80003,55.229492
"2412",78.81712,55.24286
"2413",78.83421,55.256165
"2414",78.84886,55.26953
"2415",78.86351,55.282837
"2416",78.87572,55.296204
"2417",78.8806,55.30951
"2418",78.88548,55.322876
"2419",78.88304,55.33618
"2420",78.8806,55.349487
"2421",78.88304,55.362854
"2422",78.89281,55.37616
"2423",78.90257,55.389526
"2424",78.91234,55.402832
"2425",78.91966,55.4162
"2426",78.91966,55.429504
"2427",78.91722,55.44281
"2428",78.91234,55.456177
"2429",78.91234,55.469482
"2430",78.91234,55.48285
"2431",78.91234,55.496155
"2432",78.924545,55.50952
"2433",78.992905,55.522827
"2434",79.183334,55.536133
"2435",79.55932,55.5495
"2436",80.15015,55.562805
"2437",80.921646,55.57617
"2438",81.78348,55.589478
"2439",82.6038,55.602844
"2440",83.265434,55.61615
"2441",83.682915,55.629517
"2442",83.84161,55.642822
"2443",83.76837,55.656128
"2444",83.51934,55.669495
"2445",83.15068,55.6828
"2446",82.72343,55.696167
"2447",82.27909,55.709473
"2448",81.85428,55.72284
"2449",81.47341,55.736145
"2450",81.14137,55.74951
"2451",80.86549,55.762817
"2452",80.638435,55.776123
"2453",80.46021,55.78949
"2454",80.31617,55.802795
"2455",80.21362,55.816162
"2456",80.15503,55.829468
"2457",80.14526,55.842834
"2458",80.17944,55.85614
"2459",80.257576,55.869446
"2460",80.360115,55.882812
"2461",80.46754,55.89612
"2462",80.55787,55.909485
"2463",80.61158,55.92279
"2464",80.61646,55.936157
"2465",80.57252,55.949463
"2466",80.482185,55.96277
"2467",80.35523,55.976135
"2468",80.201416,55.98944
"2469",80.03296,56.002808
"2470",79.85962,56.016113
"2471",79.691154,56.02948
"2472",79.534904,56.042786
"2473",79.395744,56.056152
"2474",79.27123,56.069458
"2475",79.168686,56.082764
"2476",79.080795,56.09613
"2477",79.01732,56.109436
"2478",78.97093,56.122803
"2479",78.941635,56.13611
"2480",78.924545,56.149475
"2481",78.91966,56.16278
"2482",78.91966,56.176147
"2483",78.92699,56.189453
"2484",78.93919,56.20276
"2485",78.95628,56.216125
"2486",78.9807,56.22943
"2487",79.00511,56.242798
"2488",79.029526,56.256104
"2489",79.05638,56.26947
"2490",79.078354,56.282776
"2491",79.093,56.29608
"2492",79.10033,56.30945
"2493",79.10521,56.322754
"2494",79.10765,56.33612
"2495",79.11009,56.349426
"2496",79.11009,56.362793
"2497",79.10521,56.3761
"2498",79.097885,56.389404
"2499",79.07591,56.40277
"2500",79.04906,56.416077
"2501",79.01488,56.429443
"2502",78.9807,56.44275
"2503",78.941635,56.456116
"2504",78.90257,56.46942
"2505",78.86595,56.482788
"2506",78.84154,56.496094
"2507",78.853745,56.5094
"2508",78.94896,56.522766
"2509",79.18822,56.53607
"2510",79.62035,56.54944
"2511",80.24536,56.562744
"2512",81.0193,56.57611
"2513",81.84451,56.589417
"2514",82.59647,56.602783
"2515",83.16289,56.61609
"2516",83.49004,56.629395
"2517",83.56817,56.64276
"2518",83.43389,56.656067
"2519",83.14824,56.669434
"2520",82.760056,56.68274
"2521",82.32548,56.696106
"2522",81.881134,56.70941
"2523",81.45876,56.722717
"2524",81.07301,56.736084
"2525",80.743416,56.74939
"2526",80.465096,56.762756
"2527",80.23804,56.776062
"2528",80.05493,56.78943
"2529",79.920654,56.802734
"2530",79.84009,56.81604
"2531",79.82056,56.829407
"2532",79.869385,56.842712
"2533",79.97681,56.85608
"2534",80.130615,56.869385
"2535",80.2942,56.88275
"2536",80.44312,56.896057
"2537",80.55543,56.909424
"2538",80.61158,56.92273
"2539",80.61158,56.936035
"2540",80.552986,56.9494
"2541",80.445564,56.962708
"2542",80.30152,56.976074
"2543",80.1355,56.98938
"2544",79.96216,57.002747
"2545",79.7937,57.016052
"2546",79.63744,57.02942
"2547",79.49584,57.042725
"2548",79.37377,57.05603
"2549",79.26879,57.069397
"2550",79.183334,57.082703
"2551",79.11742,57.09607
"2552",79.07103,57.109375
"2553",79.03685,57.12274
"2554",79.009995,57.136047
"2555",78.992905,57.149353
"2556",78.97826,57.16272
"2557",78.96849,57.176025
"2558",78.96605,57.189392
"2559",78.975815,57.202698
"2560",78.995346,57.216064
"2561",79.027084,57.22937
"2562",79.063705,57.242676
"2563",79.10277,57.256042
"2564",79.13695,57.26935
"2565",79.166245,57.282715
"2566",79.1931,57.29602
"2567",79.21263,57.309387
"2568",79.22972,57.322693
"2569",79.24681,57.33606
"2570",79.259026,57.349365
"2571",79.26391,57.36267
"2572",79.26147,57.376038
"2573",79.256584,57.389343
"2574",79.24437,57.40271
"2575",79.24681,57.416016
"2576",79.30053,57.429382
"2577",79.46166,57.442688
"2578",79.783936,57.456055
"2579",80.28443,57.46936
"2580",80.94362,57.482666
"2581",81.67605,57.496033
"2582",82.374306,57.50934
"2583",82.930954,57.522705
"2584",83.27764,57.53601
"2585",83.39727,57.549377
"2586",83.31182,57.562683
"2587",83.06279,57.57599
"2588",82.71122,57.589355
"2589",82.30106,57.60266
"2590",81.86893,57.616028
"2591",81.446556,57.629333
"2592",81.058365,57.6427
"2593",80.709236,57.656006
"2594",80.40894,57.66931
"2595",80.15747,57.68268
"2596",79.95239,57.695984
"2597",79.798584,57.70935
"2598",79.7058,57.722656
"2599",79.68627,57.736023
"2600",79.73754,57.74933
"2601",79.85474,57.762695
"2602",80.01831,57.776
"2603",80.20386,57.789307
"2604",80.37476,57.802673
"2605",80.5066,57.81598
"2606",80.58228,57.829346
"2607",80.58961,57.84265
"2608",80.5359,57.856018
"2609",80.42359,57.869324
"2610",80.274666,57.88269
"2611",80.10376,57.895996
"2612",79.93042,57.9093
"2613",79.764404,57.92267
"2614",79.61303,57.935974
"2615",79.47875,57.94934
"2616",79.364006,57.962646
"2617",79.26879,57.976013
"2618",79.1931,57.98932
"2619",79.13451,58.002625
"2620",79.093,58.01599
"2621",79.063705,58.029297
"2622",79.04173,58.042664
"2623",79.02464,58.05597
"2624",79.009995,58.069336
"2625",79.00023,58.08264
"2626",78.995346,58.095947
"2627",79.00023,58.109314
"2628",79.012436,58.12262
"2629",79.03441,58.135986
"2630",79.06615,58.149292
"2631",79.097885,58.16266
"2632",79.1223,58.175964
"2633",79.13939,58.18933
"2634",79.14671,58.202637
"2635",79.15892,58.215942
"2636",79.20531,58.22931
"2637",79.327385,58.242615
"2638",79.57885,58.25598
"2639",79.98657,58.269287
"2640",80.54322,58.282654
"2641",81.19508,58.29596
"2642",81.85916,58.309326
"2643",82.43534,58.32263
"2644",82.84062,58.335938
"2645",83.038376,58.349304
"2646",83.02617,58.36261
"2647",82.83818,58.375977
"2648",82.52079,58.389282
"2649",82.13016,58.40265
"2650",81.705345,58.415955
"2651",81.28542,58.42926
"2652",80.88991,58.442627
"2653",80.53101,58.455933
"2654",80.21118,58.4693
"2655",79.940186,58.482605
"2656",79.72045,58.49597
"2657",79.55932,58.509277
"2658",79.466545,58.522583
"2659",79.4519,58.53595
"2660",79.51537,58.549255
"2661",79.656975,58.562622
"2662",79.852295,58.575928
"2663",80.079346,58.589294
"2664",80.29908,58.6026
"2665",80.479744,58.615967
"2666",80.59449,58.629272
"2667",80.63355,58.64258
"2668",80.59693,58.655945
"2669",80.499275,58.66925
"2670",80.35767,58.682617
"2671",80.19165,58.695923
"2672",80.02075,58.70929
"2673",79.85474,58.722595
"2674",79.70336,58.735962
"2675",79.569084,58.749268
"2676",79.447014,58.762573
"2677",79.34203,58.77594
"2678",79.24437,58.789246
"2679",79.166245,58.802612
"2680",79.10277,58.815918
"2681",79.061264,58.829285
"2682",79.03685,58.84259
"2683",79.027084,58.855896
"2684",79.02464,58.869263
"2685",79.0222,58.88257
"2686",79.0222,58.895935
"2687",79.02464,58.90924
"2688",79.03441,58.922607
"2689",79.05882,58.935913
"2690",79.12718,58.94922
"2691",79.28588,58.962585
"2692",79.57885,58.97589
"2693",80.03784,58.989258
"2694",80.64576,59.002563
"2695",81.35134,59.01593
"2696",82.054474,59.029236
"2697",82.64774,59.042603
"2698",83.055466,59.05591
"2699",83.23857,59.069214
"2700",83.20439,59.08258
"2701",82.99199,59.095886
"2702",82.65751,59.109253
"2703",82.24979,59.12256
"2704",81.812775,59.135925
"2705",81.38064,59.14923
"2706",80.972916,59.162598
"2707",80.601814,59.175903
"2708",80.27955,59.18921
"2709",80.0061,59.202576
"2710",79.7937,59.21588
"2711",79.64477,59.229248
"2712",79.569084,59.242554
"2713",79.57641,59.25592
"2714",79.66186,59.269226
"2715",79.815674,59.28253
"2716",80.01587,59.2959
"2717",80.23071,59.309204
"2718",80.42603,59.32257
"2719",80.57496,59.335876
"2720",80.66285,59.349243
"2721",80.6775,59.36255
"2722",80.62623,59.375854
"2723",80.516365,59.38922
"2724",80.365,59.402527
"2725",80.19409,59.415894
"2726",80.02075,59.4292
"2727",79.85718,59.442566
"2728",79.708244,59.45587
"2729",79.57641,59.46924
"2730",79.466545,59.482544
"2731",79.37133,59.49585
"2732",79.290764,59.509216
"2733",79.22972,59.522522
"2734",79.183334,59.53589
"2735",79.14671,59.549194
"2736",79.11742,59.56256
"2737",79.09544,59.575867
"2738",79.078354,59.589233
"2739",79.07103,59.60254
"2740",79.080795,59.615845
"2741",79.14671,59.62921
"2742",79.31274,59.642517
"2743",79.63256,59.655884
"2744",80.12573,59.66919
"2745",80.76784,59.682556
"2746",81.48806,59.69586
"2747",82.18143,59.709167
"2748",82.74052,59.722534
"2749",83.09209,59.73584
"2750",83.211716,59.749207
"2751",83.11162,59.762512
"2752",82.847946,59.77588
"2753",82.46708,59.789185
"2754",82.02762,59.80249
"2755",81.56863,59.815857
"2756",81.13161,59.829163
"2757",80.72877,59.84253
"2758",80.37476,59.855835
"2759",80.07202,59.8692
"2760",79.82544,59.882507
"2761",79.635,59.895874
"2762",79.51049,59.90918
"2763",79.4519,59.922485
"2764",79.466545,59.935852
"2765",79.54955,59.949158
"2766",79.693596,59.962524
"2767",79.87427,59.97583
"2768",80.062256,59.989197
"2769",80.22827,60.002502
"2770",80.34547,60.01587
"2771",80.396736,60.029175
"2772",80.377205,60.04248
"2773",80.2942,60.055847
"2774",80.16724,60.069153
"2775",80.01099,60.08252
"2776",79.84009,60.095825
"2777",79.67162,60.10919
"2778",79.51293,60.122498
"2779",79.37133,60.135803
"2780",79.24437,60.14917
"2781",79.13451,60.162476
"2782",79.04173,60.175842
"2783",78.97093,60.189148
"2784",78.91478,60.202515
"2785",78.86839,60.21582
"2786",78.80003,60.242493
"2787",78.7805,60.2558
"2788",78.78783,60.269165
"2789",78.870834,60.28247
"2790",79.080795,60.295837
"2791",79.466545,60.309143
"2792",80.0354,60.32251
"2793",80.74586,60.335815
"2794",81.512474,60.34912
"2795",82.21561,60.362488
"2796",82.757614,60.375793
"2797",83.072556,60.38916
"2798",83.1458,60.402466
"2799",83.01396,60.415833
"2800",82.72587,60.42914
"2801",82.33524,60.442505
"2802",81.89578,60.45581
"2803",81.45144,60.469116
"2804",81.03151,60.482483
"2805",80.65797,60.49579
"2806",80.33326,60.509155
"2807",80.0647,60.52246
"2808",79.84741,60.535828
"2809",79.68139,60.549133
"2810",79.569084,60.56244
"2811",79.5227,60.575806
"2812",79.54223,60.58911
"2813",79.62524,60.602478
"2814",79.75708,60.615784
"2815",79.91333,60.62915
"2816",80.062256,60.642456
"2817",80.177,60.65576
"2818",80.24292,60.66913
"2819",80.24536,60.682434
"2820",80.17944,60.6958
"2821",80.059814,60.709106
"2822",79.89624,60.722473
"2823",79.708244,60.73578
"2824",79.51049,60.749146
"2825",79.327385,60.76245
"2826",79.15648,60.775757
"2827",79.00755,60.789124
"2828",78.87816,60.80243
"2829",78.76341,60.815796
"2830",78.66819,60.8291
"2831",78.59495,60.84247
"2832",78.54368,60.855774
"2833",78.50706,60.86914
"2834",78.485085,60.882446
"2835",78.485085,60.895752
"2836",78.54612,60.90912
"2837",78.709694,60.922424
"2838",79.03929,60.93579
"2839",79.551994,60.949097
"2840",80.235596,60.962463
"2841",81.01686,60.97577
"2842",81.7908,60.989075
"2843",82.44022,61.00244
"2844",82.882126,61.015747
"2845",83.072556,61.029114
"2846",83.021286,61.04242
"2847",82.77959,61.055786
"2848",82.406044,61.06909
"2849",81.971466,61.082397
"2850",81.53689,61.095764
"2851",81.13161,61.10907
"2852",80.7776,61.122437
"2853",80.4773,61.135742
"2854",80.22583,61.14911
"2855",80.01099,61.162415
"2856",79.83276,61.17578
"2857",79.69604,61.189087
"2858",79.61059,61.202393
"2859",79.586174,61.21576
"2860",79.62035,61.229065
"2861",79.708244,61.24243
"2862",79.83032,61.255737
"2863",79.957275,61.269104
"2864",80.059814,61.28241
"2865",80.12573,61.295776
"2866",80.13306,61.309082
"2867",80.076904,61.322388
"2868",79.96216,61.335754
"2869",79.80591,61.34906
"2870",79.61791,61.362427
"2871",79.42016,61.375732
"2872",79.22972,61.3891
"2873",79.05394,61.402405
"2874",78.907455,61.41571
"2875",78.785385,61.429077
"2876",78.68528,61.442383
"2877",78.60227,61.45575
"2878",78.53391,61.469055
"2879",78.47776,61.48242
"2880",78.43137,61.495728
"2881",78.399635,61.509033
"2882",78.38499,61.5224
"2883",78.382545,61.535706
"2884",78.4094,61.549072
"2885",78.49241,61.562378
"2886",78.69016,61.575745
"2887",79.05394,61.58905
"2888",79.61547,61.602417
"2889",80.34547,61.615723
"2890",81.17555,61.62903
"2891",81.98367,61.642395
"2892",82.650185,61.6557
"2893",83.089645,61.669067
"2894",83.267876,61.682373
"2895",83.20439,61.69574
"2896",82.95293,61.709045
"2897",82.579384,61.722412
"2898",82.15213,61.735718
"2899",81.72976,61.749023
"2900",81.3489,61.76239
"2901",81.02663,61.775696
"2902",80.76784,61.789062
"2903",80.55787,61.80237
"2904",80.37965,61.815735
"2905",80.218506,61.82904
"2906",80.076904,61.842346
"2907",79.957275,61.855713
"2908",79.871826,61.86902
"2909",79.83032,61.882385
"2910",79.83276,61.89569
"2911",79.86694,61.909058
"2912",79.920654,61.922363
"2913",79.96948,61.93567
"2914",79.99634,61.949036
"2915",79.98413,61.96234
"2916",79.92554,61.975708
"2917",79.815674,61.989014
"2918",79.66918,62.00238
"2919",79.48852,62.015686
"2920",79.29565,62.029053
"2921",79.097885,62.04236
"2922",78.9099,62.055664
"2923",78.74143,62.06903
"2924",78.59739,62.082336
"2925",78.47776,62.095703
"2926",78.38743,62.10901
"2927",78.32395,62.122375
"2928",78.28489,62.13568
"2929",78.26536,62.149048
"2930",78.26536,62.162354
"2931",78.28245,62.17566
"2932",78.3093,62.189026
"2933",78.3386,62.20233
"2934",78.3679,62.2157
"2935",78.397194,62.229004
"2936",78.41917,62.24237
"2937",78.433815,62.255676
"2938",78.44358,62.268982
"2939",78.46555,62.28235
"2940",78.53391,62.295654
"2941",78.71702,62.30902
"2942",79.07347,62.322327
"2943",79.635,62.335693
"2944",80.377205,62.349
"2945",81.21706,62.362305
"2946",82.03494,62.37567
"2947",82.701454,62.388977
"2948",83.13847,62.402344
"2949",83.31426,62.41565
"2950",83.250786,62.429016
"2951",83.00908,62.44232
"2952",82.65751,62.45569
"2953",82.269325,62.468994
"2954",81.89578,62.4823
"2955",81.57595,62.495667
"2956",81.322044,62.508972
"2957",81.129166,62.52234
"2958",80.97536,62.535645
"2959",80.83864,62.54901
"2960",80.69703,62.562317
"2961",80.54566,62.575684
"2962",80.38697,62.58899
"2963",80.12573,62.61566
"2964",80.05005,62.628967
"2965",80.01587,62.642334
"2966",80.01099,62.65564
"2967",80.01587,62.669006
"2968",80.01099,62.682312
"2969",79.98413,62.695618
"2970",79.93042,62.708984
"2971",79.84253,62.72229
"2972",79.72045,62.735657
"2973",79.569084,62.748962
"2974",79.395744,62.76233
"2975",79.21019,62.775635
"2976",79.027084,62.78894
"2977",78.86107,62.802307
"2978",78.71702,62.815613
"2979",78.59983,62.82898
"2980",78.502174,62.842285
"2981",78.42405,62.85565
"2982",78.363014,62.868958
"2983",78.31907,62.882324
"2984",78.28977,62.89563
"2985",78.277565,62.908936
"2986",78.27512,62.922302
"2987",78.28001,62.935608
"2988",78.28489,62.948975
"2989",78.28733,62.96228
"2990",78.28977,62.975647
"2991",78.29221,62.988953
"2992",78.294655,63.00232
"2993",78.2971,63.015625
"2994",78.2971,63.02893
"2995",78.29221,63.042297
"2996",78.28977,63.055603
"2997",78.28733,63.06897
"2998",78.28245,63.082275
"2999",78.277565,63.095642
"3000",78.2678,63.108948
"3001",78.25071,63.122253
"3002",78.23361,63.13562
"3003",78.21896,63.148926
"3004",78.21164,63.162292
"3005",78.21164,63.1756
"3006",78.21896,63.188965
"3007",78.22873,63.20227
"3008",78.22873,63.215576
"3009",78.22873,63.228943
"3010",78.22873,63.24225
"3011",78.238495,63.255615
"3012",78.30442,63.26892
"3013",78.49241,63.282288
"3014",78.873276,63.295593
"3015",79.48852,63.30896
"3016",80.323494,63.322266
"3017",81.290306,63.33557
"3018",82.25468,63.348938
"3019",83.070114,63.362244
"3020",83.6292,63.37561
"3021",83.89044,63.388916
"3022",83.87335,63.402283
"3023",83.64385,63.41559
"3024",83.284966,63.428955
"3025",82.86748,63.44226
"3026",82.459755,63.455566
"3027",82.09598,63.468933
"3028",81.80301,63.48224
"3029",81.58572,63.495605
"3030",81.42947,63.50891
"3031",81.304955,63.522278
"3032",81.18288,63.535583
"3033",81.04616,63.54889
"3034",80.89235,63.562256
"3035",80.73121,63.57556
"3036",80.58961,63.58893
"3037",80.4773,63.602234
"3038",80.40894,63.6156
"3039",80.37965,63.628906
"3040",80.37232,63.642212
"3041",80.36744,63.65558
"3042",80.35523,63.668884
"3043",80.31373,63.68225
"3044",80.23804,63.695557
"3045",80.12329,63.708923
"3046",79.98169,63.72223
"3047",79.82056,63.735596
"3048",79.64477,63.7489
"3049",79.4641,63.762207
"3050",79.293205,63.775574
"3051",79.132065,63.78888
"3052",78.99046,63.802246
"3053",78.86839,63.81555
"3054",78.77074,63.82892
"3055",78.695045,63.842224
"3056",78.63645,63.85559
"3057",78.59983,63.868896
"3058",78.57786,63.882202
"3059",78.56321,63.89557
"3060",78.555885,63.908875
"3061",78.55833,63.92224
"3062",78.56077,63.935547
"3063",78.57053,63.948914
"3064",78.57786,63.96222
"3065",78.58274,63.975525
"3066",78.58274,63.98889
"3067",78.57786,64.0022
"3068",78.56809,64.015564
"3069",78.553444,64.02887
"3070",78.538795,64.04224
"3071",78.52659,64.05554
"3072",78.51194,64.06885
"3073",78.49241,64.082214
"3074",78.47288,64.09552
"3075",78.450905,64.10889
"3076",78.42893,64.12219
"3077",78.4094,64.13556
"3078",78.39475,64.148865
"3079",78.38743,64.16223
"3080",78.382545,64.17554
"3081",78.380104,64.18884
"3082",78.37766,64.20221
"3083",78.37766,64.215515
"3084",78.37522,64.22888
"3085",78.38499,64.24219
"3086",78.433815,64.255554
"3087",78.57053,64.26886
"3088",78.86351,64.28223
"3089",79.36645,64.29553
"3090",80.08423,64.30884
"3091",80.96071,64.322205
"3092",81.881134,64.33551
"3093",82.71366,64.34888
"3094",83.34112,64.36218
"3095",83.69512,64.37555
"3096",83.775696,64.388855
"3097",83.62676,64.40216
"3098",83.32159,64.41553
"3099",82.92851,64.42883
"3100",82.513466,64.4422
"3101",82.12283,64.455505
"3102",81.78836,64.46887
"3103",81.529564,64.48218
"3104",81.33425,64.49548
"3105",81.18776,64.50885
"3106",81.06813,64.522156
"3107",80.9485,64.53552
"3108",80.816666,64.54883
"3109",80.672615,64.562195
"3110",80.54078,64.5755
"3111",80.4358,64.58887
"3112",80.37476,64.60217
"3113",80.35767,64.61548
"3114",80.377205,64.628845
"3115",80.4065,64.64215
"3116",80.428474,64.65552
"3117",80.42359,64.66882
"3118",80.38697,64.68219
"3119",80.306404,64.695496
"3120",80.18677,64.70886
"3121",80.04028,64.72217
"3122",79.871826,64.73547
"3123",79.69848,64.74884
"3124",79.52758,64.762146
"3125",79.36889,64.77551
"3126",79.22484,64.78882
"3127",79.097885,64.802185
"3128",78.98558,64.81549
"3129",78.890366,64.8288
"3130",78.81224,64.84216
"3131",78.751205,64.85547
"3132",78.70237,64.868835
"3133",78.66819,64.88214
"3134",78.65354,64.89551
"3135",78.6511,64.90881
"3136",78.6511,64.92212
"3137",78.65598,64.935486
"3138",78.658424,64.94879
"3139",78.660866,64.96216
"3140",78.66331,64.975464
"3141",78.66575,64.98883
"3142",78.66575,65.00214
"3143",78.66575,65.0155
"3144",78.660866,65.02881
"3145",78.65354,65.042114
"3146",78.641335,65.05548
"3147",78.62913,65.06879
"3148",78.61448,65.08215
"3149",78.60471,65.09546
"3150",78.59983,65.108826
"3151",78.59983,65.12213
"3152",78.60471,65.1355
"3153",78.607155,65.1488
"3154",78.60227,65.16211
"3155",78.59495,65.175476
"3156",78.58518,65.18878
"3157",78.57542,65.20215
"3158",78.572975,65.215454
"3159",78.58518,65.22882
"3160",78.643776,65.24213
"3161",78.80003,65.25543
"3162",79.12474,65.2688
"3163",79.65942,65.282104
"3164",80.40162,65.29547
"3165",81.28542,65.30878
"3166",82.193634,65.32214
"3167",82.984665,65.33545
"3168",83.55108,65.348755
"3169",83.84161,65.36212
"3170",83.87091,65.37543
"3171",83.685356,65.388794
"3172",83.36065,65.4021
"3173",82.96025,65.41547
"3174",82.547646,65.42877
"3175",82.159454,65.44214
"3176",81.82742,65.455444
"3177",81.55398,65.46875
"3178",81.34646,65.48212
"3179",81.18532,65.49542
"3180",81.05592,65.50879
"3181",80.94118,65.522095
"3182",80.831314,65.53546
"3183",80.72877,65.54877
"3184",80.64088,65.56213
"3185",80.5774,65.57544
"3186",80.5481,65.588745
"3187",80.550545,65.60211
"3188",80.57496,65.61542
"3189",80.6067,65.628784
"3190",80.621346,65.64209
"3191",80.6067,65.65546
"3192",80.552986,65.66876
"3193",80.45533,65.68207
"3194",80.31861,65.695435
"3195",80.15259,65.70874
"3196",79.971924,65.72211
"3197",79.783936,65.73541
"3198",79.59838,65.74878
"3199",79.4226,65.762085
"3200",79.26391,65.77539
"3201",79.11986,65.78876
"3202",79.00267,65.80206
"3203",78.907455,65.81543
"3204",78.836655,65.828735
"3205",78.78783,65.8421
"3206",78.76097,65.85541
"3207",78.73899,65.868774
"3208",78.729225,65.88208
"3209",78.71946,65.895386
"3210",78.71458,65.90875
"3211",78.71458,65.92206
"3212",78.71702,65.935425
"3213",78.72434,65.94873
"3214",78.73411,65.9621
"3215",78.74876,65.9754
"3216",78.765854,65.98877
"3217",78.7805,66.002075
"3218",78.79271,66.01538
"3219",78.79759,66.02875
"3220",78.79515,66.04205
"3221",78.78783,66.05542
"3222",78.77562,66.068726
"3223",78.77074,66.08209
"3224",78.77074,66.0954
"3225",78.77074,66.1087
"3226",78.77318,66.12207
"3227",78.77318,66.135376
"3228",78.76097,66.14874
"3229",78.73899,66.16205
"3230",78.72434,66.175415
"3231",78.73899,66.18872
"3232",78.839096,66.20203
"3233",79.097885,66.21539
"3234",79.56176,66.2287
"3235",80.24048,66.242065
"3236",81.075455,66.25537
"3237",81.96414,66.26874
"3238",82.774704,66.28204
"3239",83.389946,66.29541
"3240",83.736626,66.308716
"3241",83.81232,66.32202
"3242",83.6585,66.33539
"3243",83.336235,66.348694
"3244",82.91875,66.36206
"3245",82.476845,66.37537
"3246",82.054474,66.38873
"3247",81.68337,66.40204
"3248",81.375755,66.415405
"3249",81.13893,66.42871
"3250",80.96315,66.44202
"3251",80.82643,66.45538
"3252",80.70191,66.46869
"3253",80.57984,66.482056
"3254",80.46021,66.49536
"3255",80.34547,66.50873
"3256",80.25025,66.52203
"3257",80.18921,66.53534
"3258",80.16235,66.548706
"3259",80.15503,66.56201
"3260",80.15747,66.57538
"3261",80.15747,66.588684
"3262",80.14526,66.60205
"3263",80.10376,66.61536
"3264",80.02075,66.62866
"3265",79.903564,66.64203
"3266",79.75708,66.655334
"3267",79.588615,66.6687
"3268",79.412834,66.68201
"3269",79.237045,66.69537
"3270",79.07591,66.70868
"3271",78.92943,66.722046
"3272",78.802475,66.73535
"3273",78.69749,66.74866
"3274",78.61936,66.762024
"3275",78.56077,66.77533
"3276",78.52659,66.7887
"3277",78.50706,66.802
"3278",78.49729,66.81537
"3279",78.49729,66.828674
"3280",78.50706,66.84204
"3281",78.51682,66.85535
"3282",78.52903,66.86865
"3283",78.54368,66.88202
"3284",78.55833,66.895325
"3285",78.56565,66.90869
"3286",78.572975,66.922
"3287",78.58518,66.93536
"3288",78.59495,66.94867
"3289",78.60227,66.961975
"3290",78.60471,66.97534
"3291",78.60471,66.98865
"3292",78.59983,67.002014
"3293",78.59739,67.01532
"3294",78.59495,67.02869
"3295",78.59739,67.04199
"3296",78.59739,67.0553
"3297",78.59495,67.068665
"3298",78.58518,67.08197
"3299",78.57542,67.09534
"3300",78.56321,67.10864
"3301",78.55833,67.12201
"3302",78.553444,67.135315
"3303",78.57542,67.14868
"3304",78.65598,67.16199
"3305",78.86351,67.17529
"3306",79.26147,67.18866
"3307",79.87671,67.201965
"3308",80.67994,67.21533
"3309",81.57351,67.22864
"3310",82.423134,67.242004
"3311",83.09453,67.25531
"3312",83.50713,67.26868
"3313",83.64385,67.28198
"3314",83.53887,67.29529
"3315",83.250786,67.308655
"3316",82.85771,67.32196
"3317",82.41337,67.33533
"3318",81.97391,67.34863
"3319",81.58083,67.362
"3320",81.25613,67.375305
"3321",81.00954,67.38861
"3322",80.833755,67.40198
"3323",80.709236,67.41528
"3324",80.60914,67.42865
"3325",80.51392,67.441956
"3326",80.411385,67.45532
"3327",80.29664,67.46863
"3328",80.18677,67.48193
"3329",80.08911,67.4953
"3330",80.01587,67.508606
"3331",79.971924,67.52197
"3332",79.94995,67.53528
"3333",79.940186,67.548645
"3334",79.92798,67.56195
"3335",79.89868,67.57532
"3336",79.84009,67.58862
"3337",79.75464,67.60193
"3338",79.64477,67.615295
"3339",79.51537,67.6286
"3340",79.37133,67.64197
"3341",79.2224,67.65527
"3342",79.07347,67.66864
"3343",78.93431,67.681946
"3344",78.8098,67.69531
"3345",78.70725,67.70862
"3346",78.61692,67.721924
"3347",78.54368,67.73529
"3348",78.485085,67.7486
"3349",78.44358,67.76196
"3350",78.41428,67.77527
"3351",78.40208,67.788635
"3352",78.4094,67.80194
"3353",78.42161,67.81525
"3354",78.4387,67.82861
"3355",78.46067,67.84192
"3356",78.48264,67.855286
"3357",78.49729,67.86859
"3358",78.5095,67.88196
"3359",78.521706,67.89526
"3360",78.52415,67.90857
"3361",78.53147,67.921936
"3362",78.54612,67.93524
"3363",78.56565,67.94861
"3364",78.58518,67.961914
"3365",78.60471,67.97528
"3366",78.61936,67.98859
"3367",78.62913,68.00195
"3368",78.63157,68.01526
"3369",78.63645,68.028564
"3370",78.643776,68.04193
"3371",78.658424,68.05524
"3372",78.67063,68.0686
"3373",78.677956,68.08191
"3374",78.677956,68.095276
"3375",78.675514,68.10858
"3376",78.692604,68.12195
"3377",78.7805,68.135254
"3378",79.01976,68.14856
"3379",79.45922,68.16193
"3380",80.113525,68.17523
"3381",80.936295,68.1886
"3382",81.8201,68.201904
"3383",82.62821,68.21527
"3384",83.24101,68.22858
"3385",83.59991,68.24188
"3386",83.69024,68.25525
"3387",83.55596,68.268555
"3388",83.25811,68.28192
"3389",82.86015,68.29523
"3390",82.425575,68.30859
"3391",82.00076,68.3219
"3392",81.619896,68.335205
"3393",81.29763,68.34857
"3394",81.04616,68.36188
"3395",80.85573,68.375244
"3396",80.709236,68.38855
"3397",80.587166,68.40192
"3398",80.47486,68.41522
"3399",80.36744,68.42859
"3400",80.26734,68.441895
"3401",80.17944,68.4552
"3402",80.11841,68.46857
"3403",80.08423,68.48187
"3404",80.079346,68.49524
"3405",80.09155,68.508545
"3406",80.1062,68.52191
"3407",80.113525,68.53522
"3408",80.09888,68.548584
"3409",80.05493,68.56189
"3410",79.97925,68.575195
"3411",79.88159,68.58856
"3412",79.75952,68.60187
"3413",79.622795,68.615234
"3414",79.47631,68.62854
"3415",79.327385,68.64191
"3416",79.183334,68.65521
"3417",79.061264,68.66852
"3418",78.958725,68.681885
"3419",78.8806,68.69519
"3420",78.82445,68.70856
"3421",78.785385,68.72186
"3422",78.75609,68.73523
"3423",78.73899,68.748535
"3424",78.729225,68.76184
"3425",78.729225,68.77521
"3426",78.74143,68.78851
"3427",78.76097,68.80188
"3428",78.785385,68.815186
"3429",78.8098,68.82855
"3430",78.836655,68.84186
"3431",78.86351,68.855225
"3432",78.887924,68.86853
"3433",78.905014,68.881836
"3434",78.922104,68.8952
"3435",78.93919,68.90851
"3436",78.95384,68.921875
"3437",78.97093,68.93518
"3438",78.98558,68.94855
"3439",79.00023,68.96185
"3440",79.012436,68.97522
"3441",79.01732,68.988525
"3442",79.0222,69.00183
"3443",79.0222,69.0152
"3444",79.0222,69.0285
"3445",79.01488,69.04187
"3446",79.009995,69.055176
"3447",79.00755,69.06854
"3448",79.027084,69.08185
"3449",79.11986,69.09515
"3450",79.3518,69.10852
"3451",79.77417,69.121826
"3452",80.396736,69.13519
"3453",81.16823,69.1485
"3454",81.98367,69.161865
"3455",82.7161,69.17517
"3456",83.250786,69.18848
"3457",83.53399,69.20184
"3458",83.56817,69.21515
"3459",83.39727,69.228516
"3460",83.075,69.24182
"3461",82.669716,69.25519
"3462",82.22781,69.26849
"3463",81.79324,69.28186
"3464",81.39773,69.295166
"3465",81.058365,69.30847
"3466",80.78493,69.32184
"3467",80.570076,69.335144
"3468",80.396736,69.34851
"3469",80.25269,69.36182
"3470",80.12329,69.37518
"3471",80.00366,69.38849
"3472",79.906006,69.401855
"3473",79.84985,69.41516
"3474",79.83765,69.42847
"3475",79.871826,69.44183
"3476",79.93042,69.45514
"3477",80.00366,69.468506
"3478",80.0647,69.48181
"3479",80.096436,69.49518
"3480",80.09155,69.508484
"3481",80.04761,69.52179
"3482",79.96704,69.53516
"3483",79.85962,69.54846
"3484",79.73022,69.56183
"3485",79.5935,69.575134
"3486",79.4519,69.5885
"3487",79.31274,69.60181
"3488",79.185776,69.61511
"3489",79.07347,69.62848
"3490",78.9807,69.641785
"3491",78.907455,69.65515
"3492",78.8513,69.66846
"3493",78.8098,69.68182
"3494",78.77562,69.69513
"3495",78.75853,69.708496
"3496",78.75365,69.7218
"3497",78.75853,69.73511
"3498",78.768295,69.748474
"3499",78.78783,69.76178
"3500",78.80736,69.77515
"3501",78.82689,69.78845
"3502",78.853745,69.80182
"3503",78.88548,69.815125
"3504",78.91722,69.82849
"3505",78.9514,69.8418
"3506",78.98558,69.8551
"3507",79.01488,69.86847
"3508",79.03929,69.881775
"3509",79.05638,69.89514
"3510",79.07591,69.90845
"3511",79.093,69.921814
"3512",79.10765,69.93512
"3513",79.114975,69.948425
"3514",79.11986,69.96179
"3515",79.11742,69.9751
"3516",79.10765,69.988464
"3517",79.10033,70.00177
"3518",79.12474,70.01514
"3519",79.22484,70.02844
"3520",79.4641,70.04175
"3521",79.888916,70.055115
"3522",80.499275,70.06842
"3523",81.248795,70.08179
"3524",82.0325,70.09509
"3525",82.73319,70.10846
"3526",83.24101,70.121765
"3527",83.50225,70.13513
"3528",83.5169,70.14844
"3529",83.32159,70.16174
"3530",82.9749,70.17511
"3531",82.545204,70.188416
"3532",82.08377,70.20178
"3533",81.636986,70.21509
"3534",81.22926,70.228455
"3535",80.8777,70.24176
"3536",80.58228,70.25513
"3537",80.3357,70.26843
"3538",80.13794,70.28174
"3539",79.97681,70.295105
"3540",79.852295,70.30841
"3541",79.76929,70.32178
"3542",79.73998,70.33508
"3543",79.764404,70.34845
"3544",79.83276,70.361755
"3545",79.9353,70.37506
"3546",80.05005,70.38843
"3547",80.15747,70.40173
"3548",80.24048,70.4151
"3549",80.28199,70.428406
"3550",80.26978,70.44177
"3551",80.20874,70.45508
"3552",80.09888,70.46838
"3553",79.957275,70.48175
"3554",79.79614,70.495056
"3555",79.635,70.50842
"3556",79.48119,70.52173
"3557",79.33715,70.535095
"3558",79.20775,70.5484
"3559",79.09544,70.56177
"3560",79.00511,70.57507
"3561",78.92699,70.58838
"3562",78.86595,70.601746
"3563",78.819565,70.61505
"3564",78.77806,70.62842
"3565",78.73899,70.64172
"3566",78.709694,70.65509
"3567",78.69749,70.668396
"3568",78.69749,70.68176
"3569",78.709694,70.69507
"3570",78.73411,70.708374
"3571",78.768295,70.72174
"3572",78.80736,70.73505
"3573",78.8513,70.74841
"3574",78.89769,70.76172
"3575",78.94652,70.775085
"3576",78.992905,70.78839
"3577",79.03197,70.8017
"3578",79.05882,70.81506
"3579",79.07347,70.82837
"3580",79.080795,70.841736
"3581",79.08568,70.85504
"3582",79.12474,70.86841
"3583",79.24437,70.881714
"3584",79.50805,70.89502
"3585",79.94507,70.90839
"3586",80.5481,70.92169
"3587",81.253685,70.93506
"3588",81.95926,70.948364
"3589",82.55009,70.96173
"3590",82.94316,70.97504
"3591",83.106735,70.9884
"3592",83.055466,71.00171
"3593",82.83086,71.015015
"3594",82.48417,71.02838
"3595",82.07156,71.04169
"3596",81.62966,71.05505
"3597",81.19997,71.06836
"3598",80.80446,71.081726
"3599",80.45045,71.09503
"3600",80.15503,71.1084
"3601",79.91089,71.121704
"3602",79.71801,71.13501
"3603",79.57397,71.14838
"3604",79.48852,71.16168
"3605",79.4641,71.17505
"3606",79.51049,71.188354
"3607",79.62524,71.20172
"3608",79.79126,71.21503
"3609",79.98901,71.22833
"3610",80.17944,71.2417
"3611",80.3357,71.255005
"3612",80.4358,71.26837
"3613",80.46998,71.28168
"3614",80.44312,71.295044
"3615",80.365,71.30835
"3616",80.25269,71.321655
"3617",80.11597,71.33502
"3618",79.971924,71.34833
"3619",79.82788,71.361694
"3620",79.691154,71.375
"3621",79.569084,71.38837
"3622",79.46166,71.40167
"3623",79.36889,71.41504
"3624",79.293205,71.428345
"3625",79.234604,71.44165
"3626",79.19554,71.45502
"3627",79.17113,71.46832
"3628",79.1638,71.48169
"3629",79.16136,71.494995
"3630",79.166245,71.50836
"3631",79.17601,71.52167
"3632",79.18822,71.535034
"3633",79.20775,71.54834
"3634",79.234604,71.561646
"3635",79.26635,71.57501
"3636",79.293205,71.58832
"3637",79.31762,71.601685
"3638",79.33959,71.61499
"3639",79.35668,71.62836
"3640",79.39086,71.64166
"3641",79.47631,71.65497
"3642",79.66918,71.668335
"3643",80.01099,71.68164
"3644",80.516365,71.69501
"3645",81.143814,71.70831
"3646",81.82742,71.72168
"3647",82.44755,71.734985
"3648",82.90654,71.74829
"3649",83.14336,71.76166
"3650",83.158005,71.77496
"3651",82.9749,71.78833
"3652",82.6453,71.801636
"3653",82.22537,71.815
"3654",81.76395,71.82831
"3655",81.29763,71.841675
"3656",80.85817,71.85498
"3657",80.462654,71.868286
"3658",80.12085,71.88165
"3659",79.84009,71.89496
"3660",79.62035,71.908325
"3661",79.46166,71.92163
"3662",79.36645,71.935
"3663",79.344475,71.9483
"3664",79.398186,71.96167
"3665",79.53002,71.974976
"3666",79.72045,71.98828
"3667",79.94507,72.00165
"3668",80.16724,72.01495
"3669",80.360115,72.02832
"3670",80.49439,72.041626
"3671",80.5481,72.05499
"3672",80.53101,72.0683
"3673",80.448006,72.081604
"3674",80.32105,72.09497
"3675",80.16235,72.10828
"3676",79.9939,72.12164
"3677",79.82544,72.13495
"3678",79.66918,72.148315
"3679",79.52758,72.16162
"3680",79.40307,72.17493
"3681",79.29565,72.18829
"3682",79.20531,72.2016
"3683",79.12962,72.214966
"3684",79.07103,72.22827
"3685",79.03441,72.24164
"3686",79.01732,72.254944
"3687",79.01732,72.26831
"3688",79.029526,72.28162
"3689",79.04906,72.29492
"3690",79.06859,72.30829
"3691",79.093,72.321594
"3692",79.1223,72.33496
"3693",79.166245,72.34827
"3694",79.24925,72.36163
"3695",79.4226,72.37494
"3696",79.73998,72.388306
"3697",80.22339,72.40161
"3698",80.850845,72.41492
"3699",81.5613,72.42828
"3700",82.247345,72.44159
"3701",82.794235,72.454956
"3702",83.13359,72.46826
"3703",83.23857,72.48163
"3704",83.12871,72.494934
"3705",82.845505,72.50824
"3706",82.44999,72.52161
"3707",81.991,72.53491
"3708",81.52224,72.54828
"3709",81.06813,72.561584
"3710",80.65797,72.57495
"3711",80.2942,72.58826
"3712",79.98413,72.60156
"3713",79.727776,72.61493
"3714",79.53246,72.628235
"3715",79.40795,72.6416
"3716",79.35912,72.65491
"3717",79.38842,72.668274
"3718",79.49584,72.68158
"3719",79.66186,72.69495
"3720",79.86694,72.70825
"3721",80.08667,72.72156
"3722",80.28443,72.734924
"3723",80.428474,72.74823
"3724",80.5066,72.7616
"3725",80.5066,72.7749
"3726",80.44312,72.78827
"3727",80.325935,72.801575
"3728",80.177,72.81494
"3729",80.01343,72.82825
"3730",79.84741,72.84155
"3731",79.68627,72.85492
"3732",79.53979,72.868225
"3733",79.41039,72.88159
"3734",79.30541,72.8949
"3735",79.217514,72.908264
"3736",79.149155,72.92157
"3737",79.093,72.934875
"3738",79.046616,72.94824
"3739",79.01488,72.96155
"3740",78.995346,72.974915
"3741",78.98802,72.98822
"3742",78.992905,73.00159
"3743",79.0222,73.01489
"3744",79.10033,73.0282
"3745",79.28588,73.041565
"3746",79.62524,73.05487
"3747",80.14282,73.06824
"3748",80.8069,73.08154
"3749",81.54421,73.09491
"3750",82.24002,73.108215
"3751",82.78203,73.12158
"3752",83.10185,73.13489
"3753",83.17998,73.14819
"3754",83.04326,73.16156
"3755",82.73319,73.174866
"3756",82.31327,73.18823
"3757",81.83963,73.20154
"3758",81.35134,73.214905
"3759",80.88991,73.22821
"3760",80.47486,73.24158
"3761",80.11841,73.25488
"3762",79.823,73.26819
"3763",79.59106,73.281555
"3764",79.42016,73.29486
"3765",79.31518,73.30823
"3766",79.28588,73.32153
"3767",79.33959,73.3349
"3768",79.45922,73.348206
"3769",79.63256,73.36151
"3770",79.835205,73.37488
"3771",80.0354,73.38818
"3772",80.198975,73.40155
"3773",80.31129,73.414856
"3774",80.35523,73.42822
"3775",80.33082,73.44153
"3776",80.24292,73.454834
"3777",80.111084,73.4682
"3778",79.957275,73.48151
"3779",79.7937,73.49487
"3780",79.63744,73.50818
"3781",79.4934,73.521545
"3782",79.364006,73.53485
"3783",79.24437,73.54822
"3784",79.14671,73.56152
"3785",79.07103,73.57483
"3786",79.01488,73.588196
"3787",78.97337,73.6015
"3788",78.94896,73.61487
"3789",78.93187,73.628174
"3790",78.91478,73.64154
"3791",78.91722,73.65485
"3792",78.97826,73.66821
"3793",79.151596,73.68152
"3794",79.4934,73.694824
"3795",80.028076,73.70819
"3796",80.723885,73.7215
"3797",81.50027,73.73486
"3798",82.23514,73.74817
"3799",82.811325,73.761536
"3800",83.15312,73.77484
"3801",83.24101,73.78815
"3802",83.09941,73.80151
"3803",82.78691,73.81482
"3804",82.35966,73.828186
"3805",81.883575,73.84149
"3806",81.40261,73.85486
"3807",80.9485,73.868164
"3808",80.54322,73.88147
"3809",80.19653,73.89484
"3810",79.90845,73.90814
"3811",79.676506,73.92151
"3812",79.50561,73.934814
"3813",79.40063,73.94818
"3814",79.35912,73.96149
"3815",79.3933,73.97485
"3816",79.49584,73.98816
"3817",79.65209,74.001465
"3818",79.83276,74.01483
"3819",80.008545,74.02814
"3820",80.15015,74.041504
"3821",80.23071,74.05481
"3822",80.24292,74.06818
"3823",80.18921,74.08148
"3824",80.08667,74.09485
"3825",79.94507,74.108154
"3826",79.783936,74.12146
"3827",79.62035,74.13483
"3828",79.4641,74.14813
"3829",79.32006,74.1615
"3830",79.1931,74.174805
"3831",79.08324,74.18817
"3832",78.99046,74.20148
"3833",78.9099,74.21478
"3834",78.84398,74.22815
"3835",78.79027,74.241455
"3836",78.74876,74.25482
"3837",78.72434,74.26813
"3838",78.73411,74.281494
"3839",78.819565,74.2948
"3840",79.03929,74.308105
"3841",79.447014,74.32147
"3842",80.04761,74.33478
"3843",80.79469,74.348145
"3844",81.5906,74.36145
"3845",82.30839,74.37482
"3846",82.8333,74.38812
"3847",83.106735,74.40149
"3848",83.12627,74.414795
"3849",82.933395,74.4281
"3850",82.58671,74.44147
"3851",82.144806,74.45477
"3852",81.671165,74.46814
"3853",81.20241,74.481445
"3854",80.76784,74.49481
"3855",80.38941,74.50812
"3856",80.06958,74.521484
"3857",79.80591,74.53479
"3858",79.59838,74.548096
"3859",79.44213,74.56146
"3860",79.33959,74.57477
"3861",79.30297,74.588135
"3862",79.327385,74.60144
"3863",79.40795,74.61481
"3864",79.53246,74.62811
"3865",79.68139,74.64148
"3866",79.82544,74.654785
"3867",79.940186,74.66815
"3868",80.00366,74.68146
"3869",80.0061,74.694824
"3870",79.94507,74.70813
"3871",79.83032,74.7215
"3872",79.68871,74.7348
"3873",79.53246,74.74817
"3874",79.37377,74.761475
"3875",79.219955,74.77484
"3876",79.078354,74.78815
"3877",78.94896,74.80151
"3878",78.839096,74.81482
"3879",78.74387,74.828186
"3880",78.66575,74.84149
"3881",78.60471,74.85486
"3882",78.55833,74.868164
"3883",78.52659,74.88153
"3884",78.51682,74.89484
"3885",78.54124,74.9082
"3886",78.641335,74.92151
"3887",78.87572,74.934875
"3888",79.30053,74.94818
"3889",79.92554,74.96155
"3890",80.70435,74.97485
"3891",81.53933,74.98822
"3892",82.303505,75.001526
"3893",82.86748,75.01489
"3894",83.16533,75.0282
"3895",83.19707,75.041565
"3896",83.001755,75.05487
"3897",82.64286,75.06824
"3898",82.18387,75.08154
"3899",81.69558,75.09491
"3900",81.22682,75.108215
"3901",80.80934,75.12158
"3902",80.46021,75.13489
"3903",80.181885,75.148254
"3904",79.96704,75.16156
"3905",79.79614,75.17493
"3906",79.656975,75.18823
"3907",79.54711,75.2016
"3908",79.47875,75.214905
"3909",79.45922,75.22827
"3910",79.49096,75.24158
"3911",79.569084,75.254944
"3912",79.67895,75.26825
"3913",79.7937,75.28162
"3914",79.89136,75.29492
"3915",79.95239,75.30829
"3916",79.95972,75.321594
"3917",79.91333,75.33496
"3918",79.815674,75.34827
"3919",79.67895,75.36163
"3920",79.5227,75.37494
"3921",79.361565,75.388306
"3922",79.20775,75.40161
"3923",79.06859,75.41498
"3924",78.94896,75.42828
"3925",78.84642,75.44165
"3926",78.76341,75.454956
"3927",78.695045,75.46832
"3928",78.643776,75.48163
"3929",78.60471,75.494995
"3930",78.57786,75.5083
"3931",78.56077,75.52167
"3932",78.553444,75.53497
"3933",78.56077,75.54834
"3934",78.60227,75.561646
"3935",78.729225,75.57501
"3936",79.00023,75.58832
"3937",79.466545,75.601685
"3938",80.13306,75.61499
"3939",80.94118,75.62836
"3940",81.78592,75.64166
"3941",82.533,75.65503
"3942",83.070114,75.668335
"3943",83.336235,75.6817
"3944",83.33135,75.69501
"3945",83.106735,75.708374
"3946",82.735634,75.72168
"3947",82.28886,75.73505
"3948",81.82254,75.74835
"3949",81.38796,75.76172
"3950",81.01198,75.775024
"3951",80.706795,75.78839
"3952",80.465096,75.8017
"3953",80.274666,75.81506
"3954",80.11841,75.82837
"3955",79.97925,75.841736
"3956",79.86206,75.85504
"3957",79.77173,75.86841
"3958",79.71801,75.881714
"3959",79.71313,75.89508
"3960",79.74975,75.90839
"3961",79.82056,75.92175
"3962",79.90112,75.93506
"3963",79.96948,75.948425
"3964",80.00366,75.96173
"3965",79.98657,75.9751
"3966",79.923096,75.9884
"3967",79.81323,76.00177
"3968",79.67162,76.015076
"3969",79.517815,76.02844
"3970",79.35912,76.04175
"3971",79.202866,76.055115
"3972",79.04906,76.06842
"3973",78.907455,76.08179
"3974",78.78294,76.09509
"3975",78.677956,76.10846
"3976",78.59251,76.121765
"3977",78.52903,76.13513
"3978",78.485085,76.14844
"3979",78.45579,76.161804
"3980",78.4387,76.17511
"3981",78.43626,76.18848
"3982",78.44602,76.20178
"3983",78.46311,76.21515
"3984",78.48264,76.228455
"3985",78.49729,76.24182
"3986",78.5095,76.25513
"3987",78.52903,76.26849
"3988",78.59495,76.2818
"3989",78.77318,76.295166
"3990",79.12474,76.30847
"3991",79.68871,76.32184
"3992",80.43336,76.335144
"3993",81.2781,76.34851
"3994",82.08621,76.36182
"3995",82.735634,76.37518
"3996",83.12871,76.38849
"3997",83.243454,76.401855
"3998",83.10918,76.41516
"3999",82.79668,76.42853
"4000",82.38407,76.44183
"4001",81.92996,76.4552
"4002",81.497826,76.468506
"4003",81.1194,76.48187
"4004",80.81178,76.49518
"4005",80.570076,76.508545
"4006",80.39185,76.52185
"4007",80.25269,76.53522
"4008",80.13306,76.54852
"4009",80.01587,76.56189
"4010",79.906006,76.575195
"4011",79.815674,76.58856
"4012",79.75952,76.60187
"4013",79.742424,76.615234
"4014",79.76196,76.62854
"4015",79.81079,76.64191
"4016",79.8645,76.65521
"4017",79.90845,76.66858
"4018",79.920654,76.681885
"4019",79.89624,76.69525
"4020",79.83276,76.70856
"4021",79.73022,76.721924
"4022",79.59594,76.73523
"4023",79.44213,76.7486
"4024",79.28344,76.7619
"4025",79.12718,76.77527
"4026",78.98802,76.788574
"4027",78.86839,76.80194
"4028",78.77074,76.81525
"4029",78.695045,76.82861
"4030",78.63645,76.84192
"4031",78.590065,76.855286
"4032",78.555885,76.86859
"4033",78.53391,76.88196
"4034",78.521706,76.89526
"4035",78.521706,76.90863
"4036",78.52659,76.921936
"4037",78.53391,76.9353
"4038",78.54856,76.94861
"4039",78.56565,76.961975
"4040",78.58518,76.97528
"4041",78.60471,76.98865
"4042",78.63401,77.00195
"4043",78.660866,77.01532
"4044",78.68284,77.028625
"4045",78.69993,77.04199
"4046",78.70725,77.0553
"4047",78.69993,77.068665
"4048",78.68528,77.08197
"4049",78.66819,77.09534
"4050",78.66575,77.10864
"4051",78.71946,77.12201
"4052",78.89281,77.135315
"4053",79.259026,77.14868
"4054",79.84253,77.16199
"4055",80.621346,77.175354
"4056",81.50271,77.18866
"4057",82.35233,77.20203
"4058",83.03105,77.21533
"4059",83.4461,77.2287
"4060",83.577934,77.242004
"4061",83.458305,77.25537
"4062",83.15068,77.26868
"4063",82.72831,77.28204
"4064",82.27421,77.29535
"4065",81.832306,77.308716
"4066",81.449,77.32202
"4067",81.13893,77.33539
"4068",80.907,77.348694
"4069",80.72877,77.36206
"4070",80.584724,77.37537
"4071",80.45289,77.38873
"4072",80.33082,77.40204
"4073",80.21362,77.415405
"4074",80.11597,77.42871
"4075",80.042725,77.44208
"4076",80.0061,77.45538
"4077",80.00122,77.46875
"4078",80.02075,77.482056
"4079",80.05005,77.49542
"4080",80.076904,77.50873
"4081",80.079346,77.522095
"4082",80.045166,77.5354
"4083",79.971924,77.54877
"4084",79.86206,77.56207
"4085",79.725334,77.57544
"4086",79.569084,77.588745
"4087",79.40795,77.60211
"4088",79.24925,77.61542
"4089",79.09544,77.628784
"4090",78.958725,77.64209
"4091",78.84398,77.65546
"4092",78.751205,77.66876
"4093",78.6804,77.68213
"4094",78.63157,77.695435
"4095",78.59983,77.7088
"4096",78.58518,77.72211
"4097",78.58274,77.73547
"4098",78.59251,77.74878
"4099",78.60471,77.762146
"4100",78.6218,77.77545
"4101",78.641335,77.78882
"4102",78.658424,77.802124
"4103",78.6804,77.81549
"4104",78.70237,77.8288
"4105",78.71946,77.84216
"4106",78.73655,77.85547
"4107",78.74876,77.868835
"4108",78.75365,77.88214
"4109",78.75853,77.89551
"4110",78.75853,77.90881
"4111",78.75609,77.92218
"4112",78.74876,77.935486
"4113",78.746315,77.94885
"4114",78.74143,77.96216
"4115",78.73899,77.975525
"4116",78.73411,77.98883
"4117",78.72678,78.0022
"4118",78.71458,78.0155
"4119",78.70237,78.02887
"4120",78.692604,78.042175
"4121",78.709694,78.05554
"4122",78.80492,78.06885
"4123",79.046616,78.082214
"4124",79.49828,78.09552
"4125",80.17456,78.10889
"4126",81.02907,78.12219
"4127",81.95438,78.13556
"4128",82.80644,78.148865
"4129",83.45342,78.16223
"4130",83.824524,78.17554
"4131",83.912415,78.1889
"4132",83.75372,78.20221
"4133",83.41924,78.215576
"4134",82.984665,78.22888
"4135",82.51591,78.24225
"4136",82.0618,78.255554
"4137",81.65652,78.26892
"4138",81.3196,78.28223
"4139",81.05348,78.29559
"4140",80.84596,78.3089
"4141",80.67994,78.322266
"4142",80.53834,78.33557
"4143",80.411385,78.34894
"4144",80.291756,78.36224
"4145",80.18921,78.37561
"4146",80.11841,78.388916
"4147",80.08667,78.40228
"4148",80.096436,78.41559
"4149",80.1355,78.428955
"4150",80.181885,78.44226
"4151",80.218506,78.45563
"4152",80.22583,78.46893
"4153",80.19409,78.4823
"4154",80.12329,78.495605
"4155",80.01587,78.50897
"4156",79.88159,78.52228
"4157",79.725334,78.535645
"4158",79.56664,78.54895
"4159",79.40795,78.56232
"4160",79.259026,78.57562
"4161",79.11986,78.58899
"4162",79.00267,78.602295
"4163",78.90013,78.61566
"4164",78.81224,78.62897
"4165",78.74387,78.642334
"4166",78.695045,78.65564
"4167",78.66575,78.66901
"4168",78.6511,78.68231
"4169",78.65354,78.69568
"4170",78.66819,78.708984
"4171",78.69016,78.72235
"4172",78.712135,78.73566
"4173",78.73167,78.74902
"4174",78.751205,78.76233
"4175",78.768295,78.775696
"4176",78.785385,78.789
"4177",78.80492,78.80237
"4178",78.82201,78.815674
"4179",78.836655,78.82904
"4180",78.84886,78.84235
"4181",78.85863,78.85571
"4182",78.86351,78.86902
"4183",78.86107,78.882385
"4184",78.86351,78.89569
"4185",78.86107,78.90906
"4186",78.85863,78.92236
"4187",78.853745,78.93573
"4188",78.8513,78.949036
"4189",78.84154,78.9624
"4190",78.82933,78.97571
"4191",78.819565,78.989075
"4192",78.83177,79.00238
"4193",78.91478,79.01575
"4194",79.13695,79.02905
"4195",79.55932,79.04242
"4196",80.19409,79.055725
"4197",81.004654,79.06909
"4198",81.88846,79.0824
"4199",82.7161,79.095764
"4200",83.35577,79.10907
"4201",83.736626,79.12244
"4202",83.8465,79.13574
"4203",83.719536,79.14911
"4204",83.41436,79.162415
"4205",83.001755,79.17578
"4206",82.53788,79.18909
"4207",82.07889,79.20245
"4208",81.65652,79.21576
"4209",81.29519,79.229126
"4210",80.99977,79.24243
"4211",80.77272,79.2558
"4212",80.59205,79.269104
"4213",80.44068,79.28247
"4214",80.308846,79.29578
"4215",80.19165,79.30914
"4216",80.096436,79.32245
"4217",80.03052,79.335815
"4218",80.00122,79.34912
"4219",80.01099,79.36249
"4220",80.05249,79.37579
"4221",80.111084,79.38916
"4222",80.164795,79.402466
"4223",80.19653,79.41583
"4224",80.18921,79.42914
"4225",80.14038,79.442505
"4226",80.045166,79.45581
"4227",79.91577,79.46918
"4228",79.76196,79.48248
"4229",79.5935,79.49585
"4230",79.42748,79.509155
"4231",79.27123,79.52252
"4232",79.13451,79.53583
"4233",79.01488,79.549194
"4234",78.91722,79.5625
"4235",78.839096,79.57587
"4236",78.77806,79.58917
"4237",78.72678,79.60254
"4238",78.68528,79.615845
"4239",78.65598,79.62921
"4240",78.641335,79.64252
"4241",78.63889,79.65588
"4242",78.65354,79.66919
"4243",78.67063,79.682556
"4244",78.695045,79.69586
"4245",78.71702,79.70923
"4246",78.73899,79.722534
"4247",78.75853,79.7359
"4248",78.78294,79.74921
"4249",78.80736,79.76257
"4250",78.82933,79.77588
"4251",78.84642,79.789246
"4252",78.85863,79.80255
"4253",78.86351,79.81592
"4254",78.86351,79.82922
"4255",78.85863,79.84259
"4256",78.856186,79.855896
"4257",78.85863,79.86926
"4258",78.86107,79.88257
"4259",78.86595,79.895935
"4260",78.86351,79.90924
"4261",78.856186,79.92261
"4262",78.84642,79.93591
"4263",78.839096,79.94928
"4264",78.86839,79.962585
"4265",78.98802,79.97595
"4266",79.26635,79.98926
"4267",79.74975,80.002625
"4268",80.44068,80.01593
"4269",81.28054,80.0293
"4270",82.15701,80.0426
"4271",82.94316,80.05597
"4272",83.5169,80.069275
"4273",83.82208,80.08264
"4274",83.861145,80.09595
"4275",83.68047,80.109314
"4276",83.33379,80.12262
"4277",82.896774,80.13599
"4278",82.425575,80.14929
"4279",81.971466,80.16266
"4280",81.55886,80.175964
"4281",81.20973,80.18933
"4282",80.92897,80.20264
"4283",80.70435,80.216
"4284",80.52125,80.22931
"4285",80.36744,80.242676
"4286",80.24048,80.25598
"4287",80.1355,80.26935
"4288",80.059814,80.28265
"4289",80.02075,80.29602
"4290",80.01831,80.309326
"4291",80.045166,80.32269
"4292",80.08911,80.336
"4293",80.14038,80.349365
"4294",80.181885,80.36267
"4295",80.201416,80.37604
"4296",80.18677,80.38934
"4297",80.13306,80.40271
"4298",80.0354,80.416016
"4299",79.903564,80.42938
"4300",79.744865,80.44269
"4301",79.569084,80.456055
"4302",79.398186,80.46936
"4303",79.234604,80.48273
"4304",79.09056,80.49603
"4305",78.96605,80.5094
"4306",78.86107,80.522705
"4307",78.77806,80.53607
"4308",78.71702,80.54938
"4309",78.6804,80.562744
"4310",78.660866,80.57605
"4311",78.65598,80.58942
"4312",78.66331,80.60272
"4313",78.6804,80.61609
"4314",78.70237,80.629395
"4315",78.73167,80.64276
"4316",78.76341,80.65607
"4317",78.80003,80.66943
"4318",78.83421,80.68274
"4319",78.86839,80.696106
"4320",78.89525,80.70941
"4321",78.924545,80.72278
"4322",78.94408,80.736084
"4323",78.96117,80.74945
"4324",78.97337,80.76276
"4325",78.98558,80.77612
"4326",78.992905,80.78943
"4327",78.99779,80.802795
"4328",79.00267,80.8161
"4329",79.009995,80.82947
"4330",79.012436,80.84277
"4331",79.01488,80.85614
"4332",79.009995,80.869446
"4333",78.99779,80.88281
"4334",78.98558,80.89612
"4335",78.98802,80.909485
"4336",79.0515,80.92279
"4337",79.24193,80.93616
"4338",79.622795,80.94946
"4339",80.216064,80.96283
"4340",80.990005,80.976135
"4341",81.85428,80.9895
"4342",82.68192,81.00281
"4343",83.336235,81.016174
"4344",83.73907,81.02948
"4345",83.87335,81.04285
"4346",83.76349,81.05615
"4347",83.47051,81.06952
"4348",83.05791,81.082825
"4349",82.59403,81.09619
"4350",82.127716,81.1095
"4351",81.6907,81.12286
"4352",81.30007,81.13617
"4353",80.970474,81.149536
"4354",80.69703,81.16284
"4355",80.47486,81.17621
"4356",80.291756,81.189514
"4357",80.13794,81.20288
"4358",80.01831,81.21619
"4359",79.92798,81.22955
"4360",79.87671,81.24286
"4361",79.86694,81.256226
"4362",79.903564,81.26953
"4363",79.96948,81.2829
"4364",80.045166,81.2962
"4365",80.11597,81.30957
"4366",80.15747,81.322876
"4367",80.15991,81.33624
"4368",80.11841,81.34955
"4369",80.03784,81.362915
"4370",79.920654,81.37622
"4371",79.781494,81.38959
"4372",79.63012,81.40289
"4373",79.47387,81.41626
"4374",79.31762,81.429565
"4375",79.17113,81.44293
"4376",79.04173,81.45624
"4377",78.93187,81.469604
"4378",78.84642,81.48291
"4379",78.7805,81.49628
"4380",78.73899,81.50958
"4381",78.71458,81.52295
"4382",78.70237,81.536255
"4383",78.692604,81.54962
"4384",78.69016,81.56293
"4385",78.69749,81.576294
"4386",78.709694,81.5896
"4387",78.729225,81.60297
"4388",78.75609,81.61627
"4389",78.79027,81.62964
"4390",78.82445,81.642944
"4391",78.856186,81.65631
"4392",78.88548,81.66962
"4393",78.91478,81.68298
"4394",78.93675,81.69629
"4395",78.958725,81.709656
"4396",78.97337,81.72296
"4397",78.98802,81.73633
"4398",79.00023,81.74963
"4399",79.00755,81.763
"4400",79.009995,81.776306
"4401",79.009995,81.78967
"4402",79.00511,81.80298
"4403",79.00511,81.816345
"4404",79.029526,81.82965
"4405",79.12474,81.84302
"4406",79.35424,81.85632
"4407",79.77417,81.86969
"4408",80.394295,81.882996
"4409",81.17555,81.89636
"4410",82.01785,81.90967
"4411",82.794235,81.923035
"4412",83.38262,81.93634
"4413",83.717094,81.94971
"4414",83.79767,81.96301
"4415",83.65362,81.97638
"4416",83.346,81.989685
"4417",82.94072,82.00305
"4418",82.48905,82.01636
"4419",82.03494,82.029724
"4420",81.61013,82.04303
"4421",81.23659,82.0564
"4422",80.92897,82.0697
"4423",80.68238,82.08307
"4424",80.49195,82.096375
"4425",80.343025,82.10974
"4426",80.218506,82.12305
"4427",80.113525,82.13641
"4428",80.02319,82.14972
"4429",79.957275,82.163086
"4430",79.923096,82.17639
"4431",79.923096,82.18976
"4432",79.954834,82.203064
"4433",80.0061,82.21643
"4434",80.062256,82.22974
"4435",80.09888,82.2431
"4436",80.10132,82.25641
"4437",80.05737,82.269775
"4438",79.974365,82.28308
"4439",79.84985,82.29645
"4440",79.70092,82.30975
"4441",79.53979,82.32312
"4442",79.378654,82.336426
"4443",79.219955,82.34979
"4444",79.07103,82.3631
"4445",78.93675,82.376465
"4446",78.82445,82.38977
"4447",78.73411,82.40314
"4448",78.66331,82.41644
"4449",78.6096,82.42981
"4450",78.57053,82.443115
"4451",78.54124,82.45648
"4452",78.51682,82.46979
"4453",78.50706,82.483154
"4454",78.50706,82.49646
"4455",78.51682,82.50983
"4456",78.53391,82.52313
"4457",78.55833,82.5365
"4458",78.58518,82.549805
"4459",78.61448,82.56317
"4460",78.643776,82.57648
"4461",78.6804,82.58984
"4462",78.71458,82.60315
"4463",78.746315,82.616516
"4464",78.77562,82.62982
"4465",78.802475,82.64319
"4466",78.81712,82.656494
"4467",78.82689,82.66986
"4468",78.82933,82.68317
"4469",78.82933,82.69653
"4470",78.84398,82.70984
"4471",78.91722,82.723206
"4472",79.10277,82.73651
"4473",79.46166,82.74988
"4474",80.025635,82.76318
"4475",80.765396,82.77655
"4476",81.59548,82.789856
"4477",82.40116,82.80322
"4478",83.05791,82.81653
"4479",83.48028,82.829895
"4480",83.64385,82.8432
"4481",83.57549,82.85657
"4482",83.32159,82.86987
"4483",82.94316,82.88324
"4484",82.50614,82.896545
"4485",82.05203,82.90991
"4486",81.619896,82.92322
"4487",81.23903,82.936584
"4488",80.91432,82.94989
"4489",80.64576,82.96326
"4490",80.430916,82.97656
"4491",80.2478,82.98993
"4492",80.09155,83.003235
"4493",79.954834,83.0166
"4494",79.84253,83.02991
"4495",79.75952,83.043274
"4496",79.72045,83.05658
"4497",79.71557,83.06995
"4498",79.74975,83.08325
"4499",79.801025,83.09662
"4500",79.85718,83.109924
"4501",79.8938,83.12329
"4502",79.90845,83.1366
"4503",79.88159,83.14996
"4504",79.815674,83.16327
"4505",79.72289,83.176636
"4506",79.603264,83.18994
"4507",79.4641,83.20331
"4508",79.32006,83.21661
"4509",79.17845,83.22998
"4510",79.04173,83.243286
"4511",78.922104,83.25665
"4512",78.819565,83.26996
"4513",78.74143,83.283325
"4514",78.6804,83.29663
"4515",78.63401,83.31
"4516",78.59495,83.3233
"4517",78.56809,83.33667
"4518",78.54856,83.349976
"4519",78.54124,83.36334
"4520",78.54124,83.37665
"4521",78.54856,83.390015
"4522",78.56565,83.40332
"4523",78.590065,83.41669
"4524",78.61692,83.42999
"4525",78.64622,83.44336
"4526",78.67307,83.456665
"4527",78.695045,83.47003
"4528",78.712135,83.48334
"4529",78.72678,83.496704
"4530",78.746315,83.51001
"4531",78.76341,83.52338
"4532",78.7805,83.53668
"4533",78.79271,83.55005
"4534",78.79759,83.563354
"4535",78.79027,83.57672
"4536",78.785385,83.59003
"4537",78.81468,83.60339
"4538",78.94652,83.6167
"4539",79.2517,83.630066
"4540",79.76196,83.64337
"4541",80.465096,83.65674
"4542",81.28542,83.670044
"4543",82.09598,83.68341
"4544",82.76738,83.69672
"4545",83.209274,83.71008
"4546",83.387505,83.72339
"4547",83.319145,83.736755
"4548",83.06279,83.75006
