"","ppg","time"
"1",78.76341,791.2318
"2",78.79271,791.245
"3",78.82933,791.2584
"4",78.86839,791.2716
"5",78.9099,791.28503
"6",78.95628,791.2982
"7",79.00267,791.31165
"8",79.0515,791.3248
"9",79.10033,791.33826
"10",79.149155,791.35144
"11",79.19066,791.36487
"12",79.22484,791.37805
"13",79.25414,791.3915
"14",79.27856,791.40466
"15",79.29565,791.4181
"16",79.310295,791.4313
"17",79.32494,791.4447
"18",79.33471,791.4579
"19",79.344475,791.4713
"20",79.344475,791.4845
"21",79.33959,791.4979
"22",79.327385,791.5111
"23",79.33227,791.52454
"24",79.381096,791.5377
"25",79.54223,791.55115
"26",79.87671,791.56433
"27",80.42115,791.57776
"28",81.143814,791.59094
"29",81.97635,791.6044
"30",82.78935,791.61755
"31",83.455864,791.631
"32",83.87335,791.64417
"33",84.02228,791.6576
"34",83.90997,791.6708
"35",83.5877,791.6842
"36",83.123825,791.6974
"37",82.57694,791.7108
"38",82.00076,791.724
"39",81.43923,791.7374
"40",80.91676,791.7506
"41",80.448006,791.76404
"42",80.05005,791.7772
"43",79.71313,791.79065
"44",79.447014,791.80383
"45",79.256584,791.81726
"46",79.151596,791.83044
"47",79.13695,791.8439
"48",79.217514,791.85706
"49",79.38354,791.8705
"50",79.62035,791.88367
"51",79.89624,791.8971
"52",80.17212,791.9103
"53",80.413826,791.9237
"54",80.59449,791.9369
"55",80.68726,791.9503
"56",80.69459,791.9635
"57",80.62867,791.9769
"58",80.50416,791.9901
"59",80.3357,792.00354
"60",80.14526,792.0167
"61",79.94507,792.03015
"62",79.7522,792.04333
"63",79.571526,792.05676
"64",79.41039,792.06995
"65",79.27123,792.0834
"66",79.149155,792.09656
"67",79.04906,792.11
"68",78.97093,792.12317
"69",78.91234,792.1366
"70",78.873276,792.1498
"71",78.853745,792.1632
"72",78.84154,792.1764
"73",78.84398,792.1898
"74",78.85863,792.203
"75",78.88548,792.21643
"76",78.922104,792.2296
"77",78.96849,792.24304
"78",79.01976,792.2562
"79",79.07347,792.26965
"80",79.12962,792.28284
"81",79.183334,792.29626
"82",79.24193,792.30945
"83",79.29565,792.3229
"84",79.34692,792.33606
"85",79.39086,792.3495
"86",79.42504,792.3627
"87",79.43969,792.3761
"88",79.43969,792.3893
"89",79.429924,792.4027
"90",79.415276,792.4159
"91",79.39086,792.4293
"92",79.378654,792.4425
"93",79.40795,792.45593
"94",79.534904,792.4691
"95",79.82056,792.48254
"96",80.30152,792.4957
"97",80.955826,792.50916
"98",81.71267,792.52234
"99",82.45487,792.53577
"100",83.06279,792.54895
"101",83.44854,792.5624
"102",83.57549,792.57556
"103",83.46319,792.589
"104",83.158005,792.6022
"105",82.71366,792.6156
"106",82.19119,792.6288
"107",81.634544,792.6422
"108",81.08034,792.6554
"109",80.56031,792.6688
"110",80.096436,792.682
"111",79.693596,792.69543
"112",79.35912,792.7086
"113",79.093,792.72205
"114",78.890366,792.7352
"115",78.76097,792.74866
"116",78.71946,792.76184
"117",78.77806,792.77527
"118",78.93187,792.78845
"119",79.17113,792.8019
"120",79.46899,792.81506
"121",79.78638,792.8285
"122",80.08179,792.8417
"123",80.32105,792.8551
"124",80.482185,792.8683
"125",80.55787,792.8817
"126",80.54566,792.8949
"127",80.46754,792.9083
"128",80.33814,792.9215
"129",80.17456,792.93494
"130",79.9939,792.9481
"131",79.80835,792.96155
"132",79.62524,792.97473
"133",79.449455,792.98816
"134",79.290764,793.00134
"135",79.151596,793.0148
"136",79.03685,793.02795
"137",78.94652,793.0414
"138",78.87572,793.05457
"139",78.82933,793.068
"140",78.79759,793.0812
"141",78.78294,793.0946
"142",78.79027,793.1078
"143",78.81224,793.1212
"144",78.8513,793.1344
"145",78.905014,793.1478
"146",78.96361,793.161
"147",79.0222,793.17444
"148",79.080795,793.1876
"149",79.132065,793.20105
"150",79.183334,793.21423
"151",79.22728,793.22766
"152",79.26879,793.24084
"153",79.30297,793.2543
"154",79.34692,793.26746
"155",79.432365,793.2809
"156",79.61303,793.29407
"157",79.94507,793.3075
"158",80.45289,793.3207
"159",81.1194,793.3341
"160",81.86893,793.3473
"161",82.59403,793.3607
"162",83.18242,793.3739
"163",83.5584,793.3873
"164",83.69512,793.4005
"165",83.60235,793.41394
"166",83.319145,793.4271
"167",82.90654,793.44055
"168",82.41093,793.45374
"169",81.87869,793.46716
"170",81.3489,793.48035
"171",80.848404,793.4938
"172",80.394295,793.50696
"173",79.99634,793.5204
"174",79.65942,793.53357
"175",79.381096,793.547
"176",79.1638,793.5602
"177",79.01488,793.5736
"178",78.94408,793.5868
"179",78.96605,793.6002
"180",79.080795,793.6134
"181",79.28344,793.62683
"182",79.54711,793.64
"183",79.84253,793.65344
"184",80.12573,793.6666
"185",80.360115,793.68005
"186",80.52369,793.69324
"187",80.59937,793.70667
"188",80.58961,793.71985
"189",80.50904,793.7333
"190",80.37476,793.74646
"191",80.2063,793.7599
"192",80.02075,793.7731
"193",79.823,793.7865
"194",79.63256,793.7997
"195",79.447014,793.8131
"196",79.28344,793.8263
"197",79.14427,793.8397
"198",79.03685,793.8529
"199",78.958725,793.86633
"200",78.9099,793.8795
"201",78.890366,793.89294
"202",78.88548,793.9061
"203",78.89281,793.91956
"204",78.905014,793.93274
"205",78.922104,793.94617
"206",78.93919,793.95935
"207",78.96117,793.9728
"208",78.995346,793.98596
"209",79.03441,793.9994
"210",79.08812,794.0126
"211",79.168686,794.026
"212",79.3225,794.0392
"213",79.603264,794.0526
"214",80.05493,794.0658
"215",80.689705,794.0792
"216",81.461205,794.0924
"217",82.27421,794.10583
"218",83.001755,794.119
"219",83.54131,794.13245
"220",83.824524,794.1456
"221",83.844055,794.15906
"222",83.63653,794.17224
"223",83.25567,794.18567
"224",82.76494,794.19885
"225",82.22537,794.2123
"226",81.67849,794.22546
"227",81.15602,794.2389
"228",80.67017,794.2521
"229",80.24292,794.2655
"230",79.87671,794.2787
"231",79.57885,794.2921
"232",79.344475,794.3053
"233",79.18089,794.3187
"234",79.080795,794.3319
"235",79.046616,794.34534
"236",79.080795,794.3585
"237",79.19066,794.37195
"238",79.36889,794.38513
"239",79.59838,794.39856
"240",79.852295,794.41174
"241",80.09155,794.4252
"242",80.289314,794.43835
"243",80.41871,794.4518
"244",80.462654,794.46497
"245",80.43336,794.4784
"246",80.343025,794.4916
"247",80.20386,794.505
"248",80.04028,794.5182
"249",79.8645,794.5316
"250",79.68871,794.5448
"251",79.517815,794.5582
"252",79.361565,794.5714
"253",79.22484,794.58484
"254",79.114975,794.598
"255",79.03197,794.61145
"256",78.97826,794.62463
"257",78.94408,794.63806
"258",78.92943,794.65125
"259",78.92943,794.6647
"260",78.93675,794.67786
"261",78.94896,794.6913
"262",78.96849,794.70447
"263",78.98802,794.7179
"264",79.012436,794.7311
"265",79.061264,794.7445
"266",79.17601,794.7577
"267",79.42016,794.7711
"268",79.84741,794.7843
"269",80.46998,794.7977
"270",81.248795,794.8109
"271",82.08865,794.82434
"272",82.86015,794.8375
"273",83.44854,794.85095
"274",83.78058,794.86414
"275",83.844055,794.87756
"276",83.665825,794.89075
"277",83.302055,794.9042
"278",82.81621,794.91736
"279",82.27665,794.9308
"280",81.72976,794.944
"281",81.214615,794.9574
"282",80.75319,794.9706
"283",80.365,794.984
"284",80.04761,794.9972
"285",79.798584,795.0106
"286",79.59838,795.0238
"287",79.449455,795.03723
"288",79.344475,795.0504
"289",79.290764,795.06384
"290",79.293205,795.077
"291",79.35912,795.09045
"292",79.47875,795.10364
"293",79.64477,795.11707
"294",79.82544,795.13025
"295",79.99878,795.1437
"296",80.1355,795.15686
"297",80.22095,795.1703
"298",80.235596,795.1835
"299",80.184326,795.1969
"300",80.07446,795.2101
"301",79.91821,795.2235
"302",79.7351,795.2367
"303",79.54223,795.2501
"304",79.35424,795.2633
"305",79.17845,795.27673
"306",79.02464,795.2899
"307",78.89281,795.30334
"308",78.785385,795.3165
"309",78.70481,795.32996
"310",78.643776,795.34314
"311",78.6096,795.35657
"312",78.59495,795.36975
"313",78.59739,795.3832
"314",78.61204,795.39636
"315",78.63157,795.4098
"316",78.660866,795.423
"317",78.68772,795.4364
"318",78.7219,795.4496
"319",78.78294,795.463
"320",78.92699,795.4762
"321",79.21263,795.4896
"322",79.69604,795.5028
"323",80.37232,795.51624
"324",81.197525,795.5294
"325",82.05936,795.54285
"326",82.83086,795.556
"327",83.39727,795.56946
"328",83.69756,795.58264
"329",83.73174,795.59607
"330",83.53155,795.60925
"331",83.160446,795.6227
"332",82.67704,795.63586
"333",82.14969,795.6493
"334",81.6321,795.6625
"335",81.160904,795.6759
"336",80.762955,795.6891
"337",80.45045,795.7025
"338",80.21362,795.7157
"339",80.04028,795.7291
"340",79.90845,795.7423
"341",79.81079,795.75574
"342",79.74731,795.7689
"343",79.72289,795.78235
"344",79.744865,795.79553
"345",79.82544,795.80896
"346",79.95972,795.82214
"347",80.13306,795.8356
"348",80.32838,795.84875
"349",80.51148,795.8622
"350",80.66041,795.87537
"351",80.75075,795.8888
"352",80.77028,795.902
"353",80.719,795.9154
"354",80.61158,795.9286
"355",80.45777,795.942
"356",80.27955,795.9552
"357",80.096436,795.9686
"358",79.91089,795.9818
"359",79.73754,795.99524
"360",79.57397,796.0084
"361",79.42748,796.02185
"362",79.30297,796.03503
"363",79.202866,796.04846
"364",79.12718,796.06165
"365",79.07347,796.0751
"366",79.04173,796.08826
"367",79.029526,796.1017
"368",79.03197,796.11487
"369",79.03929,796.1283
"370",79.0515,796.1415
"371",79.061264,796.1549
"372",79.063705,796.1681
"373",79.063705,796.1815
"374",79.07347,796.1947
"375",79.13451,796.2081
"376",79.30785,796.2213
"377",79.656975,796.23474
"378",80.21118,796.2479
"379",80.955826,796.26135
"380",81.80057,796.27454
"381",82.62089,796.28796
"382",83.29717,796.30115
"383",83.7293,796.3146
"384",83.88068,796.32776
"385",83.77081,796.3412
"386",83.455864,796.3544
"387",82.99687,796.3678
"388",82.4622,796.381
"389",81.9202,796.3944
"390",81.409935,796.4076
"391",80.96315,796.421
"392",80.59449,796.4342
"393",80.29908,796.44763
"394",80.0647,796.4608
"395",79.87915,796.47424
"396",79.72045,796.4874
"397",79.58373,796.50085
"398",79.47143,796.51404
"399",79.39086,796.52747
"400",79.3518,796.54065
"401",79.35668,796.5541
"402",79.40795,796.56726
"403",79.49584,796.5807
"404",79.59838,796.5939
"405",79.68871,796.6073
"406",79.74731,796.6205
"407",79.75952,796.6339
"408",79.71313,796.6471
"409",79.61303,796.6605
"410",79.47143,796.6737
"411",79.30053,796.68713
"412",79.114975,796.7003
"413",78.924545,796.71375
"414",78.74387,796.7269
"415",78.5803,796.74036
"416",78.44114,796.75354
"417",78.328835,796.76697
"418",78.24338,796.78015
"419",78.17502,796.7936
"420",78.13107,796.80676
"421",78.11154,796.8202
"422",78.116425,796.8334
"423",78.14084,796.8468
"424",78.18234,796.86
"425",78.238495,796.8734
"426",78.294655,796.8866
"427",78.35081,796.9
"428",78.399635,796.9132
"429",78.44358,796.92664
"430",78.47776,796.9398
"431",78.5095,796.95325
"432",78.56321,796.96643
"433",78.69016,796.97986
"434",78.94896,796.99304
"435",79.40307,797.0065
"436",80.05737,797.01965
"437",80.87038,797.0331
"438",81.7322,797.04626
"439",82.511024,797.0597
"440",83.09453,797.0729
"441",83.41436,797.0863
"442",83.46075,797.0995
"443",83.27764,797.1129
"444",82.92851,797.1261
"445",82.48173,797.1395
"446",81.99832,797.1527
"447",81.52712,797.16614
"448",81.10231,797.1793
"449",80.74586,797.19275
"450",80.465096,797.20593
"451",80.2478,797.21936
"452",80.08423,797.23254
"453",79.94507,797.246
"454",79.82544,797.25916
"455",79.71313,797.2726
"456",79.62035,797.28577
"457",79.55688,797.2992
"458",79.537346,797.3124
"459",79.5642,797.3258
"460",79.63744,797.339
"461",79.73754,797.3524
"462",79.83765,797.3656
"463",79.91577,797.379
"464",79.94751,797.3922
"465",79.92554,797.40564
"466",79.84497,797.4188
"467",79.71557,797.43225
"468",79.54955,797.44543
"469",79.36889,797.45886
"470",79.17845,797.47205
"471",78.99779,797.4855
"472",78.82689,797.49866
"473",78.67307,797.5121
"474",78.54124,797.52527
"475",78.43626,797.5387
"476",78.35813,797.5519
"477",78.3093,797.5653
"478",78.28489,797.5785
"479",78.277565,797.5919
"480",78.28489,797.6051
"481",78.30442,797.6185
"482",78.331276,797.6317
"483",78.365456,797.64514
"484",78.40696,797.6583
"485",78.45335,797.67175
"486",78.502174,797.68494
"487",78.54612,797.69836
"488",78.58274,797.71155
"489",78.607155,797.725
"490",78.61936,797.73816
"491",78.624245,797.7516
"492",78.643776,797.7648
"493",78.69993,797.7782
"494",78.84886,797.7914
"495",79.14671,797.8048
"496",79.639885,797.818
"497",80.32105,797.8314
"498",81.13649,797.8446
"499",81.97879,797.85803
"500",82.718544,797.8712
"501",83.24834,797.88464
"502",83.50713,797.8978
"503",83.50469,797.91125
"504",83.284966,797.92444
"505",82.913864,797.93787
"506",82.459755,797.95105
"507",81.98367,797.9645
"508",81.53689,797.97766
"509",81.146255,797.9911
"510",80.831314,798.0043
"511",80.584724,798.0177
"512",80.396736,798.0309
"513",80.2478,798.0443
"514",80.11597,798.0575
"515",79.98901,798.0709
"516",79.86694,798.0841
"517",79.76196,798.09753
"518",79.68871,798.1107
"519",79.66186,798.12415
"520",79.68383,798.1373
"521",79.74731,798.15076
"522",79.835205,798.16394
"523",79.92554,798.17737
"524",79.991455,798.19055
"525",80.01831,798.204
"526",80.00122,798.21716
"527",79.93286,798.2306
"528",79.82056,798.2438
"529",79.674065,798.2572
"530",79.50805,798.2704
"531",79.33471,798.2838
"532",79.1638,798.297
"533",79.00511,798.3104
"534",78.86839,798.3236
"535",78.751205,798.33704
"536",78.658424,798.3502
"537",78.58762,798.36365
"538",78.536354,798.37683
"539",78.504616,798.39026
"540",78.48997,798.40344
"541",78.48997,798.4169
"542",78.49729,798.43005
"543",78.51682,798.4435
"544",78.54368,798.45667
"545",78.57786,798.4701
"546",78.61936,798.4833
"547",78.67063,798.4967
"548",78.7219,798.5099
"549",78.768295,798.5233
"550",78.80736,798.5365
"551",78.839096,798.5499
"552",78.85863,798.5631
"553",78.86595,798.57654
"554",78.86351,798.5897
"555",78.86107,798.60315
"556",78.853745,798.61633
"557",78.870834,798.62976
"558",78.95628,798.64294
"559",79.17357,798.6564
"560",79.571526,798.66956
"561",80.177,798.683
"562",80.9485,798.69617
"563",81.80301,798.7096
"564",82.61112,798.7228
"565",83.24834,798.7362
"566",83.63409,798.7494
"567",83.75372,798.7628
"568",83.63409,798.776
"569",83.33135,798.7894
"570",82.91875,798.8026
"571",82.459755,798.81604
"572",82.005646,798.8292
"573",81.58816,798.84265
"574",81.23903,798.85583
"575",80.96071,798.86926
"576",80.74586,798.88245
"577",80.57984,798.8959
"578",80.43336,798.90906
"579",80.2942,798.9225
"580",80.15503,798.93567
"581",80.03052,798.9491
"582",79.937744,798.9623
"583",79.89136,798.9757
"584",79.89868,798.9889
"585",79.957275,799.0023
"586",80.04761,799.0155
"587",80.14282,799.02893
"588",80.22095,799.0421
"589",80.2649,799.05554
"590",80.255135,799.0687
"591",80.19409,799.08215
"592",80.079346,799.09534
"593",79.92554,799.10876
"594",79.74731,799.12195
"595",79.55932,799.1354
"596",79.37377,799.14856
"597",79.20531,799.162
"598",79.05882,799.1752
"599",78.93431,799.1886
"600",78.83177,799.2018
"601",78.746315,799.2152
"602",78.6804,799.2284
"603",78.63401,799.2418
"604",78.60471,799.255
"605",78.59983,799.26843
"606",78.61448,799.2816
"607",78.643776,799.29504
"608",78.6804,799.3082
"609",78.72434,799.32166
"610",78.765854,799.33484
"611",78.8098,799.34827
"612",78.84886,799.36145
"613",78.88548,799.3749
"614",78.91478,799.38806
"615",78.941635,799.4015
"616",78.96605,799.4147
"617",78.98558,799.4281
"618",78.99779,799.4413
"619",79.00023,799.4547
"620",78.992905,799.4679
"621",78.975815,799.4813
"622",78.96605,799.4945
"623",79.00267,799.50793
"624",79.151596,799.5211
"625",79.47387,799.53455
"626",80.00366,799.5477
"627",80.72877,799.56116
"628",81.57351,799.57434
"629",82.41581,799.58777
"630",83.12871,799.60095
"631",83.60967,799.6144
"632",83.8172,799.62756
"633",83.76593,799.641
"634",83.51202,799.6542
"635",83.11894,799.6676
"636",82.65995,799.6808
"637",82.19119,799.6942
"638",81.75174,799.7074
"639",81.36355,799.7208
"640",81.041275,799.734
"641",80.782486,799.74744
"642",80.58228,799.7606
"643",80.42603,799.77405
"644",80.28687,799.78723
"645",80.15991,799.80066
"646",80.04028,799.81384
"647",79.937744,799.8273
"648",79.86694,799.84045
"649",79.835205,799.8539
"650",79.84985,799.86707
"651",79.903564,799.8805
"652",79.97925,799.8937
"653",80.05249,799.9071
"654",80.10864,799.9203
"655",80.12085,799.9337
"656",80.08423,799.9469
"657",79.9939,799.9603
"658",79.86206,799.9735
"659",79.69848,799.98694
"660",79.52514,800.0001
"661",79.34936,800.01355
"662",79.18089,800.02673
"663",79.0222,800.04016
"664",78.88304,800.05334
"665",78.76097,800.0668
"666",78.660866,800.07996
"667",78.58518,800.0934
"668",78.53147,800.10657
"669",78.49973,800.12
"670",78.485085,800.1332
"671",78.48997,800.1466
"672",78.51194,800.1598
"673",78.54124,800.1732
"674",78.57786,800.1864
"675",78.61448,800.1998
"676",78.643776,800.213
"677",78.67307,800.22644
"678",78.70237,800.2396
"679",78.729225,800.25305
"680",78.75853,800.26624
"681",78.785385,800.27966
"682",78.8098,800.29285
"683",78.83177,800.3063
"684",78.84886,800.31946
"685",78.86107,800.3329
"686",78.873276,800.34607
"687",78.8806,800.3595
"688",78.88304,800.3727
"689",78.887924,800.3861
"690",78.88548,800.3993
"691",78.870834,800.4127
"692",78.8513,800.4259
"693",78.83421,800.43933
"694",78.856186,800.4525
"695",78.97826,800.46594
"696",79.27856,800.4791
"697",79.80347,800.49255
"698",80.5481,800.50574
"699",81.43923,800.51917
"700",82.354774,800.53235
"701",83.15312,800.5458
"702",83.717094,800.55896
"703",83.99298,800.5724
"704",83.99298,800.5856
"705",83.76105,800.599
"706",83.36553,800.6122
"707",82.879684,800.6256
"708",82.3621,800.6388
"709",81.85916,800.6522
"710",81.409935,800.6654
"711",81.03883,800.67883
"712",80.7483,800.692
"713",80.52613,800.70544
"714",80.35767,800.7186
"715",80.22339,800.73206
"716",80.09888,800.74524
"717",79.97925,800.75867
"718",79.871826,800.77185
"719",79.783936,800.7853
"720",79.73266,800.79846
"721",79.725334,800.8119
"722",79.75952,800.8251
"723",79.823,800.8385
"724",79.903564,800.8517
"725",79.97681,800.8651
"726",80.01587,800.8783
"727",80.008545,800.8917
"728",79.95239,800.9049
"729",79.84497,800.91833
"730",79.70336,800.9315
"731",79.537346,800.94495
"732",79.361565,800.9581
"733",79.183334,800.97156
"734",79.01732,800.98474
"735",78.86595,800.99817
"736",78.74143,801.01135
"737",78.641335,801.0248
"738",78.56565,801.03796
"739",78.51194,801.0514
"740",78.47532,801.0646
"741",78.45335,801.078
"742",78.44602,801.0912
"743",78.44846,801.1046
"744",78.467995,801.1178
"745",78.49485,801.1312
"746",78.52903,801.1444
"747",78.56077,801.15784
"748",78.60227,801.171
"749",78.641335,801.18445
"750",78.677956,801.19763
"751",78.71458,801.21106
"752",78.746315,801.22424
"753",78.77562,801.2377
"754",78.80003,801.25085
"755",78.81468,801.2643
"756",78.82689,801.27747
"757",78.836655,801.2909
"758",78.84642,801.3041
"759",78.85863,801.3175
"760",78.873276,801.3307
"761",78.887924,801.3441
"762",78.905014,801.3573
"763",78.91722,801.3707
"764",78.91966,801.3839
"765",78.91966,801.39734
"766",78.91234,801.4105
"767",78.90257,801.42395
"768",78.887924,801.43713
"769",78.87572,801.45056
"770",78.890366,801.46375
"771",78.97826,801.4772
"772",79.21263,801.49036
"773",79.65942,801.5038
"774",80.33326,801.51697
"775",81.19508,801.5304
"776",82.13992,801.5436
"777",83.02373,801.557
"778",83.717094,801.5702
"779",84.13214,801.5836
"780",84.2591,801.5968
"781",84.1297,801.6102
"782",83.79767,801.6234
"783",83.336235,801.63684
"784",82.81377,801.65
"785",82.27665,801.66345
"786",81.76639,801.67664
"787",81.3196,801.69006
"788",80.94606,801.70325
"789",80.65308,801.7167
"790",80.428474,801.72986
"791",80.257576,801.7433
"792",80.113525,801.7565
"793",79.98413,801.7699
"794",79.87427,801.7831
"795",79.78882,801.7965
"796",79.7351,801.8097
"797",79.725334,801.8231
"798",79.76196,801.8363
"799",79.83276,801.84973
"800",79.923096,801.8629
"801",80.01587,801.87634
"802",80.08667,801.8895
"803",80.11841,801.90295
"804",80.09888,801.91614
"805",80.03052,801.92957
"806",79.91089,801.94275
"807",79.75708,801.9562
"808",79.58373,801.96936
"809",79.40063,801.9828
"810",79.22728,801.996
"811",79.06615,802.0094
"812",78.924545,802.0226
"813",78.80492,802.036
"814",78.70237,802.0492
"815",78.6218,802.0626
"816",78.56565,802.0758
"817",78.53391,802.08923
"818",78.52415,802.1024
"819",78.53391,802.11584
"820",78.553444,802.129
"821",78.58762,802.14246
"822",78.626686,802.15564
"823",78.67063,802.16907
"824",78.71702,802.18225
"825",78.76341,802.1957
"826",78.80736,802.20886
"827",78.84642,802.2223
"828",78.88304,802.2355
"829",78.91234,802.2489
"830",78.93919,802.2621
"831",78.96605,802.2755
"832",78.98802,802.2887
"833",79.012436,802.3021
"834",79.03441,802.3153
"835",79.05394,802.32874
"836",79.06859,802.3419
"837",79.080795,802.35535
"838",79.08568,802.3685
"839",79.08324,802.38196
"840",79.07591,802.39514
"841",79.063705,802.40857
"842",79.04906,802.42175
"843",79.03685,802.4352
"844",79.03197,802.44836
"845",79.0515,802.4618
"846",79.13939,802.475
"847",79.361565,802.4884
"848",79.781494,802.5016
"849",80.41871,802.515
"850",81.23659,802.5282
"851",82.13016,802.5416
"852",82.97246,802.5548
"853",83.62676,802.56824
"854",84.02716,802.5814
"855",84.15167,802.59485
"856",84.034485,802.60803
"857",83.72442,802.62146
"858",83.282524,802.63464
"859",82.76982,802.6481
"860",82.24246,802.66125
"861",81.739525,802.6747
"862",81.29275,802.68787
"863",80.91676,802.7013
"864",80.618904,802.7145
"865",80.38697,802.7279
"866",80.198975,802.7411
"867",80.04761,802.7545
"868",79.920654,802.7677
"869",79.815674,802.7811
"870",79.73754,802.7943
"871",79.693596,802.80774
"872",79.69604,802.8209
"873",79.73998,802.83435
"874",79.823,802.84753
"875",79.92798,802.86096
"876",80.04028,802.87415
"877",80.130615,802.8876
"878",80.177,802.90076
"879",80.16968,802.9142
"880",80.10864,802.92737
"881",79.99634,802.9408
"882",79.84985,802.954
"883",79.68383,802.9674
"884",79.51049,802.9806
"885",79.344475,802.994
"886",79.185776,803.0072
"887",79.044174,803.0206
"888",78.92699,803.0338
"889",78.82689,803.04724
"890",78.746315,803.0604
"891",78.68528,803.07385
"892",78.641335,803.08704
"893",78.61448,803.10046
"894",78.59983,803.11365
"895",78.60471,803.1271
"896",78.62913,803.14026
"897",78.67063,803.1537
"898",78.71946,803.1669
"899",78.77074,803.1803
"900",78.82201,803.1935
"901",78.86595,803.2069
"902",78.90013,803.2201
"903",78.93431,803.2335
"904",78.97093,803.2467
"905",79.00511,803.26013
"906",79.04173,803.2733
"907",79.07591,803.28674
"908",79.10521,803.2999
"909",79.12718,803.31335
"910",79.151596,803.32654
"911",79.166245,803.33997
"912",79.17845,803.35315
"913",79.185776,803.3666
"914",79.183334,803.37976
"915",79.17357,803.3932
"916",79.15404,803.4064
"917",79.13695,803.4198
"918",79.13695,803.433
"919",79.19554,803.4464
"920",79.37377,803.4596
"921",79.73998,803.473
"922",80.325935,803.4862
"923",81.09743,803.49963
"924",81.971466,803.5128
"925",82.82109,803.52625
"926",83.51202,803.5394
"927",83.95392,803.55286
"928",84.11749,803.56604
"929",84.03204,803.57947
"930",83.74639,803.59265
"931",83.32403,803.6061
"932",82.828415,803.61926
"933",82.30595,803.6327
"934",81.80057,803.6459
"935",81.33181,803.6593
"936",80.92409,803.6725
"937",80.587166,803.6859
"938",80.31617,803.6991
"939",80.10376,803.7125
"940",79.937744,803.7257
"941",79.80347,803.73914
"942",79.693596,803.7523
"943",79.61791,803.76575
"944",79.586174,803.77893
"945",79.605705,803.79236
"946",79.67895,803.80554
"947",79.798584,803.819
"948",79.937744,803.83215
"949",80.07446,803.8456
"950",80.181885,803.85876
"951",80.24536,803.8722
"952",80.25269,803.8854
"953",80.201416,803.8988
"954",80.10376,803.912
"955",79.96216,803.9254
"956",79.7937,803.9386
"957",79.61303,803.952
"958",79.42748,803.9652
"959",79.256584,803.97864
"960",79.10033,803.9918
"961",78.96849,804.00525
"962",78.853745,804.01843
"963",78.76097,804.03186
"964",78.692604,804.04504
"965",78.643776,804.0585
"966",78.61692,804.07166
"967",78.59983,804.0851
"968",78.60227,804.09827
"969",78.61692,804.1117
"970",78.643776,804.1249
"971",78.6804,804.1383
"972",78.729225,804.1515
"973",78.77806,804.1649
"974",78.82201,804.1781
"975",78.86107,804.1915
"976",78.90013,804.2047
"977",78.93675,804.21814
"978",78.97337,804.2313
"979",79.012436,804.24475
"980",79.0515,804.25793
"981",79.08568,804.27136
"982",79.11986,804.28455
"983",79.149155,804.298
"984",79.17357,804.31116
"985",79.19066,804.3246
"986",79.1931,804.33777
"987",79.18089,804.3512
"988",79.16136,804.3644
"989",79.14183,804.3778
"990",79.14427,804.391
"991",79.2224,804.4044
"992",79.43725,804.4176
"993",79.84985,804.431
"994",80.47486,804.4442
"995",81.27322,804.45764
"996",82.14725,804.4708
"997",82.9749,804.48425
"998",83.6292,804.49744
"999",84.0296,804.51086
"1000",84.16144,804.52405
"1001",84.03937,804.5375
"1002",83.72442,804.55066
"1003",83.2752,804.5641
"1004",82.75517,804.5773
"1005",82.21561,804.5907
"1006",81.69314,804.6039
"1007",81.22438,804.6173
"1008",80.82155,804.6305
"1009",80.48951,804.6439
"1010",80.218506,804.6571
"1011",80.008545,804.67053
"1012",79.84009,804.6837
"1013",79.708244,804.69714
"1014",79.61059,804.7103
"1015",79.54955,804.72375
"1016",79.534904,804.73694
"1017",79.56176,804.75037
"1018",79.63012,804.76355
"1019",79.73754,804.777
"1020",79.869385,804.79016
"1021",79.99878,804.8036
"1022",80.10864,804.8168
"1023",80.177,804.8302
"1024",80.19165,804.8434
"1025",80.147705,804.8568
"1026",80.05493,804.87
"1027",79.923096,804.8834
"1028",79.764404,804.8966
"1029",79.59594,804.91003
"1030",79.42748,804.9232
"1031",79.26391,804.93665
"1032",79.114975,804.9498
"1033",78.98558,804.96326
"1034",78.873276,804.97644
"1035",78.7805,804.98987
"1036",78.709694,805.00305
"1037",78.658424,805.0165
"1038",78.63401,805.02966
"1039",78.62913,805.0431
"1040",78.63401,805.0563
"1041",78.64622,805.0697
"1042",78.67063,805.0829
"1043",78.69993,805.0963
"1044",78.73411,805.1095
"1045",78.77318,805.1229
"1046",78.819565,805.1361
"1047",78.86351,805.14954
"1048",78.9099,805.1627
"1049",78.95384,805.17615
"1050",79.00023,805.18933
"1051",79.04173,805.20276
"1052",79.078354,805.21594
"1053",79.114975,805.2294
"1054",79.149155,805.24255
"1055",79.17845,805.256
"1056",79.19554,805.26917
"1057",79.20531,805.2826
"1058",79.19798,805.2958
"1059",79.17845,805.3092
"1060",79.1638,805.3224
"1061",79.17601,805.3358
"1062",79.276115,805.349
"1063",79.52758,805.3624
"1064",79.991455,805.3756
"1065",80.672615,805.38904
"1066",81.52224,805.4022
"1067",82.42069,805.41565
"1068",83.23857,805.42883
"1069",83.85382,805.44226
"1070",84.19806,805.45544
"1071",84.26887,805.4689
"1072",84.1004,805.48206
"1073",83.75128,805.4955
"1074",83.28008,805.50867
"1075",82.74296,805.5221
"1076",82.19119,805.5353
"1077",81.65896,805.5487
"1078",81.18532,805.5619
"1079",80.780045,805.5753
"1080",80.45045,805.5885
"1081",80.18921,805.6019
"1082",79.98657,805.6151
"1083",79.82056,805.62854
"1084",79.68871,805.6417
"1085",79.588615,805.65515
"1086",79.52758,805.66833
"1087",79.50317,805.68176
"1088",79.52514,805.69495
"1089",79.588615,805.7084
"1090",79.68383,805.72156
"1091",79.79126,805.735
"1092",79.89868,805.74817
"1093",79.97925,805.7616
"1094",80.02319,805.7748
"1095",80.01343,805.7882
"1096",79.957275,805.8014
"1097",79.85474,805.8148
"1098",79.71557,805.828
"1099",79.551994,805.84143
"1100",79.38354,805.8546
"1101",79.21507,805.86804
"1102",79.05394,805.8812
"1103",78.905014,805.89465
"1104",78.77562,805.90784
"1105",78.66819,805.92126
"1106",78.58274,805.93445
"1107",78.519264,805.9479
"1108",78.4802,805.96106
"1109",78.45335,805.9745
"1110",78.44114,805.9877
"1111",78.4387,806.0011
"1112",78.44846,806.0143
"1113",78.46555,806.0277
"1114",78.49241,806.0409
"1115",78.53147,806.0543
"1116",78.5803,806.0675
"1117",78.62913,806.08093
"1118",78.677956,806.0941
"1119",78.729225,806.10754
"1120",78.7805,806.1207
"1121",78.83177,806.13416
"1122",78.88304,806.14734
"1123",78.93187,806.16077
"1124",78.97826,806.17395
"1125",79.01488,806.1874
"1126",79.03685,806.20056
"1127",79.044174,806.214
"1128",79.044174,806.2272
"1129",79.03929,806.2406
"1130",79.05638,806.2538
"1131",79.14671,806.2672
"1132",79.38354,806.2804
"1133",79.82056,806.2938
"1134",80.47242,806.307
"1135",81.29763,806.32043
"1136",82.196075,806.3336
"1137",83.03105,806.34705
"1138",83.67559,806.3602
"1139",84.054016,806.37366
"1140",84.15411,806.38684
"1141",84.00763,806.40027
"1142",83.66827,806.41345
"1143",83.20195,806.4269
"1144",82.6746,806.44006
"1145",82.13016,806.4535
"1146",81.600365,806.4667
"1147",81.126724,806.4801
"1148",80.72144,806.4933
"1149",80.38697,806.5067
"1150",80.12573,806.5199
"1151",79.93042,806.5333
"1152",79.77661,806.5465
"1153",79.656975,806.55994
"1154",79.569084,806.5731
"1155",79.517815,806.58655
"1156",79.50805,806.59973
"1157",79.53979,806.61316
"1158",79.61303,806.62634
"1159",79.71801,806.6398
"1160",79.83276,806.65295
"1161",79.937744,806.6664
"1162",80.01343,806.67957
"1163",80.04761,806.693
"1164",80.03052,806.7062
"1165",79.96216,806.7196
"1166",79.852295,806.7328
"1167",79.7058,806.7462
"1168",79.53979,806.7594
"1169",79.361565,806.7728
"1170",79.18822,806.786
"1171",79.03197,806.79944
"1172",78.890366,806.8126
"1173",78.765854,806.82605
"1174",78.66331,806.83923
"1175",78.58274,806.85266
"1176",78.521706,806.86584
"1177",78.48264,806.8793
"1178",78.467995,806.89246
"1179",78.46555,806.9059
"1180",78.47532,806.91907
"1181",78.48997,806.9325
"1182",78.51194,806.9457
"1183",78.538795,806.9591
"1184",78.57053,806.9723
"1185",78.61204,806.9857
"1186",78.65354,806.9989
"1187",78.70237,807.0123
"1188",78.74876,807.0255
"1189",78.79759,807.03894
"1190",78.84642,807.0521
"1191",78.890366,807.06555
"1192",78.93187,807.07874
"1193",78.958725,807.09216
"1194",78.97826,807.10535
"1195",78.98558,807.1188
"1196",78.98558,807.13196
"1197",78.99046,807.1454
"1198",79.01732,807.15857
"1199",79.10765,807.172
"1200",79.33715,807.1852
"1201",79.75464,807.1986
"1202",80.38209,807.2118
"1203",81.180435,807.2252
"1204",82.054474,807.2384
"1205",82.86748,807.25183
"1206",83.49493,807.265
"1207",83.86603,807.27844
"1208",83.96124,807.2916
"1209",83.8172,807.30505
"1210",83.492485,807.31824
"1211",83.05058,807.33167
"1212",82.545204,807.34485
"1213",82.022736,807.3583
"1214",81.5198,807.37146
"1215",81.06325,807.3849
"1216",80.66773,807.3981
"1217",80.343025,807.4115
"1218",80.08423,807.4247
"1219",79.88403,807.4381
"1220",79.725334,807.4513
"1221",79.59838,807.4647
"1222",79.50561,807.4779
"1223",79.4519,807.49133
"1224",79.44457,807.5045
"1225",79.49096,807.51794
"1226",79.57885,807.5311
"1227",79.70092,807.54456
"1228",79.83032,807.55774
"1229",79.94995,807.57117
"1230",80.025635,807.58435
"1231",80.05737,807.5978
"1232",80.03296,807.61096
"1233",79.95972,807.6244
"1234",79.84253,807.6376
"1235",79.70092,807.651
"1236",79.54223,807.6642
"1237",79.37621,807.6776
"1238",79.21263,807.6908
"1239",79.05882,807.7042
"1240",78.924545,807.7174
"1241",78.81224,807.73083
"1242",78.7219,807.744
"1243",78.6511,807.75745
"1244",78.59983,807.7706
"1245",78.55833,807.78406
"1246",78.52903,807.79724
"1247",78.519264,807.81067
"1248",78.52659,807.82385
"1249",78.54856,807.8373
"1250",78.5803,807.85046
"1251",78.6218,807.8639
"1252",78.66575,807.8771
"1253",78.70725,807.8905
"1254",78.75365,807.9037
"1255",78.79759,807.9171
"1256",78.84154,807.9303
"1257",78.887924,807.9437
"1258",78.93187,807.9569
"1259",78.96605,807.97034
"1260",78.995346,807.9835
"1261",79.01976,807.99695
"1262",79.03685,808.01013
"1263",79.063705,808.02356
"1264",79.12962,808.03674
"1265",79.290764,808.0502
"1266",79.61059,808.06335
"1267",80.13306,808.0768
"1268",80.84596,808.08997
"1269",81.67849,808.1034
"1270",82.51835,808.1166
"1271",83.23369,808.13
"1272",83.72198,808.1432
"1273",83.93927,808.1566
"1274",83.895325,808.1698
"1275",83.63653,808.1832
"1276",83.226364,808.1964
"1277",82.72343,808.20984
"1278",82.19119,808.223
"1279",81.6614,808.23645
"1280",81.163345,808.24963
"1281",80.723885,808.26306
"1282",80.35523,808.27625
"1283",80.062256,808.2897
"1284",79.835205,808.30286
"1285",79.66186,808.3163
"1286",79.53246,808.32947
"1287",79.44213,808.3429
"1288",79.39086,808.3561
"1289",79.38598,808.3695
"1290",79.43725,808.3827
"1291",79.537346,808.3961
"1292",79.674065,808.4093
"1293",79.823,808.4227
"1294",79.9646,808.4359
"1295",80.06958,808.44934
"1296",80.12573,808.4625
"1297",80.12085,808.47595
"1298",80.0647,808.48914
"1299",79.96216,808.50256
"1300",79.82788,808.51575
"1301",79.66918,808.5292
"1302",79.500725,808.54236
"1303",79.33227,808.5558
"1304",79.17601,808.569
"1305",79.03441,808.5824
"1306",78.9099,808.5956
"1307",78.80492,808.609
"1308",78.71458,808.6222
"1309",78.643776,808.6356
"1310",78.590065,808.6488
"1311",78.555885,808.66223
"1312",78.538795,808.6754
"1313",78.54124,808.68884
"1314",78.553444,808.702
"1315",78.572975,808.71545
"1316",78.60227,808.72864
"1317",78.63889,808.74207
"1318",78.6804,808.75525
"1319",78.729225,808.7687
"1320",78.7805,808.78186
"1321",78.83421,808.7953
"1322",78.8806,808.8085
"1323",78.91966,808.8219
"1324",78.95384,808.8351
"1325",78.9807,808.8485
"1326",79.00755,808.8617
"1327",79.061264,808.8751
"1328",79.18822,808.8883
"1329",79.447014,808.90173
"1330",79.88403,808.9149
"1331",80.50416,808.92834
"1332",81.25857,808.9415
"1333",82.056915,808.95496
"1334",82.774704,808.96814
"1335",83.29717,808.98157
"1336",83.57305,808.99475
"1337",83.59014,809.0082
"1338",83.387505,809.02136
"1339",83.01396,809.0348
"1340",82.54032,809.048
"1341",82.01541,809.0614
"1342",81.48562,809.0746
"1343",80.9778,809.088
"1344",80.51881,809.1012
"1345",80.11841,809.1146
"1346",79.79126,809.1278
"1347",79.53002,809.14124
"1348",79.32983,809.1544
"1349",79.185776,809.16785
"1350",79.10277,809.181
"1351",79.08812,809.19446
"1352",79.13695,809.20764
"1353",79.256584,809.22107
"1354",79.43725,809.23425
"1355",79.65209,809.2477
"1356",79.871826,809.26086
"1357",80.059814,809.2743
"1358",80.19653,809.2875
"1359",80.26734,809.3009
"1360",80.26734,809.3141
"1361",80.201416,809.3275
"1362",80.096436,809.3407
"1363",79.957275,809.3541
"1364",79.801025,809.3673
"1365",79.63256,809.38074
"1366",79.466545,809.3939
"1367",79.30785,809.40735
"1368",79.1638,809.42053
"1369",79.03685,809.43396
"1370",78.92943,809.44714
"1371",78.839096,809.4606
"1372",78.768295,809.47375
"1373",78.71458,809.4872
"1374",78.6804,809.50037
"1375",78.66331,809.5138
"1376",78.66331,809.527
"1377",78.67307,809.5404
"1378",78.692604,809.5536
"1379",78.71946,809.567
"1380",78.75853,809.5802
"1381",78.802475,809.5936
"1382",78.8513,809.6068
"1383",78.907455,809.62024
"1384",78.958725,809.6334
"1385",79.00267,809.64685
"1386",79.04173,809.66003
"1387",79.07103,809.67346
"1388",79.09544,809.68665
"1389",79.12474,809.7001
"1390",79.185776,809.71326
"1391",79.33471,809.7267
"1392",79.63256,809.73987
"1393",80.10864,809.7533
"1394",80.75563,809.7665
"1395",81.50759,809.7799
"1396",82.25956,809.7931
"1397",82.89189,809.8065
"1398",83.30938,809.8197
"1399",83.47784,809.8331
"1400",83.404594,809.8463
"1401",83.13603,809.85974
"1402",82.720985,809.8729
"1403",82.22781,809.88635
"1404",81.7029,809.89954
"1405",81.18288,809.91296
"1406",80.69459,809.92615
"1407",80.25269,809.9396
"1408",79.869385,809.95276
"1409",79.54467,809.9662
"1410",79.281,809.9794
"1411",79.080795,809.9928
"1412",78.95628,810.006
"1413",78.9099,810.0194
"1414",78.9514,810.0326
"1415",79.078354,810.046
"1416",79.281,810.0592
"1417",79.53002,810.07263
"1418",79.798584,810.0858
"1419",80.05249,810.09924
"1420",80.255135,810.1124
"1421",80.38697,810.12585
"1422",80.43824,810.13904
"1423",80.413826,810.15247
"1424",80.323494,810.16565
"1425",80.181885,810.1791
"1426",80.01343,810.19226
"1427",79.82788,810.2057
"1428",79.64233,810.2189
"1429",79.466545,810.2323
"1430",79.31518,810.2455
"1431",79.185776,810.2589
"1432",79.07591,810.2721
"1433",78.98558,810.2855
"1434",78.91234,810.2987
"1435",78.856186,810.31213
"1436",78.81712,810.3253
"1437",78.79515,810.33875
"1438",78.79027,810.3519
"1439",78.80003,810.36536
"1440",78.819565,810.37854
"1441",78.8513,810.39197
"1442",78.89281,810.40515
"1443",78.94408,810.4186
"1444",79.00023,810.43176
"1445",79.05882,810.4452
"1446",79.11253,810.4584
"1447",79.16136,810.4718
"1448",79.19554,810.485
"1449",79.22484,810.4984
"1450",79.25414,810.5116
"1451",79.30785,810.525
"1452",79.43481,810.5382
"1453",79.691154,810.55164
"1454",80.11841,810.5648
"1455",80.71656,810.57825
"1456",81.42458,810.59143
"1457",82.15457,810.60486
"1458",82.78691,810.61804
"1459",83.22392,810.6315
"1460",83.4168,810.64465
"1461",83.36797,810.6581
"1462",83.11894,810.67126
"1463",82.72343,810.6847
"1464",82.23758,810.6979
"1465",81.71023,810.7113
"1466",81.18776,810.7245
"1467",80.689705,810.7379
"1468",80.24536,810.7511
"1469",79.852295,810.7645
"1470",79.52514,810.7777
"1471",79.259026,810.79114
"1472",79.05882,810.8043
"1473",78.93187,810.81775
"1474",78.89525,810.83093
"1475",78.95384,810.84436
"1476",79.11009,810.85754
"1477",79.34936,810.871
"1478",79.64477,810.88416
"1479",79.95239,810.8976
"1480",80.23804,810.91077
"1481",80.462654,810.9242
"1482",80.6067,810.9374
"1483",80.66529,810.9508
"1484",80.65064,810.964
"1485",80.567635,810.9774
"1486",80.44068,810.9906
"1487",80.28199,811.004
"1488",80.10864,811.0172
"1489",79.92554,811.03064
"1490",79.74975,811.0438
"1491",79.59106,811.05725
"1492",79.449455,811.07043
"1493",79.32983,811.08386
"1494",79.23216,811.09705
"1495",79.15892,811.1105
"1496",79.10765,811.12366
"1497",79.07591,811.1371
"1498",79.063705,811.15027
"1499",79.06615,811.1637
"1500",79.078354,811.1769
"1501",79.09544,811.1903
"1502",79.11986,811.2035
"1503",79.14671,811.2169
"1504",79.17601,811.2301
"1505",79.20531,811.2435
"1506",79.237045,811.2567
"1507",79.273674,811.27014
"1508",79.33715,811.2833
"1509",79.47387,811.29675
"1510",79.7351,811.30994
"1511",80.15259,811.32336
"1512",80.723885,811.33655
"1513",81.39529,811.35
"1514",82.07156,811.36316
"1515",82.6453,811.3766
"1516",83.035934,811.3898
"1517",83.194626,811.4032
"1518",83.13115,811.4164
"1519",82.88457,811.4298
"1520",82.50126,811.443
"1521",82.0325,811.4564
"1522",81.52468,811.4696
"1523",81.01442,811.48303
"1524",80.52613,811.4962
"1525",80.08423,811.50964
"1526",79.69848,811.5228
"1527",79.37377,811.53625
"1528",79.114975,811.54944
"1529",78.92943,811.56287
"1530",78.819565,811.57605
"1531",78.802475,811.5895
"1532",78.87816,811.60266
"1533",79.04906,811.6161
"1534",79.30053,811.6293
"1535",79.603264,811.6427
"1536",79.91333,811.6559
"1537",80.19653,811.6693
"1538",80.42115,811.6825
"1539",80.570076,811.6959
"1540",80.63355,811.7091
"1541",80.62623,811.72253
"1542",80.552986,811.7357
"1543",80.43336,811.74915
"1544",80.27955,811.7623
"1545",80.111084,811.77576
"1546",79.9353,811.78894
"1547",79.76929,811.80237
"1548",79.61791,811.81555
"1549",79.48608,811.829
"1550",79.37621,811.84216
"1551",79.28832,811.8556
"1552",79.219955,811.8688
"1553",79.1638,811.8822
"1554",79.11742,811.8954
"1555",79.08568,811.9088
"1556",79.063705,811.922
"1557",79.05394,811.9354
"1558",79.0515,811.9486
"1559",79.04906,811.96204
"1560",79.063705,811.9752
"1561",79.1223,811.98865
"1562",79.27856,812.00183
"1563",79.59594,812.01526
"1564",80.10376,812.02844
"1565",80.7776,812.0419
"1566",81.54421,812.05505
"1567",82.29618,812.0685
"1568",82.916306,812.08167
"1569",83.3167,812.0951
"1570",83.46075,812.1083
"1571",83.36553,812.1217
"1572",83.072556,812.1349
"1573",82.64286,812.1483
"1574",82.1326,812.1615
"1575",81.5906,812.1749
"1576",81.06081,812.1881
"1577",80.56275,812.20154
"1578",80.11841,812.2147
"1579",79.73266,812.22815
"1580",79.40795,812.24133
"1581",79.151596,812.25476
"1582",78.96849,812.26794
"1583",78.86107,812.2814
"1584",78.84154,812.29456
"1585",78.91722,812.308
"1586",79.078354,812.32117
"1587",79.30785,812.3346
"1588",79.57641,812.3478
"1589",79.84985,812.3612
"1590",80.096436,812.3744
"1591",80.28687,812.3878
"1592",80.40162,812.401
"1593",80.44068,812.4144
"1594",80.4065,812.4276
"1595",80.31617,812.44104
"1596",80.181885,812.4542
"1597",80.01831,812.46765
"1598",79.84253,812.48083
"1599",79.66674,812.49426
"1600",79.49584,812.50745
"1601",79.34203,812.5209
"1602",79.21263,812.53406
"1603",79.10277,812.5475
"1604",79.012436,812.56067
"1605",78.94896,812.5741
"1606",78.90257,812.5873
"1607",78.873276,812.6007
"1608",78.856186,812.6139
"1609",78.84642,812.6273
"1610",78.84886,812.6405
"1611",78.88304,812.65393
"1612",78.99046,812.6671
"1613",79.234604,812.68054
"1614",79.6643,812.6937
"1615",80.28687,812.70715
"1616",81.05348,812.72034
"1617",81.866486,812.73376
"1618",82.6038,812.74695
"1619",83.15068,812.7604
"1620",83.441216,812.77356
"1621",83.47051,812.787
"1622",83.28008,812.8002
"1623",82.91875,812.8136
"1624",82.44999,812.8268
"1625",81.92508,812.8402
"1626",81.392845,812.8534
"1627",80.8777,812.8668
"1628",80.413826,812.88
"1629",80.01099,812.89343
"1630",79.676506,812.9066
"1631",79.40795,812.92004
"1632",79.21019,812.9332
"1633",79.07591,812.94666
"1634",79.012436,812.95984
"1635",79.02464,812.97327
"1636",79.1223,812.98645
"1637",79.28344,812.9999
"1638",79.4934,813.01306
"1639",79.725334,813.0265
"1640",79.94507,813.0397
"1641",80.12329,813.0531
"1642",80.24048,813.0663
"1643",80.28687,813.0797
"1644",80.26734,813.0929
"1645",80.18677,813.1063
"1646",80.06714,813.1195
"1647",79.91577,813.13293
"1648",79.74975,813.1461
"1649",79.57885,813.15955
"1650",79.41772,813.1727
"1651",79.26635,813.18616
"1652",79.13451,813.19934
"1653",79.029526,813.21277
"1654",78.93919,813.22595
"1655",78.86839,813.2394
"1656",78.81224,813.25256
"1657",78.77562,813.266
"1658",78.751205,813.2792
"1659",78.74143,813.2926
"1660",78.74876,813.3058
"1661",78.79759,813.3192
"1662",78.93431,813.3324
"1663",79.23216,813.3458
"1664",79.73022,813.359
"1665",80.41871,813.37244
"1666",81.23659,813.3856
"1667",82.06912,813.39905
"1668",82.78203,813.41223
"1669",83.26299,813.42566
"1670",83.47295,813.43884
"1671",83.424126,813.4523
"1672",83.160446,813.46545
"1673",82.7454,813.4789
"1674",82.24002,813.49207
"1675",81.705345,813.5055
"1676",80.71168,813.5321
"1677",80.30396,813.5453
"1678",79.971924,813.5587
"1679",79.71557,813.5719
"1680",79.517815,813.5853
"1681",79.36645,813.5985
"1682",79.26391,813.61194
"1683",79.21263,813.6251
"1684",79.217514,813.63855
"1685",79.27856,813.65173
"1686",79.395744,813.66516
"1687",79.55688,813.67834
"1688",79.73022,813.6918
"1689",79.89136,813.70496
"1690",80.01099,813.7184
"1691",80.076904,813.73157
"1692",80.08179,813.745
"1693",80.025635,813.7582
"1694",79.92554,813.7716
"1695",79.79614,813.7848
"1696",79.64721,813.7982
"1697",79.4934,813.8114
"1698",79.344475,813.8248
"1699",79.21263,813.838
"1700",79.097885,813.85144
"1701",79.00023,813.8646
"1702",78.924545,813.87805
"1703",78.86839,813.89124
"1704",78.82689,813.90466
"1705",78.80003,813.91785
"1706",78.78783,813.9313
"1707",78.78294,813.94446
"1708",78.79271,813.9579
"1709",78.819565,813.97107
"1710",78.89525,813.9845
"1711",79.078354,813.9977
"1712",79.42504,814.0111
"1713",79.96948,814.0243
"1714",80.69215,814.0377
"1715",81.52712,814.0509
"1716",82.34745,814.06433
"1717",83.02617,814.0775
"1718",83.46807,814.09094
"1719",83.631645,814.1041
"1720",83.54131,814.11755
"1721",83.245895,814.13074
"1722",82.81865,814.14417
"1723",82.320595,814.15735
"1724",81.81033,814.1708
"1725",81.33181,814.18396
"1726",80.91188,814.1974
"1727",80.56275,814.2106
"1728",80.289314,814.224
"1729",80.07446,814.2372
"1730",79.903564,814.2506
"1731",79.76929,814.2638
"1732",79.66674,814.2772
"1733",79.5935,814.2904
"1734",79.56176,814.30383
"1735",79.571526,814.317
"1736",79.62035,814.33044
"1737",79.708244,814.3436
"1738",79.823,814.35706
"1739",79.93286,814.37024
"1740",80.02319,814.38367
"1741",80.06958,814.39685
"1742",80.0647,814.4103
"1743",79.99878,814.42346
"1744",79.886475,814.4369
"1745",79.7351,814.4501
"1746",79.569084,814.4635
"1747",79.38842,814.4767
"1748",79.217514,814.4901
"1749",79.061264,814.5033
"1750",78.92943,814.5167
"1751",78.82201,814.5299
"1752",78.74143,814.54333
"1753",78.68528,814.5565
"1754",78.65354,814.56995
"1755",78.63645,814.5831
"1756",78.62913,814.59656
"1757",78.62913,814.60974
"1758",78.63157,814.62317
"1759",78.63401,814.63635
"1760",78.64866,814.6498
"1761",78.692604,814.66296
"1762",78.802475,814.6764
"1763",79.03441,814.6896
"1764",79.44213,814.703
"1765",80.05005,814.7162
"1766",80.816666,814.7296
"1767",81.64919,814.7428
"1768",82.425575,814.7562
"1769",83.021286,814.7694
"1770",83.353325,814.78284
"1771",83.41436,814.796
"1772",83.23125,814.80945
"1773",82.86992,814.82263
"1774",82.408485,814.83606
"1775",81.90799,814.84924
"1776",81.427025,814.8627
"1777",80.99733,814.87585
"1778",80.64576,814.8893
"1779",80.37476,814.90247
"1780",80.17456,814.9159
"1781",80.02319,814.9291
"1782",79.90112,814.9425
"1783",79.78638,814.9557
"1784",79.68139,814.9691
"1785",79.588615,814.9823
"1786",79.5227,814.9957
"1787",79.49828,815.0089
"1788",79.5227,815.02234
"1789",79.588615,815.0355
"1790",79.68383,815.04895
"1791",79.781494,815.06213
"1792",79.85718,815.07556
"1793",79.8938,815.08875
"1794",79.87427,815.1022
"1795",79.798584,815.11536
"1796",79.676506,815.1288
"1797",79.52514,815.14197
"1798",79.35668,815.1554
"1799",79.19066,815.1686
"1800",79.03197,815.182
"1801",78.890366,815.1952
"1802",78.77074,815.2086
"1803",78.67063,815.2218
"1804",78.59251,815.2352
"1805",78.538795,815.2484
"1806",78.50706,815.26184
"1807",78.49729,815.275
"1808",78.504616,815.28845
"1809",78.53147,815.30164
"1810",78.56321,815.31506
"1811",78.60227,815.32825
"1812",78.63889,815.3417
"1813",78.67307,815.35486
"1814",78.70237,815.3683
"1815",78.72434,815.3815
"1816",78.74143,815.3949
"1817",78.765854,815.4081
"1818",78.82689,815.4215
"1819",78.97826,815.4347
"1820",79.28344,815.4481
"1821",79.783936,815.4613
"1822",80.47242,815.47473
"1823",81.28054,815.4879
"1824",82.09598,815.50134
"1825",82.794235,815.5145
"1826",83.26299,815.52795
"1827",83.46319,815.54114
"1828",83.41192,815.55457
"1829",83.15312,815.56775
"1830",82.7625,815.5812
"1831",82.303505,815.59436
"1832",81.83719,815.6078
"1833",81.40505,815.621
"1834",81.041275,815.6344
"1835",80.75563,815.6476
"1836",80.54322,815.661
"1837",80.38697,815.6742
"1838",80.26246,815.6876
"1839",80.15015,815.7008
"1840",80.03784,815.71423
"1841",79.92798,815.7274
"1842",79.83276,815.74084
"1843",79.76196,815.754
"1844",79.73022,815.76746
"1845",79.73998,815.78064
"1846",79.7937,815.79407
"1847",79.869385,815.80725
"1848",79.94995,815.8207
"1849",80.0061,815.83386
"1850",80.01343,815.8473
"1851",79.96948,815.8605
"1852",79.87427,815.8739
"1853",79.73754,815.8871
"1854",79.58129,815.9005
"1855",79.415276,815.9137
"1856",79.2517,815.9271
"1857",79.10033,815.9403
"1858",78.96605,815.95374
"1859",78.8513,815.9669
"1860",78.76097,815.98035
"1861",78.695045,815.9935
"1862",78.65354,816.00696
"1863",78.63157,816.02014
"1864",78.626686,816.03357
"1865",78.626686,816.04675
"1866",78.63889,816.0602
"1867",78.65598,816.07336
"1868",78.6804,816.0868
"1869",78.70481,816.1
"1870",78.73899,816.1134
"1871",78.77562,816.1266
"1872",78.81224,816.14
"1873",78.84398,816.1532
"1874",78.87572,816.1666
"1875",78.90013,816.1798
"1876",78.91966,816.19324
"1877",78.93675,816.2064
"1878",78.95384,816.21985
"1879",78.96605,816.23303
"1880",78.97337,816.24646
"1881",78.97337,816.25964
"1882",78.96605,816.2731
"1883",78.94408,816.28625
"1884",78.91966,816.2997
"1885",78.91478,816.31287
"1886",78.96849,816.3263
"1887",79.14671,816.3395
"1888",79.5227,816.3529
"1889",80.11597,816.3661
"1890",80.90456,816.3795
"1891",81.79324,816.3927
"1892",82.65507,816.4061
"1893",83.34844,816.4193
"1894",83.77814,816.43274
"1895",83.91974,816.4459
"1896",83.80255,816.45935
"1897",83.49004,816.47253
"1898",83.055466,816.48596
"1899",82.5745,816.49915
"1900",82.1033,816.5126
"1901",81.685814,816.52576
"1902",81.341576,816.5392
"1903",81.08034,816.55237
"1904",80.88991,816.5658
"1905",80.743416,816.579
"1906",80.618904,816.5924
"1907",80.49439,816.6056
"1908",80.360115,816.619
"1909",80.22339,816.6322
"1910",80.10132,816.6456
"1911",80.01099,816.6588
"1912",79.96704,816.67224
"1913",79.96948,816.6854
"1914",80.008545,816.69885
"1915",80.062256,816.71204
"1916",80.113525,816.72546
"1917",80.128174,816.73865
"1918",80.10132,816.7521
"1919",80.025635,816.76526
"1920",79.90845,816.7787
"1921",79.75708,816.7919
"1922",79.586174,816.8053
"1923",79.40795,816.8185
"1924",79.23216,816.8319
"1925",79.07591,816.8451
"1926",78.93919,816.8585
"1927",78.82201,816.8717
"1928",78.72678,816.88513
"1929",78.65598,816.8983
"1930",78.60227,816.91174
"1931",78.57542,816.9249
"1932",78.56809,816.93835
"1933",78.58274,816.95154
"1934",78.6096,816.96497
"1935",78.64622,816.97815
"1936",78.68528,816.9916
"1937",78.72434,817.00476
"1938",78.768295,817.0182
"1939",78.8098,817.0314
"1940",78.84642,817.0448
"1941",78.8806,817.058
"1942",78.905014,817.0714
"1943",78.922104,817.0846
"1944",78.93187,817.098
"1945",78.93431,817.1112
"1946",78.93431,817.12463
"1947",78.93675,817.1378
"1948",78.93675,817.15125
"1949",78.93919,817.1644
"1950",78.941635,817.17786
"1951",78.94652,817.19104
"1952",78.94652,817.20447
"1953",78.94652,817.21765
"1954",78.94652,817.2311
"1955",78.94896,817.24426
"1956",78.94896,817.2577
"1957",78.94652,817.2709
"1958",78.93675,817.2843
"1959",78.92943,817.2975
"1960",78.94652,817.3109
"1961",79.044174,817.3241
"1962",79.30053,817.3375
"1963",79.77417,817.3507
"1964",80.47242,817.36414
"1965",81.33669,817.3773
"1966",82.25712,817.39075
"1967",83.08232,817.40393
"1968",83.6878,817.41736
"1969",84.000305,817.43054
"1970",84.034485,817.444
"1971",83.82941,817.45715
"1972",83.458305,817.4706
"1973",82.98955,817.48376
"1974",82.493935,817.4972
"1975",82.01297,817.5104
"1976",81.58572,817.5238
"1977",81.23659,817.537
"1978",80.970474,817.5504
"1979",80.780045,817.5636
"1980",80.635994,817.577
"1981",80.51148,817.5902
"1982",80.38453,817.60364
"1983",80.255135,817.6168
"1984",80.128174,817.63025
"1985",80.02075,817.64343
"1986",79.95239,817.65686
"1987",79.93042,817.67004
"1988",79.94995,817.6835
"1989",80.00366,817.69666
"1990",80.06958,817.7101
"1991",80.12085,817.72327
"1992",80.14038,817.7367
"1993",80.113525,817.7499
"1994",80.042725,817.7633
"1995",79.92798,817.7765
"1996",79.781494,817.7899
"1997",79.61547,817.8031
"1998",79.43969,817.8165
"1999",79.273674,817.8297
"2000",79.11986,817.84314
"2001",78.98802,817.8563
"2002",78.87816,817.86975
"2003",78.78783,817.88293
"2004",78.712135,817.89636
"2005",78.660866,817.90955
"2006",78.62913,817.923
"2007",78.61692,817.93616
"2008",78.624245,817.9496
"2009",78.643776,817.96277
"2010",78.66575,817.9762
"2011",78.69016,817.9894
"2012",78.71946,818.0028
"2013",78.751205,818.016
"2014",78.78294,818.0294
"2015",78.81712,818.0426
"2016",78.84642,818.056
"2017",78.870834,818.0692
"2018",78.887924,818.08264
"2019",78.90013,818.0958
"2020",78.907455,818.10925
"2021",78.907455,818.12244
"2022",78.90257,818.13586
"2023",78.89525,818.14905
"2024",78.887924,818.1625
"2025",78.88548,818.17566
"2026",78.88548,818.1891
"2027",78.88548,818.2023
"2028",78.88304,818.2157
"2029",78.8806,818.2289
"2030",78.870834,818.2423
"2031",78.856186,818.2555
"2032",78.84154,818.2689
"2033",78.84154,818.2821
"2034",78.870834,818.29553
"2035",78.97337,818.3087
"2036",79.2224,818.32214
"2037",79.66918,818.3353
"2038",80.323494,818.34875
"2039",81.13405,818.36194
"2040",82.01053,818.37537
"2041",82.81621,818.38855
"2042",83.42657,818.402
"2043",83.76593,818.41516
"2044",83.83185,818.4286
"2045",83.66094,818.4418
"2046",83.30938,818.4552
"2047",82.85527,818.4684
"2048",82.36454,818.4818
"2049",81.88846,818.495
"2050",81.45876,818.5084
"2051",81.09987,818.5216
"2052",80.82155,818.53503
"2053",80.61646,818.5482
"2054",80.465096,818.56165
"2055",80.34058,818.5748
"2056",80.216064,818.58826
"2057",80.08911,818.60144
"2058",79.95972,818.61487
"2059",79.84985,818.62805
"2060",79.77661,818.6415
"2061",79.75464,818.65466
"2062",79.77905,818.6681
"2063",79.83765,818.6813
"2064",79.91089,818.6947
"2065",79.974365,818.7079
"2066",80.0061,818.7213
"2067",79.99634,818.7345
"2068",79.937744,818.7479
"2069",79.835205,818.7611
"2070",79.69848,818.77454
"2071",79.54223,818.7877
"2072",79.378654,818.80115
"2073",79.217514,818.81433
"2074",79.06859,818.82776
"2075",78.93431,818.84094
"2076",78.819565,818.8544
"2077",78.73167,818.86755
"2078",78.66819,818.881
"2079",78.6218,818.89417
"2080",78.59983,818.9076
"2081",78.60227,818.9208
"2082",78.61936,818.9342
"2083",78.64866,818.9474
"2084",78.68284,818.9608
"2085",78.71946,818.974
"2086",78.75365,818.9874
"2087",78.78783,819.0006
"2088",78.819565,819.01404
"2089",78.84642,819.0272
"2090",78.870834,819.04065
"2091",78.89281,819.05383
"2092",78.91234,819.06726
"2093",78.93431,819.08044
"2094",78.95628,819.0939
"2095",78.975815,819.10706
"2096",78.992905,819.1205
"2097",79.012436,819.13367
"2098",79.03197,819.1471
"2099",79.046616,819.1603
"2100",79.05638,819.1737
"2101",79.05882,819.1869
"2102",79.046616,819.2003
"2103",79.02464,819.2135
"2104",79.00023,819.2269
"2105",78.98314,819.2401
"2106",78.98802,819.25354
"2107",79.0515,819.2667
"2108",79.22972,819.28015
"2109",79.58129,819.29333
"2110",80.130615,819.30676
"2111",80.86305,819.31995
"2112",81.69802,819.3334
"2113",82.51835,819.34656
"2114",83.194626,819.36
"2115",83.63409,819.37317
"2116",83.80255,819.3866
"2117",83.72686,819.3998
"2118",83.44854,819.4132
"2119",83.04082,819.4264
"2120",82.56718,819.4398
"2121",82.08377,819.453
"2122",81.62722,819.46643
"2123",81.22926,819.4796
"2124",80.907,819.49304
"2125",80.65797,819.5062
"2126",80.47486,819.51965
"2127",80.33082,819.53284
"2128",80.2063,819.54626
"2129",80.09888,819.55945
"2130",79.99878,819.5729
"2131",79.91577,819.58606
"2132",79.8645,819.5995
"2133",79.84741,819.6127
"2134",79.871826,819.6261
"2135",79.93042,819.6393
"2136",80.008545,819.6527
"2137",80.08667,819.6659
"2138",80.14526,819.6793
"2139",80.16724,819.6925
"2140",80.14038,819.70593
"2141",80.062256,819.7191
"2142",79.940186,819.73254
"2143",79.79126,819.7457
"2144",79.622795,819.75916
"2145",79.45434,819.77234
"2146",79.290764,819.78577
"2147",79.14183,819.79895
"2148",79.012436,819.8124
"2149",78.905014,819.82556
"2150",78.82201,819.839
"2151",78.76341,819.8522
"2152",78.72678,819.8656
"2153",78.70481,819.8788
"2154",78.69749,819.8922
"2155",78.69993,819.9054
"2156",78.71458,819.9188
"2157",78.73899,819.932
"2158",78.77318,819.94543
"2159",78.8098,819.9586
"2160",78.84886,819.97205
"2161",78.88548,819.9852
"2162",78.922104,819.99866
"2163",78.95384,820.01184
"2164",78.98558,820.02527
"2165",79.01488,820.03845
"2166",79.03929,820.0519
"2167",79.063705,820.06506
"2168",79.08324,820.0785
"2169",79.10033,820.0917
"2170",79.11742,820.1051
"2171",79.12718,820.1183
"2172",79.12962,820.1317
"2173",79.1223,820.1449
"2174",79.11009,820.1583
"2175",79.09544,820.1715
"2176",79.10765,820.18494
"2177",79.18822,820.1981
"2178",79.40551,820.21155
"2179",79.81323,820.22473
"2180",80.41627,820.23816
"2181",81.17555,820.25134
"2182",81.991,820.2648
"2183",82.74052,820.27795
"2184",83.302055,820.2914
"2185",83.617,820.30457
"2186",83.67315,820.318
"2187",83.50713,820.3312
"2188",83.175095,820.3446
"2189",82.74296,820.3578
"2190",82.269325,820.3712
"2191",81.80057,820.3844
"2192",81.37087,820.3978
"2193",81.00221,820.411
"2194",80.70191,820.42444
"2195",80.47242,820.4376
"2196",80.29908,820.45105
"2197",80.15991,820.46423
"2198",80.042725,820.47766
"2199",79.9353,820.49084
"2200",79.84009,820.5043
"2201",79.766846,820.51746
"2202",79.73266,820.5309
"2203",79.73998,820.54407
"2204",79.78638,820.5575
"2205",79.86694,820.5707
"2206",79.957275,820.5841
"2207",80.04028,820.5973
"2208",80.093994,820.6107
"2209",80.10376,820.6239
"2210",80.062256,820.6373
"2211",79.974365,820.6505
"2212",79.84741,820.66394
"2213",79.693596,820.6771
"2214",79.52758,820.69055
"2215",79.361565,820.70374
"2216",79.20531,820.71716
"2217",79.07103,820.73035
"2218",78.95384,820.7438
"2219",78.86595,820.75696
"2220",78.79759,820.7704
"2221",78.751205,820.78357
"2222",78.7219,820.797
"2223",78.71458,820.8102
"2224",78.72678,820.8236
"2225",78.75609,820.8368
"2226",78.79515,820.8502
"2227",78.836655,820.8634
"2228",78.87816,820.87683
"2229",78.91722,820.89
"2230",78.95628,820.90344
"2231",79.00023,820.9166
"2232",79.044174,820.93005
"2233",79.09544,820.94324
"2234",79.14671,820.95667
"2235",79.1931,820.96985
"2236",79.22972,820.9833
"2237",79.259026,820.99646
"2238",79.27856,821.0099
"2239",79.28588,821.0231
"2240",79.28344,821.0365
"2241",79.273674,821.0497
"2242",79.26391,821.0631
"2243",79.256584,821.0763
"2244",79.28344,821.0897
"2245",79.38598,821.1029
"2246",79.63012,821.11633
"2247",80.05249,821.1295
"2248",80.66285,821.14294
"2249",81.40017,821.1561
"2250",82.18143,821.16956
"2251",82.879684,821.18274
"2252",83.39239,821.19617
"2253",83.66338,821.20935
"2254",83.69024,821.2228
"2255",83.50713,821.23596
"2256",83.16777,821.2494
"2257",82.735634,821.2626
"2258",82.269325,821.276
"2259",81.80789,821.2892
"2260",81.38308,821.3026
"2261",81.02174,821.3158
"2262",80.73365,821.3292
"2263",80.51392,821.3424
"2264",80.34547,821.35583
"2265",80.21118,821.369
"2266",80.08423,821.38245
"2267",79.96216,821.3956
"2268",79.852295,821.40906
"2269",79.766846,821.42224
"2270",79.72289,821.43567
"2271",79.727776,821.44885
"2272",79.781494,821.4623
"2273",79.8645,821.47546
"2274",79.9646,821.4889
"2275",80.05737,821.5021
"2276",80.11597,821.5155
"2277",80.12329,821.5287
"2278",80.08179,821.5421
"2279",79.98657,821.5553
"2280",79.84985,821.5687
"2281",79.691154,821.5819
"2282",79.52758,821.59534
"2283",79.36645,821.6085
"2284",79.217514,821.62195
"2285",79.08324,821.63513
"2286",78.97093,821.64856
"2287",78.87816,821.66174
"2288",78.80492,821.6752
"2289",78.75609,821.68835
"2290",78.72434,821.7018
"2291",78.709694,821.71497
"2292",78.70725,821.7284
"2293",78.71946,821.7416
"2294",78.73899,821.755
"2295",78.768295,821.7682
"2296",78.8098,821.7816
"2297",78.8513,821.7948
"2298",78.89281,821.8082
"2299",78.93431,821.8214
"2300",78.975815,821.83484
"2301",79.012436,821.848
"2302",79.04906,821.86145
"2303",79.08324,821.87463
"2304",79.114975,821.88806
"2305",79.14427,821.90125
"2306",79.166245,821.9147
"2307",79.18089,821.92786
"2308",79.18822,821.9413
"2309",79.18089,821.95447
"2310",79.17113,821.9679
"2311",79.183334,821.9811
"2312",79.26879,821.9945
"2313",79.49096,822.0077
"2314",79.906006,822.0211
"2315",80.51148,822.0343
"2316",81.25857,822.0477
"2317",82.04959,822.0609
"2318",82.7625,822.07434
"2319",83.28741,822.0875
"2320",83.563286,822.10095
"2321",83.59014,822.11414
"2322",83.407036,822.12756
"2323",83.06523,822.14075
"2324",82.62577,822.1542
"2325",82.14969,822.16736
"2326",81.67849,822.1808
"2327",81.25124,822.194
"2328",80.885025,822.2074
"2329",80.59205,822.2206
"2330",80.37232,822.234
"2331",80.20386,822.2472
"2332",80.06958,822.2606
"2333",79.95239,822.2738
"2334",79.84741,822.28723
"2335",79.75464,822.3004
"2336",79.68383,822.31384
"2337",79.64721,822.327
"2338",79.656975,822.34045
"2339",79.70336,822.35364
"2340",79.77905,822.36707
"2341",79.869385,822.38025
"2342",79.95239,822.3937
"2343",80.01099,822.40686
"2344",80.028076,822.4203
"2345",79.99634,822.4335
"2346",79.91577,822.4469
"2347",79.79614,822.4601
"2348",79.64721,822.4735
"2349",79.49096,822.4867
"2350",79.32983,822.5001
"2351",79.17845,822.5133
"2352",79.03929,822.52673
"2353",78.924545,822.5399
"2354",78.82689,822.55334
"2355",78.75609,822.5665
"2356",78.70725,822.57996
"2357",78.677956,822.59314
"2358",78.66331,822.60657
"2359",78.66575,822.61975
"2360",78.6804,822.6332
"2361",78.70725,822.64636
"2362",78.73899,822.6598
"2363",78.77562,822.673
"2364",78.81468,822.6864
"2365",78.853745,822.6996
"2366",78.89769,822.713
"2367",78.94408,822.7262
"2368",78.995346,822.7396
"2369",79.03929,822.7528
"2370",79.08324,822.76624
"2371",79.114975,822.7794
"2372",79.13939,822.79285
"2373",79.149155,822.806
"2374",79.149155,822.81946
"2375",79.14427,822.83264
"2376",79.149155,822.84607
"2377",79.19798,822.85925
"2378",79.35424,822.8727
"2379",79.66918,822.88586
"2380",80.17456,822.8993
"2381",80.850845,822.9125
"2382",81.62234,822.9259
"2383",82.37675,822.9391
"2384",82.99931,822.9525
"2385",83.39971,822.9657
"2386",83.546196,822.9791
"2387",83.46319,822.9923
"2388",83.192184,823.00574
"2389",82.79668,823.0189
"2390",82.337685,823.03235
"2391",81.8616,823.04553
"2392",81.41238,823.05896
"2393",81.0193,823.07214
"2394",80.69703,823.0856
"2395",80.45045,823.09875
"2396",80.2649,823.1122
"2397",80.12329,823.12537
"2398",80.00122,823.1388
"2399",79.89136,823.152
"2400",79.783936,823.1654
"2401",79.693596,823.1786
"2402",79.62768,823.192
"2403",79.60082,823.2052
"2404",79.62035,823.2186
"2405",79.68383,823.2318
"2406",79.77417,823.24524
"2407",79.871826,823.2584
"2408",79.95239,823.27185
"2409",79.99878,823.28503
"2410",79.9939,823.29846
"2411",79.937744,823.31165
"2412",79.83765,823.3251
"2413",79.70336,823.33826
"2414",79.551994,823.3517
"2415",79.398186,823.36487
"2416",79.24681,823.3783
"2417",79.11253,823.3915
"2418",78.992905,823.4049
"2419",78.887924,823.4181
"2420",78.79759,823.4315
"2421",78.72678,823.4447
"2422",78.67307,823.4581
"2423",78.63889,823.4713
"2424",78.6218,823.48474
"2425",78.624245,823.4979
"2426",78.64622,823.51135
"2427",78.677956,823.52454
"2428",78.71946,823.53796
"2429",78.76341,823.55115
"2430",78.8098,823.5646
"2431",78.8513,823.57776
"2432",78.89281,823.5912
"2433",78.93431,823.6044
"2434",78.97826,823.6178
"2435",79.0222,823.631
"2436",79.063705,823.6444
"2437",79.10033,823.6576
"2438",79.12718,823.671
"2439",79.13939,823.6842
"2440",79.14183,823.69763
"2441",79.14183,823.7108
"2442",79.15648,823.72424
"2443",79.22972,823.7374
"2444",79.42748,823.75085
"2445",79.80347,823.76404
"2446",80.37232,823.77747
"2447",81.09743,823.79065
"2448",81.8909,823.8041
"2449",82.63065,823.81726
"2450",83.194626,823.8307
"2451",83.51934,823.8439
"2452",83.59014,823.8573
"2453",83.43633,823.8705
"2454",83.11406,823.8839
"2455",82.68925,823.8971
"2456",82.21805,823.9105
"2457",81.74197,823.9237
"2458",81.30251,823.93713
"2459",80.92409,823.9503
"2460",80.621346,823.96375
"2461",80.38697,823.9769
"2462",80.21362,823.99036
"2463",80.08423,824.00354
"2464",79.974365,824.01697
"2465",79.869385,824.03015
"2466",79.77661,824.0436
"2467",79.69848,824.05676
"2468",79.64965,824.0702
"2469",79.639885,824.0834
"2470",79.676506,824.0968
"2471",79.74731,824.11
"2472",79.84253,824.1234
"2473",79.9353,824.1366
"2474",80.00366,824.15
"2475",80.03296,824.1632
"2476",80.01099,824.17664
"2477",79.940186,824.1898
"2478",79.83032,824.20325
"2479",79.691154,824.21643
"2480",79.534904,824.22986
"2481",79.37377,824.24304
"2482",79.217514,824.2565
"2483",79.07347,824.26965
"2484",78.94408,824.2831
"2485",78.82933,824.29626
"2486",78.74143,824.3097
"2487",78.68284,824.3229
"2488",78.641335,824.3363
"2489",78.626686,824.3495
"2490",78.62913,824.3629
"2491",78.64866,824.3761
"2492",78.67307,824.3895
"2493",78.70725,824.4027
"2494",78.74876,824.41614
"2495",78.79515,824.4293
"2496",78.84154,824.44275
"2497",78.887924,824.45593
"2498",78.92943,824.46936
"2499",78.96849,824.48254
"2500",79.00511,824.496
"2501",79.044174,824.50916
"2502",79.08324,824.5226
"2503",79.1223,824.53577
"2504",79.15648,824.5492
"2505",79.183334,824.5624
"2506",79.19554,824.5758
"2507",79.19554,824.589
"2508",79.17845,824.6024
"2509",79.15892,824.6156
"2510",79.15648,824.629
"2511",79.20775,824.6422
"2512",79.37621,824.65564
"2513",79.725334,824.6688
"2514",80.274666,824.68225
"2515",80.99245,824.69543
"2516",81.80057,824.70886
"2517",82.581825,824.72205
"2518",83.209274,824.7355
"2519",83.59991,824.74866
"2520",83.73174,824.7621
"2521",83.62432,824.77527
"2522",83.33135,824.7887
"2523",82.916306,824.8019
"2524",82.442665,824.8153
"2525",81.95438,824.8285
"2526",81.495384,824.8419
"2527",81.08766,824.8551
"2528",80.74586,824.8685
"2529",80.46998,824.8817
"2530",80.257576,824.89514
"2531",80.08911,824.9083
"2532",79.94995,824.92175
"2533",79.82788,824.93494
"2534",79.725334,824.94836
"2535",79.64477,824.96155
"2536",79.59838,824.975
"2537",79.5935,824.98816
"2538",79.63012,825.0016
"2539",79.70336,825.0148
"2540",79.79614,825.0282
"2541",79.89136,825.0414
"2542",79.9646,825.0548
"2543",80.0061,825.068
"2544",80.00122,825.0814
"2545",79.94995,825.0946
"2546",79.85718,825.10803
"2547",79.73754,825.1212
"2548",79.59594,825.13464
"2549",79.44213,825.1478
"2550",79.28588,825.16125
"2551",79.13695,825.17444
"2552",78.99779,825.18787
"2553",78.87816,825.20105
"2554",78.7805,825.2145
"2555",78.71458,825.22766
"2556",78.67063,825.2411
"2557",78.6511,825.2543
"2558",78.6511,825.2677
"2559",78.660866,825.2809
"2560",78.6804,825.2943
"2561",78.709694,825.3075
"2562",78.74387,825.3209
"2563",78.78294,825.3341
"2564",78.82933,825.34753
"2565",78.87572,825.3607
"2566",78.922104,825.37415
"2567",78.97093,825.3873
"2568",79.0222,825.40076
"2569",79.07347,825.41394
"2570",79.11986,825.42737
"2571",79.15892,825.44055
"2572",79.19066,825.454
"2573",79.21507,825.46716
"2574",79.234604,825.4806
"2575",79.2517,825.4938
"2576",79.26147,825.5072
"2577",79.259026,825.5204
"2578",79.24437,825.5338
"2579",79.22484,825.547
"2580",79.20775,825.5604
"2581",79.22484,825.5736
"2582",79.33471,825.58704
"2583",79.603264,825.6002
"2584",80.07202,825.61365
"2585",80.73609,825.62683
"2586",81.532005,825.64026
"2587",82.35233,825.65344
"2588",83.06279,825.6669
"2589",83.560844,825.68005
"2590",83.80255,825.6935
"2591",83.790344,825.70667
"2592",83.57061,825.7201
"2593",83.19951,825.7333
"2594",82.738075,825.7467
"2595",82.23758,825.7599
"2596",81.74441,825.7733
"2597",81.29519,825.7865
"2598",80.90456,825.7999
"2599",80.587166,825.8131
"2600",80.34058,825.82654
"2601",80.15015,825.8397
"2602",79.9939,825.85315
"2603",79.86206,825.86633
"2604",79.74975,825.87976
"2605",79.656975,825.89294
"2606",79.59838,825.9064
"2607",79.588615,825.91956
"2608",79.62524,825.933
"2609",79.7058,825.94617
"2610",79.81323,825.9596
"2611",79.93286,825.9728
"2612",80.03784,825.9862
"2613",80.1062,825.9994
"2614",80.12573,826.0128
"2615",80.09155,826.026
"2616",80.01343,826.0394
"2617",79.89868,826.0526
"2618",79.75708,826.06604
"2619",79.603264,826.0792
"2620",79.447014,826.09265
"2621",79.290764,826.10583
"2622",79.14183,826.11926
"2623",79.009995,826.13245
"2624",78.905014,826.1459
"2625",78.819565,826.15906
"2626",78.75609,826.1725
"2627",78.712135,826.18567
"2628",78.69016,826.1991
"2629",78.68528,826.2123
"2630",78.70237,826.2257
"2631",78.73411,826.2389
"2632",78.77806,826.2523
"2633",78.82933,826.2655
"2634",78.87816,826.27893
"2635",78.92699,826.2921
"2636",78.975815,826.30554
"2637",79.0222,826.3187
"2638",79.063705,826.33215
"2639",79.10277,826.34534
"2640",79.13695,826.35876
"2641",79.166245,826.37195
"2642",79.1931,826.3854
"2643",79.217514,826.39856
"2644",79.23949,826.412
"2645",79.256584,826.4252
"2646",79.26391,826.4386
"2647",79.26147,826.4518
"2648",79.24681,826.4652
"2649",79.22728,826.4784
"2650",79.21263,826.4918
"2651",79.2224,826.505
"2652",79.30785,826.51843
"2653",79.52758,826.5316
"2654",79.937744,826.54504
"2655",80.53834,826.5582
"2656",81.29519,826.57166
"2657",82.11307,826.58484
"2658",82.865036,826.59827
"2659",83.43633,826.61145
"2660",83.758606,826.6249
"2661",83.82208,826.63806
"2662",83.6585,826.6515
"2663",83.32159,826.6647
"2664",82.87724,826.6781
"2665",82.38163,826.6913
"2666",81.87869,826.7047
"2667",81.40505,826.7179
"2668",80.98268,826.7313
"2669",80.62623,826.7445
"2670",80.3357,826.75793
"2671",80.1062,826.7711
"2672",79.93042,826.78455
"2673",79.78882,826.7977
"2674",79.67895,826.81116
"2675",79.5935,826.82434
"2676",79.53979,826.83777
"2677",79.5227,826.85095
"2678",79.54467,826.8644
"2679",79.605705,826.87756
"2680",79.70092,826.891
"2681",79.81323,826.9042
"2682",79.920654,826.9176
"2683",80.008545,826.9308
"2684",80.05737,826.9442
"2685",80.05737,826.9574
"2686",80.01099,826.9708
"2687",79.91821,826.984
"2688",79.7937,826.99744
"2689",79.64965,827.0106
"2690",79.4934,827.02405
"2691",79.33227,827.03723
"2692",79.17845,827.05066
"2693",79.03685,827.06384
"2694",78.91234,827.0773
"2695",78.81224,827.09045
"2696",78.73899,827.1039
"2697",78.69016,827.11707
"2698",78.658424,827.1305
"2699",78.6511,827.1437
"2700",78.65598,827.1571
"2701",78.67307,827.1703
"2702",78.69749,827.1837
"2703",78.73411,827.1969
"2704",78.77806,827.2103
"2705",78.83177,827.2235
"2706",78.88548,827.23694
"2707",78.93675,827.2501
"2708",78.98558,827.26355
"2709",79.029526,827.27673
"2710",79.06615,827.29016
"2711",79.097885,827.30334
"2712",79.12718,827.3168
"2713",79.15404,827.32996
"2714",79.18089,827.3434
"2715",79.202866,827.35657
"2716",79.217514,827.37
"2717",79.22484,827.3832
"2718",79.22728,827.3966
"2719",79.2224,827.4098
"2720",79.217514,827.4232
"2721",79.21507,827.4364
"2722",79.24437,827.4498
"2723",79.35912,827.463
"2724",79.63012,827.47644
"2725",80.09888,827.4896
"2726",80.77272,827.50305
"2727",81.58816,827.51624
"2728",82.43778,827.52966
"2729",83.1873,827.54285
"2730",83.7293,827.5563
"2731",84.01007,827.56946
"2732",84.0296,827.5829
"2733",83.81964,827.59607
"2734",83.43633,827.6095
"2735",82.948044,827.6227
"2736",82.41825,827.6361
"2737",81.89334,827.6493
"2738",81.40749,827.6627
"2739",80.987564,827.6759
"2740",80.64332,827.68933
"2741",80.36744,827.7025
"2742",80.147705,827.71594
"2743",79.971924,827.7291
"2744",79.82788,827.74255
"2745",79.71313,827.75574
"2746",79.622795,827.76917
"2747",79.569084,827.78235
"2748",79.554436,827.7958
"2749",79.57885,827.80896
"2750",79.64233,827.8224
"2751",79.727776,827.8356
"2752",79.82544,827.849
"2753",79.91333,827.8622
"2754",79.974365,827.8756
"2755",79.991455,827.8888
"2756",79.96216,827.9022
"2757",79.88403,827.9154
"2758",79.766846,827.92883
"2759",79.622795,827.942
"2760",79.466545,827.95544
"2761",79.30785,827.9686
"2762",79.15648,827.98206
"2763",79.012436,827.99524
"2764",78.87816,828.00867
"2765",78.76097,828.02185
"2766",78.66331,828.0353
"2767",78.590065,828.04846
"2768",78.54124,828.0619
"2769",78.51438,828.0751
"2770",78.51438,828.0885
"2771",78.52903,828.1017
"2772",78.555885,828.1151
"2773",78.590065,828.1283
"2774",78.63157,828.1417
"2775",78.675514,828.1549
"2776",78.71946,828.16833
"2777",78.76097,828.1815
"2778",78.80003,828.19495
"2779",78.84398,828.2081
"2780",78.88548,828.22156
"2781",78.92699,828.23474
"2782",78.97093,828.24817
"2783",79.012436,828.26135
"2784",79.046616,828.2748
"2785",79.078354,828.28796
"2786",79.10033,828.3014
"2787",79.11742,828.3146
"2788",79.12474,828.328
"2789",79.1223,828.3412
"2790",79.11742,828.3546
"2791",79.11742,828.3678
"2792",79.15892,828.3812
"2793",79.30297,828.3944
"2794",79.61547,828.40784
"2795",80.13306,828.421
"2796",80.84108,828.43445
"2797",81.67361,828.44763
"2798",82.513466,828.46106
"2799",83.228806,828.47424
"2800",83.717094,828.4877
"2801",83.93683,828.50085
"2802",83.89044,828.5143
"2803",83.63409,828.52747
"2804",83.22148,828.5409
"2805",82.72343,828.5541
"2806",82.193634,828.5675
"2807",81.67849,828.5807
"2808",81.20729,828.5941
"2809",80.80446,828.6073
"2810",80.47242,828.6207
"2811",80.21362,828.6339
"2812",80.01343,828.64734
"2813",79.852295,828.6605
"2814",79.71801,828.67395
"2815",79.605705,828.68713
"2816",79.517815,828.70056
"2817",79.45922,828.71375
"2818",79.44213,828.7272
"2819",79.466545,828.74036
"2820",79.520256,828.7538
"2821",79.59838,828.76697
"2822",79.68627,828.7804
"2823",79.764404,828.7936
"2824",79.82056,828.807
"2825",79.84009,828.8202
"2826",79.81323,828.8336
"2827",79.73754,828.8468
"2828",79.622795,828.8602
"2829",79.47875,828.8734
"2830",79.31762,828.88684
"2831",79.16136,828.9
"2832",79.01488,828.91345
"2833",78.87816,828.92664
"2834",78.75853,828.94006
"2835",78.65598,828.95325
"2836",78.57542,828.9667
"2837",78.51682,828.97986
"2838",78.4802,828.9933
"2839",78.46067,829.0065
"2840",78.46067,829.0199
"2841",78.46555,829.0331
"2842",78.47776,829.0465
"2843",78.504616,829.0597
"2844",78.54124,829.0731
"2845",78.58518,829.0863
"2846",78.63401,829.09973
"2847",78.68284,829.1129
"2848",78.72678,829.12634
"2849",78.768295,829.1395
"2850",78.81224,829.15295
"2851",78.856186,829.16614
"2852",78.90257,829.17957
"2853",78.94896,829.19275
"2854",78.99046,829.2062
"2855",79.01732,829.21936
"2856",79.03929,829.2328
"2857",79.04906,829.246
"2858",79.061264,829.2594
"2859",79.10033,829.2726
"2860",79.22972,829.286
"2861",79.5227,829.2992
"2862",80.01831,829.3126
"2863",80.71168,829.3258
"2864",81.53689,829.33923
"2865",82.37675,829.3524
"2866",83.10185,829.36584
"2867",83.60967,829.379
"2868",83.85626,829.39246
"2869",83.844055,829.40564
"2870",83.617,829.41907
"2871",83.23613,829.43225
"2872",82.7625,829.4457
"2873",82.25712,829.45886
"2874",81.75662,829.4723
"2875",81.29519,829.4855
"2876",80.88991,829.4989
"2877",80.55543,829.5121
"2878",80.289314,829.5255
"2879",80.08423,829.5387
"2880",79.93042,829.5521
"2881",79.80835,829.5653
"2882",79.710686,829.57874
"2883",79.64233,829.5919
"2884",79.60815,829.60535
"2885",79.61547,829.6185
"2886",79.66674,829.63196
"2887",79.75952,829.64514
"2888",79.87427,829.65857
"2889",79.991455,829.67175
"2890",80.093994,829.6852
"2891",80.16235,829.69836
"2892",80.177,829.7118
"2893",80.1355,829.725
"2894",80.045166,829.7384
"2895",79.920654,829.7516
"2896",79.76929,829.765
"2897",79.605705,829.7782
"2898",79.44213,829.7916
"2899",79.28588,829.8048
"2900",79.14427,829.81824
"2901",79.01976,829.8314
"2902",78.91722,829.84485
"2903",78.836655,829.85803
"2904",78.77806,829.87146
"2905",78.73655,829.88464
"2906",78.70725,829.8981
"2907",78.69016,829.91125
"2908",78.69016,829.9247
"2909",78.70237,829.93787
"2910",78.72434,829.9513
"2911",78.75609,829.9645
"2912",78.79515,829.9779
"2913",78.836655,829.9911
"2914",78.88304,830.0045
"2915",78.93431,830.0177
"2916",78.99046,830.0311
"2917",79.044174,830.0443
"2918",79.08812,830.05774
"2919",79.11986,830.0709
"2920",79.13451,830.08435
"2921",79.13695,830.09753
"2922",79.13695,830.11096
"2923",79.14671,830.12415
"2924",79.19066,830.1376
"2925",79.3225,830.15076
"2926",79.59838,830.1642
"2927",80.06714,830.17737
"2928",80.72877,830.1908
"2929",81.5198,830.204
"2930",82.34257,830.2174
"2931",83.06767,830.2306
"2932",83.59014,830.244
"2933",83.86359,830.2572
"2934",83.878235,830.2706
"2935",83.67559,830.2838
"2936",83.31426,830.29724
"2937",82.85527,830.3104
"2938",82.35233,830.32385
"2939",81.85672,830.33704
"2940",81.39773,830.35046
"2941",80.99977,830.36365
"2942",80.66041,830.3771
"2943",80.38209,830.39026
"2944",80.15747,830.4037
"2945",79.974365,830.4169
"2946",79.82544,830.4303
"2947",79.7058,830.4435
"2948",79.61791,830.4569
"2949",79.569084,830.4701
"2950",79.569084,830.4835
"2951",79.622795,830.4967
"2952",79.72289,830.51013
"2953",79.84985,830.5233
"2954",79.98413,830.53674
"2955",80.10132,830.5499
"2956",80.17944,830.56335
"2957",80.198975,830.57654
"2958",80.15991,830.58997
"2959",80.07202,830.60315
"2960",79.94263,830.6166
"2961",79.79126,830.62976
"2962",79.62768,830.6432
"2963",79.46899,830.6564
"2964",79.31274,830.6698
"2965",79.1638,830.683
"2966",79.029526,830.6964
"2967",78.91234,830.7096
"2968",78.81468,830.723
"2969",78.73899,830.7362
"2970",78.68528,830.74963
"2971",78.6511,830.7628
"2972",78.63157,830.77625
"2973",78.624245,830.7894
"2974",78.6218,830.80286
"2975",78.63157,830.81604
"2976",78.6511,830.82947
"2977",78.677956,830.84265
"2978",78.71458,830.8561
"2979",78.75853,830.86926
"2980",78.80492,830.8827
"2981",78.84642,830.8959
"2982",78.88304,830.9093
"2983",78.91234,830.9225
"2984",78.93919,830.9359
"2985",78.96605,830.9491
"2986",79.00267,830.9625
"2987",79.08324,830.9757
"2988",79.26147,830.98914
"2989",79.59594,831.0023
"2990",80.12329,831.01575
"2991",80.82399,831.02893
"2992",81.62478,831.04236
"2993",82.41337,831.05554
"2994",83.06767,831.069
"2995",83.492485,831.08215
"2996",83.65362,831.0956
"2997",83.57061,831.10876
"2998",83.28741,831.1222
"2999",82.86748,831.1354
"3000",82.37675,831.1488
"3001",81.86893,831.162
"3002",81.38064,831.1754
"3003",80.936295,831.1886
"3004",80.552986,831.202
"3005",80.22827,831.2152
"3006",79.96216,831.22864
"3007",79.74731,831.2418
"3008",79.57885,831.25525
"3009",79.4519,831.26843
"3010",79.37377,831.28186
"3011",79.34692,831.29504
"3012",79.378654,831.3085
"3013",79.4641,831.32166
"3014",79.59838,831.3351
"3015",79.76929,831.34827
"3016",79.940186,831.3617
"3017",80.08423,831.3749
"3018",80.181885,831.3883
"3019",80.21362,831.4015
"3020",80.17944,831.4149
"3021",80.093994,831.4281
"3022",79.96948,831.4415
"3023",79.818115,831.4547
"3024",79.65453,831.46814
"3025",79.49096,831.4813
"3026",79.33227,831.49475
"3027",79.18822,831.50793
"3028",79.05882,831.52136
"3029",78.95384,831.53455
"3030",78.873276,831.548
"3031",78.80492,831.56116
"3032",78.75609,831.5746
"3033",78.72434,831.58777
"3034",78.70481,831.6012
"3035",78.69016,831.6144
"3036",78.692604,831.6278
"3037",78.70481,831.641
"3038",78.72678,831.6544
"3039",78.76097,831.6676
"3040",78.802475,831.681
"3041",78.8513,831.6942
"3042",78.89525,831.70764
"3043",78.93675,831.7208
"3044",78.96849,831.73425
"3045",78.99046,831.74744
"3046",79.00511,831.76086
"3047",79.0222,831.77405
"3048",79.06859,831.7875
"3049",79.185776,831.80066
"3050",79.43969,831.8141
"3051",79.871826,831.8273
"3052",80.48707,831.8407
"3053",81.231705,831.8539
"3054",82.01541,831.8673
"3055",82.71122,831.8805
"3056",83.2166,831.8939
"3057",83.475395,831.9071
"3058",83.4876,831.92053
"3059",83.28741,831.9337
"3060",82.930954,831.94714
"3061",82.47196,831.9603
"3062",81.97391,831.97375
"3063",81.46853,831.98694
"3064",80.99733,832.00037
"3065",80.57496,832.01355
"3066",80.21362,832.027
"3067",79.91577,832.04016
"3068",79.674065,832.0536
"3069",79.483635,832.0668
"3070",79.34936,832.0802
"3071",79.273674,832.0934
"3072",79.26391,832.1068
"3073",79.32006,832.12
"3074",79.429924,832.1334
"3075",79.586174,832.1466
"3076",79.76196,832.16003
"3077",79.93286,832.1732
"3078",80.07446,832.18665
"3079",80.164795,832.1998
"3080",80.19409,832.21326
"3081",80.15747,832.22644
"3082",80.06714,832.23987
"3083",79.9353,832.25305
"3084",79.781494,832.2665
"3085",79.61547,832.27966
"3086",79.4519,832.2931
"3087",79.29809,832.3063
"3088",79.15892,832.3197
"3089",79.03685,832.3329
"3090",78.93431,832.3463
"3091",78.853745,832.3595
"3092",78.79027,832.3729
"3093",78.746315,832.3861
"3094",78.71702,832.39954
"3095",78.69993,832.4127
"3096",78.695045,832.42615
"3097",78.69993,832.43933
"3098",78.71458,832.45276
"3099",78.73899,832.46594
"3100",78.765854,832.4794
"3101",78.79515,832.49255
"3102",78.82445,832.506
"3103",78.8513,832.51917
"3104",78.87572,832.5326
"3105",78.90013,832.5458
"3106",78.92699,832.5592
"3107",78.96117,832.5724
"3108",79.03197,832.5858
"3109",79.19798,832.599
"3110",79.500725,832.6124
"3111",79.97681,832.6256
"3112",80.61646,832.63904
"3113",81.3489,832.6522
"3114",82.06668,832.66565
"3115",82.65995,832.67883
"3116",83.035934,832.69226
"3117",83.16289,832.70544
"3118",83.06035,832.7189
"3119",82.76982,832.73206
"3120",82.35966,832.7455
"3121",81.88602,832.75867
"3122",81.39529,832.7721
"3123",80.919205,832.7853
"3124",80.479744,832.7987
"3125",80.08911,832.8119
"3126",79.74975,832.8253
"3127",79.466545,832.8385
"3128",79.24193,832.8519
"3129",79.07591,832.8651
"3130",78.975815,832.87854
"3131",78.95628,832.8917
"3132",79.0222,832.90515
"3133",79.1638,832.91833
"3134",79.37377,832.93176
"3135",79.62035,832.94495
"3136",79.871826,832.9584
"3137",80.093994,832.97156
"3138",80.255135,832.985
"3139",80.343025,832.99817
"3140",80.35523,833.0116
"3141",80.29664,833.0248
"3142",80.181885,833.0382
"3143",80.028076,833.0514
"3144",79.85474,833.0648
"3145",79.674065,833.078
"3146",79.50805,833.09143
"3147",79.3518,833.1046
"3148",79.217514,833.11804
"3149",79.10521,833.1312
"3150",79.01488,833.14465
"3151",78.941635,833.15784
"3152",78.89525,833.17126
"3153",78.86351,833.18445
"3154",78.84886,833.1979
"3155",78.84154,833.21106
"3156",78.84398,833.2245
"3157",78.84886,833.2377
"3158",78.856186,833.2511
"3159",78.86107,833.2643
"3160",78.86839,833.2777
"3161",78.870834,833.2909
"3162",78.8806,833.3043
"3163",78.91722,833.3175
"3164",79.027084,833.33093
"3165",79.259026,833.3441
"3166",79.65942,833.35754
"3167",80.22583,833.3707
"3168",80.90944,833.38416
"3169",81.62234,833.39734
"3170",82.24979,833.41077
"3171",82.69413,833.42395
"3172",82.90898,833.4374
"3173",82.88945,833.45056
"3174",82.67216,833.464
"3175",82.30839,833.4772
"3176",81.85428,833.4906
"3177",81.358665,833.5038
"3178",80.86305,833.5172
"3179",80.39185,833.5304
"3180",79.971924,833.5438
"3181",79.61547,833.557
"3182",79.31762,833.57043
"3183",79.078354,833.5836
"3184",78.907455,833.59705
"3185",78.80736,833.6102
"3186",78.7805,833.62366
"3187",78.84398,833.63684
"3188",79.00267,833.65027
"3189",79.237045,833.66345
"3190",79.51293,833.6769
"3191",79.801025,833.69006
"3192",80.05249,833.7035
"3193",80.24292,833.7167
"3194",80.35035,833.7301
"3195",80.38209,833.7433
"3196",80.34547,833.7567
"3197",80.26002,833.7699
"3198",80.13794,833.7833
"3199",79.9939,833.7965
"3200",79.84497,833.80994
"3201",79.69848,833.8231
"3202",79.55688,833.83655
"3203",79.42504,833.84973
"3204",79.30541,833.86316
"3205",79.21019,833.87634
"3206",79.132065,833.8898
"3207",79.07591,833.90295
"3208",79.029526,833.9164
"3209",79.00023,833.92957
"3210",78.97337,833.943
"3211",78.9514,833.9562
"3212",78.93431,833.9696
"3213",78.93187,833.9828
"3214",78.94652,833.9962
"3215",79.01488,834.0094
"3216",79.183334,834.0228
"3217",79.49828,834.036
"3218",79.98169,834.04944
"3219",80.61646,834.0626
"3220",81.322044,834.07605
"3221",81.99344,834.08923
"3222",82.51835,834.10266
"3223",82.8333,834.11584
"3224",82.91142,834.1293
"3225",82.774704,834.14246
"3226",82.46464,834.1559
"3227",82.04227,834.16907
"3228",81.5613,834.1825
"3229",81.06569,834.1957
"3230",80.58961,834.2091
"3231",80.15015,834.2223
"3232",79.764404,834.2357
"3233",79.43481,834.2489
"3234",79.166245,834.2623
"3235",78.96849,834.2755
"3236",78.853745,834.28894
"3237",78.83177,834.3021
"3238",78.907455,834.31555
"3239",79.07591,834.32874
"3240",79.31762,834.34216
"3241",79.5935,834.35535
"3242",79.87671,834.3688
"3243",80.12329,834.38196
"3244",80.308846,834.3954
"3245",80.41871,834.40857
"3246",80.45533,834.422
"3247",80.430916,834.4352
"3248",80.35035,834.4486
"3249",80.235596,834.4618
"3250",80.093994,834.4752
"3251",79.940186,834.4884
"3252",79.78882,834.50183
"3253",79.64721,834.515
"3254",79.520256,834.52844
"3255",79.41039,834.5416
"3256",79.31762,834.55505
"3257",79.24193,834.56824
"3258",79.17845,834.58167
"3259",79.132065,834.59485
"3260",79.10033,834.6083
"3261",79.080795,834.62146
"3262",79.063705,834.6349
"3263",79.061264,834.6481
"3264",79.08812,834.6615
"3265",79.183334,834.6747
"3266",79.40307,834.6881
"3267",79.79614,834.7013
"3268",80.365,834.7147
"3269",81.06081,834.7279
"3270",81.79324,834.74133
"3271",82.442665,834.7545
"3272",82.90654,834.76794
"3273",83.12871,834.7811
"3274",83.10918,834.79456
"3275",82.882126,834.80774
"3276",82.5037,834.82117
"3277",82.03494,834.83435
"3278",81.529564,834.8478
"3279",81.02663,834.86096
"3280",80.550545,834.8744
"3281",80.12573,834.8876
"3282",79.75952,834.901
"3283",79.45434,834.9142
"3284",79.219955,834.9276
"3285",79.063705,834.9408
"3286",78.992905,834.9542
"3287",79.01488,834.9674
"3288",79.12474,834.98083
"3289",79.30785,834.994
"3290",79.54223,835.00745
"3291",79.79614,835.0206
"3292",80.0354,835.03406
"3293",80.22827,835.04724
"3294",80.35767,835.06067
"3295",80.41627,835.07385
"3296",80.40162,835.0873
"3297",80.33082,835.10046
"3298",80.218506,835.1139
"3299",80.079346,835.1271
"3300",79.92554,835.1405
"3301",79.766846,835.1537
"3302",79.61303,835.1671
"3303",79.47143,835.1803
"3304",79.3518,835.1937
"3305",79.2517,835.2069
"3306",79.17357,835.22034
"3307",79.11253,835.2335
"3308",79.06615,835.24695
"3309",79.027084,835.26013
"3310",78.995346,835.27356
"3311",78.975815,835.28674
"3312",78.97337,835.3002
"3313",79.009995,835.31335
"3314",79.12962,835.3268
"3315",79.38842,835.33997
"3316",79.83032,835.3534
"3317",80.445564,835.3666
"3318",81.17799,835.38
"3319",81.92508,835.3932
"3320",82.56718,835.4066
"3321",82.99931,835.4198
"3322",83.175095,835.4332
"3323",83.11162,835.4464
"3324",82.847946,835.45984
"3325",82.442665,835.473
"3326",81.96414,835.48645
"3327",81.461205,835.49963
"3328",80.96803,835.51306
"3329",80.51392,835.52625
"3330",80.113525,835.5397
"3331",79.77173,835.55286
"3332",79.48852,835.5663
"3333",79.26879,835.57947
"3334",79.12474,835.5929
"3335",79.05394,835.6061
"3336",79.06615,835.6195
"3337",79.166245,835.6327
"3338",79.33715,835.6461
"3339",79.554436,835.6593
"3340",79.78882,835.6727
"3341",80.0061,835.6859
"3342",80.17212,835.69934
"3343",80.28199,835.7125
"3344",80.32105,835.72595
"3345",80.2942,835.73914
"3346",80.20874,835.75256
"3347",80.079346,835.76575
"3348",79.923096,835.7792
"3349",79.75708,835.79236
"3350",79.59594,835.8058
"3351",79.449455,835.819
"3352",79.32006,835.8324
"3353",79.20775,835.8456
"3354",79.11009,835.859
"3355",79.029526,835.8722
"3356",78.96361,835.8856
"3357",78.91722,835.8988
"3358",78.887924,835.91223
"3359",78.873276,835.9254
"3360",78.87816,835.93884
"3361",78.91234,835.952
"3362",79.01488,835.96545
"3363",79.24437,835.97864
"3364",79.64477,835.99207
"3365",80.22827,836.00525
"3366",80.94606,836.0187
"3367",81.71511,836.03186
"3368",82.408485,836.0453
"3369",82.913864,836.0585
"3370",83.17021,836.0719
"3371",83.17265,836.0851
"3372",82.95781,836.0985
"3373",82.579384,836.1117
"3374",82.108185,836.1251
"3375",81.602806,836.1383
"3376",81.10719,836.15173
"3377",80.65064,836.1649
"3378",80.25269,836.17834
"3379",79.91821,836.1915
"3380",79.64965,836.20496
"3381",79.432365,836.21814
"3382",79.27123,836.23157
"3383",79.17601,836.24475
"3384",79.14671,836.2582
"3385",79.19066,836.27136
"3386",79.30053,836.2848
"3387",79.46899,836.298
"3388",79.66674,836.3114
"3389",79.85962,836.3246
"3390",80.02319,836.338
"3391",80.13794,836.3512
"3392",80.184326,836.3646
"3393",80.16235,836.3778
"3394",80.076904,836.39124
"3395",79.94751,836.4044
"3396",79.7937,836.41785
"3397",79.63256,836.431
"3398",79.47387,836.44446
"3399",79.3225,836.45764
"3400",79.19066,836.47107
"3401",79.07103,836.48425
"3402",78.975815,836.4977
"3403",78.90013,836.51086
"3404",78.84642,836.5243
"3405",78.8098,836.5375
"3406",78.78783,836.5509
"3407",78.77806,836.5641
"3408",78.77806,836.5775
"3409",78.802475,836.5907
"3410",78.89281,836.6041
"3411",79.10033,836.6173
"3412",79.47875,836.63074
"3413",80.05249,836.6439
"3414",80.7776,836.65735
"3415",81.56863,836.67053
"3416",82.30106,836.68396
"3417",82.85771,836.69714
"3418",83.16289,836.7106
"3419",83.209274,836.72375
"3420",83.02617,836.7372
"3421",82.67216,836.75037
"3422",82.213165,836.7638
"3423",81.71267,836.777
"3424",81.22682,836.7904
"3425",80.78737,836.8036
"3426",80.40894,836.817
"3427",80.093994,836.8302
"3428",79.84497,836.8436
"3429",79.64721,836.8568
"3430",79.49584,836.87024
"3431",79.38354,836.8834
"3432",79.3225,836.89685
"3433",79.31274,836.91003
"3434",79.35668,836.92346
"3435",79.45434,836.93665
"3436",79.59594,836.9501
"3437",79.75952,836.96326
"3438",79.91333,836.9767
"3439",80.03052,836.98987
"3440",80.09155,837.0033
"3441",80.08911,837.0165
"3442",80.02319,837.0299
"3443",79.91333,837.0431
"3444",79.76929,837.0565
"3445",79.60815,837.0697
"3446",79.44457,837.0831
"3447",79.293205,837.0963
"3448",79.15648,837.10974
"3449",79.04173,837.1229
"3450",78.94652,837.13635
"3451",78.870834,837.14954
"3452",78.80736,837.16296
"3453",78.76341,837.17615
"3454",78.72678,837.1896
"3455",78.70481,837.20276
"3456",78.692604,837.2162
"3457",78.69749,837.2294
"3458",78.746315,837.2428
"3459",78.8806,837.256
"3460",79.15892,837.2694
"3461",79.622795,837.2826
"3462",80.274666,837.296
"3463",81.05104,837.3092
"3464",81.849396,837.32263
"3465",82.53544,837.3358
"3466",83.00664,837.34924
"3467",83.209274,837.3624
"3468",83.15556,837.37585
"3469",82.899216,837.38904
"3470",82.5037,837.40247
"3471",82.03494,837.41565
"3472",81.55642,837.4291
"3473",81.109634,837.44226
"3474",80.72144,837.4557
"3475",80.40406,837.4689
"3476",80.15747,837.4823
"3477",79.9646,837.4955
"3478",79.80591,837.5089
"3479",79.676506,837.5221
"3480",79.57397,837.5355
"3481",79.50317,837.5487
"3482",79.47387,837.56213
"3483",79.49096,837.5753
"3484",79.56176,837.58875
"3485",79.67162,837.6019
"3486",79.798584,837.61536
"3487",79.920654,837.62854
"3488",80.01343,837.64197
"3489",80.05249,837.65515
"3490",80.03296,837.6686
"3491",79.96216,837.68176
"3492",79.84497,837.6952
"3493",79.693596,837.7084
"3494",79.52758,837.7218
"3495",79.35668,837.735
"3496",79.19554,837.7484
"3497",79.04906,837.7616
"3498",78.92699,837.775
"3499",78.83177,837.7882
"3500",78.765854,837.80164
"3501",78.7219,837.8148
"3502",78.695045,837.82825
"3503",78.68528,837.84143
"3504",78.68528,837.85486
"3505",78.68772,837.86804
"3506",78.69749,837.8815
"3507",78.71458,837.89465
"3508",78.74387,837.9081
"3509",78.81468,837.92126
"3510",78.98558,837.9347
"3511",79.31274,837.9479
"3512",79.82788,837.9613
"3513",80.52125,837.9745
"3514",81.31228,837.9879
"3515",82.08621,838.0011
"3516",82.7161,838.0145
"3517",83.11894,838.0277
"3518",83.25811,838.04114
"3519",83.158005,838.0543
"3520",82.8748,838.06775
"3521",82.4744,838.08093
"3522",82.022736,838.09436
"3523",81.57595,838.10754
"3524",81.17311,838.121
"3525",80.83864,838.13416
"3526",80.57496,838.1476
"3527",80.377205,838.16077
"3528",80.218506,838.1742
"3529",80.08179,838.1874
"3530",79.954834,838.2008
"3531",79.84009,838.214
"3532",79.73998,838.2274
"3533",79.67162,838.2406
"3534",79.64965,838.254
"3535",79.67895,838.2672
"3536",79.74731,838.28064
"3537",79.84009,838.2938
"3538",79.9353,838.30725
"3539",80.008545,838.32043
"3540",80.04028,838.33386
"3541",80.02075,838.34705
"3542",79.95239,838.3605
"3543",79.84253,838.37366
"3544",79.70336,838.3871
"3545",79.54467,838.40027
"3546",79.37621,838.4137
"3547",79.21507,838.4269
"3548",79.07103,838.4403
"3549",78.94896,838.4535
"3550",78.853745,838.4669
"3551",78.78294,838.4801
"3552",78.73655,838.4935
"3553",78.70237,838.5067
"3554",78.68528,838.52014
"3555",78.68284,838.5333
"3556",78.69016,838.54675
"3557",78.712135,838.55994
"3558",78.746315,838.57336
"3559",78.78294,838.58655
"3560",78.819565,838.6
"3561",78.856186,838.61316
"3562",78.887924,838.6266
"3563",78.907455,838.6398
"3564",78.922104,838.6532
"3565",78.95384,838.6664
"3566",79.046616,838.6798
"3567",79.26879,838.693
"3568",79.66918,838.7064
"3569",80.26246,838.7196
"3570",81.00221,838.73303
"3571",81.78836,838.7462
"3572",82.50126,838.75964
"3573",83.02373,838.7728
"3574",83.29229,838.78625
"3575",83.30694,838.79944
"3576",83.10918,838.81287
"3577",82.760056,838.82605
"3578",82.337685,838.8395
"3579",81.900665,838.85266
"3580",81.495384,838.8661
"3581",81.146255,838.8793
"3582",80.8777,838.8927
"3583",80.6775,838.9059
"3584",80.5359,838.9193
"3585",80.42115,838.9325
"3586",80.31373,838.9459
"3587",80.19165,838.9591
"3588",80.059814,838.97253
"3589",79.9353,838.9857
"3590",79.84009,838.99915
"3591",79.78638,839.0123
"3592",79.783936,839.02576
"3593",79.82544,839.03894
"3594",79.89136,839.05237
"3595",79.95972,839.06555
"3596",80.01099,839.079
"3597",80.02075,839.09216
"3598",79.974365,839.1056
"3599",79.87915,839.1188
"3600",79.742424,839.1322
"3601",79.58373,839.1454
"3602",79.415276,839.1588
"3603",79.25414,839.172
"3604",79.10765,839.1854
"3605",78.97337,839.1986
"3606",78.85863,839.21204
"3607",78.76341,839.2252
"3608",78.69016,839.23865
"3609",78.641335,839.25183
"3610",78.61204,839.26526
"3611",78.60227,839.27844
"3612",78.6096,839.2919
"3613",78.626686,839.30505
"3614",78.64866,839.3185
"3615",78.675514,839.33167
"3616",78.70725,839.3451
"3617",78.74143,839.3583
"3618",78.77318,839.3717
"3619",78.80492,839.3849
"3620",78.83421,839.3983
"3621",78.86107,839.4115
"3622",78.88548,839.4249
"3623",78.907455,839.4381
"3624",78.92699,839.45154
"3625",78.94652,839.4647
"3626",78.95628,839.47815
"3627",78.95384,839.49133
"3628",78.941635,839.50476
"3629",78.91966,839.51794
"3630",78.89769,839.5314
"3631",78.890366,839.54456
"3632",78.94408,839.558
"3633",79.12474,839.57117
"3634",79.48852,839.5846
"3635",80.062256,839.5978
"3636",80.82155,839.6112
"3637",81.67361,839.6244
"3638",82.49149,839.6378
"3639",83.140915,839.651
"3640",83.53887,839.6644
"3641",83.6585,839.6776
"3642",83.53399,839.69104
"3643",83.226364,839.7042
"3644",82.81377,839.71765
"3645",82.3621,839.73083
"3646",81.92752,839.74426
"3647",81.54421,839.75745
"3648",81.23903,839.7709
"3649",81.01686,839.78406
"3650",80.85573,839.7975
"3651",80.73365,839.81067
"3652",80.62379,839.8241
"3653",80.50416,839.8373
"3654",80.36744,839.8507
"3655",80.22339,839.8639
"3656",80.093994,839.8773
"3657",79.99878,839.8905
"3658",79.94995,839.90393
"3659",79.94995,839.9171
"3660",79.98169,839.93054
"3661",80.03296,839.9437
"3662",80.06958,839.95715
"3663",80.076904,839.97034
"3664",80.045166,839.98376
"3665",79.96948,839.99695
"3666",79.84985,840.0104
"3667",79.70336,840.02356
"3668",79.53979,840.037
"3669",79.37377,840.0502
"3670",79.21507,840.0636
"3671",79.07103,840.0768
"3672",78.94896,840.0902
"3673",78.84886,840.1034
"3674",78.77074,840.1168
"3675",78.712135,840.13
"3676",78.67307,840.14343
"3677",78.6511,840.1566
"3678",78.64622,840.17004
"3679",78.6511,840.1832
"3680",78.66575,840.19666
"3681",78.68528,840.20984
"3682",78.712135,840.22327
"3683",78.73899,840.23645
"3684",78.77074,840.2499
"3685",78.80003,840.26306
"3686",78.82201,840.2765
"3687",78.839096,840.2897
"3688",78.84886,840.3031
"3689",78.85863,840.3163
"3690",78.86595,840.3297
"3691",78.873276,840.3429
"3692",78.88548,840.3563
"3693",78.89281,840.3695
"3694",78.90013,840.38293
"3695",78.907455,840.3961
"3696",78.91234,840.40955
"3697",78.91478,840.4227
"3698",78.91478,840.43616
"3699",78.9099,840.44934
"3700",78.90013,840.46277
"3701",78.88548,840.47595
"3702",78.870834,840.4894
"3703",78.870834,840.50256
"3704",78.91234,840.516
"3705",79.05638,840.5292
"3706",79.36645,840.5426
"3707",79.886475,840.5558
"3708",80.60914,840.5692
"3709",81.46853,840.5824
"3710",82.34745,840.5958
"3711",83.11162,840.609
"3712",83.648735,840.62244
"3713",83.90997,840.6356
"3714",83.90265,840.64905
"3715",83.67803,840.66223
"3716",83.30694,840.67566
"3717",82.86015,840.68884
"3718",82.39628,840.7023
"3719",81.96414,840.71545
"3720",81.59304,840.7289
"3721",81.29763,840.74207
"3722",81.08522,840.7555
"3723",80.93385,840.7687
"3724",80.81911,840.7821
"3725",80.709236,840.7953
"3726",80.587166,840.8087
"3727",80.448006,840.8219
"3728",80.30396,840.8353
"3729",80.177,840.8485
"3730",80.09155,840.86194
"3731",80.059814,840.8751
"3732",80.07446,840.88855
"3733",80.11597,840.90173
"3734",80.164795,840.91516
"3735",80.201416,840.92834
"3736",80.2063,840.9418
"3737",80.164795,840.95496
"3738",80.08179,840.9684
"3739",79.96216,840.98157
"3740",79.81079,840.995
"3741",79.64477,841.0082
"3742",79.47387,841.0216
"3743",79.31518,841.0348
"3744",79.17357,841.0482
"3745",79.04906,841.0614
"3746",78.94408,841.0748
"3747",78.856186,841.088
"3748",78.78783,841.10144
"3749",78.73411,841.1146
"3750",78.70481,841.12805
"3751",78.69993,841.14124
"3752",78.709694,841.15466
"3753",78.72434,841.16785
"3754",78.746315,841.1813
"3755",78.77074,841.19446
"3756",78.79027,841.2079
"3757",78.81224,841.22107
"3758",78.836655,841.2345
"3759",78.86107,841.2477
"3760",78.8806,841.2611
"3761",78.90013,841.2743
"3762",78.91234,841.2877
"3763",78.91966,841.3009
"3764",78.91966,841.31433
"3765",78.91234,841.3275
"3766",78.90257,841.34094
"3767",78.89281,841.3541
"3768",78.88548,841.36755
"3769",78.87816,841.38074
"3770",78.873276,841.39417
"3771",78.873276,841.40735
"3772",78.870834,841.4208
"3773",78.870834,841.43396
"3774",78.87572,841.4474
"3775",78.873276,841.4606
"3776",78.86595,841.474
"3777",78.853745,841.4872
"3778",78.84398,841.5006
"3779",78.8513,841.5138
"3780",78.91966,841.5272
"3781",79.11986,841.5404
"3782",79.50805,841.55383
"3783",80.11597,841.567
"3784",80.907,841.58044
"3785",81.79813,841.5936
"3786",82.65751,841.60706
"3787",83.353325,841.62024
"3788",83.79523,841.63367
"3789",83.95392,841.64685
"3790",83.86359,841.6603
"3791",83.57549,841.67346
"3792",83.16289,841.6869
"3793",82.69657,841.7001
"3794",82.230255,841.7135
"3795",81.80545,841.7267
"3796",81.446556,841.7401
"3797",81.16579,841.7533
"3798",80.96071,841.7667
"3799",80.81178,841.7799
"3800",80.69215,841.79333
"3801",80.57496,841.8065
"3802",80.448006,841.81995
"3803",80.31617,841.8331
"3804",80.18677,841.84656
"3805",80.079346,841.85974
"3806",80.01099,841.87317
"3807",79.98657,841.88635
"3808",79.99878,841.8998
"3809",80.0354,841.91296
"3810",80.079346,841.9264
"3811",80.1062,841.9396
"3812",80.09888,841.953
"3813",80.05005,841.9662
"3814",79.95972,841.9796
"3815",79.835205,841.9928
"3816",79.68139,842.0062
"3817",79.51293,842.0194
"3818",79.34203,842.03284
"3819",79.18089,842.046
"3820",79.03441,842.05945
"3821",78.91234,842.07263
"3822",78.8098,842.08606
"3823",78.729225,842.09924
"3824",78.66819,842.1127
"3825",78.6218,842.12585
"3826",78.59495,842.1393
"3827",78.58762,842.15247
"3828",78.59739,842.1659
"3829",78.61936,842.1791
"3830",78.64866,842.1925
"3831",78.68528,842.2057
"3832",78.71946,842.2191
"3833",78.751205,842.2323
"3834",78.7805,842.2457
"3835",78.80736,842.2589
"3836",78.83421,842.27234
"3837",78.86107,842.2855
"3838",78.8806,842.29895
"3839",78.89525,842.31213
"3840",78.907455,842.32556
"3841",78.91478,842.33875
"3842",78.91966,842.3522
"3843",78.922104,842.36536
"3844",78.924545,842.3788
"3845",78.92699,842.39197
"3846",78.92943,842.4054
"3847",78.93187,842.4186
"3848",78.93431,842.432
"3849",78.93919,842.4452
"3850",78.94408,842.4586
"3851",78.9514,842.4718
"3852",78.9514,842.4852
"3853",78.94408,842.4984
"3854",78.93187,842.51184
"3855",78.92943,842.525
"3856",78.958725,842.53845
"3857",79.07103,842.55164
"3858",79.33959,842.56506
"3859",79.81323,842.57825
"3860",80.49683,842.5917
"3861",81.33669,842.60486
"3862",82.230255,842.6183
"3863",83.04326,842.6315
"3864",83.65118,842.6449
"3865",83.9881,842.6581
"3866",84.04669,842.6715
"3867",83.86847,842.6847
"3868",83.52422,842.6981
"3869",83.07988,842.7113
"3870",82.598915,842.72473
"3871",82.13504,842.7379
"3872",81.71999,842.75134
"3873",81.36843,842.7645
"3874",81.092545,842.77795
"3875",80.88747,842.79114
"3876",80.73365,842.80457
"3877",80.6067,842.81775
"3878",80.49195,842.8312
"3879",80.36744,842.84436
"3880",80.2478,842.8578
"3881",80.13794,842.871
"3882",80.062256,842.8844
"3883",80.025635,842.8976
"3884",80.03296,842.911
"3885",80.076904,842.9242
"3886",80.13794,842.9376
"3887",80.19165,842.9508
"3888",80.218506,842.96423
"3889",80.20386,842.9774
"3890",80.14282,842.99084
"3891",80.042725,843.004
"3892",79.90845,843.01746
"3893",79.75708,843.03064
"3894",79.5935,843.04407
"3895",79.429924,843.05725
"3896",79.276115,843.0707
"3897",79.13451,843.08386
"3898",79.009995,843.0973
"3899",78.9099,843.1105
"3900",78.83177,843.1239
"3901",78.77318,843.1371
"3902",78.73167,843.1505
"3903",78.712135,843.1637
"3904",78.70481,843.1771
"3905",78.712135,843.1903
"3906",78.729225,843.20374
"3907",78.75365,843.2169
"3908",78.78294,843.23035
"3909",78.81468,843.2435
"3910",78.84398,843.25696
"3911",78.873276,843.27014
"3912",78.89525,843.28357
"3913",78.91478,843.29675
"3914",78.93431,843.3102
"3915",78.9514,843.32336
"3916",78.96117,843.3368
"3917",78.975815,843.35
"3918",78.98558,843.3634
"3919",78.98802,843.3766
"3920",78.98558,843.39
"3921",78.98314,843.4032
"3922",78.975815,843.4166
"3923",78.96849,843.4298
"3924",78.958725,843.44324
"3925",78.9514,843.4564
"3926",78.94652,843.46985
"3927",78.941635,843.48303
"3928",78.93919,843.49646
"3929",78.93431,843.50964
"3930",78.92943,843.5231
"3931",78.92943,843.53625
"3932",78.94652,843.5497
"3933",79.029526,843.56287
"3934",79.24193,843.5763
"3935",79.64965,843.5895
"3936",80.26734,843.6029
"3937",81.06813,843.6161
"3938",81.9617,843.6295
"3939",82.81865,843.6427
"3940",83.50713,843.6561
"3941",83.94171,843.6693
"3942",84.102844,843.68274
"3943",84.01007,843.6959
"3944",83.72686,843.70935
"3945",83.31182,843.72253
"3946",82.8333,843.73596
"3947",82.340126,843.74915
"3948",81.87381,843.7626
"3949",81.461205,843.77576
"3950",81.126724,843.7892
"3951",80.87038,843.80237
"3952",80.672615,843.8158
"3953",80.51881,843.829
"3954",80.38697,843.8424
"3955",80.26246,843.8556
"3956",80.147705,843.869
"3957",80.05005,843.8822
"3958",79.98169,843.8956
"3959",79.95239,843.9088
"3960",79.957275,843.92224
"3961",80.00122,843.9354
"3962",80.06714,843.94885
"3963",80.13794,843.96204
"3964",80.18921,843.97546
"3965",80.2063,843.98865
"3966",80.17212,844.0021
"3967",80.08667,844.01526
"3968",79.954834,844.0287
"3969",79.7937,844.0419
"3970",79.62035,844.0553
"3971",79.44213,844.0685
"3972",79.27123,844.0819
"3973",79.11742,844.0951
"3974",78.98558,844.1085
"3975",78.870834,844.1217
"3976",78.77562,844.13513
"3977",78.70481,844.1483
"3978",78.64866,844.16174
"3979",78.61448,844.1749
"3980",78.59983,844.18835
"3981",78.607155,844.20154
"3982",78.63157,844.21497
"3983",78.66575,844.22815
"3984",78.70237,844.2416
"3985",78.73655,844.25476
"3986",78.768295,844.2682
"3987",78.79759,844.2814
"3988",78.82689,844.2948
"3989",78.853745,844.308
"3990",78.87816,844.3214
"3991",78.907455,844.3346
"3992",78.93431,844.348
"3993",78.95628,844.3612
"3994",78.975815,844.37463
"3995",78.98802,844.3878
"3996",78.992905,844.40125
"3997",78.99046,844.4144
"3998",78.98558,844.42786
"3999",78.98314,844.44104
"4000",78.98314,844.45447
"4001",78.98558,844.46765
"4002",78.98802,844.4811
"4003",78.98802,844.49426
"4004",78.9807,844.5077
"4005",78.97337,844.5209
"4006",78.96605,844.5343
"4007",78.97337,844.5475
"4008",79.027084,844.5609
"4009",79.185776,844.5741
"4010",79.51049,844.5875
"4011",80.03784,844.6007
"4012",80.762955,844.61414
"4013",81.61257,844.6273
"4014",82.47196,844.64075
"4015",83.211716,844.65393
"4016",83.72686,844.66736
"4017",83.97345,844.68054
"4018",83.966125,844.694
"4019",83.74639,844.70715
"4020",83.3753,844.7206
"4021",82.91875,844.73376
"4022",82.42802,844.7472
"4023",81.94705,844.7604
"4024",81.514915,844.7738
"4025",81.15114,844.787
"4026",80.86061,844.8004
"4027",80.63111,844.8136
"4028",80.445564,844.827
"4029",80.289314,844.8402
"4030",80.15259,844.85364
"4031",80.03784,844.8668
"4032",79.94995,844.88025
"4033",79.8938,844.89343
"4034",79.87915,844.90686
"4035",79.906006,844.92004
"4036",79.96948,844.9335
"4037",80.05737,844.94666
"4038",80.15015,844.9601
"4039",80.22583,844.97327
"4040",80.26246,844.9867
"4041",80.25269,844.9999
"4042",80.19165,845.0133
"4043",80.079346,845.0265
"4044",79.9353,845.0399
"4045",79.77173,845.0531
"4046",79.603264,845.0665
"4047",79.43969,845.0797
"4048",79.290764,845.09314
"4049",79.15648,845.1063
"4050",79.03929,845.11975
"4051",78.93675,845.13293
"4052",78.853745,845.14636
"4053",78.79027,845.15955
"4054",78.746315,845.173
"4055",78.72434,845.18616
"4056",78.71946,845.1996
"4057",78.729225,845.21277
"4058",78.74876,845.2262
"4059",78.77562,845.2394
"4060",78.8098,845.2528
"4061",78.84398,845.266
"4062",78.88548,845.2794
"4063",78.922104,845.2926
"4064",78.958725,845.306
"4065",78.98802,845.3192
"4066",79.01732,845.33264
"4067",79.044174,845.3458
"4068",79.06859,845.35925
"4069",79.08812,845.37244
"4070",79.10521,845.38586
"4071",79.114975,845.39905
"4072",79.1223,845.4125
"4073",79.132065,845.42566
"4074",79.13939,845.4391
"4075",79.14427,845.4523
"4076",79.14183,845.4657
"4077",79.12962,845.4789
"4078",79.10765,845.4923
"4079",79.08324,845.5055
"4080",79.07103,845.5189
"4081",79.093,845.5321
"4082",79.200424,845.54553
"4083",79.46899,845.5587
"4084",79.9353,845.57214
"4085",80.6067,845.5853
"4086",81.43191,845.59875
"4087",82.29862,845.61194
"4088",83.07988,845.62537
"4089",83.65606,845.63855
"4090",83.97589,845.652
"4091",84.03204,845.66516
"4092",83.86359,845.6786
"4093",83.526665,845.6918
"4094",83.08476,845.7052
"4095",82.598915,845.7184
"4096",82.11307,845.7318
"4097",81.65652,845.745
"4098",81.253685,845.7584
"4099",80.921646,845.7716
"4100",80.66285,845.78503
"4101",80.45777,845.7982
"4102",80.29664,845.81165
"4103",80.164795,845.8248
"4104",80.05493,845.83826
"4105",79.96704,845.85144
"4106",79.906006,845.86487
"4107",79.886475,845.87805
"4108",79.91333,845.8915
"4109",79.974365,845.90466
"4110",80.05737,845.9181
"4111",80.14526,845.9313
"4112",80.22339,845.9447
"4113",80.26734,845.9579
"4114",80.26734,845.9713
"4115",80.218506,845.9845
"4116",80.12085,845.9979
"4117",79.98413,846.0111
"4118",79.82056,846.02454
"4119",79.639885,846.0377
"4120",79.46166,846.05115
"4121",79.290764,846.06433
"4122",79.13939,846.07776
"4123",79.00755,846.09094
"4124",78.89769,846.1044
"4125",78.8098,846.11755
"4126",78.74143,846.131
"4127",78.68772,846.14417
"4128",78.65598,846.1576
"4129",78.641335,846.1708
"4130",78.64622,846.1842
"4131",78.66331,846.1974
"4132",78.695045,846.2108
"4133",78.72678,846.224
"4134",78.76341,846.2374
"4135",78.79027,846.2506
"4136",78.82201,846.26404
"4137",78.8513,846.2772
"4138",78.8806,846.29065
"4139",78.90257,846.30383
"4140",78.924545,846.31726
"4141",78.94408,846.33044
"4142",78.958725,846.3439
"4143",78.975815,846.35706
"4144",78.99046,846.3705
"4145",79.00267,846.38367
"4146",79.009995,846.3971
"4147",79.01732,846.4103
"4148",79.01976,846.4237
"4149",79.01732,846.4369
"4150",79.01488,846.4503
"4151",79.00755,846.4635
"4152",78.995346,846.4769
"4153",78.97337,846.4901
"4154",78.94652,846.50354
"4155",78.92699,846.5167
"4156",78.92943,846.53015
"4157",79.012436,846.54333
"4158",79.24437,846.55676
"4159",79.68139,846.56995
"4160",80.343025,846.5834
"4161",81.18532,846.59656
"4162",82.1033,846.61
"4163",82.95537,846.62317
"4164",83.61944,846.6366
"4165",84.017395,846.6498
"4166",84.1297,846.6632
"4167",83.99054,846.6764
"4168",83.665825,846.6898
"4169",83.21904,846.703
"4170",82.71366,846.71643
"4171",82.19852,846.7296
"4172",81.71755,846.74304
"4173",81.29275,846.7562
"4174",80.938736,846.76965
"4175",80.66041,846.78284
"4176",80.45045,846.79626
"4177",80.291756,846.80945
"4178",80.16235,846.8229
"4179",80.05493,846.83606
"4180",79.96216,846.8495
"4181",79.89136,846.8627
"4182",79.84497,846.8761
"4183",79.83276,846.8893
"4184",79.852295,846.9027
"4185",79.89624,846.9159
"4186",79.94995,846.9293
"4187",80.00366,846.9425
"4188",80.03296,846.95593
"4189",80.02319,846.9691
"4190",79.971924,846.98254
"4191",79.87671,846.9957
"4192",79.74731,847.00916
"4193",79.5935,847.02234
"4194",79.42748,847.03577
"4195",79.26147,847.04895
"4196",79.10033,847.0624
"4197",78.95384,847.07556
"4198",78.819565,847.089
"4199",78.70481,847.1022
"4200",78.61204,847.1156
"4201",78.538795,847.1288
"4202",78.485085,847.1422
"4203",78.45823,847.1554
"4204",78.44602,847.1688
"4205",78.450905,847.182
"4206",78.46555,847.19543
"4207",78.487526,847.2086
"4208",78.5095,847.22205
"4209",78.53147,847.2352
"4210",78.555885,847.24866
"4211",78.5803,847.26184
"4212",78.607155,847.27527
"4213",78.63157,847.28845
"4214",78.66575,847.3019
"4215",78.69993,847.31506
"4216",78.73655,847.3285
"4217",78.77074,847.3417
"4218",78.802475,847.3551
"4219",78.82689,847.3683
"4220",78.84398,847.3817
"4221",78.853745,847.3949
"4222",78.856186,847.4083
"4223",78.856186,847.4215
"4224",78.8513,847.43494
"4225",78.836655,847.4481
"4226",78.82201,847.46155
"4227",78.802475,847.47473
"4228",78.79515,847.48816
"4229",78.81712,847.50134
"4230",78.93187,847.5148
"4231",79.202866,847.52795
"4232",79.68139,847.5414
"4233",80.36744,847.55457
"4234",81.20729,847.568
"4235",82.08865,847.5812
"4236",82.87236,847.5946
"4237",83.4461,847.6078
"4238",83.75128,847.6212
"4239",83.7879,847.6344
"4240",83.59991,847.6478
"4241",83.243454,847.661
"4242",82.78447,847.67444
"4243",82.28886,847.6876
"4244",81.795685,847.70105
"4245",81.341576,847.71423
"4246",80.953384,847.72766
"4247",80.64332,847.74084
"4248",80.40406,847.7543
"4249",80.218506,847.76746
"4250",80.07202,847.7809
"4251",79.94995,847.79407
"4252",79.84497,847.8075
"4253",79.764404,847.8207
"4254",79.72045,847.8341
"4255",79.72045,847.8473
"4256",79.764404,847.8607
"4257",79.84009,847.8739
"4258",79.9353,847.8873
"4259",80.025635,847.9005
"4260",80.096436,847.91394
"4261",80.130615,847.9271
"4262",80.12085,847.94055
"4263",80.0647,847.95374
"4264",79.9646,847.96716
"4265",79.83032,847.98035
"4266",79.674065,847.9938
"4267",79.50805,848.00696
"4268",79.34203,848.0204
"4269",79.185776,848.03357
"4270",79.0515,848.047
"4271",78.93919,848.0602
"4272",78.84642,848.0736
"4273",78.77562,848.0868
"4274",78.72434,848.1002
"4275",78.68772,848.1134
"4276",78.66819,848.12683
"4277",78.660866,848.14
"4278",78.66331,848.15344
"4279",78.677956,848.1666
"4280",78.70481,848.18005
"4281",78.73899,848.19324
"4282",78.77806,848.20667
"4283",78.82201,848.21985
"4284",78.86351,848.2333
"4285",78.90257,848.24646
"4286",78.941635,848.2599
"4287",78.98802,848.2731
"4288",79.03685,848.2865
"4289",79.09056,848.2997
"4290",79.14183,848.3131
"4291",79.183334,848.3263
"4292",79.20775,848.3397
"4293",79.219955,848.3529
"4294",79.217514,848.36633
"4295",79.200424,848.3795
"4296",79.17601,848.39294
"4297",79.14671,848.4061
"4298",79.12962,848.41956
"4299",79.15648,848.43274
"4300",79.290764,848.44617
"4301",79.59838,848.45935
"4302",80.113525,848.4728
"4303",80.82643,848.48596
"4304",81.65652,848.4994
"4305",82.49149,848.5126
"4306",83.194626,848.526
"4307",83.67315,848.5392
"4308",83.88556,848.5526
"4309",83.8465,848.5658
"4310",83.60479,848.5792
"4311",83.22148,848.5924
"4312",82.75517,848.60583
"4313",82.252235,848.619
"4314",81.76639,848.63245
"4315",81.32693,848.6456
"4316",80.955826,848.65906
"4317",80.65797,848.67224
"4318",80.42603,848.68567
"4319",80.2478,848.69885
"4320",80.10132,848.7123
"4321",79.97681,848.72546
"4322",79.88159,848.7389
"4323",79.81323,848.7521
"4324",79.78638,848.7655
"4325",79.79614,848.7787
"4326",79.84741,848.7921
"4327",79.923096,848.8053
"4328",80.008545,848.8187
"4329",80.08179,848.8319
"4330",80.128174,848.84534
"4331",80.130615,848.8585
"4332",80.08911,848.87195
"4333",80.0061,848.88513
"4334",79.886475,848.89856
"4335",79.742424,848.91174
"4336",79.58373,848.9252
"4337",79.4226,848.93835
"4338",79.26879,848.9518
"4339",79.12474,848.96497
"4340",79.00023,848.9784
"4341",78.90013,848.9916
"4342",78.819565,849.005
"4343",78.75853,849.0182
"4344",78.71946,849.0316
"4345",78.69993,849.0448
"4346",78.69749,849.0582
"4347",78.70725,849.0714
"4348",78.72678,849.08484
"4349",78.75609,849.098
"4350",78.785385,849.11145
"4351",78.81468,849.12463
"4352",78.84886,849.13806
"4353",78.887924,849.15125
"4354",78.92943,849.1647
"4355",78.97093,849.17786
"4356",79.012436,849.1913
"4357",79.05394,849.20447
"4358",79.09056,849.2179
"4359",79.11986,849.2311
"4360",79.149155,849.2445
"4361",79.168686,849.2577
"4362",79.17601,849.2711
"4363",79.17601,849.2843
"4364",79.166245,849.2977
"4365",79.15892,849.3109
"4366",79.17357,849.32434
"4367",79.24925,849.3375
"4368",79.45678,849.35095
"4369",79.84497,849.36414
"4370",80.428474,849.37756
"4371",81.16579,849.39075
"4372",81.97879,849.4042
"4373",82.74296,849.41736
"4374",83.34112,849.4308
"4375",83.69756,849.444
"4376",83.80011,849.4574
"4377",83.67071,849.4706
"4378",83.36065,849.484
"4379",82.933395,849.4972
"4380",82.45243,849.5106
"4381",81.96658,849.5238
"4382",81.51003,849.53723
"4383",81.10719,849.5504
"4384",80.77028,849.56384
"4385",80.50172,849.577
"4386",80.28443,849.59045
"4387",80.113525,849.60364
"4388",79.974365,849.61707
"4389",79.869385,849.63025
"4390",79.79126,849.6437
"4391",79.75708,849.65686
"4392",79.766846,849.6703
"4393",79.823,849.6835
"4394",79.91089,849.6969
"4395",80.01343,849.7101
"4396",80.10376,849.7235
"4397",80.164795,849.7367
"4398",80.17944,849.7501
"4399",80.14038,849.7633
"4400",80.05493,849.77673
"4401",79.92554,849.7899
"4402",79.76929,849.80334
"4403",79.59594,849.8165
"4404",79.41772,849.82996
"4405",79.24437,849.84314
"4406",79.08568,849.85657
"4407",78.93919,849.86975
"4408",78.81224,849.8832
"4409",78.71458,849.89636
"4410",78.63889,849.9098
"4411",78.590065,849.923
"4412",78.56565,849.9364
"4413",78.55833,849.9496
"4414",78.56077,849.963
"4415",78.572975,849.9762
"4416",78.59251,849.9896
"4417",78.61692,850.0028
"4418",78.641335,850.01624
"4419",78.66819,850.0294
"4420",78.69993,850.04285
"4421",78.73411,850.056
"4422",78.765854,850.06946
"4423",78.802475,850.08264
"4424",78.83421,850.09607
"4425",78.86107,850.10925
"4426",78.88304,850.1227
"4427",78.90013,850.13586
"4428",78.91234,850.1493
"4429",78.91478,850.1625
"4430",78.907455,850.1759
"4431",78.89281,850.1891
"4432",78.88304,850.2025
"4433",78.91234,850.2157
"4434",79.04173,850.2291
"4435",79.33227,850.2423
"4436",79.818115,850.25574
"4437",80.4773,850.2689
"4438",81.24635,850.28235
"4439",82.01297,850.29553
"4440",82.65751,850.30896
"4441",83.089645,850.32214
"4442",83.2752,850.3356
"4443",83.21904,850.34875
"4444",82.97002,850.3622
"4445",82.58427,850.37537
"4446",82.125275,850.3888
"4447",81.64675,850.402
"4448",81.19264,850.4154
"4449",80.78493,850.4286
"4450",80.43824,850.442
"4451",80.15503,850.4552
"4452",79.93042,850.4686
"4453",79.7522,850.4818
"4454",79.61547,850.49524
"4455",79.517815,850.5084
"4456",79.47143,850.52185
"4457",79.47387,850.53503
"4458",79.534904,850.54846
"4459",79.64233,850.56165
"4460",79.783936,850.5751
"4461",79.92798,850.58826
"4462",80.05737,850.6017
"4463",80.15015,850.61487
"4464",80.19165,850.6283
"4465",80.177,850.6415
"4466",80.10864,850.6549
"4467",79.9939,850.6681
"4468",79.84985,850.6815
"4469",79.68383,850.6947
"4470",79.51537,850.7081
"4471",79.35424,850.7213
"4472",79.20775,850.73474
"4473",79.08568,850.7479
"4474",78.98802,850.76135
"4475",78.91478,850.77454
"4476",78.86107,850.78796
"4477",78.82201,850.80115
"4478",78.79759,850.8146
"4479",78.785385,850.82776
"4480",78.78294,850.8412
"4481",78.79271,850.8544
"4482",78.8098,850.8678
"4483",78.839096,850.881
"4484",78.87572,850.8944
"4485",78.924545,850.9076
"4486",78.9807,850.921
"4487",79.03929,850.9342
"4488",79.10033,850.94763
"4489",79.15648,850.9608
"4490",79.21019,850.97424
"4491",79.25414,850.9874
"4492",79.293205,851.00085
"4493",79.32006,851.01404
"4494",79.33959,851.02747
"4495",79.34692,851.04065
"4496",79.35668,851.0541
"4497",79.398186,851.06726
"4498",79.51049,851.0807
"4499",79.75464,851.0939
"4500",80.16968,851.1073
"4501",80.762955,851.1205
"4502",81.48562,851.1339
"4503",82.2449,851.1471
"4504",82.92851,851.1605
"4505",83.43145,851.1737
"4506",83.69268,851.18713
"4507",83.702446,851.2003
"4508",83.49981,851.21375
"4509",83.13603,851.2269
"4510",82.67948,851.24036
"4511",82.18387,851.25354
"4512",81.69314,851.26697
"4513",81.23903,851.28015
"4514",80.84108,851.2936
"4515",80.5066,851.30676
"4516",80.233154,851.3202
"4517",80.01343,851.3334
"4518",79.84497,851.3468
"4519",79.727776,851.36
"4520",79.66918,851.3734
"4521",79.66918,851.3866
"4522",79.727776,851.4
"4523",79.84009,851.4132
"4524",79.98901,851.42664
"4525",80.147705,851.4398
"4526",80.29664,851.45325
"4527",80.4065,851.46643
"4528",80.46021,851.47986
"4529",80.45289,851.49304
"4530",80.38209,851.5065
"4531",80.26002,851.51965
"4532",80.10132,851.5331
"4533",79.920654,851.54626
"4534",79.7351,851.5597
"4535",79.55688,851.5729
"4536",79.39086,851.5863
"4537",79.25414,851.5995
"4538",79.14671,851.6129
"4539",79.061264,851.6261
"4540",79.00023,851.6395
"4541",78.96361,851.6527
"4542",78.93919,851.66614
"4543",78.924545,851.6793
"4544",78.922104,851.69275
"4545",78.93187,851.70593
"4546",78.94896,851.71936
"4547",78.97337,851.73254
"4548",79.00511,851.746
"4549",79.044174,851.75916
"4550",79.08568,851.7726
"4551",79.13451,851.78577
"4552",79.183334,851.7992
"4553",79.23216,851.8124
"4554",79.27856,851.8258
"4555",79.31518,851.839
"4556",79.34203,851.8524
"4557",79.35912,851.8656
"4558",79.364006,851.879
"4559",79.36645,851.8922
"4560",79.38354,851.90564
"4561",79.44213,851.9188
"4562",79.59594,851.93225
"4563",79.89624,851.94543
"4564",80.36988,851.95886
"4565",80.990005,851.97205
"4566",81.69558,851.9855
"4567",82.37919,851.99866
"4568",82.930954,852.0121
"4569",83.26299,852.02527
"4570",83.353325,852.0387
"4571",83.21416,852.0519
"4572",82.89433,852.0653
"4573",82.45487,852.0785
