"","ppg","time"
"1",81.45388,632.61426
"2",81.36599,632.62756
"3",81.31472,632.64087
"4",81.28542,632.6542
"5",81.26101,632.6675
"6",81.20973,632.6808
"7",81.10719,632.6941
"8",80.94118,632.7074
"9",80.709236,632.7207
"10",80.430916,632.734
"11",80.1355,632.7473
"12",79.8645,632.7606
"13",79.63744,632.7739
"14",79.47387,632.78723
"15",79.361565,632.80054
"16",79.28344,632.81384
"17",79.217514,632.82715
"18",79.151596,632.84045
"19",79.07347,632.85376
"20",78.98314,632.86707
"21",78.87572,632.8804
"22",78.75853,632.8937
"23",78.63889,632.907
"24",78.519264,632.9203
"25",78.40452,632.9336
"26",78.29954,632.9469
"27",78.19943,632.9602
"28",78.10666,632.9735
"29",78.02121,632.9868
"30",77.94064,633.0001
"31",77.8674,633.0134
"32",77.803925,633.02673
"33",77.76486,633.04004
"34",77.79172,633.05334
"35",77.945526,633.06665
"36",78.28733,633.07996
"37",78.83177,633.09326
"38",79.534904,633.10657
"39",80.30396,633.1199
"40",81.01686,633.1332
"41",81.56374,633.1465
"42",81.8909,633.1598
"43",82.005646,633.1731
"44",81.9617,633.1864
"45",81.832306,633.1997
"46",81.67849,633.213
"47",81.54177,633.2263
"48",81.449,633.2396
"49",81.39529,633.2529
"50",81.358665,633.26624
"51",81.31228,633.27954
"52",81.22194,633.29285
"53",81.06569,633.30615
"54",80.84108,633.31946
"55",80.567635,633.33276
"56",80.274666,633.34607
"57",80.0061,633.3594
"58",79.78882,633.3727
"59",79.639885,633.386
"60",79.54711,633.3993
"61",79.4934,633.4126
"62",79.45434,633.4259
"63",79.415276,633.4392
"64",79.361565,633.4525
"65",79.28344,633.4658
"66",79.18822,633.4791
"67",79.080795,633.49243
"68",78.96361,633.50574
"69",78.84642,633.51904
"70",78.729225,633.53235
"71",78.6218,633.54565
"72",78.519264,633.55896
"73",78.42649,633.57227
"74",78.34104,633.5856
"75",78.2678,633.5989
"76",78.20187,633.6122
"77",78.14572,633.6255
"78",78.099335,633.6388
"79",78.082245,633.6521
"80",78.14572,633.6654
"81",78.3679,633.6787
"82",78.79759,633.692
"83",79.42748,633.7053
"84",80.19653,633.7186
"85",80.98268,633.73193
"86",81.651634,633.74524
"87",82.10086,633.75854
"88",82.31327,633.77185
"89",82.32792,633.78516
"90",82.213165,633.79846
"91",82.04715,633.81177
"92",81.883575,633.8251
"93",81.75662,633.8384
"94",81.668724,633.8517
"95",81.61013,633.865
"96",81.54421,633.8783
"97",81.449,633.8916
"98",81.29763,633.9049
"99",81.08278,633.9182
"100",80.81911,633.9315
"101",80.54078,633.9448
"102",80.27955,633.9581
"103",80.062256,633.97144
"104",79.90845,633.98474
"105",79.81323,633.99805
"106",79.75708,634.01135
"107",79.71557,634.02466
"108",79.67162,634.03796
"109",79.61059,634.0513
"110",79.5227,634.0646
"111",79.41039,634.0779
"112",79.28832,634.0912
"113",79.1638,634.1045
"114",79.04173,634.1178
"115",78.92699,634.1311
"116",78.82201,634.1444
"117",78.72434,634.1577
"118",78.63401,634.171
"119",78.551,634.1843
"120",78.47776,634.19763
"121",78.4094,634.21094
"122",78.345924,634.22424
"123",78.28001,634.23755
"124",78.21652,634.25085
"125",78.170135,634.26416
"126",78.184784,634.27747
"127",78.328835,634.2908
"128",78.67307,634.3041
"129",79.23949,634.3174
"130",79.98901,634.3307
"131",80.81178,634.344
"132",81.57107,634.3573
"133",82.144806,634.3706
"134",82.46708,634.3839
"135",82.547646,634.3972
"136",82.4622,634.4105
"137",82.2913,634.4238
"138",82.11063,634.43713
"139",81.96414,634.45044
"140",81.86893,634.46375
"141",81.815216,634.47705
"142",81.77127,634.49036
"143",81.71023,634.50366
"144",81.59304,634.51697
"145",81.40017,634.5303
"146",81.13649,634.5436
"147",80.82155,634.5569
"148",80.499275,634.5702
"149",80.20874,634.5835
"150",79.98901,634.5968
"151",79.85474,634.6101
"152",79.781494,634.6234
"153",79.74975,634.6367
"154",79.725334,634.65
"155",79.68871,634.6633
"156",79.61791,634.67664
"157",79.517815,634.68994
"158",79.395744,634.70325
"159",79.26391,634.71655
"160",79.12474,634.72986
"161",78.995346,634.74316
"162",78.87572,634.7565
"163",78.765854,634.7698
"164",78.660866,634.7831
"165",78.56565,634.7964
"166",78.47532,634.8097
"167",78.38743,634.823
"168",78.30442,634.8363
"169",78.22629,634.8496
"170",78.15549,634.8629
"171",78.116425,634.8762
"172",78.15793,634.8895
"173",78.35569,634.90283
"174",78.76097,634.91614
"175",79.381096,634.92944
"176",80.15747,634.94275
"177",80.972916,634.95605
"178",81.688255,634.96936
"179",82.2034,634.98267
"180",82.476845,634.996
"181",82.53544,635.0093
"182",82.44511,635.0226
"183",82.28886,635.0359
"184",82.12283,635.0492
"185",81.98123,635.0625
"186",81.88602,635.0758
"187",81.82254,635.0891
"188",81.76883,635.1024
"189",81.69314,635.1157
"190",81.56863,635.129
"191",81.373314,635.14233
"192",81.10719,635.15564
"193",80.78737,635.16895
"194",80.45533,635.18225
"195",80.15259,635.19556
"196",79.91089,635.20886
"197",79.74975,635.22217
"198",79.65453,635.2355
"199",79.605705,635.2488
"200",79.57885,635.2621
"201",79.54955,635.2754
"202",79.4934,635.2887
"203",79.40795,635.302
"204",79.293205,635.3153
"205",79.15648,635.3286
"206",79.00511,635.3419
"207",78.856186,635.3552
"208",78.7219,635.3685
"209",78.60227,635.38184
"210",78.504616,635.39514
"211",78.42161,635.40845
"212",78.35081,635.42175
"213",78.28245,635.43506
"214",78.21408,635.44836
"215",78.14572,635.4617
"216",78.082245,635.475
"217",78.02365,635.4883
"218",77.98459,635.5016
"219",77.99191,635.5149
"220",78.1091,635.5282
"221",78.4094,635.5415
"222",78.92699,635.5548
"223",79.63744,635.5681
"224",80.45289,635.5814
"225",81.24635,635.5947
"226",81.883575,635.60803
"227",82.286415,635.62134
"228",82.44755,635.63464
"229",82.425575,635.64795
"230",82.29618,635.66125
"231",82.1326,635.67456
"232",81.991,635.68787
"233",81.8909,635.7012
"234",81.82742,635.7145
"235",81.778595,635.7278
"236",81.71511,635.7411
"237",81.61501,635.7544
"238",81.45388,635.7677
"239",81.22194,635.781
"240",80.92409,635.7943
"241",80.59205,635.8076
"242",80.2649,635.8209
"243",79.974365,635.8342
"244",79.75464,635.84753
"245",79.60815,635.86084
"246",79.53002,635.87415
"247",79.48852,635.88745
"248",79.46166,635.90076
"249",79.429924,635.91406
"250",79.37621,635.92737
"251",79.28344,635.9407
"252",79.16136,635.954
"253",79.01976,635.9673
"254",78.870834,635.9806
"255",78.72678,635.9939
"256",78.590065,636.0072
"257",78.467995,636.0205
"258",78.36057,636.0338
"259",78.26292,636.0471
"260",78.17502,636.0604
"261",78.099335,636.0737
"262",78.03342,636.08704
"263",77.97482,636.10034
"264",77.91867,636.11365
"265",77.87717,636.12695
"266",77.84299,636.14026
"267",77.81613,636.15356
"268",77.79416,636.1669
"269",77.77951,636.1802
"270",77.7673,636.1935
"271",77.752655,636.2068
"272",77.73556,636.2201
"273",77.71847,636.2334
"274",77.696495,636.2467
"275",77.67696,636.26
"276",77.6672,636.2733
"277",77.6672,636.2866
"278",77.67208,636.2999
"279",77.679405,636.31323
"280",77.68429,636.32654
"281",77.68917,636.33984
"282",77.69161,636.35315
"283",77.69405,636.36646
"284",77.71114,636.37976
"285",77.730675,636.39307
"286",77.75754,636.4064
"287",77.786835,636.4197
"288",77.81857,636.433
"289",77.85275,636.4463
"290",77.88693,636.4596
"291",77.92111,636.4729
"292",77.95773,636.4862
"293",78.009,636.4995
"294",78.133514,636.5128
"295",78.42649,636.5261
"296",78.96361,636.5394
"297",79.75708,636.55273
"298",80.73853,636.56604
"299",81.77371,636.57935
"300",82.686806,636.59265
"301",83.34356,636.60596
"302",83.6878,636.61926
"303",83.756165,636.63257
"304",83.62676,636.6459
"305",83.387505,636.6592
"306",83.11894,636.6725
"307",82.879684,636.6858
"308",82.69169,636.6991
"309",82.55497,636.7124
"310",82.44999,636.7257
"311",82.354774,636.739
"312",82.23514,636.7523
"313",82.06912,636.7656
"314",81.84451,636.77893
"315",81.57107,636.79224
"316",81.26589,636.80554
"317",80.95827,636.81885
"318",80.68726,636.83215
"319",80.46998,636.84546
"320",80.323494,636.85876
"321",80.23804,636.8721
"322",80.198975,636.8854
"323",80.17944,636.8987
"324",80.15747,636.912
"325",80.111084,636.9253
"326",80.0354,636.9386
"327",79.92798,636.9519
"328",79.801025,636.9652
"329",79.66918,636.9785
"330",79.53979,636.9918
"331",79.42016,637.0051
"332",79.30785,637.01843
"333",79.21263,637.03174
"334",79.12962,637.04504
"335",79.05638,637.05835
"336",78.992905,637.07166
"337",78.93675,637.08496
"338",78.88548,637.09827
"339",78.836655,637.1116
"340",78.79027,637.1249
"341",78.746315,637.1382
"342",78.712135,637.1515
"343",78.675514,637.1648
"344",78.643776,637.1781
"345",78.61692,637.1914
"346",78.59495,637.2047
"347",78.57542,637.218
"348",78.555885,637.2313
"349",78.536354,637.2446
"350",78.51438,637.25793
"351",78.49729,637.27124
"352",78.485085,637.28455
"353",78.47288,637.29785
"354",78.467995,637.31116
"355",78.46555,637.32446
"356",78.46311,637.33777
"357",78.45823,637.3511
"358",78.45335,637.3644
"359",78.45335,637.3777
"360",78.45823,637.391
"361",78.47288,637.4043
"362",78.49485,637.4176
"363",78.521706,637.4309
"364",78.54856,637.4442
"365",78.57053,637.4575
"366",78.5803,637.4708
"367",78.5803,637.48413
"368",78.58274,637.49744
"369",78.624245,637.51074
"370",78.77806,637.52405
"371",79.13451,637.53735
"372",79.727776,637.55066
"373",80.52857,637.56396
"374",81.446556,637.5773
"375",82.33524,637.5906
"376",83.053024,637.6039
"377",83.51202,637.6172
"378",83.700005,637.6305
"379",83.66338,637.6438
"380",83.47295,637.6571
"381",83.20439,637.6704
"382",82.91875,637.6837
"383",82.65995,637.697
"384",82.45243,637.7103
"385",82.2913,637.72363
"386",82.159454,637.73694
"387",82.04959,637.75024
"388",81.934845,637.76355
"389",81.78348,637.77686
"390",81.583275,637.79016
"391",81.34402,637.80347
"392",81.075455,637.8168
"393",80.81178,637.8301
"394",80.57984,637.8434
"395",80.40894,637.8567
"396",80.29664,637.87
"397",80.23071,637.8833
"398",80.19409,637.8966
"399",80.16968,637.9099
"400",80.14282,637.9232
"401",80.10132,637.9365
"402",80.04028,637.9498
"403",79.95972,637.96313
"404",79.85962,637.97644
"405",79.74975,637.98975
"406",79.635,638.00305
"407",79.5227,638.01636
"408",79.412834,638.02966
"409",79.310295,638.04297
"410",79.219955,638.0563
"411",79.14183,638.0696
"412",79.07347,638.0829
"413",79.01732,638.0962
"414",78.96849,638.1095
"415",78.92699,638.1228
"416",78.890366,638.1361
"417",78.85863,638.1494
"418",78.82933,638.1627
"419",78.80492,638.176
"420",78.785385,638.18933
"421",78.76341,638.20264
"422",78.74143,638.21594
"423",78.71702,638.22925
"424",78.695045,638.24255
"425",78.67307,638.25586
"426",78.660866,638.26917
"427",78.65354,638.2825
"428",78.6511,638.2958
"429",78.64622,638.3091
"430",78.63889,638.3224
"431",78.626686,638.3357
"432",78.61204,638.349
"433",78.60471,638.3623
"434",78.59983,638.3756
"435",78.59739,638.3889
"436",78.59739,638.4022
"437",78.60227,638.4155
"438",78.607155,638.42883
"439",78.61448,638.44214
"440",78.6218,638.45544
"441",78.643776,638.46875
"442",78.71458,638.48206
"443",78.924545,638.49536
"444",79.33471,638.50867
"445",79.974365,638.522
"446",80.78737,638.5353
"447",81.67361,638.5486
"448",82.48417,638.5619
"449",83.09209,638.5752
"450",83.438774,638.5885
"451",83.543755,638.6018
"452",83.458305,638.6151
"453",83.24834,638.6284
"454",82.9749,638.6417
"455",82.69413,638.655
"456",82.43534,638.66833
"457",82.22049,638.68164
"458",82.04959,638.69495
"459",81.91531,638.70825
"460",81.79813,638.72156
"461",81.67361,638.73486
"462",81.52224,638.74817
"463",81.32937,638.7615
"464",81.10231,638.7748
"465",80.85817,638.7881
"466",80.62379,638.8014
"467",80.42115,638.8147
"468",80.26978,638.828
"469",80.17212,638.8413
"470",80.12329,638.8546
"471",80.10132,638.8679
"472",80.093994,638.8812
"473",80.076904,638.89453
"474",80.03784,638.90784
"475",79.96948,638.92114
"476",79.88159,638.93445
"477",79.77417,638.94775
"478",79.66674,638.96106
"479",79.554436,638.97437
"480",79.449455,638.9877
"481",79.3518,639.001
"482",79.26391,639.0143
"483",79.18089,639.0276
"484",79.11009,639.0409
"485",79.04906,639.0542
"486",78.995346,639.0675
"487",78.94652,639.0808
"488",78.90013,639.0941
"489",78.86107,639.1074
"490",78.83421,639.1207
"491",78.80736,639.13403
"492",78.78783,639.14734
"493",78.77318,639.16064
"494",78.75853,639.17395
"495",78.73899,639.18726
"496",78.71702,639.20056
"497",78.69749,639.21387
"498",78.6804,639.2272
"499",78.67063,639.2405
"500",78.66575,639.2538
"501",78.66819,639.2671
"502",78.67063,639.2804
"503",78.67307,639.2937
"504",78.67307,639.307
"505",78.67307,639.3203
"506",78.67307,639.3336
"507",78.675514,639.3469
"508",78.677956,639.3602
"509",78.68284,639.37354
"510",78.692604,639.38684
"511",78.70237,639.40015
"512",78.709694,639.41345
"513",78.71946,639.42676
"514",78.729225,639.44006
"515",78.77562,639.45337
"516",78.92699,639.4667
"517",79.26879,639.48
"518",79.84009,639.4933
"519",80.62379,639.5066
"520",81.532005,639.5199
"521",82.43046,639.5332
"522",83.17021,639.5465
"523",83.65606,639.5598
"524",83.87335,639.5731
"525",83.8587,639.5864
"526",83.67071,639.59973
"527",83.387505,639.61304
"528",83.070114,639.62634
"529",82.760056,639.63965
"530",82.48661,639.65295
"531",82.262,639.66626
"532",82.08133,639.67957
"533",81.934845,639.6929
"534",81.80057,639.7062
"535",81.65652,639.7195
"536",81.48318,639.7328
"537",81.28054,639.7461
"538",81.058365,639.7594
"539",80.83864,639.7727
"540",80.64088,639.786
"541",80.48707,639.7993
"542",80.377205,639.8126
"543",80.308846,639.8259
"544",80.26978,639.83923
"545",80.24536,639.85254
"546",80.22583,639.86584
"547",80.19653,639.87915
"548",80.147705,639.89246
"549",80.076904,639.90576
"550",79.98169,639.91907
"551",79.869385,639.9324
"552",79.7522,639.9457
"553",79.635,639.959
"554",79.52514,639.9723
"555",79.432365,639.9856
"556",79.35424,639.9989
"557",79.28588,640.0122
"558",79.22484,640.0255
"559",79.168686,640.0388
"560",79.11742,640.0521
"561",79.07103,640.0654
"562",79.03441,640.07874
"563",79.00511,640.09204
"564",78.97826,640.10535
"565",78.95384,640.11865
"566",78.92943,640.13196
"567",78.90257,640.14526
"568",78.87816,640.15857
"569",78.86107,640.1719
"570",78.84642,640.1852
"571",78.839096,640.1985
"572",78.82933,640.2118
"573",78.819565,640.2251
"574",78.80736,640.2384
"575",78.79515,640.2517
"576",78.78783,640.265
"577",78.78294,640.2783
"578",78.785385,640.2916
"579",78.78783,640.30493
"580",78.79271,640.31824
"581",78.79271,640.33154
"582",78.79515,640.34485
"583",78.79759,640.35815
"584",78.80492,640.37146
"585",78.81224,640.38477
"586",78.82201,640.3981
"587",78.83177,640.4114
"588",78.84398,640.4247
"589",78.87816,640.438
"590",78.99046,640.4513
"591",79.26879,640.4646
"592",79.77661,640.4779
"593",80.50904,640.4912
"594",81.409935,640.5045
"595",82.354774,640.5178
"596",83.194626,640.5311
"597",83.809875,640.54443
"598",84.15411,640.55774
"599",84.24689,640.57104
"600",84.137024,640.58435
"601",83.89044,640.59766
"602",83.57305,640.61096
"603",83.243454,640.62427
"604",82.93828,640.6376
"605",82.67704,640.6509
"606",82.46952,640.6642
"607",82.30595,640.6775
"608",82.16678,640.6908
"609",82.02518,640.7041
"610",81.8616,640.7174
"611",81.66384,640.7307
"612",81.43923,640.744
"613",81.20241,640.7573
"614",80.98268,640.7706
"615",80.79469,640.78394
"616",80.65308,640.79724
"617",80.55787,640.81055
"618",80.499275,640.82385
"619",80.46021,640.83716
"620",80.430916,640.85046
"621",80.39918,640.8638
"622",80.34791,640.8771
"623",80.272224,640.8904
"624",80.17456,640.9037
"625",80.059814,640.917
"626",79.9353,640.9303
"627",79.81323,640.9436
"628",79.693596,640.9569
"629",79.58373,640.9702
"630",79.47875,640.9835
"631",79.381096,640.9968
"632",79.290764,641.01013
"633",79.20775,641.02344
"634",79.13451,641.03674
"635",79.07103,641.05005
"636",79.01976,641.06335
"637",78.975815,641.07666
"638",78.93675,641.08997
"639",78.90257,641.1033
"640",78.87572,641.1166
"641",78.8513,641.1299
"642",78.82445,641.1432
"643",78.802475,641.1565
"644",78.77806,641.1698
"645",78.75365,641.1831
"646",78.729225,641.1964
"647",78.70725,641.2097
"648",78.68772,641.223
"649",78.675514,641.2363
"650",78.66331,641.24963
"651",78.65598,641.26294
"652",78.65354,641.27625
"653",78.6511,641.28955
"654",78.643776,641.30286
"655",78.641335,641.31616
"656",78.643776,641.32947
"657",78.643776,641.3428
"658",78.643776,641.3561
"659",78.64866,641.3694
"660",78.6511,641.3827
"661",78.65354,641.396
"662",78.65598,641.4093
"663",78.692604,641.4226
"664",78.81712,641.4359
"665",79.114975,641.4492
"666",79.64721,641.4625
"667",80.413826,641.4758
"668",81.34646,641.48914
"669",82.31815,641.50244
"670",83.17998,641.51575
"671",83.81476,641.52905
"672",84.17609,641.54236
"673",84.281075,641.55566
"674",84.18341,641.569
"675",83.95392,641.5823
"676",83.65362,641.5956
"677",83.34112,641.6089
"678",83.05058,641.6222
"679",82.80156,641.6355
"680",82.59647,641.6488
"681",82.43046,641.6621
"682",82.2913,641.6754
"683",82.15457,641.6887
"684",81.99588,641.702
"685",81.80545,641.71533
"686",81.583275,641.72864
"687",81.3489,641.74194
"688",81.12184,641.75525
"689",80.92653,641.76855
"690",80.7776,641.78186
"691",80.672615,641.79517
"692",80.59693,641.8085
"693",80.54322,641.8218
"694",80.49439,641.8351
"695",80.43824,641.8484
"696",80.365,641.8617
"697",80.274666,641.875
"698",80.16968,641.8883
"699",80.05005,641.9016
"700",79.920654,641.9149
"701",79.78882,641.9282
"702",79.65942,641.9415
"703",79.53002,641.95483
"704",79.41039,641.96814
"705",79.30053,641.98145
"706",79.200424,641.99475
"707",79.11009,642.00806
"708",79.03197,642.02136
"709",78.96361,642.03467
"710",78.907455,642.048
"711",78.86351,642.0613
"712",78.82445,642.0746
"713",78.79027,642.0879
"714",78.76097,642.1012
"715",78.729225,642.1145
"716",78.695045,642.1278
"717",78.66331,642.1411
"718",78.63157,642.1544
"719",78.60227,642.1677
"720",78.57542,642.181
"721",78.54612,642.19434
"722",78.519264,642.20764
"723",78.49485,642.22095
"724",78.470436,642.23425
"725",78.45335,642.24756
"726",78.44358,642.26086
"727",78.43626,642.2742
"728",78.43137,642.2875
"729",78.43137,642.3008
"730",78.43626,642.3141
"731",78.44358,642.3274
"732",78.450905,642.3407
"733",78.45335,642.354
"734",78.46067,642.3673
"735",78.52415,642.3806
"736",78.7219,642.3939
"737",79.12962,642.4072
"738",79.77905,642.42053
"739",80.63355,642.43384
"740",81.5906,642.44714
"741",82.511024,642.46045
"742",83.26299,642.47375
"743",83.77081,642.48706
"744",84.02472,642.50037
"745",84.051575,642.5137
"746",83.90997,642.527
"747",83.665825,642.5403
"748",83.38018,642.5536
"749",83.09697,642.5669
"750",82.85039,642.5802
"751",82.652626,642.5935
"752",82.493935,642.6068
"753",82.35966,642.6201
"754",82.2327,642.6334
"755",82.08133,642.6467
"756",81.89578,642.66003
"757",81.671165,642.67334
"758",81.42947,642.68665
"759",81.18776,642.69995
"760",80.96803,642.71326
"761",80.797134,642.72656
"762",80.67506,642.73987
"763",80.58961,642.7532
"764",80.52857,642.7665
"765",80.479744,642.7798
"766",80.428474,642.7931
"767",80.365,642.8064
"768",80.28443,642.8197
"769",80.181885,642.833
"770",80.062256,642.8463
"771",79.93042,642.8596
"772",79.7937,642.8729
"773",79.65453,642.8862
"774",79.52514,642.89954
"775",79.398186,642.91284
"776",79.276115,642.92615
"777",79.16136,642.93945
"778",79.061264,642.95276
"779",78.97093,642.96606
"780",78.890366,642.9794
"781",78.82201,642.9927
"782",78.76097,643.006
"783",78.70725,643.0193
"784",78.658424,643.0326
"785",78.61936,643.0459
"786",78.5803,643.0592
"787",78.54612,643.0725
"788",78.51438,643.0858
"789",78.4802,643.0991
"790",78.44846,643.1124
"791",78.416725,643.12573
"792",78.38987,643.13904
"793",78.363014,643.15234
"794",78.345924,643.16565
"795",78.33372,643.17896
"796",78.328835,643.19226
"797",78.32395,643.20557
"798",78.32151,643.2189
"799",78.31663,643.2322
"800",78.314186,643.2455
"801",78.30686,643.2588
"802",78.3093,643.2721
"803",78.35569,643.2854
"804",78.519264,643.2987
"805",78.87572,643.312
"806",79.466545,643.3253
"807",80.2649,643.3386
"808",81.18532,643.3519
"809",82.10086,643.36523
"810",82.87724,643.37854
"811",83.424126,643.39185
"812",83.72198,643.40515
"813",83.79767,643.41846
"814",83.70489,643.43176
"815",83.509575,643.44507
"816",83.265434,643.4584
"817",83.02373,643.4717
"818",82.81377,643.485
"819",82.64774,643.4983
"820",82.51835,643.5116
"821",82.41337,643.5249
"822",82.31327,643.5382
"823",82.18875,643.5515
"824",82.020294,643.5648
"825",81.80301,643.5781
"826",81.55154,643.59143
"827",81.28298,643.60474
"828",81.03151,643.61804
"829",80.82155,643.63135
"830",80.66285,643.64465
"831",80.5481,643.65796
"832",80.47486,643.67126
"833",80.42115,643.6846
"834",80.36988,643.6979
"835",80.30396,643.7112
"836",80.22095,643.7245
"837",80.11597,643.7378
"838",79.9939,643.7511
"839",79.85718,643.7644
"840",79.71557,643.7777
"841",79.569084,643.791
"842",79.42748,643.8043
"843",79.28832,643.8176
"844",79.16136,643.83093
"845",79.04906,643.84424
"846",78.94896,643.85754
"847",78.86107,643.87085
"848",78.77562,643.88416
"849",78.69749,643.89746
"850",78.6218,643.91077
"851",78.551,643.9241
"852",78.49241,643.9374
"853",78.44358,643.9507
"854",78.40208,643.964
"855",78.363014,643.9773
"856",78.32639,643.9906
"857",78.28733,644.0039
"858",78.24582,644.0172
"859",78.20187,644.0305
"860",78.16525,644.0438
"861",78.135956,644.0571
"862",78.116425,644.07043
"863",78.099335,644.08374
"864",78.082245,644.09705
"865",78.065155,644.11035
"866",78.048065,644.12366
"867",78.06271,644.13696
"868",78.170135,644.15027
"869",78.44602,644.1636
"870",78.94652,644.1769
"871",79.66918,644.1902
"872",80.550545,644.2035
"873",81.478294,644.2168
"874",82.31571,644.2301
"875",82.95537,644.2434
"876",83.35577,644.2567
"877",83.51934,644.27
"878",83.492485,644.2833
"879",83.34112,644.29663
"880",83.12627,644.30994
"881",82.90166,644.32324
"882",82.69901,644.33655
"883",82.53788,644.34985
"884",82.41581,644.36316
"885",82.32304,644.37646
"886",82.23758,644.3898
"887",82.13748,644.4031
"888",81.99344,644.4164
"889",81.80301,644.4297
"890",81.56374,644.443
"891",81.29763,644.4563
"892",81.03151,644.4696
"893",80.79469,644.4829
"894",80.6067,644.4962
"895",80.46998,644.5095
"896",80.37476,644.5228
"897",80.30396,644.53613
"898",80.24048,644.54944
"899",80.16968,644.56274
"900",80.08179,644.57605
"901",79.974365,644.58936
"902",79.84741,644.60266
"903",79.710686,644.61597
"904",79.569084,644.6293
"905",79.4226,644.6426
"906",79.281,644.6559
"907",79.14183,644.6692
"908",79.00755,644.6825
"909",78.87816,644.6958
"910",78.75609,644.7091
"911",78.64622,644.7224
"912",78.54612,644.7357
"913",78.45823,644.749
"914",78.380104,644.7623
"915",78.311745,644.77563
"916",78.25071,644.78894
"917",78.19211,644.80225
"918",78.1384,644.81555
"919",78.09201,644.82886
"920",78.048065,644.84216
"921",78.009,644.85547
"922",77.977264,644.8688
"923",77.95529,644.8821
"924",77.93332,644.8954
"925",77.91135,644.9087
"926",77.88205,644.922
"927",77.85275,644.9353
"928",77.83078,644.9486
"929",77.86496,644.9619
"930",78.030975,644.9752
"931",78.40696,644.9885
"932",79.01976,645.00183
"933",79.835205,645.01514
"934",80.77272,645.02844
"935",81.69802,645.04175
"936",82.4744,645.05505
"937",83.018845,645.06836
"938",83.3167,645.08167
"939",83.404594,645.095
"940",83.33379,645.1083
"941",83.17998,645.1216
"942",82.99687,645.1349
"943",82.8333,645.1482
"944",82.701454,645.1615
"945",82.61112,645.1748
"946",82.54276,645.1881
"947",82.48661,645.2014
"948",82.41337,645.2147
"949",82.29862,645.228
"950",82.125275,645.24133
"951",81.8909,645.25464
"952",81.61257,645.26794
"953",81.31472,645.28125
"954",81.024185,645.29456
"955",80.77516,645.30786
"956",80.5774,645.32117
"957",80.428474,645.3345
"958",80.31861,645.3478
"959",80.233154,645.3611
"960",80.15015,645.3744
"961",80.059814,645.3877
"962",79.957275,645.401
"963",79.83765,645.4143
"964",79.69848,645.4276
"965",79.54955,645.4409
"966",79.3933,645.4542
"967",79.237045,645.4675
"968",79.08324,645.48083
"969",78.93431,645.49414
"970",78.79027,645.50745
"971",78.65598,645.52075
"972",78.52659,645.53406
"973",78.4094,645.54736
"974",78.29954,645.56067
"975",78.19943,645.574
"976",78.10666,645.5873
"977",78.02365,645.6006
"978",77.95041,645.6139
"979",77.88449,645.6272
"980",77.82834,645.6405
"981",77.78195,645.6538
"982",77.74288,645.6671
"983",77.71114,645.6804
"984",77.68185,645.6937
"985",77.65499,645.70703
"986",77.625694,645.72034
"987",77.593956,645.73364
"988",77.5671,645.74695
"989",77.540245,645.76025
"990",77.51583,645.77356
"991",77.503624,645.78687
"992",77.557335,645.8002
"993",77.752655,645.8135
"994",78.16281,645.8268
"995",78.82201,645.8401
"996",79.68871,645.8534
"997",80.66285,645.8667
"998",81.61013,645.88
"999",82.388954,645.8933
"1000",82.92119,645.9066
"1001",83.20195,645.9199
"1002",83.267876,645.9332
"1003",83.177536,645.94653
"1004",83.00664,645.95984
"1005",82.82353,645.97314
"1006",82.66483,645.98645
"1007",82.55009,645.99976
"1008",82.476845,646.01306
"1009",82.43046,646.02637
"1010",82.38407,646.0397
"1011",82.31815,646.053
"1012",82.20584,646.0663
"1013",82.0325,646.0796
"1014",81.79324,646.0929
"1015",81.50515,646.1062
"1016",81.19264,646.1195
"1017",80.88258,646.1328
"1018",80.60914,646.1461
"1019",80.38697,646.1594
"1020",80.22095,646.1727
"1021",80.09888,646.18604
"1022",80.00366,646.19934
"1023",79.91821,646.21265
"1024",79.82788,646.22595
"1025",79.72289,646.23926
"1026",79.59838,646.25256
"1027",79.45678,646.26587
"1028",79.30541,646.2792
"1029",79.151596,646.2925
"1030",79.00023,646.3058
"1031",78.853745,646.3191
"1032",78.709694,646.3324
"1033",78.57542,646.3457
"1034",78.44602,646.359
"1035",78.32395,646.3723
"1036",78.20676,646.3856
"1037",78.099335,646.3989
"1038",78.00412,646.41223
"1039",77.91867,646.42554
"1040",77.84787,646.43884
"1041",77.789276,646.45215
"1042",77.74288,646.46545
"1043",77.69894,646.47876
"1044",77.65743,646.49207
"1045",77.61349,646.5054
"1046",77.56954,646.5187
"1047",77.53292,646.532
"1048",77.4963,646.5453
"1049",77.469444,646.5586
"1050",77.452354,646.5719
"1051",77.437706,646.5852
"1052",77.42794,646.5985
"1053",77.41573,646.6118
"1054",77.401085,646.6251
"1055",77.38644,646.6384
"1056",77.37667,646.65173
"1057",77.39132,646.66504
"1058",77.49386,646.67834
"1059",77.76242,646.69165
"1060",78.25559,646.70496
"1061",78.98558,646.71826
"1062",79.888916,646.73157
"1063",80.85573,646.7449
"1064",81.739525,646.7582
"1065",82.423134,646.7715
"1066",82.85283,646.7848
"1067",83.035934,646.7981
"1068",83.02373,646.8114
"1069",82.88945,646.8247
"1070",82.701454,646.838
"1071",82.51591,646.8513
"1072",82.371864,646.8646
"1073",82.27665,646.8779
"1074",82.21805,646.89124
"1075",82.176544,646.90454
"1076",82.1326,646.91785
"1077",82.06668,646.93115
"1078",81.95682,646.94446
"1079",81.78592,646.95776
"1080",81.55886,646.97107
"1081",81.28298,646.9844
"1082",80.987564,646.9977
"1083",80.709236,647.011
"1084",80.46754,647.0243
"1085",80.274666,647.0376
"1086",80.130615,647.0509
"1087",80.02319,647.0642
"1088",79.9353,647.0775
"1089",79.85474,647.0908
"1090",79.77417,647.1041
"1091",79.68627,647.11743
"1092",79.586174,647.13074
"1093",79.47631,647.14404
"1094",79.35668,647.15735
"1095",79.2224,647.17065
"1096",79.08324,647.18396
"1097",78.94408,647.19727
"1098",78.80736,647.2106
"1099",78.6804,647.2239
"1100",78.56809,647.2372
"1101",78.467995,647.2505
"1102",78.37278,647.2638
"1103",78.28733,647.2771
"1104",78.20676,647.2904
"1105",78.135956,647.3037
"1106",78.07492,647.317
"1107",78.02121,647.3303
"1108",77.977264,647.3436
"1109",77.94064,647.35693
"1110",77.90646,647.37024
"1111",77.87717,647.38354
"1112",77.85275,647.39685
"1113",77.83566,647.41016
"1114",77.823456,647.42346
"1115",77.81369,647.43677
"1116",77.80148,647.4501
"1117",77.786835,647.4634
"1118",77.76486,647.4767
"1119",77.74288,647.49
"1120",77.72335,647.5033
"1121",77.730675,647.5166
"1122",77.81369,647.5299
"1123",78.05295,647.5432
"1124",78.5095,647.5565
"1125",79.19798,647.5698
"1126",80.06714,647.5831
"1127",81.01198,647.59644
"1128",81.88602,647.60974
"1129",82.564735,647.62305
"1130",82.984665,647.63635
"1131",83.15556,647.64966
"1132",83.12871,647.66296
"1133",82.98222,647.6763
"1134",82.794235,647.6896
"1135",82.61845,647.7029
"1136",82.48661,647.7162
"1137",82.41093,647.7295
"1138",82.36942,647.7428
"1139",82.34501,647.7561
"1140",82.31571,647.7694
"1141",82.25468,647.7827
"1142",82.142365,647.796
"1143",81.97391,647.8093
"1144",81.74929,647.82263
"1145",81.480736,647.83594
"1146",81.197525,647.84924
"1147",80.92409,647.86255
"1148",80.68482,647.87585
"1149",80.48707,647.88916
"1150",80.34058,647.90247
"1151",80.23071,647.9158
"1152",80.14526,647.9291
"1153",80.06958,647.9424
"1154",79.99878,647.9557
"1155",79.91333,647.969
"1156",79.80835,647.9823
"1157",79.68383,647.9956
"1158",79.551994,648.0089
"1159",79.412834,648.0222
"1160",79.273674,648.0355
"1161",79.13939,648.0488
"1162",79.009995,648.06213
"1163",78.88304,648.07544
"1164",78.768295,648.08875
"1165",78.658424,648.10205
"1166",78.56321,648.11536
"1167",78.47776,648.12866
"1168",78.40696,648.14197
"1169",78.345924,648.1553
"1170",78.29221,648.1686
"1171",78.24338,648.1819
"1172",78.19699,648.1952
"1173",78.153046,648.2085
"1174",78.11398,648.2218
"1175",78.0798,648.2351
"1176",78.05783,648.2484
"1177",78.04074,648.2617
"1178",78.02609,648.275
"1179",78.011444,648.2883
"1180",77.996796,648.30164
"1181",77.98215,648.31494
"1182",77.96506,648.32825
"1183",77.94797,648.34155
"1184",77.92844,648.35486
"1185",77.92111,648.36816
"1186",77.96506,648.3815
"1187",78.135956,648.3948
"1188",78.51194,648.4081
"1189",79.12474,648.4214
"1190",79.94995,648.4347
"1191",80.89723,648.448
"1192",81.829865,648.4613
"1193",82.60136,648.4746
"1194",83.13359,648.4879
"1195",83.407036,648.5012
"1196",83.46075,648.5145
"1197",83.36553,648.52783
"1198",83.194626,648.54114
"1199",83.01152,648.55444
"1200",82.86015,648.56775
"1201",82.76494,648.58105
"1202",82.71122,648.59436
"1203",82.686806,648.60767
"1204",82.66239,648.621
"1205",82.61356,648.6343
"1206",82.51591,648.6476
"1207",82.35966,648.6609
"1208",82.13992,648.6742
"1209",81.87381,648.6875
"1210",81.58083,648.7008
"1211",81.290306,648.7141
"1212",81.024185,648.7274
"1213",80.80446,648.7407
"1214",80.635994,648.754
"1215",80.51148,648.76733
"1216",80.41627,648.78064
"1217",80.33814,648.79395
"1218",80.26002,648.80725
"1219",80.17212,648.82056
"1220",80.0647,648.83386
"1221",79.9353,648.84717
"1222",79.7937,648.8605
"1223",79.64477,648.8738
"1224",79.4934,648.8871
"1225",79.34936,648.9004
"1226",79.21019,648.9137
"1227",79.07591,648.927
"1228",78.94896,648.9403
"1229",78.82689,648.9536
"1230",78.71458,648.9669
"1231",78.61448,648.9802
"1232",78.521706,648.9935
"1233",78.44114,649.00684
"1234",78.37278,649.02014
"1235",78.31663,649.03345
"1236",78.27024,649.04675
"1237",78.22873,649.06006
"1238",78.19211,649.07336
"1239",78.15549,649.0867
"1240",78.116425,649.1
"1241",78.082245,649.1133
"1242",78.05295,649.1266
"1243",78.02609,649.1399
"1244",77.996796,649.1532
"1245",77.97482,649.1665
"1246",77.98459,649.1798
"1247",78.09201,649.1931
"1248",78.37766,649.2064
"1249",78.890366,649.2197
"1250",79.62035,649.23303
"1251",80.50172,649.24634
"1252",81.409935,649.25964
"1253",82.20584,649.27295
"1254",82.78691,649.28625
"1255",83.1165,649.29956
"1256",83.21904,649.31287
"1257",83.14824,649.3262
"1258",82.97734,649.3395
"1259",82.77226,649.3528
"1260",82.58671,649.3661
"1261",82.44755,649.3794
"1262",82.3621,649.3927
"1263",82.31815,649.406
"1264",82.2913,649.4193
"1265",82.2449,649.4326
"1266",82.142365,649.4459
"1267",81.971466,649.4592
"1268",81.739525,649.47253
"1269",81.461205,649.48584
"1270",81.17067,649.49915
"1271",80.907,649.51245
"1272",80.69459,649.52576
"1273",80.5359,649.53906
"1274",80.42603,649.55237
"1275",80.34791,649.5657
"1276",80.28687,649.579
"1277",80.22095,649.5923
"1278",80.14038,649.6056
"1279",80.04028,649.6189
"1280",79.91821,649.6322
"1281",79.781494,649.6455
"1282",79.63256,649.6588
"1283",79.48119,649.6721
"1284",79.33227,649.6854
"1285",79.19066,649.6987
"1286",79.05394,649.71204
"1287",78.924545,649.72534
"1288",78.80736,649.73865
"1289",78.69993,649.75195
"1290",78.60471,649.76526
"1291",78.521706,649.77856
"1292",78.44846,649.7919
"1293",78.37522,649.8052
"1294",78.29954,649.8185
"1295",78.23605,649.8318
"1296",78.20676,649.8451
"1297",78.2678,649.8584
"1298",78.487526,649.8717
"1299",78.91722,649.885
"1300",79.554436,649.8983
"1301",80.34058,649.9116
"1302",81.16823,649.9249
"1303",81.9202,649.93823
"1304",82.49149,649.95154
"1305",82.83086,649.96484
"1306",82.95537,649.97815
"1307",82.91142,649.99146
"1308",82.7625,650.00476
"1309",82.56962,650.01807
"1310",82.388954,650.0314
"1311",82.24979,650.0447
"1312",82.15213,650.058
"1313",82.08865,650.0713
"1314",82.039825,650.0846
"1315",81.969025,650.0979
"1316",81.84207,650.1112
"1317",81.64919,650.1245
"1318",81.38796,650.1378
"1319",81.08522,650.1511
"1320",80.782486,650.1644
"1321",80.51392,650.17773
"1322",80.30152,650.19104
"1323",80.15503,650.20435
"1324",80.05493,650.21765
"1325",79.98169,650.23096
"1326",79.91821,650.24426
"1327",79.84741,650.25757
"1328",79.75708,650.2709
"1329",79.639885,650.2842
"1330",79.500725,650.2975
"1331",79.33959,650.3108
"1332",79.17113,650.3241
"1333",79.00023,650.3374
"1334",78.84154,650.3507
"1335",78.692604,650.364
"1336",78.55833,650.3773
"1337",78.43137,650.3906
"1338",78.314186,650.40393
"1339",78.20676,650.41724
"1340",78.1091,650.43054
"1341",78.01877,650.44385
"1342",77.943085,650.45715
"1343",77.89914,650.47046
"1344",77.92355,650.48376
"1345",78.082245,650.4971
"1346",78.44602,650.5104
"1347",79.03441,650.5237
"1348",79.80591,650.537
"1349",80.66773,650.5503
"1350",81.49294,650.5636
"1351",82.15701,650.5769
"1352",82.58915,650.5902
"1353",82.791794,650.6035
"1354",82.80644,650.6168
"1355",82.703896,650.6301
"1356",82.547646,650.64343
"1357",82.388954,650.65674
"1358",82.262,650.67004
"1359",82.176544,650.68335
"1360",82.12283,650.69666
"1361",82.07889,650.70996
"1362",82.00809,650.72327
"1363",81.88602,650.7366
"1364",81.69314,650.7499
"1365",81.42458,650.7632
"1366",81.10231,650.7765
"1367",80.762955,650.7898
"1368",80.445564,650.8031
"1369",80.181885,650.8164
"1370",79.98169,650.8297
"1371",79.84741,650.843
"1372",79.75952,650.8563
"1373",79.68871,650.8696
"1374",79.61303,650.88293
"1375",79.51537,650.89624
"1376",79.3933,650.90955
"1377",79.24193,650.92285
"1378",79.078354,650.93616
"1379",78.9099,650.94946
"1380",78.74143,650.96277
"1381",78.57542,650.9761
"1382",78.41917,650.9894
"1383",78.277565,651.0027
"1384",78.14572,651.016
"1385",78.02609,651.0293
"1386",77.91379,651.0426
"1387",77.80881,651.0559
"1388",77.7087,651.0692
"1389",77.61349,651.0825
"1390",77.540245,651.0958
"1391",77.53536,651.10913
"1392",77.67208,651.12244
"1393",78.013885,651.13574
"1394",78.59251,651.14905
"1395",79.37621,651.16235
"1396",80.272224,651.17566
"1397",81.1487,651.18896
"1398",81.87137,651.2023
"1399",82.36698,651.2156
"1400",82.633095,651.2289
"1401",82.69901,651.2422
"1402",82.633095,651.2555
"1403",82.5037,651.2688
"1404",82.36698,651.2821
"1405",82.252235,651.2954
"1406",82.176544,651.3087
"1407",82.127716,651.322
"1408",82.08621,651.3353
"1409",82.02518,651.34863
"1410",81.91287,651.36194
"1411",81.72732,651.37524
"1412",81.463646,651.38855
"1413",81.13405,651.40186
"1414",80.76784,651.41516
"1415",80.413826,651.42847
"1416",80.1062,651.4418
"1417",79.86694,651.4551
"1418",79.69604,651.4684
"1419",79.58129,651.4817
"1420",79.49828,651.495
"1421",79.4226,651.5083
"1422",79.33471,651.5216
"1423",79.22484,651.5349
"1424",79.09056,651.5482
"1425",78.92943,651.5615
"1426",78.75609,651.5748
"1427",78.572975,651.58813
"1428",78.39475,651.60144
"1429",78.22385,651.61475
"1430",78.0676,651.62805
"1431",77.92111,651.64136
"1432",77.7966,651.65466
"1433",77.68673,651.66797
"1434",77.591515,651.6813
"1435",77.503624,651.6946
"1436",77.42306,651.7079
"1437",77.347374,651.7212
"1438",77.26925,651.7345
"1439",77.20332,651.7478
"1440",77.17891,651.7611
"1441",77.25704,651.7744
"1442",77.51827,651.7877
"1443",78.013885,651.801
"1444",78.74387,651.81433
"1445",79.635,651.82764
"1446",80.567635,651.84094
"1447",81.40017,651.85425
"1448",82.02518,651.86755
"1449",82.40116,651.88086
"1450",82.55253,651.89417
"1451",82.53788,651.9075
"1452",82.43046,651.9208
"1453",82.29862,651.9341
"1454",82.18387,651.9474
"1455",82.1033,651.9607
"1456",82.056915,651.974
"1457",82.022736,651.9873
"1458",81.97391,652.0006
"1459",81.883575,652.0139
"1460",81.72732,652.0272
"1461",81.48806,652.0405
"1462",81.17555,652.05383
"1463",80.81178,652.06714
"1464",80.43824,652.08044
"1465",80.093994,652.09375
"1466",79.815674,652.10706
"1467",79.60815,652.12036
"1468",79.47143,652.13367
"1469",79.378654,652.147
"1470",79.30541,652.1603
"1471",79.22972,652.1736
"1472",79.13695,652.1869
"1473",79.01732,652.2002
"1474",78.870834,652.2135
"1475",78.709694,652.2268
"1476",78.53147,652.2401
"1477",78.35081,652.2534
"1478",78.17502,652.2667
"1479",78.011444,652.28
"1480",77.855194,652.29333
"1481",77.71114,652.30664
"1482",77.58419,652.31995
"1483",77.467,652.33325
"1484",77.36202,652.34656
"1485",77.27169,652.35986
"1486",77.20088,652.37317
"1487",77.14473,652.3865
"1488",77.103226,652.3998
"1489",77.07881,652.4131
"1490",77.066605,652.4264
"1491",77.0544,652.4397
"1492",77.04463,652.453
"1493",77.032425,652.4663
"1494",77.01289,652.4796
"1495",76.99336,652.4929
"1496",77.01045,652.5062
"1497",77.137405,652.51953
"1498",77.44747,652.53284
"1499",77.99924,652.54614
"1500",78.7805,652.55945
"1501",79.70336,652.57275
"1502",80.638435,652.58606
"1503",81.43435,652.59937
"1504",81.991,652.6127
"1505",82.28886,652.626
"1506",82.36698,652.6393
"1507",82.29374,652.6526
"1508",82.15457,652.6659
"1509",82.003204,652.6792
"1510",81.881134,652.6925
"1511",81.79813,652.7058
"1512",81.74929,652.7191
"1513",81.70779,652.7324
"1514",81.654076,652.7457
"1515",81.56374,652.75903
"1516",81.41482,652.77234
"1517",81.19997,652.78564
"1518",80.92897,652.79895
"1519",80.61646,652.81226
"1520",80.29908,652.82556
"1521",80.008545,652.83887
"1522",79.77661,652.8522
"1523",79.61303,652.8655
"1524",79.520256,652.8788
"1525",79.47387,652.8921
"1526",79.4519,652.9054
"1527",79.4226,652.9187
"1528",79.37377,652.932
"1529",79.29565,652.9453
"1530",79.1931,652.9586
"1531",79.06859,652.9719
"1532",78.93431,652.9852
"1533",78.79515,652.99854
"1534",78.65354,653.01184
"1535",78.51682,653.02515
"1536",78.38499,653.03845
"1537",78.26292,653.05176
"1538",78.15793,653.06506
"1539",78.07004,653.07837
"1540",78.00168,653.0917
"1541",77.94797,653.105
"1542",77.90646,653.1183
"1543",77.86984,653.1316
"1544",77.838104,653.1449
"1545",77.803925,653.1582
"1546",77.77463,653.1715
"1547",77.75021,653.1848
"1548",77.72823,653.1981
"1549",77.7087,653.2114
"1550",77.69161,653.22473
"1551",77.679405,653.23804
"1552",77.67208,653.25134
"1553",77.66964,653.26465
"1554",77.66964,653.27795
"1555",77.67696,653.29126
"1556",77.68917,653.30457
"1557",77.69894,653.3179
"1558",77.71603,653.3312
"1559",77.733116,653.3445
"1560",77.747765,653.3578
"1561",77.75998,653.3711
"1562",77.78439,653.3844
"1563",77.874725,653.3977
"1564",78.1091,653.411
"1565",78.56321,653.4243
"1566",79.26147,653.4376
"1567",80.15259,653.4509
"1568",81.126724,653.46423
"1569",82.0325,653.47754
"1570",82.73075,653.49084
"1571",83.158005,653.50415
"1572",83.32159,653.51746
"1573",83.284966,653.53076
"1574",83.11894,653.54407
"1575",82.9041,653.5574
"1576",82.69901,653.5707
"1577",82.53788,653.584
"1578",82.42802,653.5973
"1579",82.35966,653.6106
"1580",82.30839,653.6239
"1581",82.25468,653.6372
"1582",82.16434,653.6505
"1583",82.020294,653.6638
"1584",81.81766,653.6771
"1585",81.55886,653.6904
"1586",81.26345,653.70374
"1587",80.96315,653.71704
"1588",80.69215,653.73035
"1589",80.47486,653.74365
"1590",80.32838,653.75696
"1591",80.24048,653.77026
"1592",80.19653,653.78357
"1593",80.17456,653.7969
"1594",80.147705,653.8102
"1595",80.10132,653.8235
"1596",80.025635,653.8368
"1597",79.92554,653.8501
"1598",79.80591,653.8634
"1599",79.676506,653.8767
"1600",79.537346,653.89
"1601",79.40063,653.9033
"1602",79.26635,653.9166
"1603",79.14427,653.92993
"1604",79.029526,653.94324
"1605",78.92699,653.95654
"1606",78.836655,653.96985
"1607",78.76341,653.98315
"1608",78.69993,653.99646
"1609",78.643776,654.00977
"1610",78.59983,654.0231
"1611",78.55833,654.0364
"1612",78.52415,654.0497
"1613",78.49241,654.063
"1614",78.46555,654.0763
"1615",78.44114,654.0896
"1616",78.416725,654.1029
"1617",78.39231,654.1162
"1618",78.37278,654.1295
"1619",78.35081,654.1428
"1620",78.328835,654.1561
"1621",78.311745,654.16943
"1622",78.294655,654.18274
"1623",78.28001,654.19604
"1624",78.26536,654.20935
"1625",78.25559,654.22266
"1626",78.25559,654.23596
"1627",78.25803,654.24927
"1628",78.2678,654.2626
"1629",78.28489,654.2759
"1630",78.30198,654.2892
"1631",78.314186,654.3025
"1632",78.328835,654.3158
"1633",78.34104,654.3291
"1634",78.35325,654.3424
"1635",78.3679,654.3557
"1636",78.382545,654.369
"1637",78.433815,654.3823
"1638",78.58518,654.3956
"1639",78.92699,654.40894
"1640",79.517815,654.42224
"1641",80.34547,654.43555
"1642",81.324486,654.44885
"1643",82.31327,654.46216
"1644",83.15068,654.47546
"1645",83.7293,654.4888
"1646",84.01495,654.5021
"1647",84.054016,654.5154
"1648",83.90753,654.5287
"1649",83.66338,654.542
"1650",83.39239,654.5553
"1651",83.1458,654.5686
"1652",82.94316,654.5819
"1653",82.80156,654.5952
"1654",82.703896,654.6085
"1655",82.62821,654.6218
"1656",82.55009,654.63513
"1657",82.44755,654.64844
"1658",82.29374,654.66174
"1659",82.07889,654.67505
"1660",81.8201,654.68835
"1661",81.53689,654.70166
"1662",81.26589,654.71497
"1663",81.02663,654.7283
"1664",80.84108,654.7416
"1665",80.71412,654.7549
"1666",80.638435,654.7682
"1667",80.59205,654.7815
"1668",80.55787,654.7948
"1669",80.51881,654.8081
"1670",80.465096,654.8214
"1671",80.377205,654.8347
"1672",80.26002,654.848
"1673",80.128174,654.8613
"1674",79.98169,654.87463
"1675",79.82544,654.88794
"1676",79.67162,654.90125
"1677",79.53002,654.91455
"1678",79.398186,654.92786
"1679",79.276115,654.94116
"1680",79.17357,654.95447
"1681",79.08324,654.9678
"1682",79.00755,654.9811
"1683",78.93919,654.9944
"1684",78.8806,655.0077
"1685",78.83421,655.021
"1686",78.79027,655.0343
"1687",78.75365,655.0476
"1688",78.71946,655.0609
"1689",78.68528,655.0742
"1690",78.65354,655.0875
"1691",78.6218,655.1008
"1692",78.59251,655.11414
"1693",78.56321,655.12744
"1694",78.536354,655.14075
"1695",78.51194,655.15405
"1696",78.487526,655.16736
"1697",78.467995,655.18066
"1698",78.44846,655.194
"1699",78.43137,655.2073
"1700",78.41917,655.2206
"1701",78.41184,655.2339
"1702",78.41428,655.2472
"1703",78.416725,655.2605
"1704",78.42405,655.2738
"1705",78.433815,655.2871
"1706",78.44358,655.3004
"1707",78.44846,655.3137
"1708",78.450905,655.327
"1709",78.450905,655.34033
"1710",78.467995,655.35364
"1711",78.56077,655.36694
"1712",78.82201,655.38025
"1713",79.32006,655.39355
"1714",80.06958,655.40686
"1715",81.007095,655.42017
"1716",82.01053,655.4335
"1717",82.916306,655.4468
"1718",83.59258,655.4601
"1719",83.97589,655.4734
"1720",84.08087,655.4867
"1721",83.966125,655.5
"1722",83.71221,655.5133
"1723",83.39727,655.5266
"1724",83.089645,655.5399
"1725",82.82353,655.5532
"1726",82.61845,655.5665
"1727",82.46952,655.57983
"1728",82.35966,655.59314
"1729",82.266884,655.60645
"1730",82.16434,655.61975
"1731",82.03006,655.63306
"1732",81.85184,655.64636
"1733",81.62478,655.65967
"1734",81.36843,655.673
"1735",81.10475,655.6863
"1736",80.86549,655.6996
"1737",80.67017,655.7129
"1738",80.52857,655.7262
"1739",80.44068,655.7395
"1740",80.38697,655.7528
"1741",80.34791,655.7661
"1742",80.306404,655.7794
"1743",80.2478,655.7927
"1744",80.15991,655.806
"1745",80.05005,655.81934
"1746",79.92554,655.83264
"1747",79.78882,655.84595
"1748",79.64721,655.85925
"1749",79.51537,655.87256
"1750",79.39086,655.88586
"1751",79.27856,655.8992
"1752",79.17601,655.9125
"1753",79.080795,655.9258
"1754",78.99046,655.9391
"1755",78.907455,655.9524
"1756",78.83177,655.9657
"1757",78.765854,655.979
"1758",78.71702,655.9923
"1759",78.677956,656.0056
"1760",78.64622,656.0189
"1761",78.61692,656.0322
"1762",78.58762,656.04553
"1763",78.56077,656.05884
"1764",78.538795,656.07214
"1765",78.51682,656.08545
"1766",78.49729,656.09875
"1767",78.47532,656.11206
"1768",78.44846,656.12537
"1769",78.42161,656.1387
"1770",78.397194,656.152
"1771",78.382545,656.1653
"1772",78.37278,656.1786
"1773",78.363014,656.1919
"1774",78.35813,656.2052
"1775",78.35813,656.2185
"1776",78.35813,656.2318
"1777",78.36057,656.2451
"1778",78.365456,656.2584
"1779",78.37034,656.2717
"1780",78.37766,656.28503
"1781",78.40696,656.29834
"1782",78.51194,656.31165
"1783",78.78294,656.32495
"1784",79.290764,656.33826
"1785",80.045166,656.35156
"1786",80.98512,656.36487
"1787",81.991,656.3782
"1788",82.90166,656.3915
"1789",83.58282,656.4048
"1790",83.966125,656.4181
"1791",84.06622,656.4314
"1792",83.949036,656.4447
"1793",83.69268,656.458
"1794",83.372856,656.4713
"1795",83.0457,656.4846
"1796",82.760056,656.4979
"1797",82.533,656.5112
"1798",82.35966,656.52454
"1799",82.22537,656.53784
"1800",82.12039,656.55115
"1801",82.01297,656.56445
"1802",81.87625,656.57776
"1803",81.69802,656.59106
"1804",81.47585,656.6044
"1805",81.22926,656.6177
"1806",80.98268,656.631
"1807",80.76051,656.6443
"1808",80.587166,656.6576
"1809",80.46998,656.6709
"1810",80.394295,656.6842
"1811",80.35035,656.6975
"1812",80.31373,656.7108
"1813",80.26978,656.7241
"1814",80.20874,656.7374
"1815",80.12329,656.75073
"1816",80.01831,656.76404
"1817",79.8938,656.77734
"1818",79.764404,656.79065
"1819",79.62524,656.80396
"1820",79.48608,656.81726
"1821",79.35424,656.83057
"1822",79.234604,656.8439
"1823",79.12718,656.8572
"1824",79.03441,656.8705
"1825",78.95628,656.8838
"1826",78.887924,656.8971
"1827",78.82933,656.9104
"1828",78.7805,656.9237
"1829",78.74387,656.937
"1830",78.712135,656.9503
"1831",78.68284,656.9636
"1832",78.65354,656.9769
"1833",78.624245,656.99023
"1834",78.59495,657.00354
"1835",78.56565,657.01685
"1836",78.536354,657.03015
"1837",78.5095,657.04346
"1838",78.487526,657.05676
"1839",78.47288,657.07007
"1840",78.45823,657.0834
"1841",78.44602,657.0967
"1842",78.43137,657.11
"1843",78.41428,657.1233
"1844",78.399635,657.1366
"1845",78.39231,657.1499
"1846",78.38743,657.1632
"1847",78.39475,657.1765
"1848",78.40452,657.1898
"1849",78.41428,657.2031
"1850",78.42161,657.21643
"1851",78.44846,657.22974
"1852",78.55833,657.24304
"1853",78.839096,657.25635
"1854",79.364006,657.26965
"1855",80.147705,657.28296
"1856",81.1194,657.29626
"1857",82.144806,657.3096
"1858",83.06767,657.3229
"1859",83.74883,657.3362
"1860",84.137024,657.3495
"1861",84.25422,657.3628
"1862",84.16144,657.3761
"1863",83.93439,657.3894
"1864",83.64385,657.4027
"1865",83.33868,657.416
"1866",83.06523,657.4293
"1867",82.84306,657.4426
"1868",82.67948,657.45593
"1869",82.55985,657.46924
"1870",82.46952,657.48254
"1871",82.374306,657.49585
"1872",82.24979,657.50916
"1873",82.074005,657.52246
"1874",81.846954,657.53577
"1875",81.5906,657.5491
"1876",81.32937,657.5624
"1877",81.09743,657.5757
"1878",80.90944,657.589
"1879",80.77272,657.6023
"1880",80.67994,657.6156
"1881",80.61402,657.6289
"1882",80.55787,657.6422
"1883",80.499275,657.6555
"1884",80.42603,657.6688
"1885",80.32838,657.6821
"1886",80.21118,657.69543
"1887",80.076904,657.70874
"1888",79.93042,657.72205
"1889",79.781494,657.73535
"1890",79.63744,657.74866
"1891",79.49828,657.76196
"1892",79.35912,657.77527
"1893",79.22972,657.7886
"1894",79.11253,657.8019
"1895",79.00755,657.8152
"1896",78.91478,657.8285
"1897",78.836655,657.8418
"1898",78.77318,657.8551
"1899",78.71946,657.8684
"1900",78.67063,657.8817
"1901",78.626686,657.895
"1902",78.58762,657.9083
"1903",78.54856,657.92163
"1904",78.5095,657.93494
"1905",78.467995,657.94824
"1906",78.43137,657.96155
"1907",78.39475,657.97485
"1908",78.365456,657.98816
"1909",78.33372,658.00146
"1910",78.3093,658.0148
"1911",78.28001,658.0281
"1912",78.25803,658.0414
"1913",78.24094,658.0547
"1914",78.22629,658.068
"1915",78.221405,658.0813
"1916",78.221405,658.0946
"1917",78.21896,658.1079
"1918",78.21896,658.1212
"1919",78.238495,658.1345
"1920",78.328835,658.1478
"1921",78.572975,658.16113
"1922",79.044174,658.17444
"1923",79.764404,658.18774
"1924",80.68726,658.20105
"1925",81.705345,658.21436
"1926",82.667274,658.22766
"1927",83.441216,658.24097
"1928",83.95392,658.2543
"1929",84.2005,658.2676
"1930",84.22247,658.2809
"1931",84.08331,658.2942
"1932",83.85626,658.3075
"1933",83.60479,658.3208
"1934",83.370415,658.3341
"1935",83.1873,658.3474
"1936",83.053024,658.3607
"1937",82.96025,658.374
"1938",82.882126,658.3873
"1939",82.79668,658.40063
"1940",82.67216,658.41394
"1941",82.49149,658.42725
"1942",82.252235,658.44055
"1943",81.97879,658.45386
"1944",81.705345,658.46716
"1945",81.45144,658.48047
"1946",81.24635,658.4938
"1947",81.09743,658.5071
"1948",80.990005,658.5204
"1949",80.902115,658.5337
"1950",80.82399,658.547
"1951",80.73853,658.5603
"1952",80.64332,658.5736
"1953",80.53101,658.5869
"1954",80.39918,658.6002
"1955",80.25269,658.6135
"1956",80.093994,658.62683
"1957",79.92554,658.64014
"1958",79.75464,658.65344
"1959",79.588615,658.66675
"1960",79.43725,658.68005
"1961",79.30053,658.69336
"1962",79.17845,658.70667
"1963",79.06859,658.72
"1964",78.97337,658.7333
"1965",78.88304,658.7466
"1966",78.79759,658.7599
"1967",78.712135,658.7732
"1968",78.63401,658.7865
"1969",78.55833,658.7998
"1970",78.49241,658.8131
"1971",78.43626,658.8264
"1972",78.382545,658.8397
"1973",78.33372,658.853
"1974",78.28245,658.86633
"1975",78.22873,658.87964
"1976",78.1799,658.89294
"1977",78.133514,658.90625
"1978",78.09201,658.91956
"1979",78.05295,658.93286
"1980",78.02365,658.94617
"1981",77.99924,658.9595
"1982",77.98459,658.9728
"1983",77.97482,658.9861
"1984",77.96506,658.9994
"1985",77.95041,659.0127
"1986",77.93576,659.026
"1987",77.96506,659.0393
"1988",78.12375,659.0526
"1989",78.504616,659.0659
"1990",79.151596,659.0792
"1991",80.03784,659.0925
"1992",81.077896,659.10583
"1993",82.125275,659.11914
"1994",83.02617,659.13245
"1995",83.682915,659.14575
"1996",84.071106,659.15906
"1997",84.21515,659.17236
"1998",84.1712,659.18567
"1999",84.01495,659.199
"2000",83.80499,659.2123
"2001",83.59991,659.2256
"2002",83.43145,659.2389
"2003",83.30938,659.2522
"2004",83.228806,659.2655
"2005",83.16777,659.2788
"2006",83.09697,659.2921
"2007",82.99443,659.3054
"2008",82.83086,659.3187
"2009",82.60136,659.33203
"2010",82.320595,659.34534
"2011",82.01297,659.35864
"2012",81.70779,659.37195
"2013",81.43435,659.38525
"2014",81.20973,659.39856
"2015",81.03639,659.41187
"2016",80.89723,659.4252
"2017",80.78981,659.4385
"2018",80.68726,659.4518
"2019",80.58228,659.4651
"2020",80.462654,659.4784
"2021",80.325935,659.4917
"2022",80.16724,659.505
"2023",79.9939,659.5183
"2024",79.81323,659.5316
"2025",79.63256,659.5449
"2026",79.45434,659.5582
"2027",79.28588,659.57153
"2028",79.12474,659.58484
"2029",78.96849,659.59814
"2030",78.8098,659.61145
"2031",78.65598,659.62476
"2032",78.51194,659.63806
"2033",78.38499,659.65137
"2034",78.27512,659.6647
"2035",78.1799,659.678
"2036",78.09689,659.6913
"2037",78.028534,659.7046
"2038",77.962616,659.7179
"2039",77.90158,659.7312
"2040",77.84299,659.7445
"2041",77.78195,659.7578
"2042",77.72335,659.7711
"2043",77.66476,659.7844
"2044",77.611046,659.7977
"2045",77.56222,659.81104
"2046",77.5256,659.82434
"2047",77.49386,659.83765
"2048",77.469444,659.85095
"2049",77.44747,659.86426
"2050",77.4255,659.87756
"2051",77.401085,659.89087
"2052",77.37911,659.9042
"2053",77.38644,659.9175
"2054",77.4963,659.9308
"2055",77.79172,659.9441
"2056",78.345924,659.9574
"2057",79.166245,659.9707
"2058",80.19409,659.984
"2059",81.30251,659.9973
"2060",82.34501,660.0106
"2061",83.18486,660.0239
"2062",83.76105,660.03723
"2063",84.07355,660.05054
"2064",84.16876,660.06384
"2065",84.10773,660.07715
"2066",83.9588,660.09045
"2067",83.78058,660.10376
"2068",83.62188,660.11707
"2069",83.49493,660.1304
"2070",83.407036,660.1437
"2071",83.34844,660.157
"2072",83.299614,660.1703
"2073",83.226364,660.1836
"2074",83.09941,660.1969
"2075",82.899216,660.2102
"2076",82.62577,660.2235
"2077",82.29618,660.2368
"2078",81.94949,660.2501
"2079",81.61257,660.2634
"2080",81.31228,660.27673
"2081",81.06569,660.29004
"2082",80.87282,660.30334
"2083",80.71412,660.31665
"2084",80.57984,660.32996
"2085",80.45777,660.34326
"2086",80.32838,660.35657
"2087",80.17944,660.3699
"2088",80.01099,660.3832
"2089",79.82056,660.3965
"2090",79.622795,660.4098
"2091",79.4226,660.4231
"2092",79.2224,660.4364
"2093",79.027084,660.4497
"2094",78.839096,660.463
"2095",78.660866,660.4763
"2096",78.485085,660.4896
"2097",78.31663,660.5029
"2098",78.153046,660.51624
"2099",78.00412,660.52954
"2100",77.86984,660.54285
"2101",77.7551,660.55615
"2102",77.65255,660.56946
"2103",77.57198,660.58276
"2104",77.50118,660.59607
"2105",77.44015,660.6094
"2106",77.38155,660.6227
"2107",77.330284,660.636
"2108",77.279015,660.6493
"2109",77.22774,660.6626
"2110",77.17647,660.6759
"2111",77.134964,660.6892
"2112",77.103226,660.7025
"2113",77.07637,660.7158
"2114",77.051956,660.7291
"2115",77.02266,660.74243
"2116",76.99336,660.75574
"2117",76.96895,660.76904
"2118",76.97139,660.78235
"2119",77.07393,660.79565
"2120",77.36935,660.80896
"2121",77.93088,660.82227
"2122",78.768295,660.8356
"2123",79.83276,660.8489
"2124",81.00221,660.8622
"2125",82.12039,660.8755
"2126",83.0457,660.8888
"2127",83.702446,660.9021
"2128",84.08331,660.9154
"2129",84.22247,660.9287
"2130",84.18829,660.942
"2131",84.06134,660.9553
"2132",83.90753,660.9686
"2133",83.773254,660.98193
"2134",83.67559,660.99524
"2135",83.617,661.00854
"2136",83.577934,661.02185
"2137",83.53399,661.03516
"2138",83.46563,661.04846
"2139",83.34112,661.06177
"2140",83.140915,661.0751
"2141",82.865036,661.0884
"2142",82.52323,661.1017
"2143",82.144806,661.115
"2144",81.76395,661.1283
"2145",81.41726,661.1416
"2146",81.12184,661.1549
"2147",80.8777,661.1682
"2148",80.68238,661.1815
"2149",80.516365,661.1948
"2150",80.36988,661.2081
"2151",80.22583,661.22144
"2152",80.076904,661.23474
"2153",79.91089,661.24805
"2154",79.725334,661.26135
"2155",79.52514,661.27466
"2156",79.30785,661.28796
"2157",79.08568,661.3013
"2158",78.86595,661.3146
"2159",78.66331,661.3279
"2160",78.467995,661.3412
"2161",78.28245,661.3545
"2162",78.10666,661.3678
"2163",77.945526,661.3811
"2164",77.7966,661.3944
"2165",77.659874,661.4077
"2166",77.53292,661.421
"2167",77.418175,661.4343
"2168",77.31075,661.44763
"2169",77.21309,661.46094
"2170",77.13008,661.47424
"2171",77.06416,661.48755
"2172",77.00801,661.50085
"2173",76.964066,661.51416
"2174",76.92256,661.52747
"2175",76.89082,661.5408
"2176",76.86641,661.5541
"2177",76.84688,661.5674
"2178",76.824905,661.5807
"2179",76.79561,661.594
"2180",76.76143,661.6073
"2181",76.734566,661.6206
"2182",76.75899,661.6339
"2183",76.91524,661.6472
"2184",77.31075,661.6605
"2185",77.996796,661.6738
"2186",78.96117,661.68713
"2187",80.12085,661.70044
"2188",81.339134,661.71375
"2189",82.45243,661.72705
"2190",83.32891,661.74036
"2191",83.92706,661.75366
"2192",84.24933,661.76697
"2193",84.349434,661.7803
"2194",84.29084,661.7936
"2195",84.159,661.8069
"2196",84.01495,661.8202
"2197",83.897766,661.8335
"2198",83.81964,661.8468
"2199",83.775696,661.8601
"2200",83.74639,661.8734
"2201",83.702446,661.8867
"2202",83.612114,661.9
"2203",83.45342,661.9133
"2204",83.209274,661.92664
"2205",82.882126,661.93994
"2206",82.49149,661.95325
"2207",82.074005,661.96655
"2208",81.66628,661.97986
"2209",81.304955,661.99316
"2210",81.00221,662.0065
"2211",80.765396,662.0198
"2212",80.57496,662.0331
"2213",80.413826,662.0464
"2214",80.26246,662.0597
"2215",80.10376,662.073
"2216",79.923096,662.0863
"2217",79.727776,662.0996
"2218",79.520256,662.1129
"2219",79.30053,662.1262
"2220",79.078354,662.1395
"2221",78.86107,662.15283
"2222",78.6511,662.16614
"2223",78.45335,662.17944
"2224",78.260475,662.19275
"2225",78.0798,662.20605
"2226",77.90402,662.21936
"2227",77.733116,662.23267
"2228",77.57198,662.246
"2229",77.43038,662.2593
"2230",77.30831,662.2726
"2231",77.20332,662.2859
"2232",77.11299,662.2992
"2233",77.03487,662.3125
"2234",76.964066,662.3258
"2235",76.90059,662.3391
"2236",76.84444,662.3524
"2237",76.79561,662.3657
"2238",76.756546,662.379
"2239",76.7248,662.39233
"2240",76.6955,662.40564
"2241",76.66865,662.41895
"2242",76.64179,662.43225
"2243",76.61738,662.44556
"2244",76.60029,662.45886
"2245",76.61738,662.47217
"2246",76.749214,662.4855
"2247",77.086136,662.4988
"2248",77.70382,662.5121
"2249",78.61936,662.5254
"2250",79.77661,662.5387
"2251",81.04616,662.552
"2252",82.25956,662.5653
"2253",83.267876,662.5786
"2254",83.99298,662.5919
"2255",84.41779,662.6052
"2256",84.58625,662.6185
"2257",84.56916,662.63184
"2258",84.45197,662.64514
"2259",84.30793,662.65845
"2260",84.18341,662.67175
"2261",84.09796,662.68506
"2262",84.04669,662.69836
"2263",84.01251,662.7117
"2264",83.97101,662.725
"2265",83.888,662.7383
"2266",83.734184,662.7516
"2267",83.49737,662.7649
"2268",83.17265,662.7782
"2269",82.77959,662.7915
"2270",82.354774,662.8048
"2271",81.934845,662.8181
"2272",81.549095,662.8314
"2273",81.22194,662.8447
"2274",80.955826,662.85803
"2275",80.73853,662.87134
"2276",80.552986,662.88464
"2277",80.37965,662.89795
"2278",80.20386,662.91125
"2279",80.01587,662.92456
"2280",79.81323,662.93787
"2281",79.5935,662.9512
"2282",79.364006,662.9645
"2283",79.12962,662.9778
"2284",78.890366,662.9911
"2285",78.658424,663.0044
"2286",78.4387,663.0177
"2287",78.23117,663.031
"2288",78.03586,663.0443
"2289",77.84787,663.0576
"2290",77.67208,663.0709
"2291",77.50851,663.0842
"2292",77.35714,663.09753
"2293",77.22041,663.11084
"2294",77.103226,663.12415
"2295",77.00557,663.13745
"2296",76.92256,663.15076
"2297",76.85664,663.16406
"2298",76.807816,663.17737
"2299",76.76143,663.1907
"2300",76.72236,663.204
"2301",76.6833,663.2173
"2302",76.64423,663.2306
"2303",76.60517,663.2439
"2304",76.57343,663.2572
"2305",76.58076,663.2705
"2306",76.70771,663.2838
"2307",77.03975,663.2971
"2308",77.65255,663.3104
"2309",78.55833,663.3237
"2310",79.70092,663.33704
"2311",80.94606,663.35034
"2312",82.13016,663.36365
"2313",83.11406,663.37695
"2314",83.81964,663.39026
"2315",84.23224,663.40356
"2316",84.39338,663.4169
"2317",84.368965,663.4302
"2318",84.242004,663.4435
"2319",84.08331,663.4568
"2320",83.94171,663.4701
"2321",83.83673,663.4834
"2322",83.77081,663.4967
"2323",83.719536,663.51
"2324",83.65118,663.5233
"2325",83.529106,663.5366
"2326",83.32891,663.5499
"2327",83.038376,663.56323
"2328",82.667274,663.57654
"2329",82.2449,663.58984
"2330",81.80789,663.60315
"2331",81.39529,663.61646
"2332",81.03151,663.62976
"2333",80.73121,663.64307
"2334",80.48463,663.6564
"2335",80.28443,663.6697
"2336",80.1062,663.683
"2337",79.940186,663.6963
"2338",79.764404,663.7096
"2339",79.57397,663.7229
"2340",79.361565,663.7362
"2341",79.13695,663.7495
"2342",78.905014,663.7628
"2343",78.675514,663.7761
"2344",78.44846,663.7894
"2345",78.23117,663.80273
"2346",78.02365,663.81604
"2347",77.82834,663.82935
"2348",77.64767,663.84265
"2349",77.47921,663.85596
"2350",77.3254,663.86926
"2351",77.18623,663.88257
"2352",77.05684,663.8959
"2353",76.93721,663.9092
"2354",76.83711,663.9225
"2355",76.756546,663.9358
"2356",76.69306,663.9491
"2357",76.64423,663.9624
"2358",76.60029,663.9757
"2359",76.558784,663.989
"2360",76.51972,664.0023
"2361",76.47578,664.0156
"2362",76.42939,664.02893
"2363",76.402534,664.04224
"2364",76.44648,664.05554
"2365",76.65644,664.06885
"2366",77.12764,664.08215
"2367",77.90158,664.09546
"2368",78.9514,664.10876
"2369",80.16968,664.1221
"2370",81.392845,664.1354
"2371",82.45243,664.1487
"2372",83.24101,664.162
"2373",83.72198,664.1753
"2374",83.92462,664.1886
"2375",83.90509,664.2019
"2376",83.756165,664.2152
"2377",83.55596,664.2285
"2378",83.36065,664.2418
"2379",83.20439,664.2551
"2380",83.09697,664.26843
"2381",83.021286,664.28174
"2382",82.94316,664.29504
"2383",82.82353,664.30835
"2384",82.62577,664.32166
"2385",82.34501,664.33496
"2386",81.99344,664.34827
"2387",81.602806,664.3616
"2388",81.2195,664.3749
"2389",80.8777,664.3882
"2390",80.59937,664.4015
"2391",80.38209,664.4148
"2392",80.216064,664.4281
"2393",80.08179,664.4414
"2394",79.95239,664.4547
"2395",79.81079,664.468
"2396",79.656975,664.4813
"2397",79.47875,664.4946
"2398",79.28344,664.50793
"2399",79.07347,664.52124
"2400",78.85863,664.53455
"2401",78.63889,664.54785
"2402",78.42893,664.56116
"2403",78.22873,664.57446
"2404",78.048065,664.58777
"2405",77.88449,664.6011
"2406",77.738,664.6144
"2407",77.60616,664.6277
"2408",77.486534,664.641
"2409",77.37667,664.6543
"2410",77.27413,664.6676
"2411",77.17647,664.6809
"2412",77.08858,664.6942
"2413",77.03975,664.7075
"2414",77.09346,664.7208
"2415",77.33761,664.73413
"2416",77.84299,664.74744
"2417",78.63157,664.76074
"2418",79.64965,664.77405
"2419",80.780045,664.78735
"2420",81.864044,664.80066
"2421",82.757614,664.81396
"2422",83.37774,664.8273
"2423",83.71221,664.8406
"2424",83.792786,664.8539
"2425",83.69756,664.8672
"2426",83.50225,664.8805
"2427",83.282524,664.8938
"2428",83.08232,664.9071
"2429",82.92851,664.9204
"2430",82.80888,664.9337
"2431",82.701454,664.947
"2432",82.56962,664.9603
"2433",82.374306,664.97363
"2434",82.09598,664.98694
"2435",81.74197,665.00024
"2436",81.34402,665.01355
"2437",80.94362,665.02686
"2438",80.57984,665.04016
"2439",80.28443,665.05347
"2440",80.059814,665.0668
"2441",79.8938,665.0801
"2442",79.766846,665.0934
"2443",79.64965,665.1067
"2444",79.52514,665.12
"2445",79.378654,665.1333
"2446",79.20531,665.1466
"2447",79.00511,665.1599
"2448",78.78783,665.1732
"2449",78.56077,665.1865
"2450",78.33616,665.1998
"2451",78.12619,665.21313
"2452",77.93576,665.22644
"2453",77.76486,665.23975
"2454",77.60616,665.25305
"2455",77.45968,665.26636
"2456",77.31808,665.27966
"2457",77.18379,665.29297
"2458",77.05684,665.3063
"2459",76.946976,665.3196
"2460",76.8835,665.3329
"2461",76.93477,665.3462
"2462",77.205765,665.3595
"2463",77.76242,665.3728
"2464",78.61936,665.3861
"2465",79.710686,665.3994
"2466",80.902115,665.4127
"2467",82.03006,665.426
"2468",82.9456,665.43933
"2469",83.57549,665.45264
"2470",83.9173,665.46594
"2471",84.017395,665.47925
"2472",83.95148,665.49255
"2473",83.79523,665.50586
"2474",83.61944,665.51917
"2475",83.46563,665.5325
"2476",83.34844,665.5458
"2477",83.25567,665.5591
"2478",83.160446,665.5724
"2479",83.03105,665.5857
"2480",82.82597,665.599
"2481",82.530556,665.6123
"2482",82.144806,665.6256
"2483",81.69314,665.6389
"2484",81.22682,665.6522
"2485",80.78737,665.6655
"2486",80.42115,665.67883
"2487",80.14282,665.69214
"2488",79.94751,665.70544
"2489",79.798584,665.71875
"2490",79.674065,665.73206
"2491",79.53979,665.74536
"2492",79.381096,665.75867
"2493",79.19066,665.772
"2494",78.97093,665.7853
"2495",78.73167,665.7986
"2496",78.485085,665.8119
"2497",78.238495,665.8252
"2498",78.00168,665.8385
"2499",77.78439,665.8518
"2500",77.58419,665.8651
"2501",77.40597,665.8784
"2502",77.239944,665.8917
"2503",77.09102,665.905
"2504",76.94942,665.91833
"2505",76.81758,665.93164
"2506",76.697945,665.94495
"2507",76.6247,665.95825
"2508",76.67109,665.97156
"2509",76.94209,665.98486
"2510",77.51095,665.99817
"2511",78.40208,666.0115
"2512",79.54711,666.0248
"2513",80.80934,666.0381
"2514",82.01053,666.0514
"2515",82.99199,666.0647
"2516",83.67315,666.078
"2517",84.054016,666.0913
"2518",84.18829,666.1046
"2519",84.15167,666.1179
"2520",84.034485,666.1312
"2521",83.90021,666.14453
"2522",83.78546,666.15784
"2523",83.69756,666.17114
"2524",83.62432,666.18445
"2525",83.53399,666.19775
"2526",83.39971,666.21106
"2527",83.18242,666.22437
"2528",82.86015,666.2377
"2529",82.43534,666.251
"2530",81.93729,666.2643
"2531",81.40505,666.2776
"2532",80.89235,666.2909
"2533",80.45045,666.3042
"2534",80.09888,666.3175
"2535",79.83765,666.3308
"2536",79.64477,666.3441
"2537",79.49096,666.3574
"2538",79.34692,666.3707
"2539",79.183334,666.38403
"2540",78.99046,666.39734
"2541",78.76341,666.41064
"2542",78.50706,666.42395
"2543",78.23361,666.43726
"2544",77.95285,666.45056
"2545",77.68185,666.46387
"2546",77.43038,666.4772
"2547",77.19844,666.4905
"2548",76.995804,666.5038
"2549",76.81758,666.5171
"2550",76.66621,666.5304
"2551",76.52949,666.5437
"2552",76.402534,666.557
"2553",76.282906,666.5703
"2554",76.173035,666.5836
"2555",76.09247,666.5969
"2556",76.102234,666.6102
"2557",76.297554,666.62354
"2558",76.771194,666.63684
"2559",77.57198,666.65015
"2560",78.66819,666.66345
"2561",79.94751,666.67676
"2562",81.24391,666.69006
"2563",82.38163,666.70337
"2564",83.24834,666.7167
"2565",83.80255,666.73
"2566",84.08087,666.7433
"2567",84.15411,666.7566
"2568",84.105286,666.7699
"2569",84.00519,666.7832
"2570",83.90509,666.7965
"2571",83.81964,666.8098
"2572",83.74395,666.8231
"2573",83.65118,666.8364
"2574",83.51202,666.84973
"2575",83.28985,666.86304
"2576",82.96269,666.87634
"2577",82.52567,666.88965
"2578",82.003204,666.90295
"2579",81.444115,666.91626
"2580",80.89479,666.92957
"2581",80.40894,666.9429
"2582",80.01343,666.9562
"2583",79.710686,666.9695
"2584",79.48608,666.9828
"2585",79.31274,666.9961
"2586",79.15648,667.0094
"2587",78.995346,667.0227
"2588",78.80736,667.036
"2589",78.58518,667.0493
"2590",78.331276,667.0626
"2591",78.05783,667.0759
"2592",77.77707,667.08923
"2593",77.50118,667.10254
"2594",77.239944,667.11584
"2595",76.998245,667.12915
"2596",76.78096,667.14246
"2597",76.5832,667.15576
"2598",76.40986,667.16907
"2599",76.25605,667.1824
"2600",76.11932,667.1957
"2601",75.99237,667.209
"2602",75.88739,667.2223
"2603",75.79462,667.2356
"2604",75.72381,667.2489
"2605",75.6701,667.2622
"2606",75.63592,667.2755
"2607",75.61639,667.2888
"2608",75.60662,667.3021
"2609",75.596855,667.3154
"2610",75.58709,667.32874
"2611",75.56756,667.34204
"2612",75.5407,667.35535
"2613",75.51873,667.36865
"2614",75.55779,667.38196
"2615",75.757996,667.39526
"2616",76.23163,667.40857
"2617",77.04707,667.4219
"2618",78.19211,667.4352
"2619",79.569084,667.4485
"2620",81.00954,667.4618
"2621",82.32548,667.4751
"2622",83.36797,667.4884
"2623",84.07355,667.5017
"2624",84.46418,667.515
"2625",84.6009,667.5283
"2626",84.56672,667.5416
"2627",84.44709,667.55493
"2628",84.31281,667.56824
"2629",84.19806,667.58154
"2630",84.10773,667.59485
"2631",84.02472,667.60815
"2632",83.92218,667.62146
"2633",83.756165,667.63477
"2634",83.49737,667.6481
"2635",83.12871,667.6614
"2636",82.66483,667.6747
"2637",82.14725,667.688
"2638",81.62234,667.7013
"2639",81.13893,667.7146
"2640",80.73853,667.7279
"2641",80.430916,667.7412
"2642",80.2063,667.7545
"2643",80.03296,667.7678
"2644",79.886475,667.7811
"2645",79.73266,667.79443
"2646",79.56176,667.80774
"2647",79.35668,667.82104
"2648",79.12474,667.83435
"2649",78.873276,667.84766
"2650",78.607155,667.86096
"2651",78.3386,667.87427
"2652",78.0798,667.8876
"2653",77.83566,667.9009
"2654",77.611046,667.9142
"2655",77.41329,667.9275
"2656",77.23506,667.9408
"2657",77.07637,667.9541
"2658",76.93477,667.9674
"2659",76.81026,667.9807
"2660",76.70283,667.994
"2661",76.60517,668.0073
"2662",76.51972,668.0206
"2663",76.439156,668.03394
"2664",76.36591,668.04724
"2665",76.29511,668.06055
"2666",76.23407,668.07385
"2667",76.17792,668.08716
"2668",76.13153,668.10046
"2669",76.09247,668.1138
"2670",76.06317,668.1271
"2671",76.0412,668.1404
"2672",76.019226,668.1537
"2673",76.00214,668.167
"2674",75.99725,668.1803
"2675",75.99481,668.1936
"2676",75.999695,668.2069
"2677",76.016785,668.2202
"2678",76.04608,668.2335
"2679",76.0827,668.2468
"2680",76.121765,668.26013
"2681",76.16083,668.27344
"2682",76.19501,668.28674
"2683",76.21942,668.30005
"2684",76.24628,668.31335
"2685",76.3122,668.32666
"2686",76.50996,668.33997
"2687",76.95186,668.3533
"2688",77.72091,668.3666
"2689",78.82201,668.3799
"2690",80.16968,668.3932
"2691",81.59304,668.4065
"2692",82.89189,668.4198
"2693",83.90753,668.4331
"2694",84.56672,668.4464
"2695",84.88655,668.4597
"2696",84.93782,668.473
"2697",84.81087,668.4863
"2698",84.596016,668.49963
"2699",84.36164,668.51294
"2700",84.159,668.52625
"2701",84.00519,668.53955
"2702",83.888,668.55286
"2703",83.790344,668.56616
"2704",83.67071,668.57947
"2705",83.49981,668.5928
"2706",83.250786,668.6061
"2707",82.92363,668.6194
"2708",82.533,668.6327
"2709",82.12039,668.646
"2710",81.722435,668.6593
"2711",81.3782,668.6726
"2712",81.10719,668.6859
"2713",80.907,668.6992
"2714",80.76051,668.7125
"2715",80.64576,668.7258
"2716",80.533455,668.73914
"2717",80.40894,668.75244
"2718",80.26246,668.76575
"2719",80.08911,668.77905
"2720",79.89136,668.79236
"2721",79.67162,668.80566
"2722",79.44457,668.819
"2723",79.217514,668.8323
"2724",78.99779,668.8456
"2725",78.78783,668.8589
"2726",78.59739,668.8722
"2727",78.42405,668.8855
"2728",78.27268,668.8988
"2729",78.14084,668.9121
"2730",78.028534,668.9254
"2731",77.925995,668.9387
"2732",77.83566,668.952
"2733",77.747765,668.96533
"2734",77.6672,668.97864
"2735",77.593956,668.99194
"2736",77.53048,669.00525
"2737",77.471886,669.01855
"2738",77.418175,669.03186
"2739",77.36935,669.04517
"2740",77.32296,669.0585
"2741",77.28634,669.0718
"2742",77.25216,669.0851
"2743",77.22774,669.0984
"2744",77.20088,669.1117
"2745",77.18135,669.125
"2746",77.16182,669.1383
"2747",77.14229,669.1516
"2748",77.13008,669.1649
"2749",77.12764,669.1782
"2750",77.12764,669.1915
"2751",77.134964,669.20483
"2752",77.14717,669.21814
"2753",77.15938,669.23145
"2754",77.196,669.25806
"2755",77.222855,669.27136
"2756",77.25216,669.28467
"2757",77.28634,669.298
"2758",77.31808,669.3113
"2759",77.349815,669.3246
"2760",77.418175,669.3379
"2761",77.611046,669.3512
"2762",78.04562,669.3645
"2763",78.79759,669.3778
"2764",79.85718,669.3911
"2765",81.13405,669.4044
"2766",82.45731,669.4177
"2767",83.62676,669.431
"2768",84.49348,669.44434
"2769",85.00374,669.45764
"2770",85.186844,669.47095
"2771",85.10872,669.48425
"2772",84.85237,669.49756
"2773",84.51301,669.51086
"2774",84.16144,669.5242
"2775",83.83917,669.5375
"2776",83.580376,669.5508
"2777",83.38262,669.5641
"2778",83.23125,669.5774
"2779",83.09697,669.5907
"2780",82.93828,669.604
"2781",82.72587,669.6173
"2782",82.45243,669.6306
"2783",82.1326,669.6439
"2784",81.78592,669.6572
"2785",81.45144,669.67053
"2786",81.16579,669.68384
"2787",80.95094,669.69714
"2788",80.80202,669.71045
"2789",80.70191,669.72375
"2790",80.62867,669.73706
"2791",80.56031,669.75037
"2792",80.4773,669.7637
"2793",80.36744,669.777
"2794",80.23071,669.7903
"2795",80.07202,669.8036
"2796",79.89624,669.8169
"2797",79.708244,669.8302
"2798",79.517815,669.8435
"2799",79.33227,669.8568
"2800",79.16136,669.8701
"2801",79.00755,669.8834
"2802",78.86839,669.8967
"2803",78.751205,669.91003
"2804",78.64622,669.92334
"2805",78.551,669.93665
"2806",78.467995,669.94995
"2807",78.39231,669.96326
"2808",78.328835,669.97656
"2809",78.27268,669.98987
"2810",78.22385,670.0032
"2811",78.18234,670.0165
"2812",78.14084,670.0298
"2813",78.09689,670.0431
"2814",78.05051,670.0564
"2815",78.011444,670.0697
"2816",77.979706,670.083
"2817",77.95285,670.0963
"2818",77.93332,670.1096
"2819",77.91867,670.1229
"2820",77.90646,670.1362
"2821",77.88937,670.14954
"2822",77.874725,670.16284
"2823",77.86252,670.17615
"2824",77.857635,670.18945
"2825",77.86008,670.20276
"2826",77.86984,670.21606
"2827",77.88693,670.2294
"2828",77.908905,670.2427
"2829",77.925995,670.256
"2830",77.94064,670.2693
"2831",77.95041,670.2826
"2832",77.97482,670.2959
"2833",78.08469,670.3092
"2834",78.39231,670.3225
"2835",78.98558,670.3358
"2836",79.89624,670.3491
"2837",81.05592,670.3624
"2838",82.30839,670.37573
"2839",83.46075,670.38904
"2840",84.33723,670.40234
"2841",84.85481,670.41565
"2842",85.030594,670.42896
"2843",84.9305,670.44226
"2844",84.65217,670.45557
"2845",84.27863,670.4689
"2846",83.878235,670.4822
"2847",83.49737,670.4955
"2848",83.17265,670.5088
"2849",82.91142,670.5221
"2850",82.70634,670.5354
"2851",82.533,670.5487
"2852",82.3621,670.562
"2853",82.16678,670.5753
"2854",81.934845,670.5886
"2855",81.668724,670.6019
"2856",81.38064,670.61523
"2857",81.10719,670.62854
"2858",80.86549,670.64185
"2859",80.67017,670.65515
"2860",80.52613,670.66846
"2861",80.428474,670.68176
"2862",80.36744,670.69507
"2863",80.31861,670.7084
"2864",80.26734,670.7217
"2865",80.19409,670.735
"2866",80.096436,670.7483
"2867",79.96704,670.7616
"2868",79.81323,670.7749
"2869",79.64721,670.7882
"2870",79.483635,670.8015
"2871",79.32494,670.8148
"2872",79.17601,670.8281
"2873",79.044174,670.84143
"2874",78.92943,670.85474
"2875",78.82689,670.86804
"2876",78.73411,670.88135
"2877",78.6511,670.89465
"2878",78.57786,670.90796
"2879",78.51194,670.92126
"2880",78.45823,670.9346
"2881",78.41428,670.9479
"2882",78.37766,670.9612
"2883",78.348366,670.9745
"2884",78.31907,670.9878
"2885",78.29221,671.0011
"2886",78.27024,671.0144
"2887",78.25315,671.0277
"2888",78.23605,671.041
"2889",78.22385,671.0543
"2890",78.21408,671.0676
"2891",78.20187,671.08093
"2892",78.19211,671.09424
"2893",78.18967,671.10754
"2894",78.187225,671.12085
"2895",78.184784,671.13416
"2896",78.18234,671.14746
"2897",78.17746,671.16077
"2898",78.18967,671.1741
"2899",78.28245,671.1874
"2900",78.56809,671.2007
"2901",79.132065,671.214
"2902",81.09743,671.2406
"2903",82.28153,671.2539
"2904",83.36065,671.2672
"2905",84.16876,671.2805
"2906",84.627754,671.2938
"2907",84.75716,671.3071
"2908",84.63264,671.32043
"2909",84.3299,671.33374
"2910",83.93927,671.34705
"2911",83.526665,671.36035
"2912",83.1458,671.37366
"2913",82.82109,671.38696
"2914",82.55741,671.40027
"2915",82.34745,671.4136
"2916",82.17166,671.4269
"2917",82.003204,671.4402
"2918",81.815216,671.4535
"2919",81.58816,671.4668
"2920",81.33181,671.4801
"2921",81.06325,671.4934
"2922",80.80202,671.5067
"2923",80.57984,671.52
"2924",80.411385,671.5333
"2925",80.2942,671.54663
"2926",80.22339,671.55994
"2927",80.17944,671.57324
"2928",80.14282,671.58655
"2929",80.10376,671.59985
"2930",80.04028,671.61316
"2931",79.95239,671.62646
"2932",79.835205,671.6398
"2933",79.70336,671.6531
"2934",79.55688,671.6664
"2935",79.415276,671.6797
"2936",79.27856,671.693
"2937",79.15404,671.7063
"2938",79.03685,671.7196
"2939",78.92943,671.7329
"2940",78.83421,671.7462
"2941",78.751205,671.7595
"2942",78.67307,671.7728
"2943",78.6096,671.78613
"2944",78.55833,671.79944
"2945",78.51682,671.81274
"2946",78.4802,671.82605
"2947",78.450905,671.83936
"2948",78.42405,671.85266
"2949",78.397194,671.86597
"2950",78.37522,671.8793
"2951",78.35325,671.8926
"2952",78.3386,671.9059
"2953",78.328835,671.9192
"2954",78.32639,671.9325
"2955",78.328835,671.9458
"2956",78.328835,671.9591
"2957",78.331276,671.9724
"2958",78.33372,671.9857
"2959",78.32639,671.999
"2960",78.31663,672.0123
"2961",78.31663,672.02563
"2962",78.37034,672.03894
"2963",78.57053,672.05225
"2964",79.029526,672.06555
"2965",79.78638,672.07886
"2966",80.80934,672.09216
"2967",81.971466,672.10547
"2968",83.09697,672.1188
"2969",84.01251,672.1321
"2970",84.6009,672.1454
"2971",84.85481,672.1587
"2972",84.825516,672.172
"2973",84.58869,672.1853
"2974",84.23224,672.1986
"2975",83.83185,672.2119
"2976",83.44366,672.2252
"2977",83.104294,672.2385
"2978",82.83574,672.25183
"2979",82.62821,672.26514
"2980",82.46708,672.27844
"2981",82.31815,672.29175
"2982",82.15213,672.30505
"2983",81.94705,672.31836
"2984",81.69802,672.33167
"2985",81.4197,672.345
"2986",81.143814,672.3583
"2987",80.89723,672.3716
"2988",80.70191,672.3849
"2989",80.56031,672.3982
"2990",80.46754,672.4115
"2991",80.4065,672.4248
"2992",80.36256,672.4381
"2993",80.31861,672.4514
"2994",80.26002,672.4647
"2995",80.17944,672.478
"2996",80.06958,672.49133
"2997",79.940186,672.50464
"2998",79.798584,672.51794
"2999",79.65453,672.53125
"3000",79.51293,672.54456
"3001",79.38354,672.55786
"3002",79.26391,672.57117
"3003",79.15648,672.5845
"3004",79.05394,672.5978
"3005",78.96361,672.6111
"3006",78.87572,672.6244
"3007",78.80003,672.6377
"3008",78.73899,672.651
"3009",78.68528,672.6643
"3010",78.641335,672.6776
"3011",78.60227,672.6909
"3012",78.56809,672.7042
"3013",78.53391,672.7175
"3014",78.502174,672.73083
"3015",78.470436,672.74414
"3016",78.44602,672.75745
"3017",78.42893,672.77075
"3018",78.416725,672.78406
"3019",78.4094,672.79736
"3020",78.40696,672.81067
"3021",78.40696,672.824
"3022",78.397194,672.8373
"3023",78.38499,672.8506
"3024",78.37278,672.8639
"3025",78.38743,672.8772
"3026",78.502174,672.8905
"3027",78.81468,672.9038
"3028",79.40307,672.9171
"3029",80.272224,672.9304
"3030",81.34402,672.9437
"3031",82.476845,672.95703
"3032",83.492485,672.97034
"3033",84.24689,672.98364
"3034",84.67414,672.99695
"3035",84.8011,673.01025
"3036",84.68635,673.02356
"3037",84.41047,673.03687
"3038",84.06134,673.0502
"3039",83.70977,673.0635
"3040",83.39727,673.0768
"3041",83.15312,673.0901
"3042",82.97246,673.1034
"3043",82.84306,673.1167
"3044",82.72831,673.13
"3045",82.59647,673.1433
"3046",82.42069,673.1566
"3047",82.18875,673.1699
"3048",81.90311,673.1832
"3049",81.5906,673.19653
"3050",81.287865,673.20984
"3051",81.02174,673.22314
"3052",80.80934,673.23645
"3053",80.65308,673.24976
"3054",80.54322,673.26306
"3055",80.46021,673.27637
"3056",80.38941,673.2897
"3057",80.31617,673.303
"3058",80.23071,673.3163
"3059",80.12329,673.3296
"3060",79.99634,673.3429
"3061",79.852295,673.3562
"3062",79.69604,673.3695
"3063",79.537346,673.3828
"3064",79.381096,673.3961
"3065",79.22728,673.4094
"3066",79.080795,673.4227
"3067",78.94652,673.43604
"3068",78.82201,673.44934
"3069",78.709694,673.46265
"3070",78.61204,673.47595
"3071",78.52659,673.48926
"3072",78.45579,673.50256
"3073",78.397194,673.51587
"3074",78.345924,673.5292
"3075",78.2971,673.5425
"3076",78.24826,673.5558
"3077",78.19943,673.5691
"3078",78.153046,673.5824
"3079",78.116425,673.5957
"3080",78.08713,673.609
"3081",78.06271,673.6223
"3082",78.04318,673.6356
"3083",78.02365,673.6489
"3084",77.99924,673.66223
"3085",77.977264,673.67554
"3086",77.95773,673.68884
"3087",77.9382,673.70215
"3088",77.91623,673.71545
"3089",77.91135,673.72876
"3090",77.97238,673.74207
"3091",78.18967,673.7554
"3092",78.65598,673.7687
"3093",79.412834,673.782
"3094",80.42115,673.7953
"3095",81.55398,673.8086
"3096",82.6453,673.8219
"3097",83.52422,673.8352
"3098",84.09064,673.8485
"3099",84.33723,673.8618
"3100",84.31281,673.8751
"3101",84.1004,673.8884
"3102",83.7879,673.90173
"3103",83.45342,673.91504
"3104",83.15068,673.92834
"3105",82.90654,673.94165
"3106",82.72343,673.95496
"3107",82.58671,673.96826
"3108",82.47196,673.98157
"3109",82.34745,673.9949
"3110",82.18631,674.0082
"3111",81.969025,674.0215
"3112",81.70046,674.0348
"3113",81.39773,674.0481
"3114",81.08522,674.0614
"3115",80.78981,674.0747
"3116",80.54078,674.088
"3117",80.34547,674.1013
"3118",80.201416,674.1146
"3119",80.093994,674.1279
"3120",80.01343,674.14124
"3121",79.937744,674.15454
"3122",79.85474,674.16785
"3123",79.74975,674.18115
"3124",79.62768,674.19446
"3125",79.483635,674.20776
"3126",79.33471,674.22107
"3127",79.18089,674.2344
"3128",79.03441,674.2477
"3129",78.89281,674.261
"3130",78.75365,674.2743
"3131",78.61692,674.2876
"3132",78.487526,674.3009
"3133",78.363014,674.3142
"3134",78.25071,674.3275
"3135",78.15793,674.3408
"3136",78.0798,674.3541
"3137",78.013885,674.36743
"3138",77.95529,674.38074
"3139",77.90402,674.39404
"3140",77.855194,674.40735
"3141",77.81369,674.42065
"3142",77.77707,674.43396
"3143",77.74532,674.44727
"3144",77.72091,674.4606
"3145",77.696495,674.4739
"3146",77.679405,674.4872
"3147",77.662315,674.5005
"3148",77.64767,674.5138
"3149",77.63302,674.5271
"3150",77.62325,674.5404
"3151",77.608604,674.5537
"3152",77.5964,674.567
"3153",77.60128,674.5803
"3154",77.679405,674.5936
"3155",77.92355,674.60693
"3156",78.42161,674.62024
"3157",79.202866,674.63354
"3158",80.218506,674.64685
"3159",81.34402,674.66016
"3160",82.41337,674.67346
"3161",83.26055,674.68677
"3162",83.79767,674.7001
"3163",84.02716,674.7134
"3164",83.99786,674.7267
"3165",83.792786,674.74
"3166",83.49981,674.7533
"3167",83.194626,674.7666
"3168",82.92119,674.7799
"3169",82.70634,674.7932
"3170",82.55741,674.8065
"3171",82.44999,674.8198
"3172",82.36454,674.8331
"3173",82.266884,674.84644
"3174",82.13504,674.85974
"3175",81.94705,674.87305
"3176",81.69802,674.88635
"3177",81.40505,674.89966
"3178",81.092545,674.91296
"3179",80.78737,674.9263
"3180",80.51392,674.9396
"3181",80.291756,674.9529
"3182",80.11841,674.9662
"3183",79.98901,674.9795
"3184",79.89624,674.9928
"3185",79.818115,675.0061
"3186",79.742424,675.0194
"3187",79.65453,675.0327
"3188",79.54955,675.046
"3189",79.42748,675.0593
"3190",79.29565,675.07263
"3191",79.15892,675.08594
"3192",79.0222,675.09924
"3193",78.88548,675.11255
"3194",78.75609,675.12585
"3195",78.626686,675.13916
"3196",78.50706,675.15247
"3197",78.39475,675.1658
"3198",78.2971,675.1791
"3199",78.204315,675.1924
"3200",78.12375,675.2057
"3201",78.05539,675.219
"3202",77.99924,675.2323
"3203",77.95285,675.2456
"3204",77.908905,675.2589
"3205",77.8674,675.2722
"3206",77.823456,675.2855
"3207",77.78439,675.2988
"3208",77.747765,675.31213
"3209",77.71847,675.32544
"3210",77.69894,675.33875
"3211",77.68917,675.35205
"3212",77.679405,675.36536
"3213",77.67208,675.37866
"3214",77.66964,675.39197
"3215",77.6672,675.4053
"3216",77.66476,675.4186
"3217",77.65743,675.4319
"3218",77.65499,675.4452
"3219",77.68917,675.4585
"3220",77.838104,675.4718
"3221",78.204315,675.4851
"3222",78.8513,675.4984
"3223",79.766846,675.5117
"3224",80.87038,675.525
"3225",82.00809,675.5383
"3226",83.00908,675.55164
"3227",83.73907,675.56494
"3228",84.159,675.57825
"3229",84.29572,675.59155
"3230",84.21515,675.60486
"3231",83.99786,675.61816
"3232",83.72686,675.6315
"3233",83.46075,675.6448
"3234",83.23613,675.6581
"3235",83.06279,675.6714
"3236",82.94072,675.6847
"3237",82.85039,675.698
"3238",82.76738,675.7113
"3239",82.669716,675.7246
"3240",82.530556,675.7379
"3241",82.33036,675.7512
"3242",82.07156,675.7645
"3243",81.76639,675.77783
"3244",81.44167,675.79114
"3245",81.13405,675.80444
"3246",80.86549,675.81775
"3247",80.65308,675.83105
"3248",80.49683,675.84436
"3249",80.37965,675.85767
"3250",80.28687,675.871
"3251",80.19653,675.8843
"3252",80.10132,675.8976
"3253",79.9939,675.9109
"3254",79.869385,675.9242
"3255",79.73266,675.9375
"3256",79.586174,675.9508
"3257",79.432365,675.9641
"3258",79.27856,675.9774
"3259",79.12718,675.9907
"3260",78.98314,676.004
"3261",78.84398,676.01733
"3262",78.712135,676.03064
"3263",78.58762,676.04395
"3264",78.47288,676.05725
"3265",78.37034,676.07056
"3266",78.28001,676.08386
"3267",78.20187,676.09717
"3268",78.133514,676.1105
"3269",78.07248,676.1238
"3270",78.013885,676.1371
"3271",77.962616,676.1504
"3272",77.91379,676.1637
"3273",77.872284,676.177
"3274",77.83322,676.1903
"3275",77.80148,676.2036
"3276",77.77463,676.2169
"3277",77.752655,676.2302
"3278",77.733116,676.2435
"3279",77.71603,676.25684
"3280",77.696495,676.27014
"3281",77.68185,676.28345
"3282",77.6672,676.29675
"3283",77.65743,676.31006
"3284",77.64767,676.32336
"3285",77.65011,676.3367
"3286",77.713585,676.35
"3287",77.92844,676.3633
"3288",78.382545,676.3766
"3289",79.12718,676.3899
"3290",80.13306,676.4032
"3291",81.287865,676.4165
"3292",82.4329,676.4298
"3293",83.404594,676.4431
"3294",84.09796,676.4564
"3295",84.488594,676.4697
"3296",84.610664,676.48303
"3297",84.53498,676.49634
"3298",84.33967,676.50964
"3299",84.09796,676.52295
"3300",83.86359,676.53625
"3301",83.67071,676.54956
"3302",83.53155,676.56287
"3303",83.438774,676.5762
"3304",83.372856,676.5895
"3305",83.3045,676.6028
"3306",83.209274,676.6161
"3307",83.053024,676.6294
"3308",82.82353,676.6427
"3309",82.530556,676.656
"3310",82.193634,676.6693
"3311",81.85184,676.6826
"3312",81.53445,676.6959
"3313",81.26101,676.7092
"3314",81.03639,676.72253
"3315",80.86061,676.73584
"3316",80.719,676.74915
"3317",80.59693,676.76245
"3318",80.479744,676.77576
"3319",80.35279,676.78906
"3320",80.2063,676.80237
"3321",80.04028,676.8157
"3322",79.86206,676.829
"3323",79.676506,676.8423
"3324",79.48852,676.8556
"3325",79.30541,676.8689
"3326",79.132065,676.8822
"3327",78.96605,676.8955
"3328",78.81468,676.9088
"3329",78.66819,676.9221
"3330",78.52659,676.9354
"3331",78.38743,676.9487
"3332",78.25315,676.96204
"3333",78.12619,676.97534
"3334",78.011444,676.98865
"3335",77.908905,677.00195
"3336",77.81857,677.01526
"3337",77.73556,677.02856
"3338",77.662315,677.0419
"3339",77.5964,677.0552
"3340",77.53536,677.0685
"3341",77.488976,677.0818
"3342",77.44991,677.0951
"3343",77.41573,677.1084
"3344",77.38155,677.1217
"3345",77.34493,677.135
"3346",77.313194,677.1483
"3347",77.2839,677.1616
"3348",77.2546,677.1749
"3349",77.23262,677.18823
"3350",77.208206,677.20154
"3351",77.18623,677.21484
"3352",77.188675,677.22815
"3353",77.28878,677.24146
"3354",77.58663,677.25476
"3355",78.15549,677.26807
"3356",79.009995,677.2814
"3357",80.093994,677.2947
"3358",81.270775,677.308
"3359",82.38407,677.3213
"3360",83.28985,677.3346
"3361",83.9173,677.3479
"3362",84.2591,677.3612
"3363",84.36408,677.3745
"3364",84.28596,677.3878
"3365",84.102844,677.4011
"3366",83.888,677.4144
"3367",83.69024,677.42773
"3368",83.53887,677.44104
"3369",83.43145,677.45435
"3370",83.36309,677.46765
"3371",83.30694,677.48096
"3372",83.228806,677.49426
"3373",83.10185,677.50757
"3374",82.90898,677.5209
"3375",82.64774,677.5342
"3376",82.32792,677.5475
"3377",81.98123,677.5608
"3378",81.64187,677.5741
"3379",81.33181,677.5874
"3380",81.07057,677.6007
"3381",80.85817,677.614
"3382",80.68238,677.6273
"3383",80.52857,677.6406
"3384",80.38697,677.65393
"3385",80.24536,677.66724
"3386",80.08667,677.68054
"3387",79.91577,677.69385
"3388",79.727776,677.70715
"3389",79.53002,677.72046
"3390",79.32494,677.73376
"3391",79.11986,677.7471
"3392",78.924545,677.7604
"3393",78.73411,677.7737
"3394",78.55833,677.787
"3395",78.38987,677.8003
"3396",78.23117,677.8136
"3397",78.07492,677.8269
"3398",77.92844,677.8402
"3399",77.789276,677.8535
"3400",77.65499,677.8668
"3401",77.53536,677.8801
"3402",77.43038,677.89343
"3403",77.34005,677.90674
"3404",77.25948,677.92004
"3405",77.188675,677.93335
"3406",77.120316,677.94666
"3407",77.0544,677.95996
"3408",76.99336,677.97327
"3409",76.93233,677.9866
"3410",76.87862,677.9999
"3411",76.82979,678.0132
"3412",76.788284,678.0265
"3413",76.75166,678.0398
"3414",76.7248,678.0531
"3415",76.70283,678.0664
"3416",76.6833,678.0797
"3417",76.66132,678.093
"3418",76.64423,678.1063
"3419",76.64423,678.1196
"3420",76.715034,678.13293
"3421",76.95186,678.14624
"3422",77.44503,678.15955
"3423",78.23117,678.17285
"3424",79.27123,678.18616
"3425",80.465096,678.19946
"3426",81.654076,678.21277
"3427",82.68192,678.2261
"3428",83.44366,678.2394
"3429",83.91974,678.2527
"3430",84.13214,678.266
"3431",84.13214,678.2793
"3432",83.99298,678.2926
"3433",83.792786,678.3059
"3434",83.58526,678.3192
"3435",83.40948,678.3325
"3436",83.28008,678.3458
"3437",83.194626,678.35913
"3438",83.13115,678.37244
"3439",83.06523,678.38574
"3440",82.96025,678.39905
"3441",82.791794,678.41235
"3442",82.55009,678.42566
"3443",82.24979,678.43896
"3444",81.91531,678.4523
"3445",81.58083,678.4656
"3446",81.28054,678.4789
"3447",81.03151,678.4922
"3448",80.82887,678.5055
"3449",80.66773,678.5188
"3450",80.52857,678.5321
"3451",80.39918,678.5454
"3452",80.2649,678.5587
"3453",80.12573,678.572
"3454",79.96948,678.5853
"3455",79.798584,678.59863
"3456",79.61059,678.61194
"3457",79.41772,678.62524
"3458",79.2224,678.63855
"3459",79.02464,678.65186
"3460",78.82933,678.66516
"3461",78.643776,678.67847
"3462",78.46555,678.6918
"3463",78.2971,678.7051
"3464",78.14572,678.7184
"3465",78.011444,678.7317
"3466",77.891815,678.745
"3467",77.786835,678.7583
"3468",77.69405,678.7716
"3469",77.61837,678.7849
"3470",77.55489,678.7982
"3471",77.503624,678.8115
"3472",77.45724,678.8248
"3473",77.41085,678.83813
"3474",77.36202,678.85144
"3475",77.315636,678.86475
"3476",77.313194,678.87805
"3477",77.44015,678.89136
"3478",77.77463,678.90466
"3479",78.37278,678.91797
"3480",79.22484,678.9313
"3481",80.25025,678.9446
"3482",81.31228,678.9579
"3483",82.26444,678.9712
"3484",82.99687,678.9845
"3485",83.47051,678.9978
"3486",83.685356,679.0111
"3487",83.69268,679.0244
"3488",83.55596,679.0377
"3489",83.33868,679.051
"3490",83.104294,679.06433
"3491",82.899216,679.07764
"3492",82.735634,679.09094
"3493",82.61112,679.10425
"3494",82.5037,679.11755
"3495",82.37919,679.13086
"3496",82.20828,679.14417
"3497",81.97879,679.1575
"3498",81.7029,679.1708
"3499",81.39773,679.1841
"3500",81.09987,679.1974
"3501",80.8362,679.2107
"3502",80.621346,679.224
"3503",80.45289,679.2373
"3504",80.325935,679.2506
"3505",80.22095,679.2639
"3506",80.12573,679.2772
"3507",80.02075,679.2905
"3508",79.90112,679.30383
"3509",79.75708,679.31714
"3510",79.5935,679.33044
"3511",79.41772,679.34375
"3512",79.23216,679.35706
"3513",79.046616,679.37036
"3514",78.86595,679.38367
"3515",78.69749,679.397
"3516",78.53391,679.4103
"3517",78.38499,679.4236
"3518",78.24582,679.4369
"3519",78.11398,679.4502
"3520",77.994354,679.4635
"3521",77.88693,679.4768
"3522",77.79172,679.4901
"3523",77.733116,679.5034
"3524",77.77219,679.5167
"3525",77.98947,679.53
"3526",78.450905,679.54333
"3527",79.183334,679.55664
"3528",80.13794,679.56995
"3529",81.19997,679.58325
"3530",82.22293,679.59656
"3531",83.072556,679.60986
"3532",83.67315,679.62317
"3533",84.01251,679.6365
"3534",84.119934,679.6498
"3535",84.06378,679.6631
"3536",83.90509,679.6764
"3537",83.71221,679.6897
"3538",83.52178,679.703
"3539",83.36309,679.7163
"3540",83.23613,679.7296
"3541",83.12871,679.7429
"3542",83.004196,679.7562
"3543",82.8333,679.76953
"3544",82.59403,679.78284
"3545",82.28153,679.79614
"3546",81.91287,679.80945
"3547",81.529564,679.82275
"3548",81.163345,679.83606
"3549",80.85329,679.84937
"3550",80.6067,679.8627
"3551",80.41871,679.876
"3552",80.272224,679.8893
"3553",80.15259,679.9026
"3554",80.0354,679.9159
"3555",79.90845,679.9292
"3556",79.75708,679.9425
"3557",79.57885,679.9558
"3558",79.381096,679.9691
"3559",79.168686,679.9824
"3560",78.9514,679.9957
"3561",78.73411,680.00903
"3562",78.52659,680.02234
"3563",78.328835,680.03564
"3564",78.14328,680.04895
"3565",77.9675,680.06226
"3566",77.806366,680.07556
"3567",77.65743,680.08887
"3568",77.53292,680.1022
"3569",77.47921,680.1155
"3570",77.56954,680.1288
"3571",77.891815,680.1421
"3572",78.49729,680.1554
"3573",79.37621,680.1687
"3574",80.445564,680.182
"3575",81.566185,680.1953
"3576",82.58427,680.2086
"3577",83.38506,680.2219
"3578",83.914856,680.2352
"3579",84.18829,680.24854
"3580",84.25422,680.26184
"3581",84.18341,680.27515
"3582",84.051575,680.28845
"3583",83.90753,680.30176
"3584",83.78058,680.31506
"3585",83.67803,680.32837
"3586",83.5877,680.3417
"3587",83.47784,680.355
"3588",83.32159,680.3683
"3589",83.087204,680.3816
"3590",82.7625,680.3949
"3591",82.34745,680.4082
"3592",81.881134,680.4215
"3593",81.40505,680.4348
"3594",80.95827,680.4481
"3595",80.57496,680.4614
"3596",80.26978,680.47473
"3597",80.0354,680.48804
"3598",79.85474,680.50134
"3599",79.70336,680.51465
"3600",79.554436,680.52795
"3601",79.398186,680.54126
"3602",79.21507,680.55457
"3603",79.00267,680.5679
"3604",78.765854,680.5812
"3605",78.51194,680.5945
"3606",78.25803,680.6078
"3607",78.01633,680.6211
"3608",77.789276,680.6344
"3609",77.58419,680.6477
"3610",77.39864,680.661
"3611",77.225296,680.6743
"3612",77.06172,680.6876
"3613",76.90791,680.7009
"3614",76.756546,680.71423
"3615",76.629585,680.72754
"3616",76.56367,680.74084
"3617",76.63691,680.75415
"3618",76.93965,680.76746
"3619",77.540245,680.78076
"3620",78.43626,680.79407
"3621",79.55688,680.8074
"3622",80.762955,680.8207
"3623",81.89578,680.834
"3624",82.80888,680.8473
"3625",83.44854,680.8606
"3626",83.81232,680.8739
"3627",83.946594,680.8872
"3628",83.92706,680.9005
"3629",83.83185,680.9138
"3630",83.717094,680.9271
"3631",83.614555,680.9404
"3632",83.53155,680.95374
"3633",83.45342,680.96704
"3634",83.346,680.98035
"3635",83.17998,680.99365
"3636",82.913864,681.00696
"3637",82.54276,681.02026
"3638",82.074005,681.03357
"3639",81.54421,681.0469
"3640",81.004654,681.0602
"3641",80.499275,681.0735
"3642",80.0647,681.0868
"3643",79.72289,681.1001
"3644",79.45678,681.1134
"3645",79.24925,681.1267
"3646",79.07591,681.14
"3647",78.905014,681.1533
"3648",78.71702,681.1666
"3649",78.502174,681.17993
"3650",78.26292,681.19324
"3651",78.00168,681.20654
"3652",77.730675,681.21985
"3653",77.45968,681.23315
"3654",77.20088,681.24646
"3655",76.9543,681.25977
"3656",76.72968,681.2731
"3657",76.52705,681.2864
"3658",76.34394,681.2997
"3659",76.175476,681.313
"3660",76.02655,681.3263
"3661",75.894714,681.3396
"3662",75.77997,681.3529
"3663",75.67986,681.3662
"3664",75.59441,681.3795
"3665",75.52361,681.3928
"3666",75.46746,681.4061
"3667",75.41863,681.41943
"3668",75.37713,681.43274
"3669",75.34295,681.44604
"3670",75.30389,681.45935
"3671",75.267265,681.47266
"3672",75.23308,681.48596
"3673",75.20134,681.49927
"3674",75.17937,681.5126
"3675",75.17204,681.5259
"3676",75.17937,681.5392
"3677",75.20134,681.5525
"3678",75.23796,681.5658
"3679",75.284355,681.5791
"3680",75.34051,681.5924
"3681",75.3991,681.6057
"3682",75.457695,681.619
"3683",75.53094,681.6323
"3684",75.67986,681.6456
"3685",75.999695,681.65894
"3686",76.592964,681.67224
"3687",77.49142,681.68555
"3688",78.67063,681.69885
"3689",80.01099,681.71216
"3690",81.34646,681.72546
"3691",82.50858,681.7388
"3692",83.389946,681.7521
"3693",83.96124,681.7654
"3694",84.26154,681.7787
"3695",84.351875,681.792
"3696",84.315254,681.8053
"3697",84.224915,681.8186
"3698",84.12726,681.8319
"3699",84.04181,681.8452
"3700",83.97345,681.8585
"3701",83.90021,681.8718
"3702",83.80011,681.88513
"3703",83.64385,681.89844
"3704",83.40948,681.91174
"3705",83.08476,681.92505
"3706",82.67704,681.93835
"3707",82.22537,681.95166
"3708",81.76639,681.96497
"3709",81.34402,681.9783
"3710",80.99489,681.9916
"3711",80.726326,682.0049
"3712",80.52613,682.0182
"3713",80.36988,682.0315
"3714",80.23071,682.0448
"3715",80.08667,682.0581
"3716",79.920654,682.0714
"3717",79.727776,682.0847
"3718",79.51293,682.098
"3719",79.276115,682.1113
"3720",79.029526,682.12463
"3721",78.78294,682.13794
"3722",78.536354,682.15125
"3723",78.30686,682.16455
"3724",78.09689,682.17786
"3725",77.90402,682.19116
"3726",77.73556,682.20447
"3727",77.58907,682.2178
"3728",77.45968,682.2311
"3729",77.34005,682.2444
"3730",77.23018,682.2577
"3731",77.12764,682.271
"3732",77.032425,682.2843
"3733",76.944534,682.2976
"3734",76.86641,682.3109
"3735",76.80293,682.3242
"3736",76.749214,682.3375
"3737",76.697945,682.3508
"3738",76.65156,682.36414
"3739",76.612495,682.37744
"3740",76.578316,682.39075
"3741",76.541695,682.40405
"3742",76.51484,682.41736
"3743",76.49531,682.43066
"3744",76.48554,682.444
"3745",76.4831,682.4573
"3746",76.48798,682.4706
"3747",76.50263,682.4839
"3748",76.524605,682.4972
"3749",76.5539,682.5105
"3750",76.59052,682.5238
"3751",76.6247,682.5371
"3752",76.64912,682.5504
"3753",76.67353,682.5637
"3754",76.72236,682.577
"3755",76.86641,682.59033
"3756",77.205765,682.60364
"3757",77.806366,682.61694
"3758",78.67307,682.63025
"3759",79.7351,682.64355
"3760",80.85329,682.65686
"3761",81.864044,682.67017
"3762",82.63798,682.6835
"3763",83.12138,682.6968
"3764",83.33379,682.7101
"3765",83.336235,682.7234
"3766",83.20195,682.7367
"3767",83.00908,682.75
"3768",82.81377,682.7633
"3769",82.650185,682.7766
"3770",82.53544,682.7899
"3771",82.4622,682.8032
"3772",82.41093,682.8165
"3773",82.34257,682.82983
"3774",82.230255,682.84314
"3775",82.04715,682.85645
"3776",81.7908,682.86975
"3777",81.480736,682.88306
"3778",81.15846,682.89636
"3779",80.85573,682.90967
"3780",80.601814,682.923
"3781",80.41871,682.9363
"3782",80.2942,682.9496
"3783",80.216064,682.9629
"3784",80.15747,682.9762
"3785",80.1062,682.9895
"3786",80.04028,683.0028
"3787",79.95972,683.0161
"3788",79.84985,683.0294
"3789",79.71557,683.0427
"3790",79.56176,683.056
"3791",79.40063,683.06934
"3792",79.23216,683.08264
"3793",79.07103,683.09595
"3794",78.922104,683.10925
"3795",78.785385,683.12256
"3796",78.660866,683.13586
"3797",78.551,683.1492
"3798",78.45823,683.1625
"3799",78.380104,683.1758
"3800",78.314186,683.1891
"3801",78.260475,683.2024
"3802",78.21652,683.2157
"3803",78.1799,683.229
"3804",78.14328,683.2423
"3805",78.11154,683.2556
"3806",78.08469,683.2689
"3807",78.06027,683.2822
"3808",78.03586,683.29553
"3809",78.013885,683.30884
"3810",77.996796,683.32214
"3811",77.98459,683.33545
"3812",77.97238,683.34875
"3813",77.960175,683.36206
"3814",77.94797,683.37537
"3815",77.93576,683.3887
"3816",77.92355,683.402
"3817",77.91867,683.4153
"3818",77.91867,683.4286
"3819",77.92355,683.4419
"3820",77.93332,683.4552
"3821",77.943085,683.4685
"3822",77.95773,683.4818
"3823",77.97482,683.4951
"3824",77.996796,683.5084
"3825",78.01877,683.5217
"3826",78.048065,683.53503
"3827",78.0798,683.54834
"3828",78.11154,683.56165
"3829",78.14572,683.57495
"3830",78.1799,683.58826
"3831",78.2092,683.60156
"3832",78.24094,683.61487
"3833",78.31907,683.6282
"3834",78.519264,683.6415
"3835",78.94408,683.6548
"3836",79.639885,683.6681
"3837",80.57984,683.6814
"3838",81.66628,683.6947
"3839",82.738075,683.708
"3840",83.62676,683.7213
"3841",84.227356,683.7346
"3842",84.525215,683.7479
"3843",84.55451,683.7612
"3844",84.39094,683.77454
"3845",84.11749,683.78784
"3846",83.80011,683.80115
"3847",83.49493,683.81445
"3848",83.24101,683.82776
"3849",83.04326,683.84106
"3850",82.90166,683.8544
"3851",82.79912,683.8677
"3852",82.701454,683.881
"3853",82.57694,683.8943
"3854",82.40116,683.9076
"3855",82.16678,683.9209
"3856",81.89334,683.9342
"3857",81.61013,683.9475
"3858",81.3489,683.9608
"3859",81.13893,683.9741
"3860",80.987564,683.9874
"3861",80.88991,684.00073
"3862",80.82155,684.01404
"3863",80.77272,684.02734
"3864",80.72144,684.04065
"3865",80.65797,684.05396
"3866",80.570076,684.06726
"3867",80.465096,684.08057
"3868",80.33814,684.0939
"3869",80.19653,684.1072
"3870",80.045166,684.1205
"3871",79.90112,684.1338
"3872",79.764404,684.1471
"3873",79.639885,684.1604
"3874",79.53002,684.1737
"3875",79.429924,684.187
"3876",79.33471,684.2003
"3877",79.24681,684.2136
"3878",79.17113,684.2269
"3879",79.10521,684.24023
"3880",79.04173,684.25354
"3881",78.98558,684.26685
"3882",78.93675,684.28015
"3883",78.89525,684.29346
"3884",78.86107,684.30676
"3885",78.836655,684.32007
"3886",78.81712,684.3334
"3887",78.79515,684.3467
"3888",78.77318,684.36
"3889",78.746315,684.3733
"3890",78.71946,684.3866
"3891",78.69016,684.3999
"3892",78.66575,684.4132
"3893",78.641335,684.4265
"3894",78.61936,684.4398
"3895",78.60227,684.4531
"3896",78.58762,684.46643
"3897",78.572975,684.47974
"3898",78.56077,684.49304
"3899",78.555885,684.50635
"3900",78.551,684.51965
"3901",78.553444,684.53296
"3902",78.55833,684.54626
"3903",78.56809,684.5596
"3904",78.57786,684.5729
"3905",78.58762,684.5862
"3906",78.59739,684.5995
"3907",78.6096,684.6128
"3908",78.63401,684.6261
"3909",78.71702,684.6394
"3910",78.94408,684.6527
"3911",79.40795,684.666
"3912",80.1355,684.6793
"3913",81.08766,684.6926
"3914",82.14725,684.70593
"3915",83.158005,684.71924
"3916",83.9588,684.73254
"3917",84.456856,684.74585
"3918",84.64973,684.75916
"3919",84.58625,684.77246
"3920",84.34455,684.78577
"3921",84.000305,684.7991
"3922",83.6292,684.8124
"3923",83.28008,684.8257
"3924",82.98955,684.839
"3925",82.7625,684.8523
"3926",82.58915,684.8656
"3927",82.44755,684.8789
"3928",82.31327,684.8922
"3929",82.159454,684.9055
"3930",81.96414,684.9188
"3931",81.7322,684.9321
"3932",81.478294,684.94543
"3933",81.2195,684.95874
"3934",80.98268,684.97205
"3935",80.79225,684.98535
"3936",80.64576,684.99866
"3937",80.54566,685.01196
"3938",80.482185,685.02527
"3939",80.44312,685.0386
"3940",80.40406,685.0519
"3941",80.35035,685.0652
"3942",80.274666,685.0785
"3943",80.16724,685.0918
"3944",80.0354,685.1051
"3945",79.8938,685.1184
"3946",79.7522,685.1317
"3947",79.61547,685.145
"3948",79.48852,685.1583
"3949",79.37133,685.17163
"3950",79.259026,685.18494
"3951",79.15648,685.19824
"3952",79.06859,685.21155
"3953",78.992905,685.22485
"3954",78.92943,685.23816
"3955",78.873276,685.25146
"3956",78.82689,685.2648
"3957",78.7805,685.2781
"3958",78.73655,685.2914
"3959",78.70237,685.3047
"3960",78.66819,685.318
"3961",78.641335,685.3313
"3962",78.6218,685.3446
"3963",78.60227,685.3579
"3964",78.58274,685.3712
"3965",78.56321,685.3845
"3966",78.538795,685.3978
"3967",78.51194,685.41113
"3968",78.49241,685.42444
"3969",78.4802,685.43774
"3970",78.467995,685.45105
"3971",78.46067,685.46436
"3972",78.450905,685.47766
"3973",78.44114,685.49097
"3974",78.43626,685.5043
"3975",78.4387,685.5176
"3976",78.450905,685.5309
"3977",78.46555,685.5442
"3978",78.48264,685.5575
"3979",78.49485,685.5708
"3980",78.502174,685.5841
"3981",78.51194,685.5974
"3982",78.55833,685.6107
"3983",78.72434,685.624
"3984",79.10765,685.6373
"3985",79.764404,685.65063
"3986",80.67017,685.66394
"3987",81.72976,685.67725
"3988",82.77959,685.69055
"3989",83.648735,685.70386
"3990",84.22003,685.71716
"3991",84.473946,685.73047
"3992",84.454414,685.7438
"3993",84.23468,685.7571
"3994",83.895325,685.7704
"3995",83.51202,685.7837
"3996",83.13847,685.797
"3997",82.79912,685.8103
"3998",82.52323,685.8236
"3999",82.30106,685.8369
"4000",82.13504,685.8502
"4001",81.99588,685.8635
"4002",81.8616,685.87683
"4003",81.70046,685.89014
"4004",81.50027,685.90344
"4005",81.26345,685.91675
"4006",81.01442,685.93005
"4007",80.7776,685.94336
"4008",80.5774,685.95667
"4009",80.42603,685.97
"4010",80.31861,685.9833
"4011",80.2478,685.9966
"4012",80.198975,686.0099
"4013",80.15503,686.0232
"4014",80.10864,686.0365
"4015",80.05005,686.0498
"4016",79.96948,686.0631
"4017",79.871826,686.0764
"4018",79.75464,686.0897
"4019",79.63012,686.103
"4020",79.50317,686.11633
"4021",79.381096,686.12964
"4022",79.259026,686.14294
"4023",79.149155,686.15625
"4024",79.0515,686.16956
"4025",78.96849,686.18286
"4026",78.89525,686.19617
"4027",78.83177,686.2095
"4028",78.77806,686.2228
"4029",78.73167,686.2361
"4030",78.68772,686.2494
"4031",78.65354,686.2627
"4032",78.62913,686.276
"4033",78.61204,686.2893
"4034",78.59739,686.3026
"4035",78.58762,686.3159
"4036",78.57786,686.3292
"4037",78.56809,686.3425
"4038",78.555885,686.35583
"4039",78.54124,686.36914
"4040",78.53147,686.38245
"4041",78.52415,686.39575
"4042",78.519264,686.40906
"4043",78.51438,686.42236
"4044",78.5095,686.43567
"4045",78.504616,686.449
"4046",78.502174,686.4623
"4047",78.504616,686.4756
"4048",78.51438,686.4889
"4049",78.52659,686.5022
"4050",78.536354,686.5155
"4051",78.54612,686.5288
"4052",78.59983,686.5421
"4053",78.785385,686.5554
"4054",79.200424,686.5687
"4055",79.89136,686.58203
"4056",80.82887,686.59534
"4057",81.900665,686.60864
"4058",82.950485,686.62195
"4059",83.80499,686.63525
"4060",84.36164,686.64856
"4061",84.60578,686.66187
"4062",84.576485,686.6752
"4063",84.34455,686.6885
"4064",83.9881,686.7018
"4065",83.58526,686.7151
"4066",83.194626,686.7284
"4067",82.85283,686.7417
"4068",82.581825,686.755
"4069",82.37675,686.7683
"4070",82.21805,686.7816
"4071",82.08133,686.7949
"4072",81.93729,686.8082
"4073",81.761505,686.82153
"4074",81.54665,686.83484
"4075",81.29763,686.84814
"4076",81.03883,686.86145
"4077",80.78981,686.87476
"4078",80.5774,686.88806
"4079",80.41871,686.90137
"4080",80.308846,686.9147
"4081",80.24048,686.928
"4082",80.19653,686.9413
"4083",80.164795,686.9546
"4084",80.12085,686.9679
"4085",80.05493,686.9812
"4086",79.9646,686.9945
"4087",79.85718,687.0078
"4088",79.73266,687.0211
"4089",79.603264,687.0344
"4090",79.47631,687.0477
"4091",79.35668,687.06104
"4092",79.23949,687.07434
"4093",79.132065,687.08765
"4094",79.027084,687.10095
"4095",78.92943,687.11426
"4096",78.84398,687.12756
"4097",78.77318,687.14087
"4098",78.71702,687.1542
"4099",78.67063,687.1675
"4100",78.63645,687.1808
"4101",78.607155,687.1941
"4102",78.58274,687.2074
"4103",78.55833,687.2207
"4104",78.54124,687.234
"4105",78.521706,687.2473
"4106",78.504616,687.2606
"4107",78.48997,687.2739
"4108",78.470436,687.28723
"4109",78.45335,687.30054
"4110",78.4387,687.31384
"4111",78.42649,687.32715
"4112",78.41917,687.34045
"4113",78.416725,687.35376
"4114",78.41428,687.36707
"4115",78.4094,687.3804
"4116",78.40452,687.3937
"4117",78.40208,687.407
"4118",78.42405,687.4203
"4119",78.53147,687.4336
"4120",78.81224,687.4469
"4121",79.35424,687.4602
"4122",80.164795,687.4735
"4123",81.1902,687.4868
"4124",82.29618,687.5001
"4125",83.30938,687.5134
"4126",84.08331,687.52673
"4127",84.53742,687.54004
"4128",84.67902,687.55334
"4129",84.578926,687.56665
"4130",84.30793,687.57996
"4131",83.95392,687.59326
"4132",83.58526,687.60657
"4133",83.250786,687.6199
"4134",82.9749,687.6332
"4135",82.760056,687.6465
"4136",82.59647,687.6598
"4137",82.46464,687.6731
"4138",82.337685,687.6864
"4139",82.18631,687.6997
"4140",81.99588,687.713
"4141",81.75662,687.7263
"4142",81.4905,687.7396
"4143",81.21706,687.7529
"4144",80.96559,687.76624
"4145",80.76051,687.77954
"4146",80.61158,687.79285
"4147",80.51392,687.80615
"4148",80.45045,687.81946
"4149",80.4065,687.83276
"4150",80.360115,687.84607
"4151",80.2942,687.8594
"4152",80.2063,687.8727
"4153",80.096436,687.886
"4154",79.96948,687.8993
"4155",79.82788,687.9126
"4156",79.67895,687.9259
"4157",79.53002,687.9392
"4158",79.38842,687.9525
"4159",79.25414,687.9658
"4160",79.12962,687.9791
"4161",79.01488,687.99243
"4162",78.91478,688.00574
"4163",78.82689,688.01904
"4164",78.74876,688.03235
"4165",78.68284,688.04565
"4166",78.62913,688.05896
"4167",78.58274,688.07227
"4168",78.54368,688.0856
"4169",78.50706,688.0989
"4170",78.47532,688.1122
"4171",78.44602,688.1255
"4172",78.41428,688.1388
"4173",78.380104,688.1521
"4174",78.35081,688.1654
"4175",78.32395,688.1787
"4176",78.30198,688.192
"4177",78.28245,688.2053
"4178",78.26536,688.2186
"4179",78.24826,688.23193
"4180",78.23361,688.24524
"4181",78.21896,688.25854
"4182",78.2092,688.27185
"4183",78.20187,688.28516
"4184",78.21408,688.29846
"4185",78.30442,688.31177
"4186",78.57053,688.3251
"4187",79.09544,688.3384
"4188",79.903564,688.3517
"4189",80.94606,688.365
"4190",82.09354,688.3783
"4191",83.17265,688.3916
"4192",84.0296,688.4049
"4193",84.58137,688.4182
"4194",84.823074,688.4315
"4195",84.81087,688.4448
"4196",84.62043,688.4581
"4197",84.32502,688.47144
"4198",84.00763,688.48474
"4199",83.70977,688.49805
"4200",83.458305,688.51135
"4201",83.265434,688.52466
"4202",83.123825,688.53796
"4203",83.01396,688.5513
"4204",82.91142,688.5646
"4205",82.774704,688.5779
"4206",82.59403,688.5912
"4207",82.357216,688.6045
"4208",82.07645,688.6178
"4209",81.77371,688.6311
"4210",81.48562,688.6444
"4211",81.234146,688.6577
"4212",81.03151,688.671
"4213",80.88014,688.6843
"4214",80.76784,688.69763
"4215",80.6775,688.71094
"4216",80.59449,688.72424
"4217",80.50904,688.73755
"4218",80.4065,688.75085
"4219",80.289314,688.76416
"4220",80.15503,688.77747
"4221",80.00366,688.7908
"4222",79.84009,688.8041
"4223",79.67162,688.8174
"4224",79.50805,688.8307
"4225",79.34692,688.844
"4226",79.19554,688.8573
"4227",79.05394,688.8706
"4228",78.924545,688.8839
"4229",78.79515,688.8972
"4230",78.677956,688.9105
"4231",78.572975,688.9238
"4232",78.4802,688.93713
"4233",78.39475,688.95044
"4234",78.32395,688.96375
"4235",78.25803,688.97705
"4236",78.19943,688.99036
"4237",78.14572,689.00366
"4238",78.09689,689.01697
"4239",78.05539,689.0303
"4240",78.01877,689.0436
"4241",77.98459,689.0569
"4242",77.95285,689.0702
"4243",77.92111,689.0835
"4244",77.89426,689.0968
"4245",77.86984,689.1101
"4246",77.84787,689.1234
"4247",77.8259,689.1367
"4248",77.803925,689.15
"4249",77.79416,689.1633
"4250",77.85275,689.17664
"4251",78.0676,689.18994
"4252",78.538795,689.20325
"4253",79.310295,689.21655
"4254",80.343025,689.22986
"4255",81.52712,689.24316
"4256",82.69413,689.2565
"4257",83.6878,689.2698
"4258",84.39826,689.2831
"4259",84.79622,689.2964
"4260",84.92317,689.3097
"4261",84.84505,689.323
"4262",84.63996,689.3363
"4263",84.38361,689.3496
"4264",84.13214,689.3629
"4265",83.931946,689.3762
"4266",83.78058,689.3895
"4267",83.67559,689.40283
"4268",83.595024,689.41614
"4269",83.51446,689.42944
"4270",83.39971,689.44275
"4271",83.226364,689.45605
"4272",82.984665,689.46936
"4273",82.67948,689.48267
"4274",82.33524,689.496
"4275",81.98367,689.5093
"4276",81.65896,689.5226
"4277",81.38796,689.5359
"4278",81.17311,689.5492
"4279",81.004654,689.5625
"4280",80.86305,689.5758
"4281",80.73609,689.5891
"4282",80.61158,689.6024
"4283",80.47486,689.6157
"4284",80.32105,689.629
"4285",80.15015,689.64233
"4286",79.96216,689.65564
"4287",79.76196,689.66895
"4288",79.55932,689.68225
"4289",79.35912,689.69556
"4290",79.16136,689.70886
"4291",78.97093,689.72217
"4292",78.785385,689.7355
"4293",78.61204,689.7488
"4294",78.450905,689.7621
"4295",78.3093,689.7754
"4296",78.18234,689.7887
"4297",78.065155,689.802
"4298",77.95529,689.8153
"4299",77.84787,689.8286
"4300",77.747765,689.8419
"4301",77.65255,689.8552
"4302",77.56954,689.8685
"4303",77.49142,689.88184
"4304",77.42306,689.89514
"4305",77.36446,689.90845
"4306",77.30831,689.92175
"4307",77.25948,689.93506
"4308",77.21553,689.94836
"4309",77.17647,689.9617
"4310",77.13985,689.975
"4311",77.11055,689.9883
"4312",77.09102,690.0016
"4313",77.07637,690.0149
"4314",77.05684,690.0282
"4315",77.0544,690.0415
"4316",77.120316,690.0548
"4317",77.3547,690.0681
"4318",77.855194,690.0814
"4319",78.67307,690.0947
"4320",79.76929,690.10803
"4321",81.02663,690.12134
"4322",82.27421,690.13464
"4323",83.34356,690.14795
"4324",84.119934,690.16125
"4325",84.58137,690.17456
"4326",84.75716,690.18787
"4327",84.715645,690.2012
"4328",84.53986,690.2145
"4329",84.30793,690.2278
"4330",84.07599,690.2411
"4331",83.88068,690.2544
"4332",83.74151,690.2677
"4333",83.64629,690.281
"4334",83.57549,690.2943
"4335",83.49981,690.3076
"4336",83.389946,690.3209
"4337",83.211716,690.3342
"4338",82.95537,690.34753
"4339",82.62333,690.36084
"4340",82.24002,690.37415
"4341",81.83719,690.38745
"4342",81.45876,690.40076
"4343",81.13405,690.41406
"4344",80.87038,690.42737
"4345",80.67017,690.4407
"4346",80.51392,690.454
"4347",80.37476,690.4673
"4348",80.23804,690.4806
"4349",80.08667,690.4939
"4350",79.91577,690.5072
"4351",79.725334,690.5205
"4352",79.5227,690.5338
"4353",79.310295,690.5471
"4354",79.09544,690.5604
"4355",78.8806,690.5737
"4356",78.67307,690.58704
"4357",78.470436,690.60034
"4358",78.277565,690.61365
"4359",78.09445,690.62695
"4360",77.92111,690.64026
"4361",77.75998,690.65356
"4362",77.61349,690.6669
"4363",77.48409,690.6802
"4364",77.37423,690.6935
"4365",77.279015,690.7068
"4366",77.19356,690.7201
"4367",77.117874,690.7334
"4368",77.04707,690.7467
"4369",76.97627,690.76
"4370",76.91524,690.7733
"4371",76.86397,690.7866
"4372",76.81514,690.7999
"4373",76.76631,690.81323
"4374",76.717476,690.82654
"4375",76.67353,690.83984
"4376",76.63203,690.85315
"4377",76.59785,690.86646
"4378",76.57343,690.87976
"4379",76.561226,690.89307
"4380",76.55146,690.9064
"4381",76.541695,690.9197
"4382",76.53925,690.933
"4383",76.60029,690.9463
"4384",76.8127,690.9596
"4385",77.28634,690.9729
"4386",78.07492,690.9862
"4387",79.15892,690.9995
"4388",80.43824,691.0128
"4389",81.74929,691.0261
"4390",82.90654,691.0394
"4391",83.790344,691.05273
"4392",84.34699,691.06604
"4393",84.6009,691.07935
"4394",84.610664,691.09265
"4395",84.46174,691.10596
"4396",84.23956,691.11926
"4397",84.01495,691.13257
"4398",83.826965,691.1459
"4399",83.69512,691.1592
"4400",83.612114,691.1725
"4401",83.5584,691.1858
"4402",83.49981,691.1991
"4403",83.40948,691.2124
"4404",83.25567,691.2257
"4405",83.018845,691.239
"4406",82.69901,691.2523
"4407",82.32304,691.2656
"4408",81.92264,691.27893
"4409",81.53933,691.29224
"4410",81.20241,691.30554
"4411",80.921646,691.31885
"4412",80.70191,691.33215
"4413",80.52369,691.34546
"4414",80.36744,691.35876
"4415",80.218506,691.3721
"4416",80.062256,691.3854
"4417",79.8938,691.3987
"4418",79.70092,691.412
"4419",79.49584,691.4253
"4420",79.281,691.4386
"4421",79.06615,691.4519
"4422",78.853745,691.4652
"4423",78.64622,691.4785
"4424",78.44114,691.4918
"4425",78.24826,691.5051
"4426",78.0676,691.51843
"4427",77.89426,691.53174
"4428",77.73556,691.54504
"4429",77.591515,691.55835
"4430",77.45968,691.57166
"4431",77.34249,691.58496
"4432",77.239944,691.59827
"4433",77.152054,691.6116
"4434",77.07393,691.6249
"4435",77.00557,691.6382
"4436",76.94209,691.6515
"4437",76.8835,691.6648
"4438",76.82979,691.6781
"4439",76.7834,691.6914
"4440",76.74433,691.7047
"4441",76.71259,691.718
"4442",76.68574,691.7313
"4443",76.66132,691.7446
"4444",76.64179,691.75793
"4445",76.6247,691.77124
"4446",76.612495,691.78455
"4447",76.60517,691.79785
"4448",76.60273,691.81116
"4449",76.60517,691.82446
"4450",76.663765,691.83777
"4451",76.86885,691.8511
"4452",77.3254,691.8644
"4453",78.099335,691.8777
"4454",79.183334,691.891
"4455",80.48463,691.9043
"4456",81.832306,691.9176
"4457",83.04814,691.9309
"4458",83.99054,691.9442
"4459",84.60578,691.9575
"4460",84.90608,691.9708
"4461",84.95003,691.98413
"4462",84.823074,691.99744
"4463",84.60822,692.01074
"4464",84.38117,692.02405
"4465",84.18585,692.03735
"4466",84.04425,692.05066
"4467",83.95636,692.06396
"4468",83.90021,692.0773
"4469",83.844055,692.0906
"4470",83.756165,692.1039
"4471",83.60235,692.1172
"4472",83.36309,692.1305
"4473",83.04326,692.1438
"4474",82.66239,692.1571
"4475",82.25468,692.1704
"4476",81.85428,692.1837
"4477",81.49294,692.197
"4478",81.18532,692.2103
"4479",80.936295,692.22363
"4480",80.73121,692.23694
"4481",80.55543,692.25024
"4482",80.394295,692.26355
"4483",80.23071,692.27686
"4484",80.05005,692.29016
"4485",79.85474,692.30347
"4486",79.639885,692.3168
"4487",79.41772,692.3301
"4488",79.19066,692.3434
"4489",78.96117,692.3567
"4490",78.73655,692.37
"4491",78.519264,692.3833
"4492",78.31663,692.3966
"4493",78.12619,692.4099
"4494",77.95041,692.4232
"4495",77.786835,692.4365
"4496",77.63546,692.4498
"4497",77.4963,692.46313
"4498",77.366905,692.47644
"4499",77.24971,692.48975
"4500",77.14961,692.50305
"4501",77.05928,692.51636
"4502",76.981155,692.52966
"4503",76.910355,692.54297
"4504",76.84932,692.5563
"4505",76.79561,692.5696
"4506",76.749214,692.5829
"4507",76.70771,692.5962
"4508",76.67353,692.6095
"4509",76.646675,692.6228
"4510",76.6247,692.6361
"4511",76.60273,692.6494
"4512",76.58564,692.6627
"4513",76.57099,692.676
"4514",76.55634,692.68933
"4515",76.541695,692.70264
"4516",76.53925,692.71594
"4517",76.58808,692.72925
"4518",76.78096,692.74255
"4519",77.222855,692.75586
"4520",77.98703,692.76917
"4521",79.07347,692.7825
"4522",80.394295,692.7958
"4523",81.79324,692.8091
"4524",83.07988,692.8224
"4525",84.10773,692.8357
"4526",84.80354,692.849
"4527",85.17952,692.8623
"4528",85.28695,692.8756
"4529",85.206375,692.8889
"4530",85.02083,692.9022
"4531",84.805984,692.9155
"4532",84.610664,692.92883
"4533",84.46174,692.94214
"4534",84.35676,692.95544
"4535",84.2884,692.96875
"4536",84.22247,692.98206
"4537",84.13214,692.99536
"4538",83.97345,693.00867
"4539",83.72442,693.022
"4540",83.387505,693.0353
"4541",82.98711,693.0486
"4542",82.55253,693.0619
"4543",82.125275,693.0752
"4544",81.74441,693.0885
"4545",81.4197,693.1018
"4546",81.15358,693.1151
"4547",80.936295,693.1284
"4548",80.74586,693.1417
"4549",80.56519,693.155
"4550",80.38453,693.16833
"4551",80.18677,693.18164
"4552",79.974365,693.19495
"4553",79.74975,693.20825
"4554",79.520256,693.22156
"4555",79.290764,693.23486
"4556",79.063705,693.24817
"4557",78.836655,693.2615
"4558",78.61448,693.2748
"4559",78.40208,693.2881
"4560",78.204315,693.3014
"4561",78.02121,693.3147
"4562",77.855194,693.328
"4563",77.69894,693.3413
"4564",77.55489,693.3546
"4565",77.41573,693.3679
"4566",77.28634,693.3812
"4567",77.16914,693.39453
"4568",77.06172,693.40784
"4569",76.964066,693.42114
"4570",76.87862,693.43445
"4571",76.805374,693.44775
"4572",76.74677,693.46106
"4573",76.700386,693.47437
"4574",76.65888,693.4877
