"","ppg","time"
"1",80.84108,895.7604
"2",80.76051,895.7737
"3",80.66773,895.787
"4",80.54566,895.8003
"5",80.396736,895.8136
"6",80.22583,895.8269
"7",80.05249,895.8402
"8",79.89624,895.8535
"9",79.77417,895.8668
"10",79.69604,895.8801
"11",79.656975,895.89343
"12",79.639885,895.90674
"13",79.635,895.92004
"14",79.622795,895.93335
"15",79.60082,895.94666
"16",79.56176,895.95996
"17",79.51049,895.97327
"18",79.449455,895.9866
"19",79.38354,895.9999
"20",79.31518,896.0132
"21",79.2517,896.0265
"22",79.1931,896.0398
"23",79.14183,896.0531
"24",79.093,896.0664
"25",79.04906,896.0797
"26",79.012436,896.093
"27",78.9807,896.1063
"28",78.95628,896.1196
"29",78.941635,896.13293
"30",78.93675,896.14624
"31",78.93187,896.15955
"32",78.924545,896.17285
"33",78.91234,896.18616
"34",78.89525,896.19946
"35",78.88304,896.21277
"36",78.91966,896.2261
"37",79.061264,896.2394
"38",79.3518,896.2527
"39",79.798584,896.266
"40",80.35767,896.2793
"41",80.95094,896.2926
"42",81.46853,896.3059
"43",81.832306,896.3192
"44",81.99588,896.3325
"45",81.98367,896.3458
"46",81.84207,896.35913
"47",81.64187,896.37244
"48",81.43435,896.38574
"49",81.25613,896.39905
"50",81.126724,896.41235
"51",81.03883,896.42566
"52",80.970474,896.43896
"53",80.907,896.4523
"54",80.82399,896.4656
"55",80.709236,896.4789
"56",80.55787,896.4922
"57",80.38209,896.5055
"58",80.198975,896.5188
"59",80.028076,896.5321
"60",79.89624,896.5454
"61",79.80347,896.5587
"62",79.74975,896.572
"63",79.72045,896.5853
"64",79.70092,896.59863
"65",79.67895,896.61194
"66",79.64965,896.62524
"67",79.61303,896.63855
"68",79.56176,896.65186
"69",79.50317,896.66516
"70",79.44457,896.67847
"71",79.378654,896.6918
"72",79.310295,896.7051
"73",79.24925,896.7184
"74",79.19554,896.7317
"75",79.151596,896.745
"76",79.11009,896.7583
"77",79.078354,896.7716
"78",79.04906,896.7849
"79",79.01976,896.7982
"80",78.995346,896.8115
"81",78.9807,896.8248
"82",78.96849,896.83813
"83",78.958725,896.85144
"84",78.95384,896.86475
"85",78.94652,896.87805
"86",78.9514,896.89136
"87",79.00023,896.90466
"88",79.151596,896.91797
"89",79.447014,896.9313
"90",79.888916,896.9446
"91",80.43336,896.9579
"92",81.00221,896.9712
"93",81.48318,896.9845
"94",81.79813,896.9978
"95",81.9202,897.0111
"96",81.881134,897.0244
"97",81.7322,897.0377
"98",81.53445,897.051
"99",81.33425,897.06433
"100",81.16579,897.07764
"101",81.03151,897.09094
"102",80.93141,897.10425
"103",80.84596,897.11755
"104",80.762955,897.13086
"105",80.66773,897.14417
"106",80.54566,897.1575
"107",80.39918,897.1708
"108",80.24048,897.1841
"109",80.08179,897.1974
"110",79.94263,897.2107
"111",79.83765,897.224
"112",79.766846,897.2373
"113",79.725334,897.2506
"114",79.70092,897.2639
"115",79.68627,897.2772
"116",79.66674,897.2905
"117",79.63744,897.30383
"118",79.59838,897.31714
"119",79.54467,897.33044
"120",79.48119,897.34375
"121",79.415276,897.35706
"122",79.34936,897.37036
"123",79.28832,897.38367
"124",79.234604,897.397
"125",79.185776,897.4103
"126",79.14427,897.4236
"127",79.11009,897.4369
"128",79.08324,897.4502
"129",79.061264,897.4635
"130",79.044174,897.4768
"131",79.027084,897.4901
"132",79.009995,897.5034
"133",78.995346,897.5167
"134",78.98802,897.53
"135",78.9807,897.54333
"136",78.97337,897.55664
"137",78.96361,897.56995
"138",78.95384,897.58325
"139",78.9514,897.59656
"140",78.98558,897.60986
"141",79.11009,897.62317
"142",79.378654,897.6365
"143",79.798584,897.6498
"144",80.34791,897.6631
"145",80.94606,897.6764
"146",81.4905,897.6897
"147",81.88846,897.703
"148",82.08621,897.7163
"149",82.09354,897.7296
"150",81.95926,897.7429
"151",81.74929,897.7562
"152",81.514915,897.76953
"153",81.30984,897.78284
"154",81.1487,897.79614
"155",81.03151,897.80945
"156",80.94118,897.82275
"157",80.86061,897.83606
"158",80.765396,897.84937
"159",80.64332,897.8627
"160",80.49683,897.876
"161",80.3357,897.8893
"162",80.177,897.9026
"163",80.045166,897.9159
"164",79.94995,897.9292
"165",79.88403,897.9425
"166",79.84741,897.9558
"167",79.823,897.9691
"168",79.801025,897.9824
"169",79.77417,897.9957
"170",79.73998,898.00903
"171",79.69848,898.02234
"172",79.64721,898.03564
"173",79.59106,898.04895
"174",79.53246,898.06226
"175",79.47631,898.07556
"176",79.42016,898.08887
"177",79.36889,898.1022
"178",79.32006,898.1155
"179",79.27856,898.1288
"180",79.24193,898.1421
"181",79.21507,898.1554
"182",79.18822,898.1687
"183",79.15892,898.182
"184",79.12962,898.1953
"185",79.10277,898.2086
"186",79.09544,898.2219
"187",79.13939,898.2352
"188",79.293205,898.24854
"189",79.58373,898.26184
"190",80.0061,898.27515
"191",80.51392,898.28845
"192",81.02907,898.30176
"193",81.461205,898.31506
"194",81.739525,898.32837
"195",81.846954,898.3417
"196",81.80301,898.355
"197",81.65652,898.3683
"198",81.45876,898.3816
"199",81.25613,898.3949
"200",81.08034,898.4082
"201",80.938736,898.4215
"202",80.82887,898.4348
"203",80.73853,898.4481
"204",80.64576,898.4614
"205",80.53834,898.47473
"206",80.411385,898.48804
"207",80.26978,898.50134
"208",80.12573,898.51465
"209",79.9939,898.52795
"210",79.888916,898.54126
"211",79.815674,898.55457
"212",79.77417,898.5679
"213",79.74975,898.5812
"214",79.73754,898.5945
"215",79.725334,898.6078
"216",79.70336,898.6211
"217",79.6643,898.6344
"218",79.61547,898.6477
"219",79.55688,898.661
"220",79.49096,898.6743
"221",79.429924,898.6876
"222",79.37377,898.7009
"223",79.327385,898.71423
"224",79.293205,898.72754
"225",79.26391,898.74084
"226",79.234604,898.75415
"227",79.20775,898.76746
"228",79.17845,898.78076
"229",79.14183,898.79407
"230",79.10277,898.8074
"231",79.078354,898.8207
"232",79.097885,898.834
"233",79.20775,898.8473
"234",79.45678,898.8606
"235",79.85474,898.8739
"236",80.36744,898.8872
"237",80.92409,898.9005
"238",81.42214,898.9138
"239",81.78104,898.9271
"240",81.95682,898.9404
"241",81.95926,898.95374
"242",81.83719,898.96704
"243",81.64187,898.98035
"244",81.42947,898.99365
"245",81.234146,899.00696
"246",81.075455,899.02026
"247",80.955826,899.03357
"248",80.86305,899.0469
"249",80.77516,899.0602
"250",80.672615,899.0735
"251",80.550545,899.0868
"252",80.40406,899.1001
"253",80.25269,899.1134
"254",80.10864,899.1267
"255",79.9939,899.14
"256",79.90845,899.1533
"257",79.85474,899.1666
"258",79.82544,899.17993
"259",79.81079,899.19324
"260",79.79614,899.20654
"261",79.77417,899.21985
"262",79.73266,899.23315
"263",79.676506,899.24646
"264",79.61303,899.25977
"265",79.54711,899.2731
"266",79.48608,899.2864
"267",79.43481,899.2997
"268",79.38842,899.313
"269",79.34936,899.3263
"270",79.310295,899.3396
"271",79.27123,899.3529
"272",79.23216,899.3662
"273",79.19066,899.3795
"274",79.149155,899.3928
"275",79.11253,899.4061
"276",79.10277,899.41943
"277",79.149155,899.43274
"278",79.30785,899.44604
"279",79.605705,899.45935
"280",80.042725,899.47266
"281",80.570076,899.48596
"282",81.109634,899.49927
"283",81.56374,899.5126
"284",81.8616,899.5259
"285",81.98123,899.5392
"286",81.94217,899.5525
"287",81.79324,899.5658
"288",81.59304,899.5791
"289",81.38796,899.5924
"290",81.20729,899.6057
"291",81.06569,899.619
"292",80.96071,899.6323
"293",80.867935,899.6456
"294",80.77516,899.65894
"295",80.66285,899.67224
"296",80.53101,899.68555
"297",80.38209,899.69885
"298",80.235596,899.71216
"299",80.10864,899.72546
"300",80.01587,899.7388
"301",79.94995,899.7521
"302",79.906006,899.7654
"303",79.87915,899.7787
"304",79.85962,899.792
"305",79.83276,899.8053
"306",79.79614,899.8186
"307",79.744865,899.8319
"308",79.68383,899.8452
"309",79.61303,899.8585
"310",79.54223,899.8718
"311",79.47631,899.88513
"312",79.41772,899.89844
"313",79.37133,899.91174
"314",79.327385,899.92505
"315",79.281,899.93835
"316",79.24193,899.95166
"317",79.200424,899.96497
"318",79.16136,899.9783
"319",79.11986,899.9916
"320",79.093,900.0049
"321",79.10521,900.0182
"322",79.21019,900.0315
"323",79.449455,900.0448
"324",79.84009,900.0581
"325",80.35279,900.0714
"326",80.907,900.0847
"327",81.409935,900.098
"328",81.77371,900.1113
"329",81.95438,900.12463
"330",81.969025,900.13794
"331",81.864044,900.15125
"332",81.69558,900.16455
"333",81.50759,900.17786
"334",81.33425,900.19116
"335",81.18532,900.20447
"336",81.07057,900.2178
"337",80.97536,900.2311
"338",80.885025,900.2444
"339",80.78493,900.2577
"340",80.66529,900.271
"341",80.52125,900.2843
"342",80.360115,900.2976
"343",80.20386,900.3109
"344",80.076904,900.3242
"345",79.98169,900.3375
"346",79.91577,900.3508
"347",79.871826,900.36414
"348",79.84253,900.37744
"349",79.81323,900.39075
"350",79.77173,900.40405
"351",79.72045,900.41736
"352",79.66186,900.43066
"353",79.5935,900.444
"354",79.520256,900.4573
"355",79.44457,900.4706
"356",79.37377,900.4839
"357",79.30785,900.4972
"358",79.24681,900.5105
"359",79.19066,900.5238
"360",79.13939,900.5371
"361",79.09056,900.5504
"362",79.046616,900.5637
"363",79.00511,900.577
"364",78.98802,900.59033
"365",79.03441,900.60364
"366",79.19066,900.61694
"367",79.48608,900.63025
"368",79.923096,900.64355
"369",80.448006,900.65686
"370",80.9778,900.67017
"371",81.42214,900.6835
"372",81.71267,900.6968
"373",81.82742,900.7101
"374",81.7908,900.7234
"375",81.651634,900.7367
"376",81.463646,900.75
"377",81.27322,900.7633
"378",81.112076,900.7766
"379",80.98512,900.7899
"380",80.88258,900.8032
"381",80.78737,900.8165
"382",80.6775,900.82983
"383",80.54322,900.84314
"384",80.38697,900.85645
"385",80.22095,900.86975
"386",80.062256,900.88306
"387",79.93042,900.89636
"388",79.83032,900.90967
"389",79.764404,900.923
"390",79.725334,900.9363
"391",79.69848,900.9496
"392",79.674065,900.9629
"393",79.64233,900.9762
"394",79.59838,900.9895
"395",79.54223,901.0028
"396",79.48119,901.0161
"397",79.412834,901.0294
"398",79.34203,901.0427
"399",79.26879,901.056
"400",79.200424,901.06934
"401",79.13451,901.08264
"402",79.07103,901.09595
"403",79.012436,901.10925
"404",78.96117,901.12256
"405",78.91478,901.13586
"406",78.88304,901.1492
"407",78.90013,901.1625
"408",79.01488,901.1758
"409",79.26635,901.1891
"410",79.65942,901.2024
"411",80.16724,901.2157
"412",80.71168,901.229
"413",81.197525,901.2423
"414",81.54177,901.2556
"415",81.705345,901.2689
"416",81.705345,901.2822
"417",81.58572,901.29553
"418",81.39773,901.30884
"419",81.19508,901.32214
"420",81.01198,901.33545
"421",80.86061,901.34875
"422",80.73853,901.36206
"423",80.63355,901.37537
"424",80.52125,901.3887
"425",80.396736,901.402
"426",80.25025,901.4153
"427",80.093994,901.4286
"428",79.94263,901.4419
"429",79.82056,901.4552
"430",79.73266,901.4685
"431",79.67895,901.4818
"432",79.64477,901.4951
"433",79.61791,901.5084
"434",79.5935,901.5217
"435",79.56176,901.53503
"436",79.520256,901.54834
"437",79.466545,901.56165
"438",79.40551,901.57495
"439",79.33471,901.58826
"440",79.259026,901.60156
"441",79.18822,901.61487
"442",79.1223,901.6282
"443",79.061264,901.6415
"444",79.00755,901.6548
"445",78.95384,901.6681
"446",78.90257,901.6814
"447",78.86107,901.6947
"448",78.86351,901.708
"449",78.95384,901.7213
"450",79.183334,901.7346
"451",79.56664,901.7479
"452",80.079346,901.7612
"453",80.638435,901.77454
"454",81.15358,901.78784
"455",81.532005,901.80115
"456",81.72976,901.81445
"457",81.75418,901.82776
"458",81.651634,901.84106
"459",81.480736,901.8544
"460",81.29275,901.8677
"461",81.12184,901.881
"462",80.990005,901.8943
"463",80.88991,901.9076
"464",80.8069,901.9209
"465",80.71412,901.9342
"466",80.59937,901.9475
"467",80.45045,901.9608
"468",80.27711,901.9741
"469",80.093994,901.9874
"470",79.93042,902.00073
"471",79.801025,902.01404
"472",79.71557,902.02734
"473",79.67162,902.04065
"474",79.65453,902.05396
"475",79.64721,902.06726
"476",79.63012,902.08057
"477",79.603264,902.0939
"478",79.55932,902.1072
"479",79.49828,902.1205
"480",79.4226,902.1338
"481",79.34203,902.1471
"482",79.26147,902.1604
"483",79.18089,902.1737
"484",79.10765,902.187
"485",79.03441,902.2003
"486",78.97093,902.2136
"487",78.922104,902.2269
"488",78.92699,902.24023
"489",79.03685,902.25354
"490",79.29809,902.26685
"491",79.708244,902.28015
"492",80.22583,902.29346
"493",80.77028,902.30676
"494",81.24391,902.32007
"495",81.57107,902.3334
"496",81.72488,902.3467
"497",81.72488,902.36
"498",81.617455,902.3733
"499",81.46609,902.3866
"500",81.307396,902.3999
"501",81.17067,902.4132
"502",81.06569,902.4265
"503",80.98512,902.4398
"504",80.90456,902.4531
"505",80.80446,902.46643
"506",80.67017,902.47974
"507",80.499275,902.49304
"508",80.29908,902.50635
"509",80.093994,902.51965
"510",79.90845,902.53296
"511",79.764404,902.54626
"512",79.66674,902.5596
"513",79.61547,902.5729
"514",79.59106,902.5862
"515",79.58373,902.5995
"516",79.569084,902.6128
"517",79.54711,902.6261
"518",79.50561,902.6394
"519",79.447014,902.6527
"520",79.37377,902.666
"521",79.293205,902.6793
"522",79.21019,902.6926
"523",79.12718,902.70593
"524",79.04906,902.71924
"525",78.975815,902.73254
"526",78.924545,902.74585
"527",78.93187,902.75916
"528",79.046616,902.77246
"529",79.30785,902.78577
"530",79.71801,902.7991
"531",80.22827,902.8124
"532",80.765396,902.8257
"533",81.22682,902.839
"534",81.54177,902.8523
"535",81.688255,902.8656
"536",81.69314,902.8789
"537",81.59548,902.8922
"538",81.45388,902.9055
"539",81.304955,902.9188
"540",81.17799,902.9321
"541",81.077896,902.94543
"542",80.99489,902.95874
"543",80.91188,902.97205
"544",80.80446,902.98535
"545",80.66041,902.99866
"546",80.4773,903.01196
"547",80.26978,903.02527
"548",80.059814,903.0386
"549",79.871826,903.0519
"550",79.727776,903.0652
"551",79.62768,903.0785
"552",79.57397,903.0918
"553",79.54955,903.1051
"554",79.53979,903.1184
"555",79.52758,903.1317
"556",79.500725,903.145
"557",79.449455,903.1583
"558",79.378654,903.17163
"559",79.290764,903.18494
"560",79.19066,903.19824
"561",79.08812,903.21155
"562",78.98802,903.22485
"563",78.89769,903.23816
"564",78.82689,903.25146
"565",78.80492,903.2648
"566",78.87816,903.2781
"567",79.08324,903.2914
"568",79.43969,903.3047
"569",79.920654,903.318
"570",80.45533,903.3313
"571",80.953384,903.3446
"572",81.33425,903.3579
"573",81.55398,903.3712
"574",81.61257,903.3845
"575",81.55642,903.3978
"576",81.43679,903.41113
"577",81.30251,903.42444
"578",81.17799,903.43774
"579",81.077896,903.45105
"580",80.990005,903.46436
"581",80.90456,903.47766
"582",80.79225,903.49097
"583",80.64332,903.5043
"584",80.45777,903.5176
"585",80.24536,903.5309
"586",80.028076,903.5442
"587",79.82544,903.5575
"588",79.66918,903.5708
"589",79.5642,903.5841
"590",79.50561,903.5974
"591",79.48119,903.6107
"592",79.47143,903.624
"593",79.45922,903.6373
"594",79.42748,903.65063
"595",79.37621,903.66394
"596",79.31274,903.67725
"597",79.237045,903.69055
"598",79.15404,903.70386
"599",79.063705,903.71716
"600",78.97093,903.73047
"601",78.87816,903.7438
"602",78.79515,903.7571
"603",78.74876,903.7704
"604",78.7805,903.7837
"605",78.93919,903.797
"606",79.2517,903.8103
"607",79.69848,903.8236
"608",80.22583,903.8369
"609",80.743416,903.8502
"610",81.160904,903.8635
"611",81.4197,903.87683
"612",81.51736,903.89014
"613",81.48562,903.90344
"614",81.38064,903.91675
"615",81.248795,903.93005
"616",81.12428,903.94336
"617",81.0193,903.95667
"618",80.93141,903.97
"619",80.83864,903.9833
"620",80.723885,903.9966
"621",80.567635,904.0099
"622",80.37232,904.0232
"623",80.147705,904.0365
"624",79.923096,904.0498
"625",79.727776,904.0631
"626",79.58129,904.0764
"627",79.48608,904.0897
"628",79.43969,904.103
"629",79.4226,904.11633
"630",79.41772,904.12964
"631",79.40795,904.14294
"632",79.381096,904.15625
"633",79.33471,904.16956
"634",79.26879,904.18286
"635",79.183334,904.19617
"636",79.093,904.2095
"637",79.00023,904.2228
"638",78.91478,904.2361
"639",78.839096,904.2494
"640",78.77318,904.2627
"641",78.729225,904.276
"642",78.751205,904.2893
"643",78.88548,904.3026
"644",79.166245,904.3159
"645",79.59594,904.3292
"646",80.113525,904.3425
"647",80.62867,904.35583
"648",81.05592,904.36914
"649",81.33425,904.38245
"650",81.444115,904.39575
"651",81.42214,904.40906
"652",81.32693,904.42236
"653",81.197525,904.43567
"654",81.06813,904.449
"655",80.953384,904.4623
"656",80.85817,904.4756
"657",80.762955,904.4889
"658",80.655525,904.5022
"659",80.51881,904.5155
"660",80.34547,904.5288
"661",80.14038,904.5421
"662",79.92554,904.5554
"663",79.725334,904.5687
"664",79.56176,904.58203
"665",79.449455,904.59534
"666",79.38598,904.60864
"667",79.35424,904.62195
"668",79.33471,904.63525
"669",79.31518,904.64856
"670",79.28344,904.66187
"671",79.24193,904.6752
"672",79.18089,904.6885
"673",79.11253,904.7018
"674",79.03197,904.7151
"675",78.94408,904.7284
"676",78.8513,904.7417
"677",78.76097,904.755
"678",78.6804,904.7683
"679",78.61692,904.7816
"680",78.59983,904.7949
"681",78.67063,904.8082
"682",78.873276,904.82153
"683",79.219955,904.83484
"684",79.68627,904.84814
"685",80.20386,904.86145
"686",80.68726,904.87476
"687",81.04372,904.88806
"688",81.234146,904.90137
"689",81.26589,904.9147
"690",81.18776,904.928
"691",81.0486,904.9413
"692",80.90456,904.9546
"693",80.77516,904.9679
"694",80.672615,904.9812
"695",80.5774,904.9945
"696",80.4773,905.0078
"697",80.34791,905.0211
"698",80.18677,905.0344
"699",79.99634,905.0477
"700",79.7937,905.06104
"701",79.603264,905.07434
"702",79.447014,905.08765
"703",79.33227,905.10095
"704",79.26391,905.11426
"705",79.22728,905.12756
"706",79.21019,905.14087
"707",79.19554,905.1542
"708",79.17357,905.1675
"709",79.132065,905.1808
"710",79.07103,905.1941
"711",78.995346,905.2074
"712",78.91234,905.2207
"713",78.83421,905.234
"714",78.76341,905.2473
"715",78.70237,905.2606
"716",78.64622,905.2739
"717",78.59739,905.28723
"718",78.54612,905.30054
"719",78.487526,905.31384
"720",78.4387,905.32715
"721",78.42161,905.34045
"722",78.49485,905.35376
"723",78.709694,905.36707
"724",79.093,905.3804
"725",79.605705,905.3937
"726",80.177,905.407
"727",80.70435,905.4203
"728",81.09743,905.4336
"729",81.31228,905.4469
"730",81.358665,905.4602
"731",81.28298,905.4735
"732",81.13649,905.4868
"733",80.97536,905.5001
"734",80.82399,905.5134
"735",80.70435,905.52673
"736",80.6067,905.54004
"737",80.516365,905.55334
"738",80.411385,905.56665
"739",80.27955,905.57996
"740",80.113525,905.59326
"741",79.92798,905.60657
"742",79.73754,905.6199
"743",79.56664,905.6332
"744",79.43481,905.6465
"745",79.34692,905.6598
"746",79.29565,905.6731
"747",79.27123,905.6864
"748",79.259026,905.6997
"749",79.24193,905.713
"750",79.21019,905.7263
"751",79.166245,905.7396
"752",79.11009,905.7529
"753",79.04173,905.76624
"754",78.97093,905.77954
"755",78.90257,905.79285
"756",78.83177,905.80615
"757",78.76341,905.81946
"758",78.70237,905.83276
"759",78.64622,905.84607
"760",78.59495,905.8594
"761",78.54856,905.8727
"762",78.51438,905.886
"763",78.51194,905.8993
"764",78.59495,905.9126
"765",78.81224,905.9259
"766",79.183334,905.9392
"767",79.68627,905.9525
"768",80.24536,905.9658
"769",80.75807,905.9791
"770",81.14137,905.99243
"771",81.34646,906.00574
"772",81.38552,906.01904
"773",81.30007,906.03235
"774",81.15358,906.04565
"775",80.990005,906.05896
"776",80.84108,906.07227
"777",80.72144,906.0856
"778",80.62623,906.0989
"779",80.53834,906.1122
"780",80.4358,906.1255
"781",80.31129,906.1388
"782",80.15503,906.1521
"783",79.98169,906.1654
"784",79.80347,906.1787
"785",79.64233,906.192
"786",79.51537,906.2053
"787",79.42748,906.2186
"788",79.37377,906.23193
"789",79.344475,906.24524
"790",79.33227,906.25854
"791",79.31518,906.27185
"792",79.290764,906.28516
"793",79.25414,906.29846
"794",79.20775,906.31177
"795",79.14427,906.3251
"796",79.07347,906.3384
"797",78.995346,906.3517
"798",78.91478,906.365
"799",78.839096,906.3783
"800",78.79027,906.3916
"801",78.785385,906.4049
"802",78.839096,906.4182
"803",78.96361,906.4315
"804",79.149155,906.4448
"805",79.36645,906.4581
"806",79.569084,906.47144
"807",79.71557,906.48474
"808",79.76929,906.49805
"809",79.72289,906.51135
"810",79.59106,906.52466
"811",79.40307,906.53796
"812",79.19066,906.5513
"813",78.98314,906.5646
"814",78.802475,906.5779
"815",78.660866,906.5912
"816",78.56077,906.6045
"817",78.5095,906.6178
"818",78.504616,906.6311
"819",78.536354,906.6444
"820",78.59739,906.6577
"821",78.67307,906.671
"822",78.74387,906.6843
"823",78.79515,906.69763
"824",78.81712,906.71094
"825",78.8098,906.72424
"826",78.78294,906.73755
"827",78.746315,906.75085
"828",78.70481,906.76416
"829",78.66819,906.77747
"830",78.63889,906.7908
"831",78.61448,906.8041
"832",78.590065,906.8174
"833",78.572975,906.8307
"834",78.56321,906.844
"835",78.553444,906.8573
"836",78.553444,906.8706
"837",78.555885,906.8839
"838",78.56077,906.8972
"839",78.56321,906.9105
"840",78.57053,906.9238
"841",78.58274,906.93713
"842",78.59739,906.95044
"843",78.61936,906.96375
"844",78.675514,906.97705
"845",78.82201,906.99036
"846",79.12474,907.00366
"847",79.61303,907.01697
"848",80.257576,907.0303
"849",80.97536,907.0436
"850",81.654076,907.0569
"851",82.16922,907.0702
"852",82.4622,907.0835
"853",82.53544,907.0968
"854",82.44511,907.1101
"855",82.25712,907.1234
"856",82.03006,907.1367
"857",81.80545,907.15
"858",81.61501,907.1633
"859",81.45876,907.17664
"860",81.32693,907.18994
"861",81.20485,907.20325
"862",81.08034,907.21655
"863",80.94118,907.22986
"864",80.78981,907.24316
"865",80.638435,907.2565
"866",80.50172,907.2698
"867",80.38453,907.2831
"868",80.291756,907.2964
"869",80.22339,907.3097
"870",80.16968,907.323
"871",80.12573,907.3363
"872",80.08179,907.3496
"873",80.0354,907.3629
"874",79.98657,907.3762
"875",79.92798,907.3895
"876",79.86206,907.40283
"877",79.78882,907.41614
"878",79.72045,907.42944
"879",79.65209,907.44275
"880",79.58373,907.45605
"881",79.517815,907.46936
"882",79.46166,907.48267
"883",79.415276,907.496
"884",79.412834,907.5093
"885",79.500725,907.5226
"886",79.71557,907.5359
"887",80.06714,907.5492
"888",80.52125,907.5625
"889",81.007095,907.5758
"890",81.44167,907.5891
"891",81.74929,907.6024
"892",81.898224,907.6157
"893",81.90799,907.629
"894",81.8201,907.64233
"895",81.671165,907.65564
"896",81.50759,907.66895
"897",81.35134,907.68225
"898",81.214615,907.69556
"899",81.094986,907.70886
"900",80.9778,907.72217
"901",80.85329,907.7355
"902",80.71168,907.7488
"903",80.550545,907.7621
"904",80.377205,907.7754
"905",80.20874,907.7887
"906",80.062256,907.802
"907",79.94751,907.8153
"908",79.8645,907.8286
"909",79.81323,907.8419
"910",79.781494,907.8552
"911",79.75464,907.8685
"912",79.73022,907.88184
"913",79.691154,907.89514
"914",79.64721,907.90845
"915",79.59594,907.92175
"916",79.53979,907.93506
"917",79.47631,907.94836
"918",79.412834,907.9617
"919",79.34692,907.975
"920",79.27856,907.9883
"921",79.219955,908.0016
"922",79.19798,908.0149
"923",79.256584,908.0282
"924",79.44213,908.0415
"925",79.77905,908.0548
"926",80.25025,908.0681
"927",80.78981,908.0814
"928",81.304955,908.0947
"929",81.705345,908.10803
"930",81.93729,908.12134
"931",82.00076,908.13464
"932",81.934845,908.14795
"933",81.7908,908.16125
"934",81.617455,908.17456
"935",81.45144,908.18787
"936",81.30984,908.2012
"937",81.1902,908.2145
"938",81.08522,908.2278
"939",80.97536,908.2411
"940",80.84596,908.2544
"941",80.69215,908.2677
"942",80.516365,908.281
"943",80.33082,908.2943
"944",80.15503,908.3076
"945",80.00122,908.3209
"946",79.87915,908.3342
"947",79.78638,908.34753
"948",79.72289,908.36084
"949",79.67895,908.37415
"950",79.64477,908.38745
"951",79.61303,908.40076
"952",79.57641,908.41406
"953",79.53002,908.42737
"954",79.47387,908.4407
"955",79.41039,908.454
"956",79.34692,908.4673
"957",79.27856,908.4806
"958",79.21263,908.4939
"959",79.14671,908.5072
"960",79.08812,908.5205
"961",79.046616,908.5338
"962",79.06859,908.5471
"963",79.20531,908.5604
"964",79.49096,908.5737
"965",79.91089,908.58704
"966",80.42359,908.60034
"967",80.94362,908.61365
"968",81.375755,908.62695
"969",81.654076,908.64026
"970",81.76639,908.65356
"971",81.739525,908.6669
"972",81.619896,908.6802
"973",81.45388,908.6935
"974",81.28054,908.7068
"975",81.12428,908.7201
"976",80.990005,908.7334
"977",80.87038,908.7467
"978",80.7483,908.76
"979",80.60914,908.7733
"980",80.45045,908.7866
"981",80.274666,908.7999
"982",80.096436,908.81323
"983",79.937744,908.82654
"984",79.80835,908.83984
"985",79.708244,908.85315
"986",79.63744,908.86646
"987",79.586174,908.87976
"988",79.54467,908.89307
"989",79.51049,908.9064
"990",79.47387,908.9197
"991",79.43481,908.933
"992",79.38598,908.9463
"993",79.33227,908.9596
"994",79.276115,908.9729
"995",79.21263,908.9862
"996",79.14671,908.9995
"997",79.08324,909.0128
"998",79.0222,909.0261
"999",78.96849,909.0394
"1000",78.96605,909.05273
"1001",79.063705,909.06604
"1002",79.30785,909.07935
"1003",79.70336,909.09265
"1004",80.21362,909.10596
"1005",80.75807,909.11926
"1006",81.24147,909.13257
"1007",81.57595,909.1459
"1008",81.73464,909.1592
"1009",81.7322,909.1725
"1010",81.62234,909.1858
"1011",81.45632,909.1991
"1012",81.28298,909.2124
"1013",81.12184,909.2257
"1014",80.987564,909.239
"1015",80.86549,909.2523
"1016",80.743416,909.2656
"1017",80.6067,909.27893
"1018",80.448006,909.29224
"1019",80.272224,909.30554
"1020",80.096436,909.31885
"1021",79.93286,909.33215
"1022",79.79614,909.34546
"1023",79.693596,909.35876
"1024",79.62035,909.3721
"1025",79.569084,909.3854
"1026",79.534904,909.3987
"1027",79.50561,909.412
"1028",79.47875,909.4253
"1029",79.44457,909.4386
"1030",79.40307,909.4519
"1031",79.3518,909.4652
"1032",79.28832,909.4785
"1033",79.21507,909.4918
"1034",79.13939,909.5051
"1035",79.06615,909.51843
"1036",78.995346,909.53174
"1037",78.941635,909.54504
"1038",78.92943,909.55835
"1039",78.99779,909.57166
"1040",79.19798,909.58496
"1041",79.54711,909.59827
"1042",80.02075,909.6116
"1043",80.55787,909.6249
"1044",81.06081,909.6382
"1045",81.43679,909.6515
"1046",81.64431,909.6648
"1047",81.685814,909.6781
"1048",81.600365,909.6914
"1049",81.446556,909.7047
"1050",81.270775,909.718
"1051",81.109634,909.7313
"1052",80.970474,909.7446
"1053",80.84352,909.75793
"1054",80.723885,909.77124
"1055",80.587166,909.78455
"1056",80.43336,909.79785
"1057",80.26246,909.81116
"1058",80.09155,909.82446
"1059",79.93286,909.83777
"1060",79.801025,909.8511
"1061",79.69848,909.8644
"1062",79.62768,909.8777
"1063",79.58129,909.891
"1064",79.54467,909.9043
"1065",79.51293,909.9176
"1066",79.48119,909.9309
"1067",79.44457,909.9442
"1068",79.40063,909.9575
"1069",79.34692,909.9708
"1070",79.28344,909.98413
"1071",79.21263,909.99744
"1072",79.14183,910.01074
"1073",79.07347,910.02405
"1074",79.01488,910.03735
"1075",78.97826,910.05066
"1076",78.992905,910.06396
"1077",79.11009,910.0773
"1078",79.364006,910.0906
"1079",79.75952,910.1039
"1080",80.257576,910.1172
"1081",80.780045,910.1305
"1082",81.231705,910.1438
"1083",81.53689,910.1571
"1084",81.671165,910.1704
"1085",81.65896,910.1837
"1086",81.54421,910.197
"1087",81.375755,910.2103
"1088",81.19997,910.22363
"1089",81.041275,910.23694
"1090",80.89723,910.25024
"1091",80.75807,910.26355
"1092",80.61402,910.27686
"1093",80.45533,910.29016
"1094",80.28443,910.30347
"1095",80.10864,910.3168
"1096",79.94507,910.3301
"1097",79.80591,910.3434
"1098",79.693596,910.3567
"1099",79.61303,910.37
"1100",79.56176,910.3833
"1101",79.52758,910.3966
"1102",79.500725,910.4099
"1103",79.46899,910.4232
"1104",79.432365,910.4365
"1105",79.38354,910.4498
"1106",79.327385,910.46313
"1107",79.26391,910.47644
"1108",79.19798,910.48975
"1109",79.132065,910.50305
"1110",79.06615,910.51636
"1111",79.00267,910.52966
"1112",78.94408,910.54297
"1113",78.907455,910.5563
"1114",78.92699,910.5696
"1115",79.05394,910.5829
"1116",79.32983,910.5962
"1117",79.75464,910.6095
"1118",80.274666,910.6228
"1119",80.8069,910.6361
"1120",81.253685,910.6494
"1121",81.549095,910.6627
"1122",81.671165,910.676
"1123",81.64919,910.68933
"1124",81.53445,910.70264
"1125",81.3782,910.71594
"1126",81.22194,910.72925
"1127",81.075455,910.74255
"1128",80.94362,910.75586
"1129",80.816666,910.76917
"1130",80.6775,910.7825
"1131",80.51881,910.7958
"1132",80.34058,910.8091
"1133",80.15503,910.8224
"1134",79.974365,910.8357
"1135",79.82056,910.849
"1136",79.7058,910.8623
"1137",79.62524,910.8756
"1138",79.57885,910.8889
"1139",79.554436,910.9022
"1140",79.52758,910.9155
"1141",79.4934,910.92883
"1142",79.4519,910.94214
"1143",79.398186,910.95544
"1144",79.32983,910.96875
"1145",79.259026,910.98206
"1146",79.185776,910.99536
"1147",79.11009,911.00867
"1148",79.03685,911.022
"1149",78.97093,911.0353
"1150",78.91478,911.0486
"1151",78.89281,911.0619
"1152",78.94896,911.0752
"1153",79.12962,911.0885
"1154",79.4641,911.1018
"1155",79.923096,911.1151
"1156",80.445564,911.1284
"1157",80.94362,911.1417
"1158",81.32937,911.155
"1159",81.55398,911.16833
"1160",81.617455,911.18164
"1161",81.5613,911.19495
"1162",81.43191,911.20825
"1163",81.26833,911.22156
"1164",81.09987,911.23486
"1165",80.94606,911.24817
"1166",80.80446,911.2615
"1167",80.66773,911.2748
"1168",80.52125,911.2881
"1169",80.365,911.3014
"1170",80.19409,911.3147
"1171",80.02319,911.328
"1172",79.85962,911.3413
"1173",79.725334,911.3546
"1174",79.62035,911.3679
"1175",79.54223,911.3812
"1176",79.49096,911.39453
"1177",79.45434,911.40784
"1178",79.4226,911.42114
"1179",79.38842,911.43445
"1180",79.3518,911.44775
"1181",79.30297,911.46106
"1182",79.24681,911.47437
"1183",79.18089,911.4877
"1184",79.10765,911.501
"1185",79.03441,911.5143
"1186",78.96605,911.5276
"1187",78.90257,911.5409
"1188",78.856186,911.5542
"1189",78.8513,911.5675
"1190",78.92943,911.5808
"1191",79.132065,911.5941
"1192",79.483635,911.6074
"1193",79.95972,911.6207
"1194",80.49683,911.63403
"1195",80.99977,911.64734
"1196",81.38308,911.66064
"1197",81.60525,911.67395
"1198",81.6614,911.68726
"1199",81.59792,911.70056
"1200",81.45876,911.71387
"1201",81.29763,911.7272
"1202",81.13649,911.7405
"1203",80.99245,911.7538
"1204",80.85573,911.7671
"1205",80.71656,911.7804
"1206",80.56275,911.7937
"1207",80.38941,911.807
"1208",80.2063,911.8203
"1209",80.02075,911.8336
"1210",79.85718,911.8469
"1211",79.725334,911.8602
"1212",79.62524,911.87354
"1213",79.55688,911.88684
"1214",79.51049,911.90015
"1215",79.47143,911.91345
"1216",79.43481,911.92676
"1217",79.3933,911.94006
"1218",79.34692,911.95337
"1219",79.290764,911.9667
"1220",79.23216,911.98
"1221",79.168686,911.9933
"1222",79.10765,912.0066
"1223",79.04173,912.0199
"1224",78.975815,912.0332
"1225",78.9099,912.0465
"1226",78.84886,912.0598
"1227",78.80003,912.0731
"1228",78.79271,912.0864
"1229",78.88304,912.09973
"1230",79.11253,912.11304
"1231",79.49828,912.12634
"1232",80.008545,912.13965
"1233",80.567635,912.15295
"1234",81.077896,912.16626
"1235",81.45876,912.17957
"1236",81.6614,912.1929
"1237",81.7029,912.2062
"1238",81.62234,912.2195
"1239",81.47341,912.2328
"1240",81.30251,912.2461
"1241",81.14137,912.2594
"1242",80.99245,912.2727
"1243",80.85329,912.286
"1244",80.71168,912.2993
"1245",80.55543,912.3126
"1246",80.377205,912.3259
"1247",80.18677,912.33923
"1248",80.0061,912.35254
"1249",79.84497,912.36584
"1250",79.71313,912.37915
"1251",79.61547,912.39246
"1252",79.551994,912.40576
"1253",79.51049,912.41907
"1254",79.48119,912.4324
"1255",79.45678,912.4457
"1256",79.429924,912.459
"1257",79.395744,912.4723
"1258",79.35424,912.4856
"1259",79.30297,912.4989
"1260",79.24437,912.5122
"1261",79.17845,912.5255
"1262",79.10521,912.5388
"1263",79.029526,912.5521
"1264",78.9514,912.5654
"1265",78.905014,912.57874
"1266",78.92699,912.59204
"1267",79.063705,912.60535
"1268",79.34692,912.61865
"1269",79.77173,912.63196
"1270",80.28199,912.64526
"1271",80.79225,912.65857
"1272",81.21706,912.6719
"1273",81.49294,912.6852
"1274",81.60525,912.6985
"1275",81.57839,912.7118
"1276",81.45632,912.7251
"1277",81.290306,912.7384
"1278",81.112076,912.7517
"1279",80.9485,912.765
"1280",80.799576,912.7783
"1281",80.655525,912.7916
"1282",80.50416,912.80493
"1283",80.33814,912.81824
"1284",80.15747,912.83154
"1285",79.97681,912.84485
"1286",79.81323,912.85815
"1287",79.676506,912.87146
"1288",79.58129,912.88477
"1289",79.5227,912.8981
"1290",79.48852,912.9114
"1291",79.466545,912.9247
"1292",79.447014,912.938
"1293",79.4226,912.9513
"1294",79.38842,912.9646
"1295",79.33959,912.9779
"1296",79.281,912.9912
"1297",79.21263,913.0045
"1298",79.13939,913.0178
"1299",79.063705,913.0311
"1300",78.98558,913.04443
"1301",78.91722,913.05774
"1302",78.890366,913.07104
"1303",78.94896,913.08435
"1304",79.149155,913.09766
"1305",79.50317,913.11096
"1306",79.99634,913.12427
"1307",80.552986,913.1376
"1308",81.08034,913.1509
"1309",81.48562,913.1642
"1310",81.72488,913.1775
"1311",81.80057,913.1908
"1312",81.74685,913.2041
"1313",81.61257,913.2174
"1314",81.446556,913.2307
"1315",81.27566,913.244
"1316",81.11696,913.2573
"1317",80.96803,913.2706
"1318",80.81911,913.28394
"1319",80.66529,913.29724
"1320",80.49195,913.31055
"1321",80.30396,913.32385
"1322",80.10864,913.33716
"1323",79.92554,913.35046
"1324",79.77173,913.3638
"1325",79.65942,913.3771
"1326",79.58373,913.3904
"1327",79.54223,913.4037
"1328",79.52514,913.417
"1329",79.51293,913.4303
"1330",79.48608,913.4436
"1331",79.449455,913.4569
"1332",79.395744,913.4702
"1333",79.32494,913.4835
"1334",79.24193,913.4968
"1335",79.1638,913.51013
"1336",79.08812,913.52344
"1337",79.01488,913.53674
"1338",78.97337,913.55005
"1339",79.00267,913.56335
"1340",79.15648,913.57666
"1341",79.46166,913.58997
"1342",79.90845,913.6033
"1343",80.43824,913.6166
"1344",80.96315,913.6299
"1345",81.3904,913.6432
"1346",81.65896,913.6565
"1347",81.76395,913.6698
"1348",81.73464,913.6831
"1349",81.617455,913.6964
"1350",81.461205,913.7097
"1351",81.30251,913.723
"1352",81.15602,913.7363
"1353",81.02174,913.74963
"1354",80.88991,913.76294
"1355",80.74586,913.77625
"1356",80.57496,913.78955
"1357",80.37965,913.80286
"1358",80.17212,913.81616
"1359",79.971924,913.82947
"1360",79.7937,913.8428
"1361",79.65453,913.8561
"1362",79.55688,913.8694
"1363",79.49584,913.8827
"1364",79.45922,913.896
"1365",79.43725,913.9093
"1366",79.412834,913.9226
"1367",79.378654,913.9359
"1368",79.327385,913.9492
"1369",79.26147,913.9625
"1370",79.185776,913.9758
"1371",79.10521,913.98914
"1372",79.027084,914.00244
"1373",78.9514,914.01575
"1374",78.90257,914.02905
"1375",78.924545,914.04236
"1376",79.07103,914.05566
"1377",79.37621,914.069
"1378",79.83276,914.0823
"1379",80.38697,914.0956
"1380",80.94606,914.1089
"1381",81.409935,914.1222
"1382",81.71755,914.1355
"1383",81.85672,914.1488
"1384",81.85428,914.1621
"1385",81.75662,914.1754
"1386",81.61501,914.1887
"1387",81.46609,914.202
"1388",81.322044,914.21533
"1389",81.18776,914.22864
"1390",81.05348,914.24194
"1391",80.90456,914.25525
"1392",80.740974,914.26855
"1393",80.5481,914.28186
"1394",80.3357,914.29517
"1395",80.12329,914.3085
"1396",79.92798,914.3218
"1397",79.76196,914.3351
"1398",79.635,914.3484
"1399",79.54955,914.3617
"1400",79.49584,914.375
"1401",79.45678,914.3883
"1402",79.42504,914.4016
"1403",79.38842,914.4149
"1404",79.34692,914.4282
"1405",79.28832,914.4415
"1406",79.21263,914.45483
"1407",79.12718,914.46814
"1408",79.03929,914.48145
"1409",78.9514,914.49475
"1410",78.87816,914.50806
"1411",78.84398,914.52136
"1412",78.905014,914.53467
"1413",79.11009,914.548
"1414",79.47631,914.5613
"1415",79.98169,914.5746
"1416",80.552986,914.5879
"1417",81.0901,914.6012
"1418",81.50027,914.6145
"1419",81.74197,914.6278
"1420",81.82498,914.6411
"1421",81.78592,914.6544
"1422",81.67849,914.6677
"1423",81.54421,914.681
"1424",81.40505,914.69434
"1425",81.270775,914.70764
"1426",81.143814,914.72095
"1427",81.00954,914.73425
"1428",80.85573,914.74756
"1429",80.672615,914.76086
"1430",80.462654,914.7742
"1431",80.233154,914.7875
"1432",80.00366,914.8008
"1433",79.801025,914.8141
"1434",79.63744,914.8274
"1435",79.52514,914.8407
"1436",79.4519,914.854
"1437",79.41039,914.8673
"1438",79.381096,914.8806
"1439",79.34936,914.8939
"1440",79.30297,914.9072
"1441",79.24193,914.92053
"1442",79.1638,914.93384
"1443",79.07347,914.94714
"1444",78.9807,914.96045
"1445",78.890366,914.97375
"1446",78.802475,914.98706
"1447",78.73655,915.00037
"1448",78.71946,915.0137
"1449",78.802475,915.027
"1450",79.03441,915.0403
"1451",79.42504,915.0536
"1452",79.94507,915.0669
"1453",80.51881,915.0802
"1454",81.04616,915.0935
"1455",81.446556,915.1068
"1456",81.67849,915.1201
"1457",81.75906,915.1334
"1458",81.722435,915.1467
"1459",81.619896,915.16003
"1460",81.4905,915.17334
"1461",81.356224,915.18665
"1462",81.2195,915.19995
"1463",81.08278,915.21326
"1464",80.93385,915.22656
"1465",80.762955,915.23987
"1466",80.567635,915.2532
"1467",80.35279,915.2665
"1468",80.128174,915.2798
"1469",79.91333,915.2931
"1470",79.725334,915.3064
"1471",79.571526,915.3197
"1472",79.45922,915.333
"1473",79.381096,915.3463
"1474",79.32983,915.3596
"1475",79.28832,915.3729
"1476",79.24925,915.3862
"1477",79.20531,915.39954
"1478",79.14671,915.41284
"1479",79.07591,915.42615
"1480",78.992905,915.43945
"1481",78.90257,915.45276
"1482",78.8098,915.46606
"1483",78.71946,915.4794
"1484",78.63401,915.4927
"1485",78.57053,915.506
"1486",78.56809,915.5193
"1487",78.68284,915.5326
"1488",78.95628,915.5459
"1489",79.38842,915.5592
"1490",79.93286,915.5725
"1491",80.50904,915.5858
"1492",81.01198,915.5991
"1493",81.36599,915.6124
"1494",81.549095,915.62573
"1495",81.5906,915.63904
"1496",81.529564,915.65234
"1497",81.42214,915.66565
"1498",81.29763,915.67896
"1499",81.17799,915.69226
"1500",81.06081,915.70557
"1501",80.93385,915.7189
"1502",80.78981,915.7322
"1503",80.61646,915.7455
"1504",80.413826,915.7588
"1505",80.19165,915.7721
"1506",79.96216,915.7854
"1507",79.744865,915.7987
"1508",79.551994,915.812
"1509",79.40063,915.8253
"1510",79.28832,915.8386
"1511",79.21019,915.8519
"1512",79.15648,915.86523
"1513",79.114975,915.87854
"1514",79.07103,915.89185
"1515",79.01976,915.90515
"1516",78.95628,915.91846
"1517",78.88548,915.93176
"1518",78.80736,915.94507
"1519",78.72678,915.9584
"1520",78.64866,915.9717
"1521",78.56565,915.985
"1522",78.485085,915.9983
"1523",78.4094,916.0116
"1524",78.3386,916.0249
"1525",78.2971,916.0382
"1526",78.3386,916.0515
"1527",78.519264,916.0648
"1528",78.870834,916.0781
"1529",79.37621,916.09143
"1530",79.971924,916.10474
"1531",80.55787,916.11804
"1532",81.03639,916.13135
"1533",81.34402,916.14465
"1534",81.47585,916.15796
"1535",81.47097,916.17126
"1536",81.375755,916.1846
"1537",81.234146,916.1979
"1538",81.08522,916.2112
"1539",80.94362,916.2245
"1540",80.81178,916.2378
"1541",80.67994,916.2511
"1542",80.54078,916.2644
"1543",80.37965,916.2777
"1544",80.19409,916.291
"1545",79.98901,916.3043
"1546",79.77905,916.3176
"1547",79.57885,916.33093
"1548",79.40795,916.34424
"1549",79.27856,916.35754
"1550",79.19066,916.37085
"1551",79.132065,916.38416
"1552",79.09544,916.39746
"1553",79.061264,916.41077
"1554",79.0222,916.4241
"1555",78.975815,916.4374
"1556",78.91966,916.4507
"1557",78.853745,916.464
"1558",78.77806,916.4773
"1559",78.69993,916.4906
"1560",78.6218,916.5039
"1561",78.54368,916.5172
"1562",78.47532,916.5305
"1563",78.41184,916.5438
"1564",78.37766,916.5571
"1565",78.40452,916.57043
"1566",78.551,916.58374
"1567",78.84154,916.59705
"1568",79.281,916.61035
"1569",79.818115,916.62366
"1570",80.37232,916.63696
"1571",80.83864,916.65027
"1572",81.15602,916.6636
"1573",81.30984,916.6769
"1574",81.32693,916.6902
"1575",81.24147,916.7035
"1576",81.10719,916.7168
"1577",80.96071,916.7301
"1578",80.814224,916.7434
"1579",80.6775,916.7567
"1580",80.54322,916.77
"1581",80.40406,916.7833
"1582",80.24536,916.79663
"1583",80.06714,916.80994
"1584",79.87427,916.82324
"1585",79.68139,916.83655
"1586",79.50317,916.84985
"1587",79.35424,916.86316
"1588",79.23949,916.87646
"1589",79.16136,916.8898
"1590",79.11253,916.9031
"1591",79.07591,916.9164
"1592",79.046616,916.9297
"1593",79.01732,916.943
"1594",78.98314,916.9563
"1595",78.93919,916.9696
"1596",78.88548,916.9829
"1597",78.82933,916.9962
"1598",78.765854,917.0095
"1599",78.69749,917.0228
"1600",78.63157,917.03613
"1601",78.56809,917.04944
"1602",78.51194,917.06274
"1603",78.48264,917.07605
"1604",78.51682,917.08936
"1605",78.66575,917.10266
"1606",78.96849,917.11597
"1607",79.4226,917.1293
"1608",79.971924,917.1426
"1609",80.533455,917.1559
"1610",81.01686,917.1692
"1611",81.34402,917.1825
"1612",81.497826,917.1958
"1613",81.50759,917.2091
"1614",81.42214,917.2224
"1615",81.28542,917.2357
"1616",81.13649,917.249
"1617",80.99977,917.2623
"1618",80.87526,917.27563
"1619",80.75563,917.28894
"1620",80.62867,917.30225
"1621",80.482185,917.31555
"1622",80.30396,917.32886
"1623",80.1062,917.34216
"1624",79.906006,917.35547
"1625",79.71801,917.3688
"1626",79.55932,917.3821
"1627",79.447014,917.3954
"1628",79.36889,917.4087
"1629",79.32006,917.422
"1630",79.28344,917.4353
"1631",79.24925,917.4486
"1632",79.21507,917.4619
"1633",79.17601,917.4752
"1634",79.12962,917.4885
"1635",79.080795,917.50183
"1636",79.027084,917.51514
"1637",78.96605,917.52844
"1638",78.89769,917.54175
"1639",78.82689,917.55505
"1640",78.76341,917.56836
"1641",78.70725,917.58167
"1642",78.67307,917.595
"1643",78.70481,917.6083
"1644",78.84886,917.6216
"1645",79.132065,917.6349
"1646",79.55932,917.6482
"1647",80.08179,917.6615
"1648",80.62379,917.6748
"1649",81.0901,917.6881
"1650",81.41238,917.7014
"1651",81.57351,917.7147
"1652",81.59548,917.728
"1653",81.51736,917.74133
"1654",81.38308,917.75464
"1655",81.234146,917.76794
"1656",81.08278,917.78125
"1657",80.94118,917.79456
"1658",80.80446,917.80786
"1659",80.66529,917.82117
"1660",80.51392,917.8345
"1661",80.34791,917.8478
"1662",80.16724,917.8611
"1663",79.98169,917.8744
"1664",79.801025,917.8877
"1665",79.64477,917.901
"1666",79.520256,917.9143
"1667",79.43481,917.9276
"1668",79.381096,917.9409
"1669",79.34692,917.9542
"1670",79.327385,917.9675
"1671",79.30297,917.98083
"1672",79.273674,917.99414
"1673",79.237045,918.00745
"1674",79.185776,918.02075
"1675",79.12962,918.03406
"1676",79.063705,918.04736
"1677",78.995346,918.06067
"1678",78.93187,918.074
"1679",78.873276,918.0873
"1680",78.83421,918.1006
"1681",78.839096,918.1139
"1682",78.93919,918.1272
"1683",79.17357,918.1405
"1684",79.55932,918.1538
"1685",80.059814,918.1671
"1686",80.60914,918.1804
"1687",81.10475,918.1937
"1688",81.46853,918.20703
"1689",81.66628,918.22034
"1690",81.71267,918.23364
"1691",81.64919,918.24695
"1692",81.52468,918.26025
"1693",81.375755,918.27356
"1694",81.231705,918.28687
"1695",81.094986,918.3002
"1696",80.96315,918.3135
"1697",80.82643,918.3268
"1698",80.67994,918.3401
"1699",80.50904,918.3534
"1700",80.31861,918.3667
"1701",80.11841,918.38
"1702",79.92554,918.3933
"1703",79.75952,918.4066
"1704",79.62768,918.4199
"1705",79.53246,918.4332
"1706",79.47143,918.44653
"1707",79.432365,918.45984
"1708",79.40063,918.47314
"1709",79.36889,918.48645
"1710",79.33471,918.49976
"1711",79.293205,918.51306
"1712",79.24681,918.52637
"1713",79.19554,918.5397
"1714",79.13939,918.553
"1715",79.08324,918.5663
"1716",79.02464,918.5796
"1717",78.958725,918.5929
"1718",78.89525,918.6062
"1719",78.84642,918.6195
"1720",78.84886,918.6328
"1721",78.95628,918.6461
"1722",79.219955,918.6594
"1723",79.63744,918.6727
"1724",80.16235,918.68604
"1725",80.71656,918.69934
"1726",81.20241,918.71265
"1727",81.53933,918.72595
"1728",81.70046,918.73926
"1729",81.71267,918.75256
"1730",81.62478,918.76587
"1731",81.48318,918.7792
"1732",81.32693,918.7925
"1733",81.17799,918.8058
"1734",81.041275,918.8191
"1735",80.90944,918.8324
"1736",80.76784,918.8457
"1737",80.61646,918.859
"1738",80.44312,918.8723
"1739",80.25269,918.8856
"1740",80.062256,918.8989
"1741",79.88403,918.91223
"1742",79.73022,918.92554
"1743",79.61547,918.93884
"1744",79.537346,918.95215
"1745",79.48852,918.96545
"1746",79.45678,918.97876
"1747",79.43725,918.99207
"1748",79.41772,919.0054
"1749",79.39086,919.0187
"1750",79.34936,919.032
"1751",79.293205,919.0453
"1752",79.22972,919.0586
"1753",79.16136,919.0719
"1754",79.093,919.0852
"1755",79.02464,919.0985
"1756",78.96605,919.1118
"1757",78.91722,919.1251
"1758",78.907455,919.1384
"1759",78.98558,919.15173
"1760",79.19798,919.16504
"1761",79.55688,919.17834
"1762",80.04028,919.19165
"1763",80.57496,919.20496
"1764",81.075455,919.21826
"1765",81.45144,919.23157
"1766",81.66628,919.2449
"1767",81.71999,919.2582
"1768",81.6614,919.2715
"1769",81.53445,919.2848
"1770",81.38064,919.2981
"1771",81.22926,919.3114
"1772",81.08766,919.3247
"1773",80.95094,919.338
"1774",80.80934,919.3513
"1775",80.65308,919.3646
"1776",80.482185,919.3779
"1777",80.2942,919.39124
"1778",80.10376,919.40454
"1779",79.92798,919.41785
"1780",79.77661,919.43115
"1781",79.656975,919.44446
"1782",79.56664,919.45776
"1783",79.50561,919.47107
"1784",79.46166,919.4844
"1785",79.42748,919.4977
"1786",79.3933,919.511
"1787",79.35668,919.5243
"1788",79.310295,919.5376
"1789",79.259026,919.5509
"1790",79.200424,919.5642
"1791",79.14427,919.5775
"1792",79.08568,919.5908
"1793",79.0222,919.6041
"1794",78.958725,919.61743
"1795",78.89525,919.63074
"1796",78.839096,919.64404
"1797",78.82445,919.65735
"1798",78.90013,919.67065
"1799",79.11253,919.68396
"1800",79.483635,919.69727
"1801",79.98413,919.7106
"1802",80.54566,919.7239
"1803",81.07057,919.7372
"1804",81.47585,919.7505
"1805",81.71023,919.7638
"1806",81.78592,919.7771
"1807",81.739525,919.7904
"1808",81.62234,919.8037
"1809",81.47585,919.817
"1810",81.32937,919.8303
"1811",81.18776,919.8436
"1812",81.05348,919.85693
"1813",80.91676,919.87024
"1814",80.76784,919.88354
"1815",80.59693,919.89685
"1816",80.4065,919.91016
"1817",80.20874,919.92346
"1818",80.01343,919.93677
"1819",79.84253,919.9501
"1820",79.70336,919.9634
"1821",79.605705,919.9767
"1822",79.53979,919.99
"1823",79.50317,920.0033
"1824",79.47387,920.0166
"1825",79.44457,920.0299
"1826",79.40307,920.0432
"1827",79.3518,920.0565
"1828",79.28832,920.0698
"1829",79.2224,920.0831
"1830",79.151596,920.09644
"1831",79.080795,920.10974
"1832",79.01488,920.12305
"1833",78.94896,920.13635
"1834",78.887924,920.14966
"1835",78.839096,920.16296
"1836",78.836655,920.1763
"1837",78.92699,920.1896
"1838",79.15404,920.2029
"1839",79.534904,920.2162
"1840",80.04028,920.2295
"1841",80.59693,920.2428
"1842",81.10231,920.2561
"1843",81.478294,920.2694
"1844",81.685814,920.2827
"1845",81.7322,920.296
"1846",81.66384,920.3093
"1847",81.529564,920.32263
"1848",81.36599,920.33594
"1849",81.20485,920.34924
"1850",81.05104,920.36255
"1851",80.907,920.37585
"1852",80.75807,920.38916
"1853",80.59693,920.40247
"1854",80.41871,920.4158
"1855",80.22827,920.4291
"1856",80.03296,920.4424
"1857",79.84741,920.4557
"1858",79.68871,920.469
"1859",79.56176,920.4823
"1860",79.47143,920.4956
"1861",79.412834,920.5089
"1862",79.37377,920.5222
"1863",79.34692,920.5355
"1864",79.32006,920.5488
"1865",79.28588,920.56213
"1866",79.24193,920.57544
"1867",79.185776,920.58875
"1868",79.1223,920.60205
"1869",79.05882,920.61536
"1870",78.99046,920.62866
"1871",78.922104,920.64197
"1872",78.856186,920.6553
"1873",78.80736,920.6686
"1874",78.8098,920.6819
"1875",78.91478,920.6952
"1876",79.16136,920.7085
"1877",79.55688,920.7218
"1878",80.059814,920.7351
"1879",80.58228,920.7484
"1880",81.04372,920.7617
"1881",81.36355,920.775
"1882",81.52224,920.7883
"1883",81.532005,920.80164
"1884",81.446556,920.81494
"1885",81.30251,920.82825
"1886",81.13649,920.84155
"1887",80.96803,920.85486
"1888",80.81178,920.86816
"1889",80.65797,920.8815
"1890",80.499275,920.8948
"1891",80.32838,920.9081
"1892",80.15015,920.9214
"1893",79.96704,920.9347
"1894",79.79126,920.948
"1895",79.63012,920.9613
"1896",79.49828,920.9746
"1897",79.40063,920.9879
"1898",79.33471,921.0012
"1899",79.293205,921.0145
"1900",79.26635,921.02783
"1901",79.24925,921.04114
"1902",79.22972,921.05444
"1903",79.202866,921.06775
"1904",79.166245,921.08105
"1905",79.11742,921.09436
"1906",79.061264,921.10767
"1907",78.99779,921.121
"1908",78.93431,921.1343
"1909",78.86839,921.1476
"1910",78.81224,921.1609
"1911",78.785385,921.1742
"1912",78.84154,921.1875
"1913",79.029526,921.2008
"1914",79.37377,921.2141
"1915",79.84741,921.2274
"1916",80.38697,921.2407
"1917",80.89723,921.254
"1918",81.290306,921.26733
"1919",81.5198,921.28064
"1920",81.583275,921.29395
"1921",81.5198,921.30725
"1922",81.373314,921.32056
"1923",81.18532,921.33386
"1924",80.99489,921.34717
"1925",80.816666,921.3605
"1926",80.65064,921.3738
"1927",80.48463,921.3871
"1928",80.31617,921.4004
"1929",80.13794,921.4137
"1930",79.957275,921.427
"1931",79.78882,921.4403
"1932",79.639885,921.4536
"1933",79.517815,921.4669
"1934",79.42748,921.4802
"1935",79.36889,921.4935
"1936",79.33471,921.50684
"1937",79.31518,921.52014
"1938",79.30541,921.53345
"1939",79.29565,921.54675
"1940",79.276115,921.56006
"1941",79.24193,921.57336
"1942",79.19798,921.5867
"1943",79.13939,921.6
"1944",79.07591,921.6133
"1945",79.01488,921.6266
"1946",78.958725,921.6399
"1947",78.9099,921.6532
"1948",78.89769,921.6665
"1949",78.96849,921.6798
"1950",79.17113,921.6931
"1951",79.52514,921.7064
"1952",80.008545,921.7197
"1953",80.55543,921.73303
"1954",81.06569,921.74634
"1955",81.45388,921.75964
"1956",81.67361,921.77295
"1957",81.7322,921.78625
"1958",81.66628,921.79956
"1959",81.52468,921.81287
"1960",81.3489,921.8262
"1961",81.16823,921.8395
"1962",80.99489,921.8528
"1963",80.831314,921.8661
"1964",80.66529,921.8794
"1965",80.49195,921.8927
"1966",80.308846,921.906
"1967",80.12085,921.9193
"1968",79.940186,921.9326
"1969",79.78638,921.9459
"1970",79.66674,921.9592
"1971",79.58129,921.97253
"1972",79.52758,921.98584
"1973",79.49584,921.99915
"1974",79.47875,922.01245
"1975",79.466545,922.02576
"1976",79.449455,922.03906
"1977",79.42016,922.05237
"1978",79.37621,922.0657
"1979",79.32006,922.079
"1980",79.2517,922.0923
"1981",79.185776,922.1056
"1982",79.114975,922.1189
"1983",79.05394,922.1322
"1984",79.00023,922.1455
"1985",78.99046,922.1588
"1986",79.06859,922.1721
"1987",79.290764,922.1854
"1988",79.66674,922.1987
"1989",80.16968,922.21204
"1990",80.726326,922.22534
"1991",81.24391,922.23865
"1992",81.64187,922.25195
"1993",81.87381,922.26526
"1994",81.94705,922.27856
"1995",81.8909,922.2919
"1996",81.75418,922.3052
"1997",81.58083,922.3185
"1998",81.392845,922.3318
"1999",81.214615,922.3451
"2000",81.04616,922.3584
"2001",80.885025,922.3717
"2002",80.71412,922.385
"2003",80.533455,922.3983
"2004",80.343025,922.4116
"2005",80.15259,922.4249
"2006",79.974365,922.43823
"2007",79.823,922.45154
"2008",79.71313,922.46484
"2009",79.63744,922.47815
"2010",79.5935,922.49146
"2011",79.56176,922.50476
"2012",79.537346,922.51807
"2013",79.51049,922.5314
"2014",79.47387,922.5447
"2015",79.42748,922.558
"2016",79.37377,922.5713
"2017",79.31274,922.5846
"2018",79.24681,922.5979
"2019",79.17601,922.6112
"2020",79.11009,922.6245
"2021",79.061264,922.6378
"2022",79.078354,922.6511
"2023",79.217514,922.6644
"2024",79.51049,922.67773
"2025",79.94995,922.69104
"2026",80.48707,922.70435
"2027",81.03395,922.71765
"2028",81.4905,922.73096
"2029",81.7908,922.74426
"2030",81.92264,922.75757
"2031",81.91287,922.7709
"2032",81.80789,922.7842
"2033",81.64675,922.7975
"2034",81.46853,922.8108
"2035",81.290306,922.8241
"2036",81.1194,922.8374
"2037",80.95094,922.8507
"2038",80.77272,922.864
"2039",80.59205,922.8773
"2040",80.396736,922.8906
"2041",80.19653,922.90393
"2042",79.99634,922.91724
"2043",79.818115,922.93054
"2044",79.674065,922.94385
"2045",79.569084,922.95715
"2046",79.50317,922.97046
"2047",79.46899,922.98376
"2048",79.449455,922.9971
"2049",79.429924,923.0104
"2050",79.40063,923.0237
"2051",79.35912,923.037
"2052",79.30541,923.0503
"2053",79.24193,923.0636
"2054",79.17357,923.0769
"2055",79.10521,923.0902
"2056",79.03441,923.1035
"2057",78.98314,923.1168
"2058",78.99046,923.1301
"2059",79.11253,923.14343
"2060",79.38598,923.15674
"2061",79.815674,923.17004
"2062",80.35035,923.18335
"2063",80.90944,923.19666
"2064",81.38796,923.20996
"2065",81.71999,923.22327
"2066",81.881134,923.2366
"2067",81.89578,923.2499
"2068",81.80545,923.2632
"2069",81.654076,923.2765
"2070",81.47341,923.2898
"2071",81.28542,923.3031
"2072",81.10231,923.3164
"2073",80.92409,923.3297
"2074",80.740974,923.343
"2075",80.550545,923.3563
"2076",80.35035,923.3696
"2077",80.14526,923.38293
"2078",79.94995,923.39624
"2079",79.77417,923.40955
"2080",79.635,923.42285
"2081",79.53246,923.43616
"2082",79.46166,923.44946
"2083",79.41772,923.46277
"2084",79.38842,923.4761
"2085",79.36645,923.4894
"2086",79.34203,923.5027
"2087",79.30541,923.516
"2088",79.25414,923.5293
"2089",79.185776,923.5426
"2090",79.10521,923.5559
"2091",79.0222,923.5692
"2092",78.93919,923.5825
"2093",78.87816,923.5958
"2094",78.870834,923.60913
"2095",78.97093,923.62244
"2096",79.219955,923.63574
"2097",79.622795,923.64905
"2098",80.14282,923.66235
"2099",80.69947,923.67566
"2100",81.197525,923.68896
"2101",81.55642,923.7023
"2102",81.74441,923.7156
"2103",81.77615,923.7289
"2104",81.69558,923.7422
"2105",81.54421,923.7555
"2106",81.358665,923.7688
"2107",81.17067,923.7821
"2108",80.98268,923.7954
"2109",80.799576,923.8087
"2110",80.61646,923.822
"2111",80.428474,923.8353
"2112",80.23071,923.84863
"2113",80.028076,923.86194
"2114",79.83032,923.87524
"2115",79.656975,923.88855
"2116",79.517815,923.90186
"2117",79.412834,923.91516
"2118",79.344475,923.92847
"2119",79.30785,923.9418
"2120",79.28344,923.9551
"2121",79.26147,923.9684
"2122",79.237045,923.9817
"2123",79.202866,923.995
"2124",79.15404,924.0083
"2125",79.09056,924.0216
"2126",79.01976,924.0349
"2127",78.94408,924.0482
"2128",78.873276,924.0615
"2129",78.8098,924.0748
"2130",78.7805,924.08813
"2131",78.83177,924.10144
"2132",79.012436,924.11475
"2133",79.35668,924.12805
"2134",79.84009,924.14136
"2135",80.40406,924.15466
"2136",80.955826,924.16797
"2137",81.40017,924.1813
"2138",81.67361,924.1946
"2139",81.77371,924.2079
"2140",81.739525,924.2212
"2141",81.60769,924.2345
"2142",81.42947,924.2478
"2143",81.231705,924.2611
"2144",81.03639,924.2744
"2145",80.83864,924.2877
"2146",80.64088,924.301
"2147",80.43336,924.31433
"2148",80.22095,924.32764
"2149",80.0061,924.34094
"2150",79.80347,924.35425
"2151",79.62524,924.36755
"2152",79.48119,924.38086
"2153",79.37621,924.39417
"2154",79.30785,924.4075
"2155",79.26879,924.4208
"2156",79.24925,924.4341
"2157",79.237045,924.4474
"2158",79.21507,924.4607
"2159",79.18089,924.474
"2160",79.13695,924.4873
"2161",79.078354,924.5006
"2162",79.01732,924.5139
"2163",78.95384,924.5272
"2164",78.89525,924.5405
"2165",78.83177,924.55383
"2166",78.7805,924.56714
"2167",78.77318,924.58044
"2168",78.870834,924.59375
"2169",79.11742,924.60706
"2170",79.517815,924.62036
"2171",80.03784,924.63367
"2172",80.59937,924.647
"2173",81.09743,924.6603
"2174",81.45144,924.6736
"2175",81.634544,924.6869
"2176",81.6614,924.7002
"2177",81.56863,924.7135
"2178",81.40017,924.7268
"2179",81.20241,924.7401
"2180",80.99733,924.7534
"2181",80.79469,924.7667
"2182",80.59693,924.78
"2183",80.39918,924.79333
"2184",80.19653,924.80664
"2185",79.991455,924.81995
"2186",79.7937,924.83325
"2187",79.61303,924.84656
"2188",79.46899,924.85986
"2189",79.364006,924.87317
"2190",79.29565,924.8865
"2191",79.256584,924.8998
"2192",79.237045,924.9131
"2193",79.217514,924.9264
"2194",79.200424,924.9397
"2195",79.17601,924.953
"2196",79.13939,924.9663
"2197",79.09056,924.9796
"2198",79.03685,924.9929
"2199",78.97093,925.0062
"2200",78.90257,925.01953
"2201",78.83421,925.03284
"2202",78.77562,925.04614
"2203",78.74876,925.05945
"2204",78.80003,925.07275
"2205",78.97826,925.08606
"2206",79.31518,925.09937
"2207",79.79614,925.1127
"2208",80.360115,925.126
"2209",80.90944,925.1393
"2210",81.356224,925.1526
"2211",81.634544,925.1659
"2212",81.73464,925.1792
"2213",81.685814,925.1925
"2214",81.54177,925.2058
"2215",81.3489,925.2191
"2216",81.13893,925.2324
"2217",80.93141,925.2457
"2218",80.73121,925.25903
"2219",80.53101,925.27234
"2220",80.323494,925.28564
"2221",80.113525,925.29895
"2222",79.90845,925.31226
"2223",79.72289,925.32556
"2224",79.569084,925.33887
"2225",79.449455,925.3522
"2226",79.36645,925.3655
"2227",79.32006,925.3788
"2228",79.293205,925.3921
"2229",79.281,925.4054
"2230",79.273674,925.4187
"2231",79.26391,925.432
"2232",79.23949,925.4453
"2233",79.19798,925.4586
"2234",79.13695,925.4719
"2235",79.063705,925.4852
"2236",78.99046,925.49854
"2237",78.922104,925.51184
"2238",78.86351,925.52515
"2239",78.83177,925.53845
"2240",78.870834,925.55176
"2241",79.027084,925.56506
"2242",79.33227,925.57837
"2243",79.783936,925.5917
"2244",80.32838,925.605
"2245",80.87526,925.6183
"2246",81.33425,925.6316
"2247",81.6321,925.6449
"2248",81.75906,925.6582
"2249",81.74197,925.6715
"2250",81.61501,925.6848
"2251",81.43191,925.6981
"2252",81.22194,925.7114
"2253",81.00954,925.72473
"2254",80.799576,925.73804
"2255",80.59449,925.75134
"2256",80.38941,925.76465
"2257",80.184326,925.77795
"2258",79.98413,925.79126
"2259",79.79614,925.80457
"2260",79.635,925.8179
"2261",79.51049,925.8312
"2262",79.4226,925.8445
"2263",79.37133,925.8578
"2264",79.33959,925.8711
"2265",79.32006,925.8844
"2266",79.30541,925.8977
"2267",79.28344,925.911
"2268",79.2517,925.9243
"2269",79.21263,925.9376
"2270",79.16136,925.9509
"2271",79.10033,925.96423
"2272",79.03929,925.97754
"2273",78.97337,925.99084
"2274",78.9099,926.00415
"2275",78.86107,926.01746
"2276",78.85863,926.03076
"2277",78.9514,926.04407
"2278",79.1931,926.0574
"2279",79.5935,926.0707
"2280",80.12329,926.084
"2281",80.71168,926.0973
"2282",81.253685,926.1106
"2283",81.66628,926.1239
"2284",81.90311,926.1372
"2285",81.97391,926.1505
"2286",81.90799,926.1638
"2287",81.75662,926.1771
"2288",81.56374,926.1904
"2289",81.356224,926.20374
"2290",81.1487,926.21704
"2291",80.955826,926.23035
"2292",80.76051,926.24365
"2293",80.567635,926.25696
"2294",80.365,926.27026
"2295",80.16724,926.28357
"2296",79.971924,926.2969
"2297",79.79614,926.3102
"2298",79.65453,926.3235
"2299",79.54955,926.3368
"2300",79.48119,926.3501
"2301",79.43969,926.3634
"2302",79.42016,926.3767
"2303",79.398186,926.39
"2304",79.37377,926.4033
"2305",79.33959,926.4166
"2306",79.29565,926.42993
"2307",79.23949,926.44324
"2308",79.17113,926.45654
"2309",79.093,926.46985
"2310",79.00755,926.48315
"2311",78.93187,926.49646
"2312",78.890366,926.50977
"2313",78.93431,926.5231
"2314",79.114975,926.5364
"2315",79.45922,926.5497
"2316",79.940186,926.563
"2317",80.50172,926.5763
"2318",81.05348,926.5896
"2319",81.497826,926.6029
"2320",81.778595,926.6162
"2321",81.900665,926.6295
"2322",81.881134,926.6428
"2323",81.77371,926.6561
"2324",81.61501,926.66943
"2325",81.43679,926.68274
"2326",81.248795,926.69604
"2327",81.06569,926.70935
"2328",80.88014,926.72266
"2329",80.68482,926.73596
"2330",80.48463,926.74927
"2331",80.274666,926.7626
"2332",80.06714,926.7759
"2333",79.87671,926.7892
"2334",79.71801,926.8025
"2335",79.5935,926.8158
"2336",79.50317,926.8291
"2337",79.44457,926.8424
"2338",79.40063,926.8557
"2339",79.36645,926.869
"2340",79.33227,926.8823
"2341",79.29565,926.8956
"2342",79.2517,926.90894
"2343",79.200424,926.92224
"2344",79.13939,926.93555
"2345",79.07347,926.94885
"2346",79.00267,926.96216
"2347",78.93187,926.97546
"2348",78.87572,926.9888
"2349",78.873276,927.0021
"2350",78.975815,927.0154
"2351",79.23216,927.0287
"2352",79.65209,927.042
"2353",80.19409,927.0553
"2354",80.7776,927.0686
"2355",81.30251,927.0819
"2356",81.6907,927.0952
"2357",81.90555,927.1085
"2358",81.95682,927.1218
"2359",81.8909,927.13513
"2360",81.75418,927.14844
"2361",81.58083,927.16174
"2362",81.39773,927.17505
"2363",81.2195,927.18835
"2364",81.03395,927.20166
"2365",80.84352,927.21497
"2366",80.64088,927.2283
"2367",80.43336,927.2416
"2368",80.22095,927.2549
"2369",80.01831,927.2682
"2370",79.835205,927.2815
"2371",79.68383,927.2948
"2372",79.56176,927.3081
"2373",79.47143,927.3214
"2374",79.40551,927.3347
"2375",79.35424,927.348
"2376",79.310295,927.3613
"2377",79.26879,927.37463
"2378",79.22728,927.38794
"2379",79.17845,927.40125
"2380",79.11986,927.41455
"2381",78.9807,927.44116
"2382",78.90257,927.45447
"2383",78.84154,927.4678
"2384",78.83177,927.4811
"2385",78.93187,927.4944
"2386",79.183334,927.5077
"2387",79.588615,927.521
"2388",80.113525,927.5343
"2389",80.672615,927.5476
"2390",81.17555,927.5609
"2391",81.54421,927.5742
"2392",81.74929,927.5875
"2393",81.80057,927.6008
"2394",81.739525,927.61414
"2395",81.61013,927.62744
"2396",81.446556,927.64075
"2397",81.27566,927.65405
"2398",81.10475,927.66736
"2399",80.92897,927.68066
"2400",80.7483,927.694
"2401",80.54566,927.7073
"2402",80.32838,927.7206
"2403",80.1062,927.7339
"2404",79.888916,927.7472
"2405",79.69604,927.7605
"2406",79.534904,927.7738
"2407",79.41039,927.7871
"2408",79.3225,927.8004
"2409",79.26635,927.8137
"2410",79.22728,927.827
"2411",79.19554,927.84033
"2412",79.16136,927.85364
"2413",79.11986,927.86694
"2414",79.06615,927.88025
"2415",79.00267,927.89355
"2416",78.93675,927.90686
"2417",78.86839,927.92017
"2418",78.768295,927.9468
"2419",78.81224,927.9601
"2420",78.99046,927.9734
"2421",79.3225,927.9867
"2422",79.801025,928
"2423",80.36256,928.0133
"2424",80.91188,928.0266
"2425",81.358665,928.0399
"2426",81.64675,928.0532
"2427",81.76883,928.0665
"2428",81.75662,928.07983
"2429",81.654076,928.09314
"2430",81.50271,928.10645
"2431",81.33181,928.11975
"2432",81.15358,928.13306
"2433",80.972916,928.14636
"2434",80.780045,928.15967
"2435",80.57496,928.173
"2436",80.35767,928.1863
"2437",80.13306,928.1996
"2438",79.91089,928.2129
"2439",79.710686,928.2262
"2440",79.537346,928.2395
"2441",79.40307,928.2528
"2442",79.30785,928.2661
"2443",79.24437,928.2794
"2444",79.202866,928.2927
"2445",79.17845,928.306
"2446",79.151596,928.31934
"2447",79.11742,928.33264
"2448",79.07347,928.34595
"2449",79.012436,928.35925
"2450",78.93919,928.37256
"2451",78.856186,928.38586
"2452",78.7805,928.3992
"2453",78.72434,928.4125
"2454",78.73167,928.4258
"2455",78.84886,928.4391
"2456",79.11742,928.4524
"2457",79.53246,928.4657
"2458",80.059814,928.479
"2459",80.61646,928.4923
"2460",81.11696,928.5056
"2461",81.48318,928.5189
"2462",81.68093,928.5322
"2463",81.722435,928.54553
"2464",81.64675,928.55884
"2465",81.495384,928.57214
"2466",81.304955,928.58545
"2467",81.112076,928.59875
"2468",80.919205,928.61206
"2469",80.726326,928.62537
"2470",80.52125,928.6387
"2471",80.31129,928.652
"2472",80.096436,928.6653
"2473",79.88403,928.6786
"2474",79.691154,928.6919
"2475",79.5227,928.7052
"2476",79.38598,928.7185
"2477",79.281,928.7318
"2478",79.202866,928.7451
"2479",79.151596,928.7584
"2480",79.11986,928.7717
"2481",79.09544,928.78503
"2482",79.06859,928.79834
"2483",79.03441,928.81165
"2484",78.98802,928.82495
"2485",78.92943,928.83826
"2486",78.86107,928.85156
"2487",78.79027,928.86487
"2488",78.73655,928.8782
"2489",78.73655,928.8915
"2490",78.8513,928.9048
"2491",79.1223,928.9181
"2492",79.54955,928.9314
"2493",80.09155,928.9447
"2494",80.66041,928.958
"2495",81.15846,928.9713
"2496",81.512474,928.9846
"2497",81.69558,928.9979
"2498",81.722435,929.0112
"2499",81.63943,929.02454
"2500",81.48806,929.03784
"2501",81.307396,929.05115
"2502",81.11452,929.06445
"2503",80.91432,929.07776
"2504",80.71412,929.09106
"2505",80.499275,929.1044
"2506",80.27711,929.1177
"2507",80.05005,929.131
"2508",79.83765,929.1443
"2509",79.64721,929.1576
"2510",79.4934,929.1709
"2511",79.378654,929.1842
"2512",79.29809,929.1975
"2513",79.24437,929.2108
"2514",79.21019,929.2241
"2515",79.183334,929.2374
"2516",79.15648,929.25073
"2517",79.12718,929.26404
"2518",79.08324,929.27734
"2519",79.027084,929.29065
"2520",78.958725,929.30396
"2521",78.890366,929.31726
"2522",78.819565,929.33057
"2523",78.77806,929.3439
"2524",78.81468,929.3572
"2525",78.97826,929.3705
"2526",79.29565,929.3838
"2527",79.75952,929.3971
"2528",80.31129,929.4104
"2529",80.86305,929.4237
"2530",81.322044,929.437
"2531",81.62966,929.4503
"2532",81.77127,929.4636
"2533",81.77127,929.4769
"2534",81.668724,929.49023
"2535",81.50027,929.50354
"2536",81.30251,929.51685
"2537",81.092545,929.53015
"2538",80.8777,929.54346
"2539",80.65797,929.55676
"2540",80.430916,929.57007
"2541",80.198975,929.5834
"2542",79.974365,929.5967
"2543",79.76929,929.61
"2544",79.59594,929.6233
"2545",79.46166,929.6366
"2546",79.36645,929.6499
"2547",79.30541,929.6632
"2548",79.26635,929.6765
"2549",79.23949,929.6898
"2550",79.21507,929.7031
"2551",79.18089,929.71643
"2552",79.13451,929.72974
"2553",79.07103,929.74304
"2554",78.99779,929.75635
"2555",78.91478,929.76965
"2556",78.839096,929.78296
"2557",78.785385,929.79626
"2558",78.802475,929.8096
"2559",78.93919,929.8229
"2560",79.237045,929.8362
"2561",79.68139,929.8495
"2562",80.22827,929.8628
"2563",80.78981,929.8761
"2564",81.26589,929.8894
"2565",81.59548,929.9027
"2566",81.75662,929.916
"2567",81.76883,929.9293
"2568",81.67605,929.9426
"2569",81.514915,929.95593
"2570",81.3196,929.96924
"2571",81.109634,929.98254
"2572",80.89479,929.99585
"2573",80.67506,930.00916
"2574",80.45045,930.02246
"2575",80.218506,930.03577
"2576",79.991455,930.0491
"2577",79.783936,930.0624
"2578",79.605705,930.0757
"2579",79.45922,930.089
"2580",79.34936,930.1023
"2581",79.26635,930.1156
"2582",79.20775,930.1289
"2583",79.1638,930.1422
"2584",79.12718,930.1555
"2585",79.10033,930.1688
"2586",79.06859,930.1821
"2587",79.027084,930.19543
"2588",78.96849,930.20874
"2589",78.89769,930.22205
"2590",78.82445,930.23535
"2591",78.768295,930.24866
"2592",78.77074,930.26196
"2593",78.887924,930.27527
"2594",79.15892,930.2886
"2595",79.571526,930.3019
"2596",80.09155,930.3152
"2597",80.635994,930.3285
"2598",81.109634,930.3418
"2599",81.43679,930.3551
"2600",81.59792,930.3684
"2601",81.61013,930.3817
"2602",81.514915,930.395
"2603",81.35134,930.4083
"2604",81.15114,930.42163
"2605",80.938736,930.43494
"2606",80.71656,930.44824
"2607",80.482185,930.46155
"2608",80.24536,930.47485
"2609",80.01099,930.48816
"2610",79.79126,930.50146
"2611",79.59594,930.5148
"2612",79.432365,930.5281
"2613",79.310295,930.5414
"2614",79.22728,930.5547
"2615",79.17357,930.568
"2616",79.13939,930.5813
"2617",79.11742,930.5946
"2618",79.097885,930.6079
"2619",79.06615,930.6212
"2620",79.029526,930.6345
"2621",78.98314,930.6478
"2622",78.92699,930.66113
"2623",78.86107,930.67444
"2624",78.80003,930.68774
"2625",78.76097,930.70105
"2626",78.79759,930.71436
"2627",78.95628,930.72766
"2628",79.273674,930.74097
"2629",79.73022,930.7543
"2630",80.272224,930.7676
"2631",80.80446,930.7809
"2632",81.24391,930.7942
"2633",81.52468,930.8075
"2634",81.636986,930.8208
"2635",81.61013,930.8341
"2636",81.48318,930.8474
"2637",81.29519,930.8607
"2638",81.075455,930.874
"2639",80.848404,930.8873
"2640",80.62623,930.90063
"2641",80.4065,930.91394
"2642",80.181885,930.92725
"2643",79.9646,930.94055
"2644",79.75708,930.95386
"2645",79.569084,930.96716
"2646",79.40551,930.98047
"2647",79.28588,930.9938
"2648",79.20775,931.0071
"2649",79.166245,931.0204
"2650",79.149155,931.0337
"2651",79.13939,931.047
"2652",79.12474,931.0603
"2653",79.097885,931.0736
"2654",79.05394,931.0869
"2655",79.00023,931.1002
"2656",78.941635,931.1135
"2657",78.8806,931.12683
"2658",78.82445,931.14014
"2659",78.81468,931.15344
"2660",78.90013,931.16675
"2661",79.12718,931.18005
"2662",79.51049,931.19336
"2663",80.01343,931.20667
"2664",80.56031,931.22
"2665",81.058365,931.2333
"2666",81.42947,931.2466
"2667",81.6321,931.2599
"2668",81.67605,931.2732
"2669",81.59792,931.2865
"2670",81.44167,931.2998
"2671",81.24391,931.3131
"2672",81.03883,931.3264
"2673",80.8362,931.3397
"2674",80.63355,931.353
"2675",80.430916,931.36633
"2676",80.22583,931.37964
"2677",80.01831,931.39294
"2678",79.815674,931.40625
"2679",79.63256,931.41956
"2680",79.47875,931.43286
"2681",79.35912,931.44617
"2682",79.276115,931.4595
"2683",79.22728,931.4728
"2684",79.200424,931.4861
"2685",79.18822,931.4994
"2686",79.17601,931.5127
"2687",79.15892,931.526
"2688",79.12718,931.5393
"2689",79.080795,931.5526
"2690",79.02464,931.5659
"2691",78.96361,931.5792
"2692",78.922104,931.5925
"2693",78.94896,931.60583
"2694",79.097885,931.61914
"2695",79.395744,931.63245
"2696",79.835205,931.64575
"2697",80.36256,931.65906
"2698",80.88991,931.67236
"2699",81.32937,931.68567
"2700",81.61257,931.699
"2701",81.7322,931.7123
"2702",81.71023,931.7256
"2703",81.5906,931.7389
"2704",81.4197,931.7522
"2705",81.22926,931.7655
"2706",81.03151,931.7788
"2707",80.83864,931.7921
"2708",80.64332,931.8054
"2709",80.445564,931.8187
"2710",80.24292,931.83203
"2711",80.042725,931.84534
"2712",79.84741,931.85864
"2713",79.67162,931.87195
"2714",79.5227,931.88525
"2715",79.40307,931.89856
"2716",79.31518,931.91187
"2717",79.26147,931.9252
"2718",79.22972,931.9385
"2719",79.20531,931.9518
"2720",79.18822,931.9651
"2721",79.16136,931.9784
"2722",79.12718,931.9917
"2723",79.07591,932.005
"2724",79.01488,932.0183
"2725",78.94652,932.0316
"2726",78.91478,932.0449
"2727",78.96117,932.0582
"2728",79.13939,932.07153
"2729",79.47143,932.08484
"2730",79.93286,932.09814
"2731",80.45777,932.11145
"2732",80.955826,932.12476
"2733",81.34402,932.13806
"2734",81.57351,932.15137
"2735",81.651634,932.1647
"2736",81.60769,932.178
"2737",81.480736,932.1913
"2738",81.3196,932.2046
"2739",81.13893,932.2179
"2740",80.955826,932.2312
"2741",80.77028,932.2445
"2742",80.58228,932.2578
"2743",80.38697,932.2711
"2744",80.184326,932.2844
"2745",79.97681,932.2977
"2746",79.783936,932.31104
"2747",79.61059,932.32434
"2748",79.46899,932.33765
"2749",79.361565,932.35095
"2750",79.28344,932.36426
"2751",79.22972,932.37756
"2752",79.19554,932.39087
"2753",79.17357,932.4042
"2754",79.149155,932.4175
"2755",79.12474,932.4308
"2756",79.09056,932.4441
"2757",79.044174,932.4574
"2758",78.98314,932.4707
"2759",78.922104,932.484
"2760",78.89525,932.4973
"2761",78.9514,932.5106
"2762",79.132065,932.5239
"2763",79.46166,932.53723
"2764",79.91089,932.55054
"2765",80.42603,932.56384
"2766",80.90944,932.57715
"2767",81.28542,932.59045
"2768",81.514915,932.60376
"2769",81.600365,932.61707
"2770",81.566185,932.6304
"2771",81.45388,932.6437
"2772",81.30007,932.657
"2773",81.13161,932.6703
"2774",80.95094,932.6836
"2775",80.765396,932.6969
"2776",80.57252,932.7102
"2777",80.37476,932.7235
"2778",80.16968,932.7368
"2779",79.96704,932.7501
"2780",79.77173,932.7634
"2781",79.59838,932.77673
"2782",79.4519,932.79004
"2783",79.34203,932.80334
"2784",79.26635,932.81665
"2785",79.217514,932.82996
"2786",79.18822,932.84326
"2787",79.168686,932.85657
"2788",79.13939,932.8699
"2789",79.10277,932.8832
"2790",79.05882,932.8965
"2791",79.00755,932.9098
"2792",78.95384,932.9231
"2793",78.89769,932.9364
"2794",78.853745,932.9497
"2795",78.85863,932.963
"2796",78.96117,932.9763
"2797",79.20531,932.9896
"2798",79.59106,933.0029
"2799",80.079346,933.01624
"2800",80.59449,933.02954
"2801",81.04616,933.04285
"2802",81.36599,933.05615
"2803",81.529564,933.06946
"2804",81.55398,933.08276
"2805",81.480736,933.09607
"2806",81.34402,933.1094
"2807",81.17799,933.1227
"2808",81.00221,933.136
"2809",80.82399,933.1493
"2810",80.64332,933.1626
"2811",80.45777,933.1759
"2812",80.2649,933.1892
"2813",80.06958,933.2025
"2814",79.87427,933.2158
"2815",79.693596,933.2291
"2816",79.537346,933.24243
"2817",79.41039,933.25574
"2818",79.31274,933.26904
"2819",79.2517,933.28235
"2820",79.21507,933.29565
"2821",79.19066,933.30896
"2822",79.17113,933.32227
"2823",79.14671,933.3356
"2824",79.114975,933.3489
"2825",79.07103,933.3622
"2826",79.01976,933.3755
"2827",78.96361,933.3888
"2828",78.9099,933.4021
"2829",78.88548,933.4154
"2830",78.93919,933.4287
"2831",79.114975,933.442
"2832",79.43481,933.4553
"2833",79.88403,933.4686
"2834",80.39185,933.48193
"2835",80.87526,933.49524
"2836",81.253685,933.50854
"2837",81.48318,933.52185
"2838",81.56374,933.53516
"2839",81.52468,933.54846
"2840",81.40749,933.56177
"2841",81.248795,933.5751
"2842",81.075455,933.5884
"2843",80.89723,933.6017
"2844",80.71656,933.615
"2845",80.53101,933.6283
"2846",80.34058,933.6416
"2847",80.14526,933.6549
"2848",79.95239,933.6682
"2849",79.77173,933.6815
"2850",79.61059,933.6948
"2851",79.47875,933.7081
"2852",79.37621,933.72144
"2853",79.30053,933.73474
"2854",79.24681,933.74805
"2855",79.21019,933.76135
"2856",79.183334,933.77466
"2857",79.15892,933.78796
"2858",79.12962,933.8013
"2859",79.093,933.8146
"2860",79.04906,933.8279
"2861",78.995346,933.8412
"2862",78.941635,933.8545
"2863",78.91234,933.8678
"2864",78.94896,933.8811
"2865",79.10277,933.8944
"2866",79.3933,933.9077
"2867",79.80835,933.921
"2868",80.291756,933.9343
"2869",80.77028,933.94763
"2870",81.15114,933.96094
"2871",81.38308,933.97424
"2872",81.46853,933.98755
"2873",81.43435,934.00085
"2874",81.31472,934.01416
"2875",81.15358,934.02747
"2876",80.98268,934.0408
"2877",80.8069,934.0541
"2878",80.63111,934.0674
"2879",80.45289,934.0807
"2880",80.26734,934.094
"2881",80.07446,934.1073
"2882",79.87915,934.1206
"2883",79.69848,934.1339
"2884",79.534904,934.1472
"2885",79.40063,934.1605
"2886",79.29809,934.1738
"2887",79.23216,934.18713
"2888",79.1931,934.20044
"2889",79.17357,934.21375
"2890",79.15892,934.22705
"2891",79.14427,934.24036
"2892",79.1223,934.25366
"2893",79.08812,934.26697
"2894",79.04173,934.2803
"2895",78.98314,934.2936
"2896",78.922104,934.3069
"2897",78.870834,934.3202
"2898",78.86351,934.3335
"2899",78.9514,934.3468
"2900",79.17113,934.3601
"2901",79.53002,934.3734
"2902",79.9939,934.3867
"2903",80.48951,934.4
"2904",80.93385,934.4133
"2905",81.25613,934.42664
"2906",81.42947,934.43994
"2907",81.45876,934.45325
"2908",81.38552,934.46655
"2909",81.24635,934.47986
"2910",81.075455,934.49316
"2911",80.88991,934.5065
"2912",80.706795,934.5198
"2913",80.52613,934.5331
"2914",80.34791,934.5464
"2915",80.16724,934.5597
"2916",79.98169,934.573
"2917",79.80591,934.5863
"2918",79.64233,934.5996
"2919",79.50561,934.6129
"2920",79.395744,934.6262
"2921",79.31762,934.6395
"2922",79.26635,934.65283
"2923",79.23216,934.66614
"2924",79.21019,934.67944
"2925",79.19066,934.69275
"2926",79.17113,934.70605
"2927",79.14183,934.71936
"2928",79.10033,934.73267
"2929",79.04906,934.746
"2930",79.00023,934.7593
"2931",78.94896,934.7726
"2932",78.93431,934.7859
"2933",78.99046,934.7992
"2934",79.16136,934.8125
"2935",79.4641,934.8258
"2936",79.88159,934.8391
"2937",80.35035,934.8524
"2938",80.797134,934.8657
"2939",81.13649,934.879
"2940",81.324486,934.89233
"2941",81.36843,934.90564
"2942",81.307396,934.91895
"2943",81.17311,934.93225
"2944",81.004654,934.94556
"2945",80.82399,934.95886
"2946",80.64332,934.97217
"2947",80.45533,934.9855
"2948",80.26734,934.9988
"2949",80.079346,935.0121
"2950",79.8938,935.0254
"2951",79.71801,935.0387
"2952",79.5642,935.052
"2953",79.43725,935.0653
"2954",79.34203,935.0786
"2955",79.281,935.0919
"2956",79.24925,935.1052
"2957",79.23949,935.1185
"2958",79.234604,935.13184
"2959",79.22728,935.14514
"2960",79.20775,935.15845
"2961",79.183334,935.17175
"2962",79.14671,935.18506
"2963",79.10521,935.19836
"2964",79.05882,935.2117
"2965",79.0222,935.225
"2966",79.0222,935.2383
"2967",79.10033,935.2516
"2968",79.30541,935.2649
"2969",79.64477,935.2782
"2970",80.08911,935.2915
"2971",80.57496,935.3048
"2972",81.0193,935.3181
"2973",81.34402,935.3314
"2974",81.5198,935.3447
"2975",81.55642,935.35803
"2976",81.48806,935.37134
"2977",81.35134,935.38464
"2978",81.18776,935.39795
"2979",81.01442,935.41125
"2980",80.8362,935.42456
"2981",80.65797,935.43787
"2982",80.479744,935.4512
"2983",80.291756,935.4645
"2984",80.1062,935.4778
"2985",79.92798,935.4911
"2986",79.766846,935.5044
"2987",79.62768,935.5177
"2988",79.517815,935.531
"2989",79.43969,935.5443
"2990",79.38354,935.5576
"2991",79.34692,935.5709
"2992",79.32494,935.5842
"2993",79.30785,935.59753
"2994",79.290764,935.61084
"2995",79.26879,935.62415
"2996",79.23949,935.63745
"2997",79.202866,935.65076
"2998",79.15404,935.66406
"2999",79.10765,935.67737
"3000",79.09544,935.6907
"3001",79.16136,935.704
"3002",79.34936,935.7173
"3003",79.67162,935.7306
"3004",80.09888,935.7439
"3005",80.567635,935.7572
"3006",80.990005,935.7705
"3007",81.30007,935.7838
"3008",81.47341,935.7971
"3009",81.514915,935.8104
"3010",81.45632,935.8237
"3011",81.341576,935.83704
"3012",81.19508,935.85034
"3013",81.02663,935.86365
"3014",80.85573,935.87695
"3015",80.68238,935.89026
"3016",80.50904,935.90356
"3017",80.33326,935.9169
"3018",80.15747,935.9302
"3019",79.98413,935.9435
"3020",79.82056,935.9568
"3021",79.67162,935.9701
"3022",79.54711,935.9834
"3023",79.449455,935.9967
"3024",79.378654,936.01
"3025",79.32983,936.0233
"3026",79.30053,936.0366
"3027",79.27856,936.0499
"3028",79.259026,936.06323
"3029",79.23216,936.07654
"3030",79.200424,936.08984
"3031",79.15648,936.10315
"3032",79.11009,936.11646
"3033",79.06615,936.12976
"3034",79.046616,936.14307
"3035",79.09544,936.1564
"3036",79.25414,936.1697
"3037",79.54467,936.183
"3038",79.94995,936.1963
"3039",80.41627,936.2096
"3040",80.867935,936.2229
"3041",81.22682,936.2362
"3042",81.444115,936.2495
"3043",81.5198,936.2628
"3044",81.480736,936.2761
"3045",81.36599,936.2894
"3046",81.20973,936.30273
"3047",81.03639,936.31604
"3048",80.867935,936.32935
"3049",80.69703,936.34265
"3050",80.52613,936.35596
"3051",80.35035,936.36926
"3052",80.17456,936.38257
"3053",79.99634,936.3959
"3054",79.82544,936.4092
"3055",79.67162,936.4225
"3056",79.54467,936.4358
"3057",79.449455,936.4491
"3058",79.381096,936.4624
"3059",79.33959,936.4757
"3060",79.31518,936.489
"3061",79.30297,936.5023
"3062",79.28832,936.5156
"3063",79.26635,936.52893
"3064",79.22972,936.54224
"3065",79.18089,936.55554
"3066",79.12718,936.56885
"3067",79.07103,936.58215
"3068",79.03197,936.59546
"3069",79.04173,936.60876
"3070",79.14671,936.6221
"3071",79.37377,936.6354
"3072",79.73266,936.6487
"3073",80.181885,936.662
"3074",80.6482,936.6753
"3075",81.0486,936.6886
"3076",81.32693,936.7019
"3077",81.45876,936.7152
"3078",81.46609,936.7285
"3079",81.38552,936.7418
"3080",81.253685,936.7551
"3081",81.094986,936.76843
"3082",80.92653,936.78174
"3083",80.75563,936.79504
"3084",80.584724,936.80835
"3085",80.413826,936.82166
"3086",80.233154,936.83496
"3087",80.05249,936.84827
"3088",79.87915,936.8616
"3089",79.71801,936.8749
"3090",79.58129,936.8882
"3091",79.47143,936.9015
"3092",79.3933,936.9148
"3093",79.34203,936.9281
"3094",79.30785,936.9414
"3095",79.28832,936.9547
"3096",79.27123,936.968
"3097",79.2517,936.9813
"3098",79.22728,936.9946
"3099",79.1931,937.00793
"3100",79.149155,937.02124
"3101",79.10521,937.03455
"3102",79.07103,937.04785
"3103",79.07591,937.06116
"3104",79.17357,937.07446
"3105",79.398186,937.08777
"3106",79.74731,937.1011
"3107",80.19165,937.1144
"3108",80.655525,937.1277
"3109",81.06325,937.141
"3110",81.34646,937.1543
"3111",81.48318,937.1676
"3112",81.4905,937.1809
"3113",81.40261,937.1942
"3114",81.26101,937.2075
"3115",81.094986,937.2208
"3116",80.92409,937.23413
"3117",80.75075,937.24744
"3118",80.5774,937.26074
"3119",80.396736,937.27405
"3120",80.20874,937.28735
"3121",80.01831,937.30066
"3122",79.84253,937.31396
"3123",79.68383,937.3273
"3124",79.551994,937.3406
"3125",79.45434,937.3539
"3126",79.39086,937.3672
"3127",79.34936,937.3805
"3128",79.32494,937.3938
"3129",79.31274,937.4071
"3130",79.29809,937.4204
"3131",79.27856,937.4337
"3132",79.256584,937.447
"3133",79.22484,937.4603
"3134",79.18822,937.47363
"3135",79.14427,937.48694
"3136",79.10277,937.50024
"3137",79.09056,937.51355
"3138",79.14671,937.52686
"3139",79.32494,937.54016
"3140",79.639885,937.55347
"3141",80.0647,937.5668
"3142",80.53834,937.5801
"3143",80.98024,937.5934
"3144",81.31228,937.6067
"3145",81.50027,937.62
"3146",81.54665,937.6333
"3147",81.4905,937.6466
"3148",81.36111,937.6599
"3149",81.197525,937.6732
"3150",81.0193,937.6865
"3151",80.83864,937.6998
"3152",80.65308,937.71313
"3153",80.46754,937.72644
"3154",80.28199,937.73975
"3155",80.10132,937.75305
"3156",79.93286,937.76636
"3157",79.78638,937.77966
"3158",79.6643,937.79297
"3159",79.57397,937.8063
"3160",79.50561,937.8196
"3161",79.46166,937.8329
"3162",79.432365,937.8462
"3163",79.41039,937.8595
"3164",79.38598,937.8728
"3165",79.361565,937.8861
"3166",79.33227,937.8994
"3167",79.29565,937.9127
"3168",79.24681,937.926
"3169",79.18822,937.93933
"3170",79.13939,937.95264
"3171",79.114975,937.96594
"3172",79.1638,937.97925
"3173",79.33471,937.99255
"3174",79.63744,938.00586
"3175",80.05005,938.01917
"3176",80.51148,938.0325
"3177",80.9485,938.0458
"3178",81.28298,938.0591
"3179",81.47585,938.0724
"3180",81.529564,938.0857
"3181",81.47585,938.099
"3182",81.3489,938.1123
"3183",81.18776,938.1256
"3184",81.007095,938.1389
"3185",80.82399,938.1522
"3186",80.64088,938.1655
"3187",80.45289,938.17883
"3188",80.257576,938.19214
"3189",80.06958,938.20544
"3190",79.8938,938.21875
"3191",79.73754,938.23206
"3192",79.61059,938.24536
"3193",79.517815,938.25867
"3194",79.45678,938.272
"3195",79.42016,938.2853
"3196",79.395744,938.2986
"3197",79.378654,938.3119
"3198",79.364006,938.3252
"3199",79.34692,938.3385
"3200",79.31762,938.3518
"3201",79.28344,938.3651
"3202",79.24193,938.3784
"3203",79.1931,938.3917
"3204",79.14183,938.405
"3205",79.12474,938.41833
"3206",79.185776,938.43164
"3207",79.364006,938.44495
"3208",79.66918,938.45825
"3209",80.079346,938.47156
"3210",80.5359,938.48486
"3211",80.96071,938.49817
"3212",81.28542,938.5115
"3213",81.47097,938.5248
"3214",81.52224,938.5381
"3215",81.45876,938.5514
"3216",81.322044,938.5647
"3217",81.146255,938.578
"3218",80.95827,938.5913
"3219",80.77028,938.6046
"3220",80.584724,938.6179
"3221",80.39918,938.6312
"3222",80.21362,938.64453
"3223",80.028076,938.65784
"3224",79.852295,938.67114
"3225",79.69848,938.68445
"3226",79.571526,938.69775
"3227",79.47631,938.71106
"3228",79.415276,938.72437
"3229",79.381096,938.7377
"3230",79.361565,938.751
"3231",79.34936,938.7643
"3232",79.33959,938.7776
"3233",79.32006,938.7909
"3234",79.290764,938.8042
"3235",79.25414,938.8175
"3236",79.20775,938.8308
"3237",79.15404,938.8441
"3238",79.10765,938.8574
"3239",79.10277,938.8707
"3240",79.18089,938.88403
"3241",79.38842,938.89734
"3242",79.725334,938.91064
"3243",80.16235,938.92395
"3244",80.63111,938.93726
"3245",81.05348,938.95056
"3246",81.356224,938.96387
"3247",81.512474,938.9772
"3248",81.53689,938.9905
"3249",81.45876,939.0038
"3250",81.31716,939.0171
"3251",81.14137,939.0304
"3252",80.95094,939.0437
"3253",80.75319,939.057
"3254",80.550545,939.0703
"3255",80.35035,939.0836
"3256",80.15503,939.0969
"3257",79.96704,939.1102
"3258",79.798584,939.12354
"3259",79.65942,939.13684
"3260",79.54955,939.15015
"3261",79.47631,939.16345
"3262",79.43481,939.17676
"3263",79.415276,939.19006
"3264",79.40795,939.20337
"3265",79.40307,939.2167
"3266",79.39086,939.23
"3267",79.364006,939.2433
"3268",79.32494,939.2566
"3269",79.27856,939.2699
"3270",79.2224,939.2832
"3271",79.168686,939.2965
"3272",79.13695,939.3098
"3273",79.166245,939.3231
"3274",79.29809,939.3364
"3275",79.5642,939.34973
"3276",79.94751,939.36304
"3277",80.40894,939.37634
"3278",80.867935,939.38965
"3279",81.248795,939.40295
"3280",81.49294,939.41626
"3281",81.58816,939.42957
"3282",81.56374,939.4429
"3283",81.45388,939.4562
"3284",81.29275,939.4695
"3285",81.112076,939.4828
"3286",80.921646,939.4961
"3287",80.723885,939.5094
"3288",80.52613,939.5227
"3289",80.323494,939.536
"3290",80.12573,939.5493
"3291",79.94263,939.5626
"3292",79.783936,939.5759
"3293",79.65209,939.58923
"3294",79.54955,939.60254
"3295",79.48119,939.61584
"3296",79.44213,939.62915
"3297",79.4226,939.64246
"3298",79.41039,939.65576
"3299",79.40307,939.66907
"3300",79.38842,939.6824
"3301",79.36645,939.6957
"3302",79.33227,939.709
"3303",79.293205,939.7223
"3304",79.24681,939.7356
"3305",79.202866,939.7489
"3306",79.202866,939.7622
"3307",79.29565,939.7755
"3308",79.517815,939.7888
"3309",79.87427,939.8021
"3310",80.33326,939.8154
"3311",80.81911,939.82874
"3312",81.248795,939.84204
"3313",81.549095,939.85535
"3314",81.69802,939.86865
"3315",81.71267,939.88196
"3316",81.6321,939.89526
"3317",81.4905,939.90857
"3318",81.322044,939.9219
"3319",81.143814,939.9352
"3320",80.96315,939.9485
"3321",80.77516,939.9618
"3322",80.587166,939.9751
"3323",80.39185,939.9884
"3324",80.198975,940.0017
"3325",80.01587,940.015
"3326",79.84985,940.0283
"3327",79.708244,940.0416
"3328",79.603264,940.05493
"3329",79.53246,940.06824
"3330",79.48852,940.08154
"3331",79.46166,940.09485
"3332",79.447014,940.10815
"3333",79.429924,940.12146
"3334",79.40551,940.13477
"3335",79.364006,940.1481
"3336",79.31518,940.1614
"3337",79.26147,940.1747
"3338",79.21019,940.188
"3339",79.185776,940.2013
"3340",79.237045,940.2146
"3341",79.40795,940.2279
"3342",79.710686,940.2412
"3343",80.12329,940.2545
"3344",80.59449,940.2678
"3345",81.03883,940.2811
"3346",81.38552,940.29443
"3347",81.59304,940.30774
"3348",81.66628,940.32104
"3349",81.62722,940.33435
"3350",81.514915,940.34766
"3351",81.358665,940.36096
"3352",81.18288,940.37427
"3353",80.99733,940.3876
"3354",80.81178,940.4009
"3355",80.62379,940.4142
"3356",80.4358,940.4275
"3357",80.24536,940.4408
"3358",80.05493,940.4541
"3359",79.87427,940.4674
"3360",79.71801,940.4807
"3361",79.59106,940.494
"3362",79.50317,940.5073
"3363",79.449455,940.5206
"3364",79.41772,940.53394
"3365",79.395744,940.54724
"3366",79.381096,940.56055
"3367",79.35912,940.57385
"3368",79.327385,940.58716
"3369",79.281,940.60046
"3370",79.2224,940.6138
"3371",79.15648,940.6271
"3372",79.10765,940.6404
"3373",79.11742,940.6537
"3374",79.237045,940.667
"3375",79.49584,940.6803
"3376",79.88403,940.6936
"3377",80.35035,940.7069
"3378",80.82155,940.7202
"3379",81.21217,940.7335
"3380",81.47341,940.7468
"3381",81.58816,940.76013
"3382",81.57595,940.77344
"3383",81.47585,940.78674
"3384",81.322044,940.80005
"3385",81.143814,940.81335
"3386",80.96071,940.82666
"3387",80.77516,940.83997
"3388",80.59449,940.8533
"3389",80.40894,940.8666
"3390",80.218506,940.8799
"3391",80.025635,940.8932
"3392",79.84253,940.9065
"3393",79.67895,940.9198
"3394",79.54711,940.9331
"3395",79.45434,940.9464
"3396",79.395744,940.9597
"3397",79.361565,940.973
"3398",79.34203,940.9863
"3399",79.32494,940.99963
"3400",79.29565,941.01294
"3401",79.256584,941.02625
"3402",79.21019,941.03955
"3403",79.15648,941.05286
"3404",79.097885,941.06616
"3405",79.046616,941.07947
"3406",79.03685,941.0928
"3407",79.10521,941.1061
"3408",79.29565,941.1194
"3409",79.62035,941.1327
"3410",80.05005,941.146
"3411",80.51881,941.1593
"3412",80.938736,941.1726
"3413",81.24635,941.1859
"3414",81.41238,941.1992
"3415",81.446556,941.2125
"3416",81.3782,941.2258
"3417",81.248795,941.23914
"3418",81.08522,941.25244
"3419",80.907,941.26575
"3420",80.72144,941.27905
"3421",80.5359,941.29236
"3422",80.34547,941.30566
"3423",80.15259,941.319
"3424",79.957275,941.3323
"3425",79.76929,941.3456
"3426",79.60082,941.3589
"3427",79.46166,941.3722
"3428",79.35668,941.3855
"3429",79.28832,941.3988
"3430",79.25414,941.4121
"3431",79.23949,941.4254
"3432",79.237045,941.4387
"3433",79.22972,941.452
"3434",79.20775,941.46533
"3435",79.17601,941.47864
"3436",79.12474,941.49194
"3437",79.06615,941.50525
"3438",79.012436,941.51855
"3439",78.98802,941.53186
"3440",79.029526,941.54517
"3441",79.18089,941.5585
"3442",79.4641,941.5718
"3443",79.85962,941.5851
"3444",80.31373,941.5984
"3445",80.75319,941.6117
"3446",81.10475,941.625
"3447",81.3196,941.6383
"3448",81.39773,941.6516
"3449",81.358665,941.6649
"3450",81.24147,941.6782
"3451",81.08034,941.6915
"3452",80.89723,941.70483
"3453",80.70435,941.71814
"3454",80.51392,941.73145
"3455",80.325935,941.74475
"3456",80.13306,941.75806
"3457",79.94507,941.77136
"3458",79.75952,941.78467
"3459",79.5935,941.798
"3460",79.4519,941.8113
"3461",79.34936,941.8246
"3462",79.28344,941.8379
"3463",79.2517,941.8512
"3464",79.24681,941.8645
"3465",79.24681,941.8778
"3466",79.24681,941.8911
"3467",79.234604,941.9044
"3468",79.21019,941.9177
"3469",79.168686,941.931
"3470",79.114975,941.94434
"3471",79.05882,941.95764
"3472",79.00755,941.97095
"3473",78.98558,941.98425
"3474",79.03929,941.99756
"3475",79.20775,942.01086
"3476",79.50561,942.0242
"3477",79.91577,942.0375
"3478",80.38209,942.0508
"3479",80.82643,942.0641
"3480",81.17555,942.0774
"3481",81.38308,942.0907
"3482",81.43923,942.104
"3483",81.3782,942.1173
"3484",81.23659,942.1306
"3485",81.05592,942.1439
"3486",80.86061,942.1572
"3487",80.66773,942.17053
"3488",80.4773,942.18384
"3489",80.289314,942.19714
"3490",80.09888,942.21045
"3491",79.91089,942.22375
"3492",79.73266,942.23706
"3493",79.57641,942.25037
"3494",79.447014,942.2637
"3495",79.35424,942.277
"3496",79.29809,942.2903
"3497",79.26879,942.3036
"3498",79.259026,942.3169
"3499",79.256584,942.3302
"3500",79.25414,942.3435
"3501",79.23949,942.3568
"3502",79.217514,942.3701
"3503",79.18089,942.3834
"3504",79.12962,942.3967
"3505",79.07347,942.41003
"3506",79.01732,942.42334
"3507",78.995346,942.43665
"3508",79.0515,942.44995
"3509",79.22972,942.46326
"3510",79.54223,942.47656
"3511",79.957275,942.48987
"3512",80.41627,942.5032
"3513",80.84596,942.5165
"3514",81.16823,942.5298
"3515",81.34646,942.5431
"3516",81.3904,942.5564
"3517",81.322044,942.5697
"3518",81.17799,942.583
"3519",80.990005,942.5963
"3520",80.78493,942.6096
"3521",80.57984,942.6229
"3522",80.38453,942.6362
"3523",80.19165,942.64954
"3524",80.00122,942.66284
"3525",79.815674,942.67615
"3526",79.64233,942.68945
"3527",79.48852,942.70276
"3528",79.37133,942.71606
"3529",79.293205,942.7294
"3530",79.25414,942.7427
"3531",79.24437,942.756
"3532",79.24925,942.7693
"3533",79.259026,942.7826
"3534",79.259026,942.7959
"3535",79.24437,942.8092
"3536",79.21019,942.8225
"3537",79.15892,942.8358
"3538",79.09544,942.8491
"3539",79.03197,942.8624
"3540",78.97093,942.87573
"3541",78.93919,942.88904
"3542",78.96605,942.90234
"3543",79.097885,942.91565
"3544",79.36645,942.92896
"3545",79.75952,942.94226
"3546",80.22827,942.95557
"3547",80.69215,942.9689
"3548",81.07301,942.9822
"3549",81.31228,942.9955
"3550",81.39529,943.0088
"3551",81.3489,943.0221
"3552",81.21706,943.0354
"3553",81.03151,943.0487
"3554",80.82643,943.062
"3555",80.61402,943.0753
"3556",80.4065,943.0886
"3557",80.20386,943.1019
"3558",80.01099,943.11523
"3559",79.823,943.12854
"3560",79.65453,943.14185
"3561",79.50561,943.15515
"3562",79.38598,943.16846
"3563",79.29809,943.18176
"3564",79.24193,943.19507
"3565",79.217514,943.2084
"3566",79.21019,943.2217
"3567",79.21019,943.235
"3568",79.20775,943.2483
"3569",79.19798,943.2616
"3570",79.17601,943.2749
"3571",79.14183,943.2882
"3572",79.10277,943.3015
"3573",79.061264,943.3148
"3574",79.012436,943.3281
"3575",78.96361,943.34143
"3576",78.92699,943.35474
"3577",78.93675,943.36804
"3578",79.0515,943.38135
"3579",79.30053,943.39465
"3580",79.68139,943.40796
"3581",80.15259,943.42126
"3582",80.638435,943.4346
"3583",81.05104,943.4479
"3584",81.32693,943.4612
"3585",81.446556,943.4745
"3586",81.43435,943.4878
"3587",81.3196,943.5011
"3588",81.143814,943.5144
"3589",80.938736,943.5277
"3590",80.72877,943.541
"3591",80.51881,943.5543
"3592",80.31373,943.5676
"3593",80.11597,943.58093
"3594",79.92554,943.59424
"3595",79.74731,943.60754
"3596",79.5935,943.62085
"3597",79.47387,943.63416
"3598",79.38598,943.64746
"3599",79.32983,943.66077
"3600",79.29809,943.6741
"3601",79.28344,943.6874
"3602",79.273674,943.7007
"3603",79.26879,943.714
"3604",79.26147,943.7273
"3605",79.24437,943.7406
"3606",79.217514,943.7539
"3607",79.18089,943.7672
"3608",79.13695,943.7805
"3609",79.08324,943.7938
"3610",79.03197,943.8071
"3611",79.01732,943.82043
"3612",79.07347,943.83374
"3613",79.24925,943.84705
"3614",79.55932,943.86035
"3615",79.97681,943.87366
"3616",80.448006,943.88696
"3617",80.88747,943.90027
"3618",81.22438,943.9136
"3619",81.41726,943.9269
"3620",81.47341,943.9402
"3621",81.41726,943.9535
"3622",81.28542,943.9668
"3623",81.10719,943.9801
"3624",80.90944,943.9934
"3625",80.706795,944.0067
"3626",80.50172,944.02
"3627",80.29908,944.0333
"3628",80.1062,944.04663
"3629",79.92554,944.05994
"3630",79.76196,944.07324
"3631",79.622795,944.08655
"3632",79.51293,944.09985
"3633",79.432365,944.11316
"3634",79.381096,944.12646
"3635",79.35668,944.1398
"3636",79.34692,944.1531
"3637",79.34203,944.1664
"3638",79.33227,944.1797
"3639",79.32006,944.193
"3640",79.29565,944.2063
"3641",79.26391,944.2196
"3642",79.22728,944.2329
"3643",79.18089,944.2462
"3644",79.132065,944.2595
"3645",79.10765,944.2728
"3646",79.15648,944.28613
"3647",79.3225,944.29944
"3648",79.622795,944.31274
"3649",80.045166,944.32605
"3650",80.52857,944.33936
"3651",80.99489,944.35266
"3652",81.36111,944.36597
"3653",81.5906,944.3793
"3654",81.671165,944.3926
"3655",81.634544,944.4059
"3656",81.51736,944.4192
"3657",81.35134,944.4325
"3658",81.163345,944.4458
"3659",80.96803,944.4591
"3660",80.77516,944.4724
"3661",80.5774,944.4857
"3662",80.38209,944.499
"3663",80.18921,944.5123
"3664",80.0061,944.52563
"3665",79.84009,944.53894
"3666",79.70092,944.55225
"3667",79.59106,944.56555
"3668",79.51537,944.57886
"3669",79.466545,944.59216
"3670",79.44457,944.60547
"3671",79.43481,944.6188
"3672",79.432365,944.6321
"3673",79.4226,944.6454
"3674",79.40307,944.6587
"3675",79.36889,944.672
"3676",79.3225,944.6853
"3677",79.26879,944.6986
"3678",79.21263,944.7119
"3679",79.183334,944.7252
"3680",79.22484,944.7385
"3681",79.37377,944.75183
"3682",79.65942,944.76514
"3683",80.06714,944.77844
"3684",80.54078,944.79175
"3685",80.99977,944.80505
"3686",81.36599,944.81836
"3687",81.59548,944.83167
"3688",81.67605,944.845
"3689",81.636986,944.8583
"3690",81.5198,944.8716
"3691",81.358665,944.8849
"3692",81.180435,944.8982
"3693",80.99489,944.9115
"3694",80.8069,944.9248
"3695",80.61646,944.9381
"3696",80.42115,944.9514
"3697",80.22827,944.9647
"3698",80.04028,944.978
"3699",79.86694,944.99133
"3700",79.71557,945.00464
"3701",79.588615,945.01794
"3702",79.49096,945.03125
"3703",79.4226,945.04456
"3704",79.38598,945.05786
"3705",79.37133,945.07117
"3706",79.36645,945.0845
"3707",79.364006,945.0978
"3708",79.3518,945.1111
"3709",79.32006,945.1244
"3710",79.276115,945.1377
"3711",79.22484,945.151
"3712",79.17357,945.1643
"3713",79.15404,945.1776
"3714",79.21019,945.1909
"3715",79.38598,945.2042
"3716",79.693596,945.2175
"3717",80.11841,945.23083
"3718",80.59937,945.24414
"3719",81.05104,945.25745
"3720",81.40261,945.27075
"3721",81.60769,945.28406
"3722",81.671165,945.29736
"3723",81.62478,945.31067
"3724",81.497826,945.324
"3725",81.32693,945.3373
"3726",81.13649,945.3506
"3727",80.94362,945.3639
"3728",80.75075,945.3772
"3729",80.56031,945.3905
"3730",80.365,945.4038
"3731",80.16968,945.4171
"3732",79.97681,945.4304
"3733",79.79614,945.4437
"3734",79.639885,945.45703
"3735",79.520256,945.47034
"3736",79.43725,945.48364
"3737",79.38598,945.49695
"3738",79.35912,945.51025
"3739",79.34203,945.52356
"3740",79.327385,945.53687
"3741",79.30297,945.5502
"3742",79.26635,945.5635
"3743",79.219955,945.5768
"3744",79.1638,945.5901
"3745",79.10277,945.6034
"3746",79.05638,945.6167
"3747",79.04906,945.63
"3748",79.11986,945.6433
"3749",79.310295,945.6566
"3750",79.635,945.6699
"3751",80.06714,945.6832
"3752",80.54078,945.69653
"3753",80.9778,945.70984
"3754",81.31228,945.72314
"3755",81.50027,945.73645
"3756",81.549095,945.74976
"3757",81.48562,945.76306
"3758",81.356224,945.77637
"3759",81.18532,945.7897
"3760",80.99977,945.803
"3761",80.8069,945.8163
"3762",80.61402,945.8296
"3763",80.413826,945.8429
"3764",80.21118,945.8562
"3765",80.01343,945.8695
"3766",79.82788,945.8828
"3767",79.66186,945.8961
"3768",79.52514,945.9094
"3769",79.41772,945.9227
"3770",79.33959,945.93604
"3771",79.290764,945.94934
"3772",79.256584,945.96265
"3773",79.234604,945.97595
"3774",79.217514,945.98926
"3775",79.19554,946.00256
"3776",79.1638,946.01587
"3777",79.12718,946.0292
"3778",79.078354,946.0425
"3779",79.027084,946.0558
"3780",78.97826,946.0691
"3781",78.96605,946.0824
"3782",79.03685,946.0957
"3783",79.22972,946.109
"3784",79.55932,946.1223
"3785",79.99878,946.1356
"3786",80.48463,946.1489
"3787",80.936295,946.16223
"3788",81.27566,946.17554
"3789",81.46853,946.18884
"3790",81.51736,946.20215
"3791",81.45876,946.21545
"3792",81.32693,946.22876
"3793",81.15846,946.24207
"3794",80.970474,946.2554
"3795",80.77272,946.2687
"3796",80.570076,946.282
"3797",80.36256,946.2953
"3798",80.15015,946.3086
"3799",79.94507,946.3219
"3800",79.75952,946.3352
"3801",79.5935,946.3485
"3802",79.46166,946.3618
"3803",79.36645,946.3751
"3804",79.30541,946.3884
"3805",79.26879,946.40173
"3806",79.24925,946.41504
"3807",79.237045,946.42834
"3808",79.22484,946.44165
"3809",79.20531,946.45496
"3810",79.18089,946.46826
"3811",79.149155,946.48157
"3812",79.11009,946.4949
"3813",79.06615,946.5082
"3814",79.0222,946.5215
"3815",79.01732,946.5348
"3816",79.09544,946.5481
"3817",79.29565,946.5614
"3818",79.63012,946.5747
"3819",80.06714,946.588
"3820",80.53834,946.6013
"3821",80.96315,946.6146
"3822",81.27322,946.6279
"3823",81.43679,946.64124
"3824",81.461205,946.65454
"3825",81.38064,946.66785
"3826",81.231705,946.68115
"3827",81.041275,946.69446
"3828",80.83864,946.70776
"3829",80.63111,946.72107
"3830",80.42359,946.7344
"3831",80.216064,946.7477
"3832",80.02075,946.761
"3833",79.83276,946.7743
"3834",79.66674,946.7876
"3835",79.52758,946.8009
"3836",79.42504,946.8142
"3837",79.35424,946.8275
"3838",79.31274,946.8408
"3839",79.29565,946.8541
"3840",79.28832,946.86743
"3841",79.281,946.88074
"3842",79.27123,946.89404
"3843",79.24925,946.90735
"3844",79.21507,946.92065
"3845",79.17357,946.93396
"3846",79.11986,946.94727
"3847",79.06615,946.9606
"3848",79.03197,946.9739
"3849",79.061264,946.9872
"3850",79.200424,947.0005
"3851",79.47875,947.0138
"3852",79.88403,947.0271
"3853",80.36988,947.0404
"3854",80.85573,947.0537
"3855",81.26101,947.067
"3856",81.52712,947.0803
"3857",81.64431,947.0936
"3858",81.62966,947.10693
"3859",81.52224,947.12024
"3860",81.356224,947.13354
"3861",81.163345,947.14685
"3862",80.95827,947.16016
"3863",80.75319,947.17346
"3864",80.550545,947.18677
"3865",80.35035,947.2001
"3866",80.15503,947.2134
"3867",79.96948,947.2267
"3868",79.79614,947.24
"3869",79.64477,947.2533
"3870",79.5227,947.2666
"3871",79.43481,947.2799
"3872",79.378654,947.2932
"3873",79.344475,947.3065
"3874",79.32983,947.3198
"3875",79.31518,947.3331
"3876",79.29809,947.34644
"3877",79.273674,947.35974
"3878",79.234604,947.37305
"3879",79.185776,947.38635
"3880",79.12962,947.39966
"3881",79.078354,947.41296
"3882",79.05882,947.4263
"3883",79.11986,947.4396
"3884",79.30297,947.4529
"3885",79.62524,947.4662
"3886",80.059814,947.4795
"3887",80.54078,947.4928
"3888",80.98512,947.5061
"3889",81.322044,947.5194
"3890",81.512474,947.5327
"3891",81.56374,947.546
"3892",81.50271,947.5593
"3893",81.36843,947.57263
"3894",81.1902,947.58594
"3895",80.99733,947.59924
"3896",80.79225,947.61255
"3897",80.584724,947.62585
"3898",80.377205,947.63916
"3899",80.16968,947.65247
"3900",79.96948,947.6658
"3901",79.781494,947.6791
"3902",79.61547,947.6924
"3903",79.47631,947.7057
"3904",79.364006,947.719
"3905",79.28588,947.7323
"3906",79.237045,947.7456
"3907",79.21507,947.7589
"3908",79.20775,947.7722
"3909",79.202866,947.7855
"3910",79.18822,947.7988
"3911",79.15404,947.81213
"3912",79.10521,947.82544
"3913",79.04173,947.83875
"3914",78.975815,947.85205
"3915",78.93675,947.86536
"3916",78.97337,947.87866
"3917",79.12474,947.89197
"3918",79.415276,947.9053
"3919",79.823,947.9186
"3920",80.30152,947.9319
"3921",80.76051,947.9452
"3922",81.12428,947.9585
"3923",81.3489,947.9718
"3924",81.42947,947.9851
"3925",81.392845,947.9984
"3926",81.27566,948.0117
"3927",81.11452,948.025
"3928",80.93385,948.0383
"3929",80.74586,948.05164
"3930",80.552986,948.06494
"3931",80.35523,948.07825
"3932",80.15503,948.09155
"3933",79.954834,948.10486
"3934",79.764404,948.11816
"3935",79.5935,948.1315
"3936",79.449455,948.1448
"3937",79.33471,948.1581
"3938",79.2517,948.1714
"3939",79.19554,948.1847
"3940",79.1638,948.198
"3941",79.14671,948.2113
"3942",79.132065,948.2246
"3943",79.11742,948.2379
"3944",79.08812,948.2512
"3945",79.04906,948.2645
"3946",79.00267,948.27783
"3947",78.95384,948.29114
"3948",78.91966,948.30444
"3949",78.93187,948.31775
"3950",79.03197,948.33105
"3951",79.26147,948.34436
"3952",79.61791,948.35767
"3953",80.06958,948.371
"3954",80.54078,948.3843
"3955",80.9485,948.3976
"3956",81.22682,948.4109
"3957",81.35378,948.4242
"3958",81.35134,948.4375
"3959",81.25613,948.4508
"3960",81.10475,948.4641
"3961",80.93141,948.4774
"3962",80.7483,948.4907
"3963",80.55787,948.504
"3964",80.360115,948.51733
"3965",80.15503,948.53064
"3966",79.94995,948.54395
"3967",79.7522,948.55725
"3968",79.57397,948.57056
"3969",79.42748,948.58386
"3970",79.31274,948.59717
"3971",79.23216,948.6105
"3972",79.18089,948.6238
"3973",79.151596,948.6371
"3974",79.14183,948.6504
"3975",79.13939,948.6637
"3976",79.13451,948.677
"3977",79.11986,948.6903
"3978",79.09056,948.7036
"3979",79.046616,948.7169
"3980",78.995346,948.7302
"3981",78.95384,948.7435
"3982",78.9514,948.75684
"3983",79.03441,948.77014
"3984",79.23949,948.78345
"3985",79.57641,948.79675
"3986",80.008545,948.81006
"3987",80.47486,948.82336
"3988",80.89479,948.8367
"3989",81.19997,948.85
"3990",81.35378,948.8633
"3991",81.373314,948.8766
"3992",81.287865,948.8899
"3993",81.13649,948.9032
"3994",80.94606,948.9165
"3995",80.74586,948.9298
"3996",80.54566,948.9431
"3997",80.343025,948.9564
"3998",80.13794,948.9697
"3999",79.937744,948.98303
"4000",79.74975,948.99634
"4001",79.57885,949.00964
"4002",79.44213,949.02295
"4003",79.34203,949.03625
"4004",79.276115,949.04956
"4005",79.23949,949.06287
"4006",79.2224,949.0762
"4007",79.219955,949.0895
"4008",79.22484,949.1028
"4009",79.22484,949.1161
"4010",79.21507,949.1294
"4011",79.18822,949.1427
"4012",79.149155,949.156
"4013",79.093,949.1693
"4014",79.046616,949.1826
"4015",79.029526,949.1959
"4016",79.09544,949.2092
"4017",79.276115,949.22253
"4018",79.59106,949.23584
"4019",80.0061,949.24915
"4020",80.46754,949.26245
"4021",80.89479,949.27576
"4022",81.21217,949.28906
"4023",81.38796,949.30237
"4024",81.42458,949.3157
"4025",81.356224,949.329
"4026",81.20973,949.3423
"4027",81.02663,949.3556
"4028",80.82399,949.3689
"4029",80.61402,949.3822
"4030",80.39918,949.3955
"4031",80.18921,949.4088
"4032",79.98657,949.4221
"4033",79.801025,949.4354
"4034",79.64233,949.4487
"4035",79.51537,949.46204
"4036",79.4226,949.47534
"4037",79.364006,949.48865
"4038",79.33227,949.50195
"4039",79.32006,949.51526
"4040",79.32006,949.52856
"4041",79.32006,949.5419
"4042",79.31274,949.5552
"4043",79.293205,949.5685
"4044",79.259026,949.5818
"4045",79.217514,949.5951
"4046",79.17601,949.6084
"4047",79.14427,949.6217
"4048",79.15892,949.635
"4049",79.26635,949.6483
"4050",79.49828,949.6616
"4051",79.85474,949.6749
"4052",80.30152,949.68823
"4053",80.77028,949.70154
"4054",81.17799,949.71484
"4055",81.45876,949.72815
"4056",81.59304,949.74146
"4057",81.600365,949.75476
"4058",81.51003,949.76807
"4059",81.36111,949.7814
"4060",81.180435,949.7947
"4061",80.98268,949.808
"4062",80.782486,949.8213
"4063",80.58228,949.8346
"4064",80.38209,949.8479
"4065",80.19409,949.8612
"4066",80.01587,949.8745
"4067",79.85962,949.8878
"4068",79.727776,949.9011
"4069",79.62768,949.9144
"4070",79.5642,949.92773
"4071",79.52758,949.94104
"4072",79.51293,949.95435
"4073",79.51049,949.96765
"4074",79.50561,949.98096
"4075",79.4934,949.99426
"4076",79.47143,950.00757
"4077",79.43725,950.0209
"4078",79.39086,950.0342
"4079",79.34203,950.0475
"4080",79.310295,950.0608
"4081",79.34203,950.0741
"4082",79.47631,950.0874
"4083",79.744865,950.1007
"4084",80.13306,950.114
"4085",80.59693,950.1273
"4086",81.05348,950.1406
"4087",81.42458,950.15393
"4088",81.65896,950.16724
"4089",81.74685,950.18054
"4090",81.71511,950.19385
"4091",81.59792,950.20715
"4092",81.43435,950.22046
"4093",81.253685,950.23376
"4094",81.06569,950.2471
"4095",80.87282,950.2604
"4096",80.67994,950.2737
"4097",80.479744,950.287
"4098",80.27955,950.3003
"4099",80.08911,950.3136
"4100",79.91333,950.3269
"4101",79.764404,950.3402
"4102",79.65209,950.3535
"4103",79.58129,950.3668
"4104",79.54223,950.3801
"4105",79.52758,950.39343
"4106",79.5227,950.40674
"4107",79.51537,950.42004
"4108",79.49828,950.43335
"4109",79.47143,950.44666
"4110",79.42504,950.45996
"4111",79.36889,950.47327
"4112",79.32006,950.4866
"4113",79.31274,950.4999
"4114",79.38842,950.5132
"4115",79.588615,950.5265
"4116",79.923096,950.5398
"4117",80.35523,950.5531
"4118",80.81911,950.5664
"4119",81.24147,950.5797
"4120",81.549095,950.593
"4121",81.71755,950.6063
"4122",81.75174,950.6196
"4123",81.68093,950.63293
"4124",81.53445,950.64624
"4125",81.35134,950.65955
"4126",81.15114,950.67285
"4127",80.95094,950.68616
"4128",80.75319,950.69946
"4129",80.55787,950.71277
"4130",80.36256,950.7261
"4131",80.17212,950.7394
"4132",79.98657,950.7527
"4133",79.82544,950.766
"4134",79.693596,950.7793
"4135",79.603264,950.7926
"4136",79.54711,950.8059
"4137",79.51537,950.8192
"4138",79.49584,950.8325
"4139",79.47631,950.8458
"4140",79.449455,950.85913
"4141",79.412834,950.87244
"4142",79.37133,950.88574
"4143",79.3225,950.89905
"4144",79.27123,950.91235
"4145",79.24925,950.92566
"4146",79.28832,950.93896
"4147",79.43481,950.9523
"4148",79.71313,950.9656
"4149",80.10376,950.9789
"4150",80.55787,950.9922
"4151",80.99977,951.0055
"4152",81.35134,951.0188
"4153",81.57107,951.0321
"4154",81.64919,951.0454
"4155",81.61013,951.0587
"4156",81.4905,951.072
"4157",81.32693,951.0853
"4158",81.13893,951.09863
"4159",80.94362,951.11194
"4160",80.7483,951.12524
"4161",80.550545,951.13855
"4162",80.34791,951.15186
"4163",80.147705,951.16516
"4164",79.95972,951.17847
"4165",79.79126,951.1918
"4166",79.64965,951.2051
"4167",79.54955,951.2184
"4168",79.483635,951.2317
"4169",79.44457,951.245
"4170",79.42504,951.2583
"4171",79.412834,951.2716
"4172",79.3933,951.2849
"4173",79.36889,951.2982
"4174",79.33227,951.3115
"4175",79.28588,951.3248
"4176",79.23216,951.33813
"4177",79.19554,951.35144
"4178",79.21263,951.36475
"4179",79.32983,951.37805
"4180",79.57885,951.39136
"4181",79.94751,951.40466
"4182",80.38941,951.41797
"4183",80.82887,951.4313
"4184",81.19264,951.4446
"4185",81.42947,951.4579
"4186",81.52224,951.4712
"4187",81.497826,951.4845
"4188",81.38552,951.4978
"4189",81.21706,951.5111
"4190",81.024185,951.5244
"4191",80.81911,951.5377
"4192",80.618904,951.551
"4193",80.41627,951.56433
"4194",80.218506,951.57764
"4195",80.025635,951.59094
"4196",79.84741,951.60425
"4197",79.68627,951.61755
"4198",79.55688,951.63086
"4199",79.45678,951.64417
"4200",79.39086,951.6575
"4201",79.3518,951.6708
"4202",79.33227,951.6841
"4203",79.3225,951.6974
"4204",79.30785,951.7107
"4205",79.28344,951.724
"4206",79.24193,951.7373
"4207",79.185776,951.7506
"4208",79.12718,951.7639
"4209",79.08568,951.7772
"4210",79.10033,951.7905
"4211",79.219955,951.80383
"4212",79.4641,951.81714
"4213",79.823,951.83044
"4214",80.255135,951.84375
"4215",80.68726,951.85706
"4216",81.041275,951.87036
"4217",81.270775,951.88367
"4218",81.358665,951.897
"4219",81.32937,951.9103
"4220",81.2195,951.9236
"4221",81.06081,951.9369
"4222",80.88258,951.9502
"4223",80.69459,951.9635
"4224",80.49683,951.9768
"4225",80.289314,951.9901
"4226",80.08423,952.0034
"4227",79.88159,952.0167
"4228",79.69604,952.03
"4229",79.53246,952.04333
"4230",79.40551,952.05664
"4231",79.31762,952.06995
"4232",79.26635,952.08325
"4233",79.24193,952.09656
"4234",79.23216,952.10986
"4235",79.22484,952.12317
"4236",79.21019,952.1365
"4237",79.18089,952.1498
"4238",79.13939,952.1631
"4239",79.08812,952.1764
"4240",79.03685,952.1897
"4241",79.00511,952.203
"4242",79.029526,952.2163
"4243",79.16136,952.2296
"4244",79.415276,952.2429
"4245",79.77661,952.2562
"4246",80.2063,952.26953
"4247",80.62867,952.28284
"4248",80.96803,952.29614
"4249",81.17799,952.30945
"4250",81.25124,952.32275
"4251",81.20729,952.33606
"4252",81.08278,952.34937
"4253",80.91676,952.3627
"4254",80.73121,952.376
"4255",80.533455,952.3893
"4256",80.3357,952.4026
"4257",80.1355,952.4159
"4258",79.93042,952.4292
"4259",79.73266,952.4425
"4260",79.554436,952.4558
"4261",79.40307,952.4691
"4262",79.293205,952.4824
"4263",79.2224,952.4957
"4264",79.18822,952.50903
"4265",79.17601,952.52234
"4266",79.17357,952.53564
"4267",79.16136,952.54895
"4268",79.14183,952.56226
"4269",79.11009,952.57556
"4270",79.07103,952.58887
"4271",79.01976,952.6022
"4272",78.97093,952.6155
"4273",78.93431,952.6288
"4274",78.9514,952.6421
"4275",79.063705,952.6554
"4276",79.30297,952.6687
"4277",79.66186,952.682
"4278",80.09155,952.6953
"4279",80.51881,952.7086
"4280",80.867935,952.7219
"4281",81.08766,952.7352
"4282",81.16823,952.74854
"4283",81.13649,952.76184
"4284",81.024185,952.77515
"4285",80.86305,952.78845
"4286",80.67506,952.80176
"4287",80.47486,952.81506
"4288",80.272224,952.82837
"4289",80.07202,952.8417
"4290",79.871826,952.855
"4291",79.68139,952.8683
"4292",79.51293,952.8816
"4293",79.364006,952.8949
"4294",79.24681,952.9082
"4295",79.17113,952.9215
"4296",79.12962,952.9348
"4297",79.114975,952.9481
"4298",79.11986,952.9614
"4299",79.1223,952.97473
"4300",79.11742,952.98804
"4301",79.09544,953.00134
"4302",79.061264,953.01465
"4303",79.012436,953.02795
"4304",78.96605,953.04126
"4305",78.92943,953.05457
"4306",78.94408,953.0679
"4307",79.0515,953.0812
"4308",79.28832,953.0945
"4309",79.64477,953.1078
"4310",80.079346,953.1211
"4311",80.52125,953.1344
"4312",80.88991,953.1477
"4313",81.129166,953.161
"4314",81.2195,953.1743
"4315",81.19264,953.1876
"4316",81.075455,953.2009
"4317",80.90944,953.21423
"4318",80.719,953.22754
"4319",80.52613,953.24084
"4320",80.33326,953.25415
"4321",80.14282,953.26746
"4322",79.954834,953.28076
"4323",79.77417,953.29407
"4324",79.605705,953.3074
"4325",79.45678,953.3207
"4326",79.33715,953.334
"4327",79.24925,953.3473
"4328",79.19798,953.3606
"4329",79.17357,953.3739
"4330",79.168686,953.3872
"4331",79.17113,953.4005
"4332",79.17113,953.4138
"4333",79.15648,953.4271
"4334",79.132065,953.4404
"4335",79.09544,953.45374
"4336",79.05394,953.46704
"4337",79.012436,953.48035
"4338",78.995346,953.49365
"4339",79.03929,953.50696
"4340",79.19554,953.52026
"4341",79.47875,953.53357
"4342",79.869385,953.5469
"4343",80.31129,953.5602
"4344",80.72877,953.5735
"4345",81.05104,953.5868
"4346",81.231705,953.6001
"4347",81.270775,953.6134
"4348",81.19997,953.6267
"4349",81.05592,953.64
"4350",80.87282,953.6533
"4351",80.67506,953.6666
"4352",80.479744,953.67993
"4353",80.291756,953.69324
"4354",80.1062,953.70654
"4355",79.92554,953.71985
"4356",79.7522,953.73315
"4357",79.5935,953.74646
"4358",79.45922,953.75977
"4359",79.35424,953.7731
"4360",79.28344,953.7864
"4361",79.24437,953.7997
"4362",79.22972,953.813
"4363",79.22728,953.8263
"4364",79.22728,953.8396
"4365",79.2224,953.8529
"4366",79.20775,953.8662
"4367",79.17845,953.8795
"4368",79.13451,953.8928
"4369",79.08568,953.9061
"4370",79.04173,953.91943
"4371",79.03685,953.93274
"4372",79.11986,953.94604
"4373",79.327385,953.95935
"4374",79.6643,953.97266
"4375",80.093994,953.98596
"4376",80.54566,953.99927
"4377",80.938736,954.0126
"4378",81.20485,954.0259
"4379",81.3196,954.0392
"4380",81.30251,954.0525
"4381",81.19508,954.0658
"4382",81.03151,954.0791
"4383",80.848404,954.0924
"4384",80.66041,954.1057
"4385",80.47486,954.119
"4386",80.28443,954.1323
"4387",80.093994,954.1456
"4388",79.90845,954.15894
"4389",79.73266,954.17224
"4390",79.57397,954.18555
"4391",79.447014,954.19885
"4392",79.3518,954.21216
"4393",79.290764,954.22546
"4394",79.259026,954.2388
"4395",79.24925,954.2521
"4396",79.2517,954.2654
"4397",79.259026,954.2787
"4398",79.25414,954.292
"4399",79.23949,954.3053
"4400",79.21263,954.3186
"4401",79.17601,954.3319
"4402",79.12962,954.3452
"4403",79.08812,954.3585
"4404",79.07103,954.3718
"4405",79.12962,954.38513
"4406",79.29809,954.39844
"4407",79.59838,954.41174
"4408",80.008545,954.42505
"4409",80.46998,954.43835
"4410",80.89479,954.45166
"4411",81.21217,954.46497
"4412",81.38308,954.4783
"4413",81.41482,954.4916
"4414",81.33669,954.5049
"4415",81.18776,954.5182
"4416",80.99977,954.5315
"4417",80.79469,954.5448
"4418",80.59205,954.5581
"4419",80.39185,954.5714
"4420",80.198975,954.5847
"4421",80.01831,954.598
"4422",79.84741,954.6113
"4423",79.691154,954.62463
"4424",79.55688,954.63794
"4425",79.449455,954.65125
"4426",79.37377,954.66455
"4427",79.32494,954.67786
"4428",79.30053,954.69116
"4429",79.290764,954.70447
"4430",79.28832,954.7178
"4431",79.28588,954.7311
"4432",79.273674,954.7444
"4433",79.24681,954.7577
"4434",79.21263,954.771
"4435",79.168686,954.7843
"4436",79.1223,954.7976
"4437",79.09544,954.8109
"4438",79.12718,954.8242
"4439",79.256584,954.8375
"4440",79.51293,954.8508
"4441",79.89136,954.86414
"4442",80.33814,954.87744
"4443",80.780045,954.89075
"4444",81.13649,954.90405
"4445",81.356224,954.91736
"4446",81.42947,954.93066
"4447",81.375755,954.944
"4448",81.24391,954.9573
"4449",81.06813,954.9706
"4450",80.87282,954.9839
"4451",80.67506,954.9972
"4452",80.4773,955.0105
"4453",80.28443,955.0238
"4454",80.096436,955.0371
"4455",79.91333,955.0504
"4456",79.74975,955.0637
"4457",79.605705,955.077
"4458",79.48608,955.09033
"4459",79.39086,955.10364
"4460",79.327385,955.11694
"4461",79.290764,955.13025
"4462",79.276115,955.14355
"4463",79.273674,955.15686
"4464",79.276115,955.17017
"4465",79.273674,955.1835
"4466",79.256584,955.1968
"4467",79.22728,955.2101
"4468",79.19066,955.2234
"4469",79.14671,955.2367
"4470",79.10277,955.25
"4471",79.08568,955.2633
"4472",79.13939,955.2766
"4473",79.310295,955.2899
"4474",79.62035,955.3032
"4475",80.045166,955.3165
"4476",80.516365,955.32983
"4477",80.95094,955.34314
"4478",81.270775,955.35645
"4479",81.43679,955.36975
"4480",81.45632,955.38306
"4481",81.36355,955.39636
"4482",81.20485,955.40967
"4483",81.01686,955.423
"4484",80.814224,955.4363
"4485",80.61158,955.4496
"4486",80.41627,955.4629
"4487",80.22339,955.4762
"4488",80.04028,955.4895
"4489",79.8645,955.5028
"4490",79.70336,955.5161
"4491",79.55932,955.5294
"4492",79.44213,955.5427
"4493",79.35668,955.556
"4494",79.30541,955.56934
"4495",79.28344,955.58264
"4496",79.28832,955.59595
"4497",79.30297,955.60925
"4498",79.31518,955.62256
"4499",79.310295,955.63586
"4500",79.28832,955.6492
"4501",79.25414,955.6625
"4502",79.21019,955.6758
"4503",79.166245,955.6891
"4504",79.14671,955.7024
"4505",79.19066,955.7157
"4506",79.33471,955.729
"4507",79.60815,955.7423
"4508",79.99634,955.7556
"4509",80.45045,955.7689
"4510",80.885025,955.7822
"4511",81.22438,955.79553
"4512",81.42214,955.80884
"4513",81.47341,955.82214
"4514",81.40505,955.83545
"4515",81.253685,955.84875
"4516",81.06081,955.86206
"4517",80.85329,955.87537
"4518",80.6482,955.8887
"4519",80.45289,955.902
"4520",80.26978,955.9153
"4521",80.093994,955.9286
"4522",79.923096,955.9419
"4523",79.764404,955.9552
"4524",79.62524,955.9685
"4525",79.50805,955.9818
"4526",79.4226,955.9951
"4527",79.36889,956.0084
"4528",79.34203,956.0217
"4529",79.33227,956.03503
"4530",79.33715,956.04834
"4531",79.33959,956.06165
"4532",79.33471,956.07495
"4533",79.31274,956.08826
"4534",79.27856,956.10156
"4535",79.234604,956.11487
"4536",79.18822,956.1282
"4537",79.151596,956.1415
"4538",79.14183,956.1548
"4539",79.20775,956.1681
"4540",79.38354,956.1814
"4541",79.691154,956.1947
"4542",80.113525,956.208
"4543",80.59205,956.2213
"4544",81.03883,956.2346
"4545",81.38064,956.2479
"4546",81.57351,956.2612
"4547",81.61501,956.27454
"4548",81.53689,956.28784
"4549",81.38552,956.30115
"4550",81.19508,956.31445
"4551",80.990005,956.32776
"4552",80.78493,956.34106
"4553",80.584724,956.3544
"4554",80.39185,956.3677
"4555",80.20386,956.381
"4556",80.02319,956.3943
"4557",79.85474,956.4076
"4558",79.7058,956.4209
"4559",79.57885,956.4342
"4560",79.48608,956.4475
"4561",79.42016,956.4608
"4562",79.38354,956.4741
"4563",79.364006,956.4874
"4564",79.35668,956.50073
"4565",79.35424,956.51404
"4566",79.34692,956.52734
"4567",79.33471,956.54065
"4568",79.31274,956.55396
"4569",79.28344,956.56726
"4570",79.24681,956.58057
"4571",79.20775,956.5939
"4572",79.166245,956.6072
"4573",79.14671,956.6205
"4574",79.185776,956.6338
"4575",79.33715,956.6471
