"","ppg","time"
"1",79.89868,27.08667
"2",79.869385,27.099976
"3",79.84497,27.113342
"4",79.83276,27.126648
"5",79.83765,27.140015
"6",79.852295,27.15332
"7",79.869385,27.166626
"8",79.87915,27.179993
"9",79.869385,27.193298
"10",79.84497,27.206665
"11",79.81323,27.21997
"12",79.783936,27.233337
"13",79.76196,27.246643
"14",79.74731,27.26001
"15",79.742424,27.273315
"16",79.74975,27.286682
"17",79.75952,27.299988
"18",79.76929,27.313293
"19",79.77173,27.32666
"20",79.766846,27.339966
"21",79.75464,27.353333
"22",79.742424,27.366638
"23",79.73754,27.380005
"24",79.744865,27.39331
"25",79.75464,27.406677
"26",79.76196,27.419983
"27",79.766846,27.43335
"28",79.77417,27.446655
"29",79.78638,27.45996
"30",79.81079,27.473328
"31",79.85474,27.486633
"32",79.91333,27.5
"33",79.974365,27.513306
"34",80.03052,27.526672
"35",80.076904,27.539978
"36",80.10376,27.553345
"37",80.11841,27.56665
"38",80.12085,27.580017
"39",80.12085,27.593323
"40",80.113525,27.606628
"41",80.1062,27.619995
"42",80.09155,27.6333
"43",80.07446,27.646667
"44",80.05493,27.659973
"45",80.04028,27.67334
"46",80.03296,27.686646
"47",80.03296,27.700012
"48",80.045166,27.713318
"49",80.06714,27.726685
"50",80.09888,27.73999
"51",80.130615,27.753296
"52",80.16724,27.766663
"53",80.198975,27.779968
"54",80.22583,27.793335
"55",80.24292,27.80664
"56",80.25269,27.820007
"57",80.255135,27.833313
"58",80.24536,27.84668
"59",80.23071,27.859985
"60",80.20874,27.873291
"61",80.184326,27.886658
"62",80.15015,27.899963
"63",80.11597,27.91333
"64",80.079346,27.926636
"65",80.03784,27.940002
"66",79.9939,27.953308
"67",79.957275,27.966675
"68",79.93286,27.97998
"69",79.923096,27.993347
"70",79.93286,28.006653
"71",79.954834,28.019958
"72",79.98413,28.033325
"73",80.01831,28.04663
"74",80.05249,28.059998
"75",80.076904,28.073303
"76",80.09888,28.08667
"77",80.11841,28.099976
"78",80.1355,28.113342
"79",80.15259,28.126648
"80",80.181885,28.140015
"81",80.22827,28.15332
"82",80.28687,28.166626
"83",80.35279,28.179993
"84",80.42115,28.193298
"85",80.47486,28.206665
"86",80.51392,28.21997
"87",80.53101,28.233337
"88",80.52613,28.246643
"89",80.5066,28.26001
"90",80.482185,28.273315
"91",80.445564,28.286682
"92",80.40894,28.299988
"93",80.36744,28.313293
"94",80.33082,28.32666
"95",80.291756,28.339966
"96",80.257576,28.353333
"97",80.22339,28.366638
"98",80.198975,28.380005
"99",80.17456,28.39331
"100",80.15503,28.406677
"101",80.14282,28.419983
"102",80.13794,28.43335
"103",80.13306,28.446655
"104",80.130615,28.45996
"105",80.12085,28.473328
"106",80.1062,28.486633
"107",80.08911,28.5
"108",80.06958,28.513306
"109",80.04761,28.526672
"110",80.02319,28.539978
"111",79.99878,28.553345
"112",79.974365,28.56665
"113",79.95239,28.579956
"114",79.93286,28.593323
"115",79.91821,28.606628
"116",79.903564,28.619995
"117",79.88403,28.6333
"118",79.85962,28.646667
"119",79.83032,28.659973
"120",79.801025,28.67334
"121",79.77173,28.686646
"122",79.7522,28.700012
"123",79.744865,28.713318
"124",79.7522,28.726624
"125",79.77905,28.73999
"126",79.818115,28.753296
"127",79.86694,28.766663
"128",79.91333,28.779968
"129",79.957275,28.793335
"130",79.991455,28.80664
"131",80.01343,28.820007
"132",80.0354,28.833313
"133",80.06714,28.84668
"134",80.11597,28.859985
"135",80.17456,28.873291
"136",80.2478,28.886658
"137",80.323494,28.899963
"138",80.38453,28.91333
"139",80.41627,28.926636
"140",80.42603,28.940002
"141",80.41627,28.953308
"142",80.39185,28.966675
"143",80.360115,28.97998
"144",80.33326,28.993347
"145",80.31129,29.006653
"146",80.2942,29.019958
"147",80.27955,29.033325
"148",80.26978,29.04663
"149",80.26734,29.059998
"150",80.26246,29.073303
"151",80.25269,29.08667
"152",80.24536,29.099976
"153",80.24048,29.113342
"154",80.23804,29.126648
"155",80.24292,29.140015
"156",80.257576,29.15332
"157",80.272224,29.166626
"158",80.28687,29.179993
"159",80.289314,29.193298
"160",80.27955,29.206665
"161",80.257576,29.21997
"162",80.22583,29.233337
"163",80.18921,29.246643
"164",80.15747,29.26001
"165",80.14282,29.273315
"166",80.14526,29.286682
"167",80.15747,29.299988
"168",80.15991,29.313293
"169",80.14282,29.32666
"170",80.113525,29.339966
"171",80.06714,29.353333
"172",80.01831,29.366638
"173",79.97681,29.380005
"174",79.94507,29.39331
"175",79.920654,29.406677
"176",79.89624,29.419983
"177",79.869385,29.43335
"178",79.84741,29.446655
"179",79.82544,29.45996
"180",79.80591,29.473328
"181",79.78638,29.486633
"182",79.766846,29.5
"183",79.74731,29.513306
"184",79.73022,29.526672
"185",79.708244,29.539978
"186",79.693596,29.553345
"187",79.68627,29.56665
"188",79.693596,29.579956
"189",79.71557,29.593323
"190",79.75464,29.606628
"191",79.81079,29.619995
"192",79.87671,29.6333
"193",79.9353,29.646667
"194",79.98413,29.659973
"195",80.01343,29.67334
"196",80.02319,29.686646
"197",80.01587,29.700012
"198",79.99878,29.713318
"199",79.97925,29.726624
"200",79.957275,29.73999
"201",79.937744,29.753296
"202",79.91089,29.766663
"203",79.888916,29.779968
"204",79.8645,29.793335
"205",79.84253,29.80664
"206",79.82056,29.820007
"207",79.801025,29.833313
"208",79.781494,29.84668
"209",79.75708,29.859985
"210",79.73754,29.873291
"211",79.725334,29.886658
"212",79.72045,29.899963
"213",79.727776,29.91333
"214",79.742424,29.926636
"215",79.766846,29.940002
"216",79.79126,29.953308
"217",79.80591,29.966675
"218",79.818115,29.97998
"219",79.823,29.993347
"220",79.82056,30.006653
"221",79.815674,30.019958
"222",79.80835,30.033325
"223",79.80591,30.04663
"224",79.798584,30.059998
"225",79.798584,30.073303
"226",79.80347,30.08667
"227",79.823,30.099976
"228",79.84009,30.113342
"229",79.85718,30.126648
"230",79.869385,30.140015
"231",79.871826,30.15332
"232",79.85718,30.166626
"233",79.84009,30.179993
"234",79.823,30.193298
"235",79.80591,30.206665
"236",79.79614,30.21997
"237",79.7937,30.233337
"238",79.801025,30.246643
"239",79.80835,30.26001
"240",79.815674,30.273315
"241",79.82056,30.286621
"242",79.82056,30.299988
"243",79.81079,30.313293
"244",79.798584,30.32666
"245",79.79126,30.339966
"246",79.7937,30.353333
"247",79.81079,30.366638
"248",79.84497,30.380005
"249",79.886475,30.39331
"250",79.93042,30.406677
"251",79.971924,30.419983
"252",80.00366,30.43335
"253",80.028076,30.446655
"254",80.04761,30.45996
"255",80.05249,30.473328
"256",80.05005,30.486633
"257",80.03784,30.5
"258",80.02319,30.513306
"259",80.00122,30.526672
"260",79.97925,30.539978
"261",79.957275,30.553345
"262",79.9353,30.56665
"263",79.91089,30.580017
"264",79.886475,30.593323
"265",79.8645,30.60669
"266",79.84497,30.619995
"267",79.83032,30.633362
"268",79.82788,30.646667
"269",79.83765,30.660034
"270",79.85962,30.67334
"271",79.87915,30.686646
"272",79.89624,30.700012
"273",79.90112,30.713318
"274",79.8938,30.726685
"275",79.87915,30.73999
"276",79.85962,30.753357
"277",79.84253,30.766663
"278",79.823,30.78003
"279",79.80835,30.793335
"280",79.798584,30.806702
"281",79.78638,30.820007
"282",79.77417,30.833374
"283",79.76196,30.84668
"284",79.7522,30.860046
"285",79.74731,30.873352
"286",79.74975,30.886719
"287",79.76196,30.900024
"288",79.77661,30.91333
"289",79.78638,30.926697
"290",79.78882,30.940002
"291",79.78638,30.95337
"292",79.77905,30.966675
"293",79.76196,30.980042
"294",79.742424,30.993347
"295",79.72289,31.006714
"296",79.710686,31.02002
"297",79.708244,31.033386
"298",79.72045,31.046692
"299",79.744865,31.060059
"300",79.78882,31.073364
"301",79.835205,31.086731
"302",79.89136,31.100037
"303",79.94507,31.113342
"304",79.991455,31.126709
"305",80.025635,31.140015
"306",80.05005,31.153381
"307",80.0647,31.166687
"308",80.0647,31.180054
"309",80.05737,31.19336
"310",80.042725,31.206726
"311",80.028076,31.220032
"312",80.01343,31.233398
"313",80.0061,31.246704
"314",80.00366,31.26007
"315",80.00122,31.273376
"316",79.99878,31.286743
"317",79.99878,31.300049
"318",80.00122,31.313354
"319",80.008545,31.326721
"320",80.01831,31.340027
"321",80.025635,31.353394
"322",80.025635,31.3667
"323",80.02319,31.380066
"324",80.01099,31.393372
"325",79.9939,31.406738
"326",79.971924,31.420044
"327",79.94507,31.43341
"328",79.920654,31.446716
"329",79.90112,31.460083
"330",79.88403,31.473389
"331",79.871826,31.486755
"332",79.85962,31.500061
"333",79.84741,31.513428
"334",79.835205,31.526733
"335",79.82788,31.54004
"336",79.82788,31.553406
"337",79.83276,31.566711
"338",79.84741,31.580078
"339",79.86206,31.593384
"340",79.871826,31.60675
"341",79.88159,31.620056
"342",79.886475,31.633423
"343",79.89136,31.646729
"344",79.8938,31.660095
"345",79.903564,31.6734
"346",79.91821,31.686768
"347",79.94995,31.700073
"348",79.9939,31.71344
"349",80.04761,31.726746
"350",80.10376,31.740112
"351",80.16235,31.753418
"352",80.20874,31.766724
"353",80.24292,31.78009
"354",80.26246,31.793396
"355",80.272224,31.806763
"356",80.272224,31.820068
"357",80.26978,31.833435
"358",80.26246,31.84674
"359",80.255135,31.860107
"360",80.2478,31.873413
"361",80.23071,31.88678
"362",80.21118,31.900085
"363",80.18677,31.913452
"364",80.15991,31.926758
"365",80.13306,31.940125
"366",80.113525,31.95343
"367",80.096436,31.966736
"368",80.08911,31.980103
"369",80.08423,31.993408
"370",80.08179,32.006775
"371",80.08179,32.02008
"372",80.08423,32.033447
"373",80.08423,32.046753
"374",80.08179,32.06012
"375",80.07446,32.073425
"376",80.059814,32.086792
"377",80.04028,32.100098
"378",80.01343,32.113464
"379",79.9939,32.12677
"380",79.97681,32.140137
"381",79.96216,32.153442
"382",79.95239,32.166748
"383",79.94507,32.180115
"384",79.94751,32.19342
"385",79.957275,32.206787
"386",79.971924,32.220093
"387",79.9939,32.23346
"388",80.01343,32.246765
"389",80.03052,32.26013
"390",80.05249,32.273438
"391",80.08423,32.286804
"392",80.12573,32.30011
"393",80.17212,32.313477
"394",80.218506,32.326782
"395",80.26246,32.34015
"396",80.30152,32.353455
"397",80.34547,32.36682
"398",80.396736,32.380127
"399",80.45289,32.393433
"400",80.50416,32.4068
"401",80.550545,32.420105
"402",80.584724,32.43347
"403",80.601814,32.446777
"404",80.60914,32.460144
"405",80.604256,32.47345
"406",80.59205,32.486816
"407",80.57252,32.500122
"408",80.552986,32.51349
"409",80.533455,32.526794
"410",80.51148,32.54016
"411",80.48463,32.553467
"412",80.45045,32.566833
"413",80.41627,32.58014
"414",80.37965,32.593506
"415",80.34547,32.60681
"416",80.31861,32.620117
"417",80.29908,32.633484
"418",80.28443,32.64679
"419",80.26734,32.660156
"420",80.2478,32.673462
"421",80.22583,32.68683
"422",80.201416,32.700134
"423",80.17456,32.7135
"424",80.15015,32.726807
"425",80.128174,32.740173
"426",80.1062,32.75348
"427",80.079346,32.766846
"428",80.05493,32.78015
"429",80.03052,32.793518
"430",80.008545,32.806824
"431",79.98901,32.82013
"432",79.971924,32.833496
"433",79.954834,32.8468
"434",79.940186,32.86017
"435",79.92798,32.873474
"436",79.91821,32.88684
"437",79.906006,32.900146
"438",79.888916,32.913513
"439",79.869385,32.92682
"440",79.852295,32.940186
"441",79.83276,32.95349
"442",79.815674,32.966858
"443",79.801025,32.980164
"444",79.78638,32.99353
"445",79.76929,33.006836
"446",79.75464,33.02014
"447",79.74731,33.03351
"448",79.75708,33.046814
"449",79.78638,33.06018
"450",79.835205,33.073486
"451",79.8938,33.086853
"452",79.95239,33.10016
"453",79.99878,33.113525
"454",80.03052,33.12683
"455",80.04761,33.140198
"456",80.05005,33.153503
"457",80.045166,33.16687
"458",80.045166,33.180176
"459",80.045166,33.193542
"460",80.05005,33.20685
"461",80.05493,33.220215
"462",80.062256,33.23352
"463",80.0647,33.246826
"464",80.062256,33.260193
"465",80.05005,33.2735
"466",80.03784,33.286865
"467",80.028076,33.30017
"468",80.01831,33.313538
"469",80.01587,33.326843
"470",80.02075,33.34021
"471",80.025635,33.353516
"472",80.025635,33.366882
"473",80.02319,33.380188
"474",80.01099,33.393555
"475",79.98413,33.40686
"476",79.94751,33.420227
"477",79.90112,33.433533
"478",79.85474,33.4469
"479",79.80835,33.460205
"480",79.766846,33.47351
"481",79.73754,33.486877
"482",79.71801,33.500183
"483",79.7058,33.51355
"484",79.69604,33.526855
"485",79.68139,33.540222
"486",79.65209,33.553528
"487",79.605705,33.566895
"488",79.54223,33.5802
"489",79.466545,33.593567
"490",79.3933,33.606873
"491",79.33471,33.62024
"492",79.28832,33.633545
"493",79.259026,33.64691
"494",79.24681,33.660217
"495",79.24925,33.673523
"496",79.27123,33.68689
"497",79.31518,33.700195
"498",79.38842,33.713562
"499",79.483635,33.726868
"500",79.586174,33.740234
"501",79.68627,33.75354
"502",79.76929,33.766907
"503",79.83276,33.780212
"504",79.87671,33.79358
"505",79.90845,33.806885
"506",79.94507,33.82025
"507",79.98413,33.833557
"508",80.0354,33.846924
"509",80.09155,33.86023
"510",80.14526,33.873535
"511",80.181885,33.8869
"512",80.198975,33.900208
"513",80.19653,33.913574
"514",80.18677,33.92688
"515",80.164795,33.940247
"516",80.14038,33.953552
"517",80.12085,33.96692
"518",80.111084,33.980225
"519",80.10132,33.99359
"520",80.093994,34.006897
"521",80.08423,34.020264
"522",80.0647,34.03357
"523",80.0354,34.046936
"524",80.00122,34.06024
"525",79.96704,34.07361
"526",79.937744,34.086914
"527",79.91821,34.10022
"528",79.903564,34.113586
"529",79.8938,34.126892
"530",79.88403,34.14026
"531",79.87671,34.153564
"532",79.8645,34.16693
"533",79.852295,34.180237
"534",79.84009,34.193604
"535",79.83276,34.20691
"536",79.82788,34.220276
"537",79.82788,34.23358
"538",79.83276,34.24695
"539",79.83276,34.260254
"540",79.82544,34.27362
"541",79.81323,34.286926
"542",79.801025,34.300293
"543",79.78882,34.3136
"544",79.781494,34.326904
"545",79.781494,34.34027
"546",79.783936,34.353577
"547",79.7937,34.366943
"548",79.80835,34.38025
"549",79.818115,34.393616
"550",79.82544,34.40692
"551",79.82544,34.420288
"552",79.82056,34.433594
"553",79.81323,34.44696
"554",79.815674,34.460266
"555",79.82056,34.473633
"556",79.82788,34.48694
"557",79.84009,34.500305
"558",79.84741,34.51361
"559",79.84741,34.526917
"560",79.84497,34.540283
"561",79.84009,34.55359
"562",79.835205,34.566956
"563",79.83032,34.58026
"564",79.82788,34.593628
"565",79.83276,34.606934
"566",79.85962,34.6203
"567",79.90112,34.633606
"568",79.954834,34.646973
"569",80.01831,34.66028
"570",80.08423,34.673645
"571",80.14038,34.68695
"572",80.184326,34.700317
"573",80.21362,34.713623
"574",80.233154,34.72693
"575",80.235596,34.740295
"576",80.22095,34.7536
"577",80.19653,34.766968
"578",80.16724,34.780273
"579",80.14282,34.79364
"580",80.12573,34.806946
"581",80.11597,34.820312
"582",80.10376,34.83362
"583",80.096436,34.846985
"584",80.09155,34.86029
"585",80.08911,34.873657
"586",80.09155,34.886963
"587",80.1062,34.90033
"588",80.12085,34.913635
"589",80.128174,34.927002
"590",80.130615,34.940308
"591",80.12573,34.953613
"592",80.113525,34.96698
"593",80.096436,34.980286
"594",80.07446,34.993652
"595",80.05005,35.006958
"596",80.02319,35.020325
"597",79.99878,35.03363
"598",79.97681,35.046997
"599",79.954834,35.060303
"600",79.937744,35.07367
"601",79.91821,35.086975
"602",79.90112,35.10034
"603",79.87915,35.113647
"604",79.85718,35.127014
"605",79.83765,35.14032
"606",79.823,35.153687
"607",79.81323,35.166992
"608",79.815674,35.180298
"609",79.823,35.193665
"610",79.835205,35.20697
"611",79.84741,35.220337
"612",79.85962,35.233643
"613",79.869385,35.24701
"614",79.88159,35.260315
"615",79.89136,35.27368
"616",79.89868,35.286987
"617",79.903564,35.300354
"618",79.91089,35.31366
"619",79.93042,35.327026
"620",79.957275,35.340332
"621",79.9939,35.3537
"622",80.03296,35.367004
"623",80.062256,35.38031
"624",80.07446,35.393677
"625",80.07202,35.406982
"626",80.06958,35.42035
"627",80.076904,35.433655
"628",80.10132,35.44702
"629",80.14038,35.460327
"630",80.18921,35.473694
"631",80.235596,35.487
"632",80.2649,35.500366
"633",80.28199,35.51367
"634",80.29664,35.52704
"635",80.30152,35.540344
"636",80.30152,35.55371
"637",80.29664,35.567017
"638",80.28443,35.580322
"639",80.272224,35.59369
"640",80.255135,35.606995
"641",80.24048,35.62036
"642",80.22827,35.633667
"643",80.216064,35.647034
"644",80.201416,35.66034
"645",80.19165,35.673706
"646",80.181885,35.68701
"647",80.177,35.70038
"648",80.17212,35.713684
"649",80.16235,35.72705
"650",80.147705,35.740356
"651",80.12329,35.753723
"652",80.093994,35.76703
"653",80.06714,35.780396
"654",80.04028,35.7937
"655",80.01587,35.807007
"656",79.99634,35.820374
"657",79.98413,35.83368
"658",79.97681,35.847046
"659",79.974365,35.86035
"660",79.96948,35.87372
"661",79.96704,35.887024
"662",79.9646,35.90039
"663",79.95239,35.913696
"664",79.937744,35.927063
"665",79.920654,35.94037
"666",79.903564,35.953735
"667",79.886475,35.96704
"668",79.869385,35.980408
"669",79.85474,35.993713
"670",79.84009,36.00708
"671",79.82544,36.020386
"672",79.81079,36.03369
"673",79.7937,36.04706
"674",79.77417,36.060364
"675",79.74731,36.07373
"676",79.71313,36.087036
"677",79.674065,36.100403
"678",79.63744,36.11371
"679",79.61059,36.127075
"680",79.60082,36.14038
"681",79.61303,36.153748
"682",79.656975,36.167053
"683",79.72289,36.18042
"684",79.80835,36.193726
"685",79.89868,36.207092
"686",79.98657,36.220398
"687",80.0647,36.233704
"688",80.12329,36.24707
"689",80.16724,36.260376
"690",80.201416,36.273743
"691",80.22583,36.28705
"692",80.24536,36.300415
"693",80.257576,36.31372
"694",80.2649,36.327087
"695",80.26246,36.340393
"696",80.2478,36.35376
"697",80.22339,36.367065
"698",80.18677,36.380432
"699",80.14526,36.393738
"700",80.10132,36.407104
"701",80.05737,36.42041
"702",80.01587,36.433716
"703",79.98169,36.447083
"704",79.954834,36.46039
"705",79.93286,36.473755
"706",79.91089,36.48706
"707",79.88403,36.500427
"708",79.85718,36.513733
"709",79.83276,36.5271
"710",79.815674,36.540405
"711",79.81079,36.553772
"712",79.82056,36.567078
"713",79.83765,36.580444
"714",79.86206,36.59375
"715",79.886475,36.607117
"716",79.903564,36.620422
"717",79.920654,36.63379
"718",79.92798,36.647095
"719",79.93042,36.6604
"720",79.93042,36.673767
"721",79.92798,36.687073
"722",79.92554,36.70044
"723",79.920654,36.713745
"724",79.91089,36.72711
"725",79.90112,36.740417
"726",79.8938,36.753784
"727",79.88159,36.76709
"728",79.87427,36.780457
"729",79.869385,36.793762
"730",79.86206,36.80713
"731",79.84985,36.820435
"732",79.83765,36.8338
"733",79.82788,36.847107
"734",79.82544,36.860474
"735",79.83765,36.87378
"736",79.86694,36.887085
"737",79.91821,36.90045
"738",79.98413,36.913757
"739",80.05493,36.927124
"740",80.11841,36.94043
"741",80.16724,36.953796
"742",80.19409,36.967102
"743",80.19653,36.98047
"744",80.184326,36.993774
"745",80.16235,37.00714
"746",80.14282,37.020447
"747",80.12573,37.033813
"748",80.111084,37.04712
"749",80.093994,37.060486
"750",80.076904,37.07379
"751",80.062256,37.087097
"752",80.045166,37.100464
"753",80.03052,37.11377
"754",80.01343,37.127136
"755",80.00366,37.14044
"756",79.99634,37.15381
"757",79.99634,37.167114
"758",80.00366,37.18048
"759",80.008545,37.193787
"760",80.008545,37.207153
"761",80.00122,37.22046
"762",79.98413,37.233826
"763",79.957275,37.24713
"764",79.93286,37.260498
"765",79.90845,37.273804
"766",79.886475,37.28711
"767",79.86206,37.300476
"768",79.84253,37.31378
"769",79.82056,37.32715
"770",79.798584,37.340454
"771",79.77905,37.35382
"772",79.764404,37.367126
"773",79.7522,37.380493
"774",79.744865,37.3938
"775",79.73998,37.407166
"776",79.7351,37.42047
"777",79.73266,37.433838
"778",79.73022,37.447144
"779",79.73266,37.46051
"780",79.7351,37.473816
"781",79.744865,37.487183
"782",79.75708,37.50049
"783",79.77661,37.513794
"784",79.80591,37.52716
"785",79.84497,37.540466
"786",79.8938,37.553833
"787",79.94995,37.56714
"788",79.99878,37.580505
"789",80.042725,37.59381
"790",80.079346,37.607178
"791",80.10376,37.620483
"792",80.11841,37.63385
"793",80.130615,37.647156
"794",80.13306,37.660522
"795",80.128174,37.67383
"796",80.11841,37.687195
"797",80.09888,37.7005
"798",80.07446,37.713867
"799",80.04761,37.727173
"800",80.02075,37.74048
"801",79.99634,37.753845
"802",79.97681,37.76715
"803",79.96216,37.780518
"804",79.957275,37.793823
"805",79.95972,37.80719
"806",79.974365,37.820496
"807",79.98657,37.833862
"808",80.00122,37.847168
"809",80.01343,37.860535
"810",80.01831,37.87384
"811",80.01587,37.887207
"812",80.01099,37.900513
"813",80.00122,37.91388
"814",79.98901,37.927185
"815",79.971924,37.94049
"816",79.95239,37.953857
"817",79.93286,37.967163
"818",79.91577,37.98053
"819",79.89868,37.993835
"820",79.886475,38.007202
"821",79.87915,38.020508
"822",79.88159,38.033875
"823",79.888916,38.04718
"824",79.89624,38.060547
"825",79.903564,38.073853
"826",79.91089,38.08722
"827",79.91577,38.100525
"828",79.920654,38.11389
"829",79.93042,38.127197
"830",79.94751,38.140503
"831",79.971924,38.15387
"832",80.0061,38.167175
"833",80.04761,38.180542
"834",80.09155,38.193848
"835",80.13794,38.207214
"836",80.17944,38.22052
"837",80.21118,38.233887
"838",80.22583,38.247192
"839",80.22827,38.26056
"840",80.22095,38.273865
"841",80.20874,38.28723
"842",80.198975,38.300537
"843",80.184326,38.313904
"844",80.17212,38.32721
"845",80.15503,38.340576
"846",80.13306,38.35388
"847",80.10864,38.367188
"848",80.08911,38.380554
"849",80.07202,38.39386
"850",80.0647,38.407227
"851",80.062256,38.420532
"852",80.0647,38.4339
"853",80.06958,38.447205
"854",80.07446,38.46057
"855",80.079346,38.473877
"856",80.079346,38.487244
"857",80.07446,38.50055
"858",80.0647,38.513916
"859",80.05005,38.52722
"860",80.0354,38.54059
"861",80.01831,38.553894
"862",80.00122,38.56726
"863",79.98413,38.580566
"864",79.96704,38.593872
"865",79.954834,38.60724
"866",79.940186,38.620544
"867",79.93042,38.63391
"868",79.920654,38.647217
"869",79.91089,38.660583
"870",79.903564,38.67389
"871",79.90112,38.687256
"872",79.903564,38.70056
"873",79.906006,38.71393
"874",79.91089,38.727234
"875",79.91577,38.7406
"876",79.923096,38.753906
"877",79.940186,38.767273
"878",79.971924,38.78058
"879",80.01343,38.793884
"880",80.06714,38.80725
"881",80.12573,38.820557
"882",80.17944,38.833923
"883",80.218506,38.84723
"884",80.2478,38.860596
"885",80.26002,38.8739
"886",80.26734,38.887268
"887",80.26978,38.900574
"888",80.2649,38.91394
"889",80.26002,38.927246
"890",80.25025,38.940613
"891",80.23804,38.95392
"892",80.22095,38.967285
"893",80.198975,38.98059
"894",80.17944,38.993896
"895",80.15503,39.007263
"896",80.130615,39.02057
"897",80.113525,39.033936
"898",80.10132,39.04724
"899",80.096436,39.060608
"900",80.096436,39.073914
"901",80.09888,39.08728
"902",80.096436,39.100586
"903",80.09155,39.113953
"904",80.08423,39.12726
"905",80.07446,39.140625
"906",80.062256,39.15393
"907",80.045166,39.167297
"908",80.025635,39.180603
"909",80.00122,39.19397
"910",79.971924,39.207275
"911",79.94263,39.22058
"912",79.923096,39.233948
"913",79.91089,39.247253
"914",79.906006,39.26062
"915",79.906006,39.273926
"916",79.90845,39.287292
"917",79.906006,39.3006
"918",79.89868,39.313965
"919",79.89136,39.32727
"920",79.886475,39.340637
"921",79.88159,39.353943
"922",79.886475,39.36731
"923",79.903564,39.380615
"924",79.93286,39.393982
"925",79.97681,39.407288
"926",80.03296,39.420654
"927",80.093994,39.43396
"928",80.15503,39.447266
"929",80.21118,39.460632
"930",80.255135,39.473938
"931",80.291756,39.487305
"932",80.31373,39.50061
"933",80.325935,39.513977
"934",80.325935,39.527283
"935",80.31617,39.54065
"936",80.29664,39.553955
"937",80.272224,39.56732
"938",80.25025,39.580627
"939",80.22583,39.593994
"940",80.2063,39.6073
"941",80.18677,39.620667
"942",80.16235,39.633972
"943",80.14038,39.647278
"944",80.12329,39.660645
"945",80.111084,39.67395
"946",80.10376,39.687317
"947",80.1062,39.700623
"948",80.111084,39.71399
"949",80.111084,39.727295
"950",80.10864,39.74066
"951",80.10132,39.753967
"952",80.08423,39.767334
"953",80.062256,39.78064
"954",80.03052,39.794006
"955",79.99634,39.807312
"956",79.957275,39.82068
"957",79.920654,39.833984
"958",79.88403,39.84729
"959",79.85474,39.860657
"960",79.83765,39.873962
"961",79.83032,39.88733
"962",79.83032,39.900635
"963",79.84009,39.914
"964",79.85962,39.927307
"965",79.886475,39.940674
"966",79.91821,39.95398
"967",79.94995,39.967346
"968",79.97925,39.98065
"969",80.0061,39.99402
"970",80.02319,40.007324
"971",80.03784,40.02069
"972",80.04761,40.033997
"973",80.05737,40.047363
"974",80.07446,40.06067
"975",80.10132,40.073975
"976",80.14038,40.08734
"977",80.19165,40.100647
"978",80.2478,40.114014
"979",80.30152,40.12732
"980",80.343025,40.140686
"981",80.37232,40.15399
"982",80.39185,40.16736
"983",80.396736,40.180664
"984",80.39185,40.19403
"985",80.38453,40.207336
"986",80.377205,40.220703
"987",80.365,40.23401
"988",80.35035,40.247375
"989",80.3357,40.26068
"990",80.31617,40.274048
"991",80.291756,40.287354
"992",80.26978,40.30066
"993",80.24292,40.314026
"994",80.218506,40.32733
"995",80.19653,40.3407
"996",80.17944,40.354004
"997",80.16235,40.36737
"998",80.15503,40.380676
"999",80.15259,40.394043
"1000",80.15259,40.40735
"1001",80.15747,40.420715
"1002",80.15991,40.43402
"1003",80.15259,40.447388
"1004",80.1355,40.460693
"1005",80.10864,40.47406
"1006",80.07202,40.487366
"1007",80.0354,40.50067
"1008",80.008545,40.514038
"1009",79.98657,40.527344
"1010",79.96948,40.54071
"1011",79.95239,40.554016
"1012",79.940186,40.567383
"1013",79.92554,40.58069
"1014",79.91333,40.594055
"1015",79.903564,40.60736
"1016",79.89868,40.620728
"1017",79.8938,40.634033
"1018",79.89136,40.6474
"1019",79.88159,40.660706
"1020",79.871826,40.674072
"1021",79.85962,40.687378
"1022",79.84985,40.700684
"1023",79.84009,40.71405
"1024",79.835205,40.727356
"1025",79.83032,40.740723
"1026",79.82056,40.75403
"1027",79.81079,40.767395
"1028",79.80591,40.7807
"1029",79.798584,40.794067
"1030",79.801025,40.807373
"1031",79.80591,40.82074
"1032",79.815674,40.834045
"1033",79.82788,40.847412
"1034",79.852295,40.860718
"1035",79.88403,40.874084
"1036",79.93042,40.88739
"1037",79.98169,40.900757
"1038",80.025635,40.914062
"1039",80.059814,40.92737
"1040",80.07446,40.940735
"1041",80.07446,40.95404
"1042",80.06714,40.967407
"1043",80.062256,40.980713
"1044",80.059814,40.99408
"1045",80.059814,41.007385
"1046",80.05737,41.020752
"1047",80.05493,41.034058
"1048",80.04761,41.047424
"1049",80.03784,41.06073
"1050",80.02319,41.074097
"1051",80.008545,41.087402
"1052",79.98901,41.10077
"1053",79.96948,41.114075
"1054",79.954834,41.12744
"1055",79.94751,41.140747
"1056",79.94507,41.154053
"1057",79.94507,41.16742
"1058",79.94507,41.180725
"1059",79.937744,41.19409
"1060",79.92798,41.207397
"1061",79.91333,41.220764
"1062",79.903564,41.23407
"1063",79.8938,41.247437
"1064",79.888916,41.260742
"1065",79.888916,41.27411
"1066",79.888916,41.287415
"1067",79.886475,41.30078
"1068",79.886475,41.314087
"1069",79.87915,41.327454
"1070",79.87427,41.34076
"1071",79.86694,41.354065
"1072",79.8645,41.36743
"1073",79.86206,41.380737
"1074",79.86206,41.394104
"1075",79.85962,41.40741
"1076",79.86206,41.420776
"1077",79.8645,41.434082
"1078",79.86694,41.44745
"1079",79.869385,41.460754
"1080",79.871826,41.47412
"1081",79.871826,41.487427
"1082",79.871826,41.500793
"1083",79.87915,41.5141
"1084",79.888916,41.527466
"1085",79.89868,41.54077
"1086",79.903564,41.554077
"1087",79.90112,41.567444
"1088",79.89136,41.58075
"1089",79.87427,41.594116
"1090",79.85718,41.60742
"1091",79.84253,41.62079
"1092",79.83276,41.634094
"1093",79.83276,41.64746
"1094",79.84253,41.660767
"1095",79.869385,41.674133
"1096",79.91333,41.68744
"1097",79.971924,41.700806
"1098",80.04028,41.71411
"1099",80.111084,41.727478
"1100",80.17212,41.740784
"1101",80.257576,41.767456
"1102",80.27711,41.78076
"1103",80.28443,41.79413
"1104",80.28687,41.807434
"1105",80.28199,41.8208
"1106",80.272224,41.834106
"1107",80.26002,41.847473
"1108",80.24292,41.86078
"1109",80.22583,41.874146
"1110",80.20874,41.88745
"1111",80.19653,41.900818
"1112",80.18921,41.914124
"1113",80.18677,41.92749
"1114",80.181885,41.940796
"1115",80.17944,41.954163
"1116",80.17456,41.96747
"1117",80.16235,41.980835
"1118",80.14526,41.99414
"1119",80.12329,42.007446
"1120",80.096436,42.020813
"1121",80.06958,42.03412
"1122",80.03784,42.047485
"1123",80.00366,42.06079
"1124",79.96948,42.074158
"1125",79.937744,42.087463
"1126",79.906006,42.10083
"1127",79.87671,42.114136
"1128",79.84985,42.127502
"1129",79.83032,42.14081
"1130",79.815674,42.154175
"1131",79.80591,42.16748
"1132",79.79614,42.180847
"1133",79.7937,42.194153
"1134",79.79126,42.20746
"1135",79.78638,42.220825
"1136",79.78638,42.23413
"1137",79.78882,42.247498
"1138",79.78638,42.260803
"1139",79.783936,42.27417
"1140",79.77905,42.287476
"1141",79.76929,42.300842
"1142",79.76196,42.314148
"1143",79.75464,42.327515
"1144",79.74975,42.34082
"1145",79.744865,42.354187
"1146",79.73998,42.367493
"1147",79.7351,42.38086
"1148",79.727776,42.394165
"1149",79.72289,42.40747
"1150",79.71557,42.420837
"1151",79.710686,42.434143
"1152",79.70336,42.44751
"1153",79.70336,42.460815
"1154",79.71313,42.474182
"1155",79.7351,42.487488
"1156",79.76929,42.500854
"1157",79.815674,42.51416
"1158",79.869385,42.527527
"1159",79.92554,42.540833
"1160",79.97681,42.5542
"1161",80.01831,42.567505
"1162",80.05005,42.58087
"1163",80.0647,42.594177
"1164",80.07202,42.607544
"1165",80.06958,42.62085
"1166",80.0647,42.634155
"1167",80.05493,42.647522
"1168",80.042725,42.660828
"1169",80.03052,42.674194
"1170",80.01343,42.6875
"1171",79.9939,42.700867
"1172",79.974365,42.714172
"1173",79.957275,42.72754
"1174",79.94751,42.740845
"1175",79.94507,42.75421
"1176",79.94507,42.767517
"1177",79.95239,42.780884
"1178",79.95972,42.79419
"1179",79.957275,42.807556
"1180",79.94751,42.82086
"1181",79.92554,42.83423
"1182",79.90112,42.847534
"1183",79.87671,42.86084
"1184",79.84985,42.874207
"1185",79.82788,42.887512
"1186",79.81079,42.90088
"1187",79.798584,42.914185
"1188",79.78882,42.92755
"1189",79.78638,42.940857
"1190",79.79126,42.954224
"1191",79.80347,42.96753
"1192",79.82544,42.980896
"1193",79.84741,42.9942
"1194",79.869385,43.00757
"1195",79.886475,43.020874
"1196",79.89624,43.03424
"1197",79.903564,43.047546
"1198",79.90112,43.060852
"1199",79.89868,43.07422
"1200",79.89624,43.087524
"1201",79.89624,43.10089
"1202",79.89624,43.114197
"1203",79.90112,43.127563
"1204",79.906006,43.14087
"1205",79.90112,43.154236
"1206",79.89136,43.16754
"1207",79.87427,43.18091
"1208",79.86206,43.194214
"1209",79.85962,43.20758
"1210",79.87671,43.220886
"1211",79.90845,43.234253
"1212",79.957275,43.24756
"1213",80.01099,43.260864
"1214",80.062256,43.27423
"1215",80.10376,43.287537
"1216",80.130615,43.300903
"1217",80.1355,43.31421
"1218",80.12329,43.327576
"1219",80.096436,43.34088
"1220",80.05493,43.354248
"1221",80.01343,43.367554
"1222",79.974365,43.38092
"1223",79.94263,43.394226
"1224",79.920654,43.407593
"1225",79.906006,43.4209
"1226",79.90112,43.434265
"1227",79.903564,43.44757
"1228",79.91577,43.460938
"1229",79.9353,43.474243
"1230",79.95972,43.48755
"1231",79.98657,43.500916
"1232",80.01343,43.51422
"1233",80.03784,43.527588
"1234",80.05493,43.540894
"1235",80.07202,43.55426
"1236",80.08423,43.567566
"1237",80.09155,43.580933
"1238",80.09155,43.59424
"1239",80.09155,43.607605
"1240",80.079346,43.62091
"1241",80.05493,43.634277
"1242",80.02075,43.647583
"1243",79.98169,43.66095
"1244",79.9353,43.674255
"1245",79.89624,43.687622
"1246",79.8645,43.700928
"1247",79.84009,43.714233
"1248",79.818115,43.7276
"1249",79.80591,43.740906
"1250",79.801025,43.754272
"1251",79.79614,43.76758
"1252",79.79126,43.780945
"1253",79.79126,43.79425
"1254",79.78638,43.807617
"1255",79.781494,43.820923
"1256",79.77417,43.83429
"1257",79.76929,43.847595
"1258",79.76929,43.860962
"1259",79.781494,43.874268
"1260",79.81323,43.887634
"1261",79.86694,43.90094
"1262",79.94263,43.914246
"1263",80.028076,43.927612
"1264",80.11841,43.940918
"1265",80.19409,43.954285
"1266",80.2478,43.96759
"1267",80.27711,43.980957
"1268",80.28199,43.994263
"1269",80.26734,44.00763
"1270",80.23804,44.020935
"1271",80.20386,44.0343
"1272",80.17456,44.047607
"1273",80.15015,44.060974
"1274",80.13794,44.07428
"1275",80.13794,44.087646
"1276",80.14282,44.100952
"1277",80.15015,44.114258
"1278",80.15259,44.127625
"1279",80.15015,44.14093
"1280",80.147705,44.154297
"1281",80.14526,44.167603
"1282",80.15015,44.18097
"1283",80.15747,44.194275
"1284",80.17212,44.20764
"1285",80.18921,44.220947
"1286",80.20874,44.234314
"1287",80.216064,44.24762
"1288",80.218506,44.260986
"1289",80.21118,44.274292
"1290",80.19409,44.28766
"1291",80.177,44.300964
"1292",80.15503,44.31433
"1293",80.1355,44.327637
"1294",80.11841,44.340942
"1295",80.09888,44.35431
"1296",80.08179,44.367615
"1297",80.0647,44.38098
"1298",80.05005,44.394287
"1299",80.03296,44.407654
"1300",80.02075,44.42096
"1301",80.01099,44.434326
"1302",80.00366,44.44763
"1303",80.00122,44.461
"1304",80.00122,44.474304
"1305",79.9939,44.48767
"1306",79.97681,44.500977
"1307",79.954834,44.514343
"1308",79.92798,44.52765
"1309",79.906006,44.541016
"1310",79.8938,44.55432
"1311",79.8938,44.567627
"1312",79.903564,44.580994
"1313",79.923096,44.5943
"1314",79.957275,44.607666
"1315",80.00366,44.62097
"1316",80.05737,44.63434
"1317",80.113525,44.647644
"1318",80.16968,44.66101
"1319",80.21362,44.674316
"1320",80.2478,44.687683
"1321",80.26978,44.70099
"1322",80.28199,44.714355
"1323",80.289314,44.72766
"1324",80.291756,44.741028
"1325",80.28687,44.754333
"1326",80.27955,44.76764
"1327",80.274666,44.781006
"1328",80.2649,44.79431
"1329",80.257576,44.80768
"1330",80.2478,44.820984
"1331",80.22583,44.83435
"1332",80.19409,44.847656
"1333",80.15503,44.861023
"1334",80.111084,44.87433
"1335",80.06958,44.887695
"1336",80.03296,44.901
"1337",80.00122,44.914368
"1338",79.97925,44.927673
"1339",79.95972,44.94104
"1340",79.937744,44.954346
"1341",79.91577,44.96765
"1342",79.8938,44.981018
"1343",79.869385,44.994324
"1344",79.852295,45.00769
"1345",79.83765,45.020996
"1346",79.83276,45.034363
"1347",79.84009,45.04767
"1348",79.86206,45.061035
"1349",79.89136,45.07434
"1350",79.92554,45.087708
"1351",79.95972,45.101013
"1352",79.98901,45.11438
"1353",80.008545,45.127686
"1354",80.02319,45.141052
"1355",80.03052,45.154358
"1356",80.04028,45.167725
"1357",80.045166,45.18103
"1358",80.042725,45.194336
"1359",80.0354,45.207703
"1360",80.028076,45.22101
"1361",80.01587,45.234375
"1362",79.99878,45.24768
"1363",79.98169,45.261047
"1364",79.9646,45.274353
"1365",79.94995,45.28772
"1366",79.95239,45.301025
"1367",79.97681,45.314392
"1368",80.03052,45.327698
"1369",80.09888,45.341064
"1370",80.177,45.35437
"1371",80.24536,45.367737
"1372",80.29664,45.381042
"1373",80.325935,45.39441
"1374",80.34058,45.407715
"1375",80.3357,45.42102
"1376",80.32105,45.434387
"1377",80.2942,45.447693
"1378",80.26002,45.46106
"1379",80.218506,45.474365
"1380",80.17456,45.487732
"1381",80.1355,45.501038
"1382",80.10376,45.514404
"1383",80.079346,45.52771
"1384",80.0647,45.541077
"1385",80.05737,45.554382
"1386",80.05493,45.56775
"1387",80.05005,45.581055
"1388",80.05005,45.59442
"1389",80.05005,45.607727
"1390",80.05005,45.621033
"1391",80.05005,45.6344
"1392",80.045166,45.647705
"1393",80.0354,45.66107
"1394",80.01343,45.674377
"1395",79.98413,45.687744
"1396",79.94751,45.70105
"1397",79.90845,45.714417
"1398",79.869385,45.727722
"1399",79.835205,45.74109
"1400",79.80835,45.754395
"1401",79.78638,45.76776
"1402",79.76929,45.781067
"1403",79.7522,45.794434
"1404",79.73754,45.80774
"1405",79.725334,45.821045
"1406",79.72045,45.83441
"1407",79.72045,45.847717
"1408",79.72289,45.861084
"1409",79.73022,45.87439
"1410",79.73266,45.887756
"1411",79.73754,45.901062
"1412",79.73998,45.91443
"1413",79.73998,45.927734
"1414",79.73754,45.9411
"1415",79.73022,45.954407
"1416",79.71801,45.967773
"1417",79.708244,45.98108
"1418",79.70092,45.994446
"1419",79.70092,46.00775
"1420",79.708244,46.02112
"1421",79.73022,46.034424
"1422",79.766846,46.04773
"1423",79.81079,46.061096
"1424",79.85962,46.0744
"1425",79.91089,46.08777
"1426",79.957275,46.101074
"1427",79.9939,46.11444
"1428",80.02319,46.127747
"1429",80.0354,46.141113
"1430",80.03784,46.15442
"1431",80.028076,46.167786
"1432",80.01343,46.18109
"1433",79.9939,46.194458
"1434",79.971924,46.207764
"1435",79.94751,46.22113
"1436",79.92798,46.234436
"1437",79.906006,46.247803
"1438",79.886475,46.26111
"1439",79.871826,46.274414
"1440",79.871826,46.28778
"1441",79.87915,46.301086
"1442",79.89136,46.314453
"1443",79.91333,46.32776
"1444",79.9353,46.341125
"1445",79.94995,46.35443
"1446",79.957275,46.367798
"1447",79.95972,46.381104
"1448",79.95239,46.39447
"1449",79.940186,46.407776
"1450",79.923096,46.42108
"1451",79.89868,46.43445
"1452",79.871826,46.447754
"1453",79.84741,46.46112
"1454",79.82544,46.474426
"1455",79.80591,46.487793
"1456",79.78638,46.5011
"1457",79.76929,46.514404
"1458",79.7522,46.52777
"1459",79.73754,46.541077
"1460",79.73022,46.554443
"1461",79.727776,46.56775
"1462",79.73022,46.581116
"1463",79.7351,46.59442
"1464",79.73754,46.607788
"1465",79.742424,46.621094
"1466",79.74731,46.6344
"1467",79.7522,46.647766
"1468",79.75708,46.66107
"1469",79.75952,46.67444
"1470",79.76196,46.687744
"1471",79.76929,46.70111
"1472",79.783936,46.714417
"1473",79.815674,46.727783
"1474",79.86206,46.74109
"1475",79.91333,46.754395
"1476",79.96948,46.76776
"1477",80.01831,46.781067
"1478",80.05249,46.794434
"1479",80.06958,46.80774
"1480",80.076904,46.821106
"1481",80.06958,46.83441
"1482",80.05493,46.847717
"1483",80.0354,46.861084
"1484",80.01587,46.87439
"1485",79.991455,46.887756
"1486",79.96948,46.901062
"1487",79.94995,46.91443
"1488",79.9353,46.927734
"1489",79.923096,46.94104
"1490",79.91577,46.954407
"1491",79.91333,46.967712
"1492",79.91577,46.98108
"1493",79.92554,46.994385
"1494",79.940186,47.00775
"1495",79.957275,47.021057
"1496",79.974365,47.034424
"1497",79.991455,47.04773
"1498",79.99634,47.061035
"1499",79.99634,47.0744
"1500",79.991455,47.087708
"1501",79.98169,47.101074
"1502",79.96948,47.11438
"1503",79.96216,47.127747
"1504",79.95239,47.141052
"1505",79.94751,47.15442
"1506",79.940186,47.167725
"1507",79.937744,47.18103
"1508",79.93286,47.194397
"1509",79.92798,47.207703
"1510",79.920654,47.22107
"1511",79.91089,47.234375
"1512",79.90112,47.24774
"1513",79.89624,47.261047
"1514",79.89624,47.274353
"1515",79.90112,47.28772
"1516",79.906006,47.301025
"1517",79.91333,47.314392
"1518",79.92554,47.327698
"1519",79.94263,47.341064
"1520",79.971924,47.35437
"1521",80.01587,47.367676
"1522",80.06958,47.381042
"1523",80.128174,47.39435
"1524",80.18677,47.407715
"1525",80.235596,47.42102
"1526",80.272224,47.434387
"1527",80.29664,47.447693
"1528",80.30396,47.46106
"1529",80.29664,47.474365
"1530",80.27711,47.48767
"1531",80.255135,47.501038
"1532",80.233154,47.514343
"1533",80.216064,47.52771
"1534",80.20386,47.541016
"1535",80.19165,47.554382
"1536",80.181885,47.567688
"1537",80.17212,47.581055
"1538",80.16724,47.59436
"1539",80.16968,47.607666
"1540",80.17456,47.621033
"1541",80.177,47.63434
"1542",80.17944,47.647705
"1543",80.17944,47.66101
"1544",80.177,47.674377
"1545",80.16968,47.687683
"1546",80.16235,47.70099
"1547",80.15015,47.714355
"1548",80.1355,47.72766
"1549",80.11597,47.741028
"1550",80.09888,47.754333
"1551",80.08179,47.7677
"1552",80.0647,47.781006
"1553",80.04761,47.79431
"1554",80.0354,47.80768
"1555",80.025635,47.820984
"1556",80.01587,47.83435
"1557",80.01587,47.847656
"1558",80.01831,47.861023
"1559",80.01831,47.87433
"1560",80.01343,47.887695
"1561",80.00366,47.901
"1562",79.98901,47.914307
"1563",79.971924,47.927673
"1564",79.96216,47.94098
"1565",79.96216,47.954346
"1566",79.974365,47.96765
"1567",79.99878,47.981018
"1568",80.03784,47.994324
"1569",80.08911,48.00769
"1570",80.14282,48.020996
"1571",80.201416,48.0343
"1572",80.2478,48.04767
"1573",80.28199,48.060974
"1574",80.29664,48.07434
"1575",80.29664,48.087646
"1576",80.289314,48.101013
"1577",80.272224,48.11432
"1578",80.25269,48.127625
"1579",80.235596,48.14099
"1580",80.22095,48.154297
"1581",80.20386,48.167664
"1582",80.18921,48.18097
"1583",80.17456,48.194336
"1584",80.164795,48.20764
"1585",80.15991,48.220947
"1586",80.16235,48.234314
"1587",80.17212,48.24762
"1588",80.19409,48.260986
"1589",80.22583,48.274292
"1590",80.26246,48.28766
"1591",80.2942,48.300964
"1592",80.31861,48.31433
"1593",80.32838,48.327637
"1594",80.31617,48.340942
"1595",80.28199,48.35431
"1596",80.24048,48.367615
"1597",80.198975,48.38098
"1598",80.16235,48.394287
"1599",80.128174,48.407654
"1600",80.1062,48.42096
"1601",80.08179,48.434326
"1602",80.05493,48.44763
"1603",80.028076,48.460938
"1604",80.00366,48.474304
"1605",79.991455,48.48761
"1606",79.991455,48.500977
"1607",79.99878,48.514282
"1608",80.01343,48.52765
"1609",80.03052,48.540955
"1610",80.042725,48.55426
"1611",80.05005,48.567627
"1612",80.06714,48.580933
"1613",80.08667,48.5943
"1614",80.11597,48.607605
"1615",80.15259,48.62097
"1616",80.201416,48.634277
"1617",80.25269,48.647583
"1618",80.30152,48.66095
"1619",80.35035,48.674255
"1620",80.396736,48.687622
"1621",80.4358,48.700928
"1622",80.46754,48.714294
"1623",80.482185,48.7276
"1624",80.479744,48.740967
"1625",80.46021,48.754272
"1626",80.42359,48.76758
"1627",80.37476,48.780945
"1628",80.323494,48.79425
"1629",80.274666,48.807617
"1630",80.22827,48.820923
"1631",80.18921,48.83429
"1632",80.15991,48.847595
"1633",80.13306,48.860962
"1634",80.111084,48.874268
"1635",80.09155,48.887573
"1636",80.079346,48.90094
"1637",80.07202,48.914246
"1638",80.06958,48.927612
"1639",80.06958,48.940918
"1640",80.07202,48.954285
"1641",80.07446,48.96759
"1642",80.07446,48.980896
"1643",80.06958,48.994263
"1644",80.0647,49.00757
"1645",80.059814,49.020935
"1646",80.05249,49.03424
"1647",80.03784,49.047607
"1648",80.02075,49.060913
"1649",80.00366,49.07422
"1650",79.98169,49.087585
"1651",79.954834,49.10089
"1652",79.92798,49.114258
"1653",79.90112,49.127563
"1654",79.87671,49.14093
"1655",79.86206,49.154236
"1656",79.84985,49.167603
"1657",79.84497,49.18091
"1658",79.84009,49.194214
"1659",79.83032,49.20758
"1660",79.815674,49.220886
"1661",79.79614,49.234253
"1662",79.77905,49.24756
"1663",79.76929,49.260925
"1664",79.77417,49.27423
"1665",79.79126,49.287598
"1666",79.823,49.300903
"1667",79.86694,49.31421
"1668",79.91821,49.327576
"1669",79.9646,49.34088
"1670",80.00366,49.354248
"1671",80.0354,49.367554
"1672",80.05249,49.38092
"1673",80.05493,49.394226
"1674",80.05005,49.40753
"1675",80.045166,49.4209
"1676",80.03052,49.434204
"1677",80.01343,49.44757
"1678",79.9939,49.460876
"1679",79.974365,49.474243
"1680",79.954834,49.48755
"1681",79.937744,49.500854
"1682",79.91821,49.51422
"1683",79.903564,49.527527
"1684",79.888916,49.540894
"1685",79.871826,49.5542
"1686",79.86206,49.567566
"1687",79.85962,49.58087
"1688",79.85474,49.59424
"1689",79.85474,49.607544
"1690",79.84985,49.62085
"1691",79.84009,49.634216
"1692",79.823,49.647522
"1693",79.80591,49.66089
"1694",79.7937,49.674194
"1695",79.783936,49.68756
"1696",79.77905,49.700867
"1697",79.77661,49.714233
"1698",79.77173,49.72754
"1699",79.764404,49.740845
"1700",79.75708,49.75421
"1701",79.74975,49.767517
"1702",79.74731,49.780884
"1703",79.75464,49.79419
"1704",79.77173,49.807556
"1705",79.79614,49.82086
"1706",79.82788,49.834167
"1707",79.86206,49.847534
"1708",79.89624,49.86084
"1709",79.923096,49.874207
"1710",79.94507,49.887512
"1711",79.96216,49.90088
"1712",79.971924,49.914185
"1713",79.974365,49.92749
"1714",79.96704,49.940857
"1715",79.954834,49.954163
"1716",79.94507,49.96753
"1717",79.937744,49.980835
"1718",79.94507,49.9942
"1719",79.9646,50.007507
"1720",79.99878,50.020874
"1721",80.03784,50.03418
"1722",80.076904,50.047485
"1723",80.111084,50.060852
"1724",80.1355,50.074158
"1725",80.14526,50.087524
"1726",80.14282,50.10083
"1727",80.130615,50.114197
"1728",80.113525,50.127502
"1729",80.09155,50.14087
"1730",80.07446,50.154175
"1731",80.062256,50.16748
"1732",80.05249,50.180847
"1733",80.045166,50.194153
"1734",80.03296,50.20752
"1735",80.02075,50.220825
"1736",80.0061,50.23419
"1737",79.99878,50.247498
"1738",79.99634,50.260803
"1739",79.99634,50.27417
"1740",79.99634,50.287476
"1741",79.99634,50.300842
"1742",79.9939,50.314148
"1743",79.98413,50.327515
"1744",79.974365,50.34082
"1745",79.9646,50.354126
"1746",79.954834,50.367493
"1747",79.94507,50.3808
"1748",79.93286,50.394165
"1749",79.91821,50.40747
"1750",79.89868,50.420837
"1751",79.87427,50.434143
"1752",79.85474,50.44751
"1753",79.84009,50.460815
"1754",79.835205,50.47412
"1755",79.83276,50.487488
"1756",79.83276,50.500793
"1757",79.83276,50.51416
"1758",79.83276,50.527466
"1759",79.83276,50.540833
"1760",79.83276,50.55414
"1761",79.835205,50.567505
"1762",79.835205,50.58081
"1763",79.83276,50.594116
"1764",79.835205,50.607483
"1765",79.83765,50.62079
"1766",79.84497,50.634155
"1767",79.86206,50.64746
"1768",79.8938,50.660828
"1769",79.937744,50.674133
"1770",79.991455,50.68744
"1771",80.045166,50.700806
"1772",80.096436,50.71411
"1773",80.1355,50.727478
"1774",80.16235,50.740784
"1775",80.17456,50.75415
"1776",80.177,50.767456
"1777",80.16724,50.78076
"1778",80.15015,50.79413
"1779",80.13306,50.807434
"1780",80.11597,50.8208
"1781",80.1062,50.834106
"1782",80.096436,50.847473
"1783",80.08911,50.86078
"1784",80.079346,50.874146
"1785",80.06958,50.88745
"1786",80.059814,50.900757
"1787",80.05493,50.914124
"1788",80.05737,50.92743
"1789",80.062256,50.940796
"1790",80.06958,50.9541
"1791",80.076904,50.96747
"1792",80.08179,50.980774
"1793",80.08179,50.99414
"1794",80.07446,51.007446
"1795",80.059814,51.020752
"1796",80.042725,51.03412
"1797",80.025635,51.047424
"1798",80.0061,51.06079
"1799",79.98901,51.074097
"1800",79.971924,51.087463
"1801",79.954834,51.10077
"1802",79.9353,51.114075
"1803",79.91821,51.12744
"1804",79.906006,51.140747
"1805",79.90112,51.154114
"1806",79.903564,51.16742
"1807",79.906006,51.180786
"1808",79.90845,51.19409
"1809",79.91089,51.207397
"1810",79.91089,51.220764
"1811",79.91333,51.23407
"1812",79.91333,51.247437
"1813",79.91577,51.260742
"1814",79.91821,51.27411
"1815",79.920654,51.287415
"1816",79.920654,51.30078
"1817",79.920654,51.314087
"1818",79.920654,51.327393
"1819",79.92554,51.34076
"1820",79.94263,51.354065
"1821",79.97925,51.36743
"1822",80.025635,51.380737
"1823",80.08423,51.394104
"1824",80.14526,51.40741
"1825",80.201416,51.420776
"1826",80.24536,51.434082
"1827",80.28199,51.447388
"1828",80.308846,51.460754
"1829",80.32838,51.47406
"1830",80.3357,51.487427
"1831",80.33326,51.500732
"1832",80.323494,51.5141
"1833",80.306404,51.527405
"1834",80.291756,51.54071
"1835",80.274666,51.554077
"1836",80.26002,51.567383
"1837",80.2478,51.58075
"1838",80.233154,51.594055
"1839",80.216064,51.60742
"1840",80.201416,51.620728
"1841",80.18677,51.634033
"1842",80.177,51.6474
"1843",80.16724,51.660706
"1844",80.15747,51.674072
"1845",80.147705,51.687378
"1846",80.1355,51.700745
"1847",80.12085,51.71405
"1848",80.10864,51.727417
"1849",80.093994,51.740723
"1850",80.076904,51.75403
"1851",80.05737,51.767395
"1852",80.03784,51.7807
"1853",80.02075,51.794067
"1854",80.00122,51.807373
"1855",79.98657,51.82074
"1856",79.97925,51.834045
"1857",79.96948,51.847412
"1858",79.954834,51.860718
"1859",79.937744,51.874023
"1860",79.91821,51.88739
"1861",79.89624,51.900696
"1862",79.87427,51.914062
"1863",79.85718,51.92737
"1864",79.84009,51.940735
"1865",79.82788,51.95404
"1866",79.818115,51.967346
"1867",79.80347,51.980713
"1868",79.79126,51.99402
"1869",79.781494,52.007385
"1870",79.77661,52.02069
"1871",79.77173,52.034058
"1872",79.76929,52.047363
"1873",79.76929,52.06067
"1874",79.766846,52.074036
"1875",79.75952,52.08734
"1876",79.74731,52.100708
"1877",79.73266,52.114014
"1878",79.72289,52.12738
"1879",79.72289,52.140686
"1880",79.7351,52.154053
"1881",79.76196,52.16736
"1882",79.80347,52.180664
"1883",79.852295,52.19403
"1884",79.903564,52.207336
"1885",79.94995,52.220703
"1886",79.98169,52.23401
"1887",80.00366,52.247375
"1888",80.01099,52.26068
"1889",80.0061,52.274048
"1890",79.99878,52.287354
"1891",79.9939,52.30066
"1892",79.991455,52.314026
"1893",79.98657,52.32733
"1894",79.98169,52.3407
"1895",79.97681,52.354004
"1896",79.9646,52.36737
"1897",79.94507,52.380676
"1898",79.92554,52.393982
"1899",79.903564,52.40735
"1900",79.88159,52.420654
"1901",79.86694,52.43402
"1902",79.85962,52.447327
"1903",79.85474,52.460693
"1904",79.852295,52.474
"1905",79.84497,52.487305
"1906",79.83032,52.50067
"1907",79.81079,52.513977
"1908",79.7937,52.527344
"1909",79.77661,52.54065
"1910",79.766846,52.554016
"1911",79.75708,52.56732
"1912",79.742424,52.58069
"1913",79.725334,52.593994
"1914",79.70336,52.6073
"1915",79.68383,52.620667
"1916",79.66918,52.633972
"1917",79.66186,52.64734
"1918",79.65942,52.660645
"1919",79.6643,52.67401
"1920",79.66674,52.687317
"1921",79.66918,52.700684
"1922",79.67162,52.71399
"1923",79.67162,52.727295
"1924",79.66918,52.74066
"1925",79.6643,52.753967
"1926",79.66186,52.767334
"1927",79.65942,52.78064
"1928",79.65942,52.794006
"1929",79.66918,52.807312
"1930",79.68139,52.820618
"1931",79.691154,52.833984
"1932",79.69848,52.84729
"1933",79.70336,52.860657
"1934",79.70336,52.873962
"1935",79.69848,52.88733
"1936",79.69848,52.900635
"1937",79.70336,52.91394
"1938",79.72045,52.927307
"1939",79.7522,52.940613
"1940",79.80591,52.95398
"1941",79.871826,52.967285
"1942",79.95239,52.98065
"1943",80.03052,52.993958
"1944",80.09888,53.007324
"1945",80.147705,53.02063
"1946",80.17944,53.033936
"1947",80.19653,53.047302
"1948",80.20874,53.060608
"1949",80.216064,53.073975
"1950",80.22339,53.08728
"1951",80.22827,53.100647
"1952",80.22583,53.113953
"1953",80.22095,53.12732
"1954",80.216064,53.140625
"1955",80.21118,53.15393
"1956",80.21118,53.167297
"1957",80.20874,53.180603
"1958",80.20386,53.19397
"1959",80.201416,53.207275
"1960",80.198975,53.220642
"1961",80.198975,53.233948
"1962",80.20386,53.247253
"1963",80.2063,53.26062
"1964",80.20874,53.273926
"1965",80.20386,53.287292
"1966",80.19409,53.3006
"1967",80.181885,53.313965
"1968",80.164795,53.32727
"1969",80.14038,53.340576
"1970",80.11841,53.353943
"1971",80.09155,53.36725
"1972",80.06714,53.380615
"1973",80.04761,53.39392
"1974",80.028076,53.407288
"1975",80.01099,53.420593
"1976",79.99634,53.43396
"1977",79.98413,53.447266
"1978",79.974365,53.46057
"1979",79.971924,53.473938
"1980",79.97681,53.487244
"1981",79.97925,53.50061
"1982",79.97681,53.513916
"1983",79.96948,53.527283
"1984",79.954834,53.54059
"1985",79.94263,53.553955
"1986",79.93042,53.56726
"1987",79.92798,53.580566
"1988",79.93042,53.593933
"1989",79.9353,53.60724
"1990",79.940186,53.620605
"1991",79.94751,53.63391
"1992",79.95972,53.647278
"1993",79.98901,53.660583
"1994",80.0354,53.67389
"1995",80.093994,53.687256
"1996",80.15503,53.70056
"1997",80.21362,53.71393
"1998",80.26246,53.727234
"1999",80.289314,53.7406
"2000",80.30396,53.753906
"2001",80.30152,53.767212
"2002",80.28687,53.78058
"2003",80.26734,53.793884
"2004",80.24536,53.80725
"2005",80.22339,53.820557
"2006",80.2063,53.833923
"2007",80.19653,53.84723
"2008",80.18921,53.860596
"2009",80.181885,53.8739
"2010",80.177,53.887207
"2011",80.17212,53.900574
"2012",80.15991,53.91388
"2013",80.15015,53.927246
"2014",80.14282,53.94055
"2015",80.14282,53.95392
"2016",80.14038,53.967224
"2017",80.13794,53.98059
"2018",80.1355,53.993896
"2019",80.128174,54.007202
"2020",80.12085,54.02057
"2021",80.1062,54.033875
"2022",80.09155,54.04724
"2023",80.07202,54.060547
"2024",80.05249,54.073914
"2025",80.028076,54.08722
"2026",80.0061,54.100525
"2027",79.98657,54.11389
"2028",79.974365,54.127197
"2029",79.96704,54.140564
"2030",79.96704,54.15387
"2031",79.96704,54.167236
"2032",79.96704,54.180542
"2033",79.9646,54.193848
"2034",79.957275,54.207214
"2035",79.95239,54.22052
"2036",79.94507,54.233887
"2037",79.94263,54.247192
"2038",79.94263,54.26056
"2039",79.94507,54.273865
"2040",79.94751,54.28723
"2041",79.954834,54.300537
"2042",79.96216,54.313843
"2043",79.96704,54.32721
"2044",79.971924,54.340515
"2045",79.98169,54.35388
"2046",79.991455,54.367188
"2047",80.01099,54.380554
"2048",80.042725,54.39386
"2049",80.08667,54.407227
"2050",80.13794,54.420532
"2051",80.19653,54.433838
"2052",80.2478,54.447205
"2053",80.291756,54.46051
"2054",80.31617,54.473877
"2055",80.325935,54.487183
"2056",80.325935,54.50055
"2057",80.31617,54.513855
"2058",80.30152,54.52716
"2059",80.28443,54.540527
"2060",80.2649,54.553833
"2061",80.24536,54.5672
"2062",80.22827,54.580505
"2063",80.20874,54.593872
"2064",80.18921,54.607178
"2065",80.177,54.620483
"2066",80.16724,54.63385
"2067",80.15991,54.647156
"2068",80.15747,54.660522
"2069",80.164795,54.67383
"2070",80.17456,54.687195
"2071",80.17944,54.7005
"2072",80.181885,54.713867
"2073",80.17456,54.727173
"2074",80.15747,54.74048
"2075",80.13306,54.753845
"2076",80.10376,54.76715
"2077",80.07202,54.780518
"2078",80.042725,54.793823
"2079",80.01343,54.80719
"2080",79.98657,54.820496
"2081",79.96216,54.833862
"2082",79.94507,54.847168
"2083",79.92798,54.860474
"2084",79.91333,54.87384
"2085",79.90112,54.887146
"2086",79.8938,54.900513
"2087",79.886475,54.91382
"2088",79.88159,54.927185
"2089",79.87671,54.94049
"2090",79.87427,54.953796
"2091",79.869385,54.967163
"2092",79.869385,54.98047
"2093",79.871826,54.993835
"2094",79.869385,55.00714
"2095",79.869385,55.020508
"2096",79.86694,55.033813
"2097",79.85962,55.04712
"2098",79.852295,55.060486
"2099",79.84497,55.07379
"2100",79.84009,55.08716
"2101",79.83765,55.100464
"2102",79.84009,55.11383
"2103",79.84985,55.127136
"2104",79.869385,55.140503
"2105",79.89868,55.15381
"2106",79.937744,55.167114
"2107",79.98657,55.18048
"2108",80.03784,55.193787
"2109",80.08667,55.207153
"2110",80.12329,55.22046
"2111",80.15015,55.233826
"2112",80.16235,55.24713
"2113",80.16235,55.260498
"2114",80.15503,55.273804
"2115",80.14282,55.28711
"2116",80.130615,55.300476
"2117",80.113525,55.31378
"2118",80.096436,55.32715
"2119",80.079346,55.340454
"2120",80.0647,55.35382
"2121",80.04761,55.367126
"2122",80.03296,55.380432
"2123",80.02319,55.3938
"2124",80.01099,55.407104
"2125",80.00122,55.42047
"2126",79.9939,55.433777
"2127",79.98657,55.447144
"2128",79.98413,55.46045
"2129",79.98169,55.473755
"2130",79.97925,55.48712
"2131",79.97681,55.500427
"2132",79.97925,55.513794
"2133",79.974365,55.5271
"2134",79.96216,55.540466
"2135",79.94751,55.553772
"2136",79.92798,55.56714
"2137",79.906006,55.580444
"2138",79.88403,55.59375
"2139",79.86694,55.607117
"2140",79.85474,55.620422
"2141",79.84009,55.63379
"2142",79.835205,55.647095
"2143",79.83765,55.66046
"2144",79.84253,55.673767
"2145",79.84253,55.687134
"2146",79.84009,55.70044
"2147",79.835205,55.713745
"2148",79.83032,55.72711
"2149",79.82544,55.740417
"2150",79.823,55.753784
"2151",79.82788,55.76709
"2152",79.82788,55.780457
"2153",79.82544,55.793762
"2154",79.82056,55.807068
"2155",79.815674,55.820435
"2156",79.81079,55.83374
"2157",79.80835,55.847107
"2158",79.81323,55.860413
"2159",79.823,55.87378
"2160",79.84253,55.887085
"2161",79.87427,55.90039
"2162",79.91577,55.913757
"2163",79.9646,55.927063
"2164",80.01831,55.94043
"2165",80.07446,55.953735
"2166",80.12085,55.967102
"2167",80.15747,55.980408
"2168",80.17944,55.993774
"2169",80.181885,56.00708
"2170",80.17212,56.020386
"2171",80.15747,56.033752
"2172",80.14038,56.04706
"2173",80.12329,56.060425
"2174",80.10864,56.07373
"2175",80.09888,56.087097
"2176",80.08423,56.100403
"2177",80.06714,56.11377
"2178",80.05005,56.127075
"2179",80.0354,56.14038
"2180",80.028076,56.153748
"2181",80.028076,56.167053
"2182",80.03296,56.18042
"2183",80.04028,56.193726
"2184",80.045166,56.207092
"2185",80.05005,56.220398
"2186",80.04761,56.233704
"2187",80.04028,56.24707
"2188",80.028076,56.260376
"2189",80.008545,56.273743
"2190",79.98901,56.28705
"2191",79.96704,56.300415
"2192",79.94995,56.31372
"2193",79.92798,56.327026
"2194",79.90845,56.340393
"2195",79.886475,56.3537
"2196",79.85718,56.367065
"2197",79.82544,56.38037
"2198",79.798584,56.393738
"2199",79.781494,56.407043
"2200",79.77173,56.42041
"2201",79.77173,56.433716
"2202",79.77173,56.44702
"2203",79.76929,56.46039
"2204",79.764404,56.473694
"2205",79.75708,56.48706
"2206",79.74975,56.500366
"2207",79.74731,56.513733
"2208",79.74975,56.52704
"2209",79.74731,56.540405
"2210",79.742424,56.55371
"2211",79.7351,56.567017
"2212",79.73266,56.580383
"2213",79.73266,56.59369
"2214",79.73998,56.607056
"2215",79.74731,56.62036
"2216",79.764404,56.633728
"2217",79.78882,56.647034
"2218",79.823,56.66034
"2219",79.86694,56.673706
"2220",79.923096,56.68701
"2221",79.98169,56.70038
"2222",80.0354,56.713684
"2223",80.079346,56.72705
"2224",80.10376,56.740356
"2225",80.10864,56.753662
"2226",80.10132,56.76703
"2227",80.08423,56.780334
"2228",80.062256,56.7937
"2229",80.04028,56.807007
"2230",80.02319,56.820374
"2231",80.01343,56.83368
"2232",80.0061,56.847046
"2233",79.99634,56.86035
"2234",79.98413,56.873657
"2235",79.96704,56.887024
"2236",79.94995,56.90033
"2237",79.937744,56.913696
"2238",79.93042,56.927002
"2239",79.92798,56.94037
"2240",79.93042,56.953674
"2241",79.93286,56.96704
"2242",79.93042,56.980347
"2243",79.92554,56.993652
"2244",79.91577,57.00702
"2245",79.90112,57.020325
"2246",79.886475,57.03369
"2247",79.8645,57.046997
"2248",79.84253,57.060364
"2249",79.82056,57.07367
"2250",79.798584,57.086975
"2251",79.77661,57.10034
"2252",79.75708,57.113647
"2253",79.74975,57.127014
"2254",79.74731,57.14032
"2255",79.74975,57.153687
"2256",79.75708,57.166992
"2257",79.76929,57.180298
"2258",79.77905,57.193665
"2259",79.781494,57.20697
"2260",79.77905,57.220337
"2261",79.77173,57.233643
"2262",79.76196,57.24701
"2263",79.75708,57.260315
"2264",79.75952,57.27368
"2265",79.766846,57.286987
"2266",79.77905,57.300293
"2267",79.7937,57.31366
"2268",79.81079,57.326965
"2269",79.84009,57.340332
"2270",79.88159,57.353638
"2271",79.92798,57.367004
"2272",79.97925,57.38031
"2273",80.025635,57.393677
"2274",80.05737,57.406982
"2275",80.076904,57.420288
"2276",80.09155,57.433655
"2277",80.09888,57.44696
"2278",80.09888,57.460327
"2279",80.093994,57.473633
"2280",80.08179,57.487
"2281",80.0647,57.500305
"2282",80.05005,57.51361
"2283",80.0354,57.526978
"2284",80.02319,57.540283
"2285",80.008545,57.55365
"2286",79.99634,57.566956
"2287",79.98901,57.580322
"2288",79.98901,57.593628
"2289",79.9939,57.606934
"2290",80.01099,57.6203
"2291",80.025635,57.633606
"2292",80.04028,57.646973
"2293",80.05005,57.66028
"2294",80.05493,57.673645
"2295",80.05249,57.68695
"2296",80.04761,57.700317
"2297",80.03296,57.713623
"2298",80.01343,57.72693
"2299",79.991455,57.740295
"2300",79.96704,57.7536
"2301",79.94751,57.766968
"2302",79.93286,57.780273
"2303",79.923096,57.79364
"2304",79.91333,57.806946
"2305",79.906006,57.820312
"2306",79.90112,57.83362
"2307",79.8938,57.846924
"2308",79.89136,57.86029
"2309",79.8938,57.873596
"2310",79.8938,57.886963
"2311",79.89136,57.90027
"2312",79.89136,57.913635
"2313",79.888916,57.92694
"2314",79.89624,57.940247
"2315",79.91089,57.953613
"2316",79.940186,57.96692
"2317",79.98657,57.980286
"2318",80.04028,57.99359
"2319",80.096436,58.006958
"2320",80.15503,58.020264
"2321",80.20386,58.03357
"2322",80.23804,58.046936
"2323",80.257576,58.06024
"2324",80.2649,58.07361
"2325",80.26246,58.086914
"2326",80.2478,58.10028
"2327",80.22095,58.113586
"2328",80.19409,58.126953
"2329",80.164795,58.14026
"2330",80.14038,58.153564
"2331",80.11841,58.16693
"2332",80.10376,58.180237
"2333",80.09155,58.193604
"2334",80.08179,58.20691
"2335",80.076904,58.220276
"2336",80.079346,58.23358
"2337",80.08423,58.24695
"2338",80.08911,58.260254
"2339",80.093994,58.27356
"2340",80.093994,58.286926
"2341",80.08667,58.300232
"2342",80.079346,58.3136
"2343",80.06714,58.326904
"2344",80.05249,58.34027
"2345",80.04028,58.353577
"2346",80.025635,58.366882
"2347",80.01099,58.38025
"2348",79.99878,58.393555
"2349",79.98413,58.40692
"2350",79.96216,58.420227
"2351",79.937744,58.433594
"2352",79.91821,58.4469
"2353",79.90112,58.460205
"2354",79.89136,58.47357
"2355",79.886475,58.486877
"2356",79.888916,58.500244
"2357",79.89624,58.51355
"2358",79.89624,58.526917
"2359",79.8938,58.540222
"2360",79.8938,58.55359
"2361",79.8938,58.566895
"2362",79.90112,58.5802
"2363",79.91821,58.593567
"2364",79.94995,58.606873
"2365",79.991455,58.62024
"2366",80.042725,58.633545
"2367",80.093994,58.64691
"2368",80.14526,58.660217
"2369",80.18921,58.673584
"2370",80.22583,58.68689
"2371",80.25269,58.700195
"2372",80.26734,58.713562
"2373",80.272224,58.726868
"2374",80.26734,58.740234
"2375",80.25025,58.75354
"2376",80.22827,58.766907
"2377",80.20386,58.780212
"2378",80.181885,58.793518
"2379",80.16724,58.806885
"2380",80.15747,58.82019
"2381",80.15503,58.833557
"2382",80.15747,58.846863
"2383",80.164795,58.86023
"2384",80.16968,58.873535
"2385",80.17456,58.88684
"2386",80.17456,58.900208
"2387",80.177,58.913513
"2388",80.17944,58.92688
"2389",80.181885,58.940186
"2390",80.184326,58.953552
"2391",80.184326,58.966858
"2392",80.17944,58.980225
"2393",80.164795,58.99353
"2394",80.15015,59.006836
"2395",80.13306,59.020203
"2396",80.11841,59.03351
"2397",80.1062,59.046875
"2398",80.093994,59.06018
"2399",80.076904,59.073547
"2400",80.059814,59.086853
"2401",80.045166,59.10022
"2402",80.03052,59.113525
"2403",80.02319,59.12683
"2404",80.01587,59.140198
"2405",80.01343,59.153503
"2406",80.01099,59.16687
"2407",80.008545,59.180176
"2408",80.0061,59.193542
"2409",80.00366,59.20685
"2410",79.99878,59.220154
"2411",79.9939,59.23352
"2412",79.99634,59.246826
"2413",80.008545,59.260193
"2414",80.04028,59.2735
"2415",80.08423,59.286865
"2416",80.13794,59.30017
"2417",80.18921,59.313477
"2418",80.235596,59.326843
"2419",80.26734,59.34015
"2420",80.28687,59.353516
"2421",80.29908,59.36682
"2422",80.30152,59.380188
"2423",80.29664,59.393494
"2424",80.28687,59.40686
"2425",80.274666,59.420166
"2426",80.257576,59.43347
"2427",80.24048,59.44684
"2428",80.22095,59.460144
"2429",80.198975,59.47351
"2430",80.17456,59.486816
"2431",80.15747,59.500183
"2432",80.14282,59.51349
"2433",80.13306,59.526855
"2434",80.12329,59.54016
"2435",80.11597,59.553467
"2436",80.10864,59.566833
"2437",80.10376,59.58014
"2438",80.096436,59.593506
"2439",80.08911,59.60681
"2440",80.079346,59.62018
"2441",80.06714,59.633484
"2442",80.05005,59.64679
"2443",80.03296,59.660156
"2444",80.01587,59.673462
"2445",79.99634,59.68683
"2446",79.97681,59.700134
"2447",79.95972,59.7135
"2448",79.940186,59.726807
"2449",79.92554,59.740112
"2450",79.91089,59.75348
"2451",79.89136,59.766785
"2452",79.871826,59.78015
"2453",79.85962,59.793457
"2454",79.84985,59.806824
"2455",79.84497,59.82013
"2456",79.84009,59.833496
"2457",79.835205,59.8468
"2458",79.83032,59.860107
"2459",79.823,59.873474
"2460",79.818115,59.88678
"2461",79.823,59.900146
"2462",79.83032,59.913452
"2463",79.83765,59.92682
"2464",79.84985,59.940125
"2465",79.869385,59.95349
"2466",79.90112,59.966797
"2467",79.94507,59.980103
"2468",80.00122,59.99347
"2469",80.062256,60.006775
"2470",80.12085,60.02014
"2471",80.16968,60.033447
"2472",80.20874,60.046814
"2473",80.233154,60.06012
"2474",80.24048,60.073425
"2475",80.235596,60.086792
"2476",80.22339,60.100098
"2477",80.2063,60.113464
"2478",80.19165,60.12677
"2479",80.17944,60.140137
"2480",80.17212,60.153442
"2481",80.164795,60.166748
"2482",80.15747,60.180115
"2483",80.147705,60.19342
"2484",80.1355,60.206787
"2485",80.12085,60.220093
"2486",80.111084,60.23346
"2487",80.10376,60.246765
"2488",80.10376,60.26013
"2489",80.10864,60.273438
"2490",80.111084,60.286743
"2491",80.11597,60.30011
"2492",80.111084,60.313416
"2493",80.10132,60.326782
"2494",80.076904,60.340088
"2495",80.05005,60.353455
"2496",80.01831,60.36676
"2497",79.98657,60.380127
"2498",79.95972,60.393433
"2499",79.940186,60.40674
"2500",79.93042,60.420105
"2501",79.92798,60.43341
"2502",79.92798,60.446777
"2503",79.92554,60.460083
"2504",79.920654,60.47345
"2505",79.91577,60.486755
"2506",79.91089,60.50006
"2507",79.906006,60.513428
"2508",79.903564,60.526733
"2509",79.90112,60.5401
"2510",79.89868,60.553406
"2511",79.8938,60.566772
"2512",79.888916,60.58008
"2513",79.88403,60.593384
"2514",79.87671,60.60675
"2515",79.871826,60.620056
"2516",79.8645,60.633423
"2517",79.85718,60.64673
"2518",79.84985,60.660095
"2519",79.84497,60.6734
"2520",79.84497,60.686768
"2521",79.84985,60.700073
"2522",79.869385,60.71338
"2523",79.90112,60.726746
"2524",79.95239,60.74005
"2525",80.01343,60.753418
"2526",80.079346,60.766724
"2527",80.1355,60.78009
"2528",80.181885,60.793396
"2529",80.21362,60.806763
"2530",80.22583,60.82007
"2531",80.22583,60.833374
"2532",80.22095,60.84674
"2533",80.20874,60.860046
"2534",80.19409,60.873413
"2535",80.17944,60.88672
"2536",80.16235,60.900085
"2537",80.147705,60.91339
"2538",80.130615,60.926697
"2539",80.113525,60.940063
"2540",80.08911,60.95337
"2541",80.06958,60.966736
"2542",80.05249,60.98004
"2543",80.03784,60.99341
"2544",80.03052,61.006714
"2545",80.03052,61.02002
"2546",80.02319,61.033386
"2547",80.01343,61.04669
"2548",79.99634,61.06006
"2549",79.974365,61.073364
"2550",79.94507,61.08673
"2551",79.91577,61.100037
"2552",79.88403,61.113403
"2553",79.85474,61.12671
"2554",79.83032,61.140015
"2555",79.80835,61.15338
"2556",79.78882,61.166687
"2557",79.76929,61.180054
"2558",79.74731,61.19336
"2559",79.73022,61.206726
"2560",79.71313,61.22003
"2561",79.70092,61.2334
"2562",79.691154,61.246704
"2563",79.68627,61.26001
"2564",79.68383,61.273376
"2565",79.68383,61.286682
"2566",79.68383,61.30005
"2567",79.68139,61.313354
"2568",79.674065,61.32672
"2569",79.66674,61.340027
"2570",79.656975,61.353333
"2571",79.65209,61.3667
"2572",79.64721,61.380005
"2573",79.64721,61.39337
"2574",79.64233,61.406677
"2575",79.64477,61.420044
"2576",79.65209,61.43335
"2577",79.67162,61.446655
"2578",79.69604,61.460022
"2579",79.725334,61.473328
"2580",79.75464,61.486694
"2581",79.7937,61.5
"2582",79.84497,61.513367
"2583",79.906006,61.526672
"2584",79.971924,61.54004
"2585",80.042725,61.553345
"2586",80.096436,61.56665
"2587",80.1355,61.580017
"2588",80.15259,61.593323
"2589",80.15747,61.60669
"2590",80.15259,61.619995
"2591",80.14282,61.63336
"2592",80.130615,61.646667
"2593",80.12085,61.660034
"2594",80.1062,61.67334
"2595",80.09155,61.686646
"2596",80.079346,61.700012
"2597",80.06958,61.713318
"2598",80.062256,61.726685
"2599",80.059814,61.73999
"2600",80.05737,61.753357
"2601",80.05249,61.766663
"2602",80.04761,61.77997
"2603",80.042725,61.793335
"2604",80.03784,61.80664
"2605",80.025635,61.820007
"2606",80.01343,61.833313
"2607",79.99878,61.84668
"2608",79.98169,61.859985
"2609",79.9646,61.87329
"2610",79.95239,61.886658
"2611",79.94507,61.899963
"2612",79.937744,61.91333
"2613",79.92554,61.926636
"2614",79.91821,61.940002
"2615",79.91089,61.95331
"2616",79.90845,61.966675
"2617",79.90845,61.97998
"2618",79.91089,61.993286
"2619",79.91089,62.006653
"2620",79.91089,62.01996
"2621",79.91089,62.033325
"2622",79.90845,62.04663
"2623",79.906006,62.059998
"2624",79.89868,62.073303
"2625",79.89136,62.08667
"2626",79.88403,62.099976
"2627",79.88159,62.11328
"2628",79.87915,62.126648
"2629",79.886475,62.139954
"2630",79.8938,62.15332
"2631",79.91089,62.166626
"2632",79.9353,62.179993
"2633",79.971924,62.1933
"2634",80.02075,62.206604
"2635",80.08667,62.21997
"2636",80.16235,62.233276
"2637",80.23804,62.246643
"2638",80.31129,62.25995
"2639",80.37476,62.273315
"2640",80.42603,62.28662
"2641",80.46021,62.299927
"2642",80.479744,62.313293
"2643",80.47486,62.3266
"2644",80.45533,62.339966
"2645",80.42115,62.35327
"2646",80.377205,62.36664
"2647",80.32838,62.379944
"2648",80.27955,62.39331
"2649",80.23071,62.406616
"2650",80.18677,62.41992
"2651",80.147705,62.43329
"2652",80.111084,62.446594
"2653",80.08179,62.45996
"2654",80.05493,62.473267
"2655",80.03052,62.486633
"2656",80.01343,62.49994
"2657",79.99878,62.513306
"2658",79.98901,62.52661
"2659",79.98169,62.539917
"2660",79.971924,62.553284
"2661",79.957275,62.56659
"2662",79.940186,62.579956
"2663",79.91821,62.59326
"2664",79.90112,62.60663
"2665",79.87915,62.619934
"2666",79.85962,62.63324
"2667",79.84497,62.646606
"2668",79.83765,62.659912
"2669",79.84253,62.67328
"2670",79.85962,62.686584
"2671",79.88159,62.69995
"2672",79.906006,62.713257
"2673",79.9353,62.726562
"2674",79.957275,62.73993
"2675",79.971924,62.753235
"2676",79.98657,62.7666
"2677",80.0061,62.779907
"2678",80.01831,62.793274
"2679",80.028076,62.80658
"2680",80.0354,62.819946
"2681",80.0354,62.833252
"2682",80.028076,62.846558
"2683",80.01831,62.859924
"2684",80.00366,62.87323
"2685",79.99634,62.886597
"2686",79.99634,62.899902
"2687",80.0061,62.91327
"2688",80.025635,62.926575
"2689",80.05249,62.93994
"2690",80.08667,62.953247
"2691",80.12329,62.966553
"2692",80.15503,62.97992
"2693",80.17456,62.993225
"2694",80.17944,63.00659
"2695",80.17212,63.019897
"2696",80.15503,63.033264
"2697",80.1355,63.04657
"2698",80.113525,63.059875
"2699",80.093994,63.073242
"2700",80.076904,63.086548
"2701",80.0647,63.099915
"2702",80.059814,63.11322
"2703",80.059814,63.126587
"2704",80.06714,63.139893
"2705",80.07446,63.1532
"2706",80.08179,63.166565
"2707",80.08667,63.17987
"2708",80.093994,63.193237
"2709",80.09888,63.206543
"2710",80.10376,63.21991
"2711",80.10376,63.233215
"2712",80.1062,63.246582
"2713",80.10376,63.259888
"2714",80.096436,63.273193
"2715",80.08667,63.28656
"2716",80.06958,63.299866
"2717",80.042725,63.313232
"2718",80.01343,63.326538
"2719",79.97925,63.339905
"2720",79.94995,63.35321
"2721",79.920654,63.366577
"2722",79.89624,63.379883
"2723",79.87671,63.39319
"2724",79.85474,63.406555
"2725",79.83765,63.41986
"2726",79.823,63.433228
"2727",79.81079,63.446533
"2728",79.80347,63.4599
"2729",79.79614,63.473206
"2730",79.7937,63.48651
"2731",79.79126,63.499878
"2732",79.783936,63.513184
"2733",79.77905,63.52655
"2734",79.77661,63.539856
"2735",79.77661,63.553223
"2736",79.78638,63.56653
"2737",79.80347,63.579834
"2738",79.83032,63.5932
"2739",79.85962,63.606506
"2740",79.8938,63.619873
"2741",79.93042,63.63318
"2742",79.97681,63.646545
"2743",80.028076,63.65985
"2744",80.08423,63.673218
"2745",80.14038,63.686523
"2746",80.184326,63.69983
"2747",80.21362,63.713196
"2748",80.22583,63.7265
"2749",80.22583,63.73987
"2750",80.21362,63.753174
"2751",80.19409,63.76654
"2752",80.17212,63.779846
"2753",80.15015,63.793213
"2754",80.130615,63.80652
"2755",80.111084,63.819824
"2756",80.096436,63.83319
"2757",80.08423,63.846497
"2758",80.07446,63.859863
"2759",80.07202,63.87317
"2760",80.079346,63.886536
"2761",80.08667,63.89984
"2762",80.093994,63.913147
"2763",80.10132,63.926514
"2764",80.10132,63.93982
"2765",80.096436,63.953186
"2766",80.08911,63.96649
"2767",80.079346,63.97986
"2768",80.0647,63.993164
"2769",80.04761,64.00647
"2770",80.03052,64.01984
"2771",80.00366,64.03314
"2772",79.97925,64.04651
"2773",79.95972,64.059814
"2774",79.940186,64.07318
"2775",79.920654,64.08649
"2776",79.90112,64.09985
"2777",79.87915,64.11316
"2778",79.85962,64.126465
"2779",79.83765,64.13983
"2780",79.82544,64.15314
"2781",79.82056,64.166504
"2782",79.82544,64.17981
"2783",79.83032,64.19318
"2784",79.83765,64.20648
"2785",79.84741,64.21985
"2786",79.852295,64.233154
"2787",79.85474,64.24646
"2788",79.86206,64.25983
"2789",79.869385,64.27313
"2790",79.87671,64.2865
"2791",79.888916,64.299805
"2792",79.90845,64.31317
"2793",79.93286,64.32648
"2794",79.96948,64.33978
"2795",80.01831,64.35315
"2796",80.06714,64.366455
"2797",80.10864,64.37982
"2798",80.14526,64.39313
"2799",80.164795,64.406494
"2800",80.16724,64.4198
"2801",80.15991,64.433105
"2802",80.147705,64.44647
"2803",80.130615,64.45978
"2804",80.11597,64.473145
"2805",80.10376,64.48645
"2806",80.096436,64.49982
"2807",80.08667,64.51312
"2808",80.07202,64.52649
"2809",80.05249,64.539795
"2810",80.03296,64.5531
"2811",80.01831,64.56647
"2812",80.008545,64.57977
"2813",80.0061,64.59314
"2814",80.01343,64.606445
"2815",80.02319,64.61981
"2816",80.03296,64.63312
"2817",80.045166,64.646484
"2818",80.062256,64.65979
"2819",80.079346,64.673096
"2820",80.09888,64.68646
"2821",80.11841,64.69977
"2822",80.13306,64.713135
"2823",80.14282,64.72644
"2824",80.14038,64.73981
"2825",80.12573,64.75311
"2826",80.10376,64.76642
"2827",80.07446,64.779785
"2828",80.042725,64.79309
"2829",80.01343,64.80646
"2830",79.98901,64.81976
"2831",79.9646,64.83313
"2832",79.94751,64.846436
"2833",79.9353,64.85974
"2834",79.91821,64.87311
"2835",79.903564,64.88641
"2836",79.89136,64.89978
"2837",79.87671,64.913086
"2838",79.86206,64.92645
"2839",79.84497,64.93976
"2840",79.83032,64.953125
"2841",79.823,64.96643
"2842",79.818115,64.97974
"2843",79.815674,64.9931
"2844",79.818115,65.00641
"2845",79.835205,65.019775
"2846",79.86206,65.03308
"2847",79.89868,65.04645
"2848",79.94507,65.05975
"2849",79.99878,65.07312
"2850",80.04761,65.086426
"2851",80.08667,65.09973
"2852",80.11841,65.1131
"2853",80.1355,65.1264
"2854",80.14526,65.13977
"2855",80.14526,65.153076
"2856",80.14038,65.16644
"2857",80.128174,65.17975
"2858",80.11597,65.193054
"2859",80.10376,65.20642
"2860",80.096436,65.21973
"2861",80.08911,65.23309
"2862",80.079346,65.2464
"2863",80.07446,65.259766
"2864",80.0647,65.27307
"2865",80.05737,65.28638
"2866",80.04761,65.29974
"2867",80.04028,65.31305
"2868",80.03296,65.326416
"2869",80.025635,65.33972
"2870",80.02075,65.35309
"2871",80.01343,65.366394
"2872",80.00366,65.37976
"2873",79.98657,65.39307
"2874",79.97681,65.40637
"2875",79.96216,65.41974
"2876",79.94751,65.433044
"2877",79.93286,65.44641
"2878",79.91821,65.45972
"2879",79.89624,65.47308
"2880",79.871826,65.48639
"2881",79.84985,65.499756
"2882",79.83032,65.51306
"2883",79.818115,65.52637
"2884",79.815674,65.539734
"2885",79.82056,65.55304
"2886",79.823,65.56641
"2887",79.82544,65.57971
"2888",79.82788,65.59308
"2889",79.823,65.606384
"2890",79.815674,65.61969
"2891",79.80835,65.63306
"2892",79.80347,65.64636
"2893",79.7937,65.65973
"2894",79.783936,65.673035
"2895",79.77173,65.6864
"2896",79.766846,65.69971
"2897",79.77173,65.71301
"2898",79.79126,65.72638
"2899",79.82544,65.739685
"2900",79.871826,65.75305
"2901",79.923096,65.76636
"2902",79.96948,65.779724
"2903",80.008545,65.79303
"2904",80.03784,65.8064
"2905",80.059814,65.8197
"2906",80.06714,65.83301
"2907",80.06958,65.846375
"2908",80.0647,65.85968
"2909",80.05493,65.87305
"2910",80.04028,65.88635
"2911",80.02075,65.89972
"2912",79.99878,65.913025
"2913",79.974365,65.92639
"2914",79.94995,65.9397
"2915",79.93286,65.953
"2916",79.923096,65.96637
"2917",79.920654,65.979675
"2918",79.92554,65.99304
"2919",79.93286,66.00635
"2920",79.94263,66.019714
"2921",79.94507,66.03302
"2922",79.94751,66.046326
"2923",79.94751,66.05969
"2924",79.940186,66.073
"2925",79.93042,66.086365
"2926",79.920654,66.09967
"2927",79.90845,66.11304
"2928",79.8938,66.12634
"2929",79.88403,66.13965
"2930",79.871826,66.153015
"2931",79.85962,66.16632
"2932",79.84741,66.17969
"2933",79.83032,66.19299
"2934",79.818115,66.20636
"2935",79.80591,66.219666
"2936",79.798584,66.23303
"2937",79.7937,66.24634
"2938",79.79126,66.25964
"2939",79.78638,66.27301
"2940",79.78638,66.286316
"2941",79.78638,66.29968
"2942",79.78882,66.31299
"2943",79.79126,66.326355
"2944",79.79614,66.33966
"2945",79.798584,66.35303
"2946",79.801025,66.36633
"2947",79.815674,66.37964
"2948",79.83765,66.393005
"2949",79.869385,66.40631
"2950",79.91577,66.41968
"2951",79.96704,66.43298
"2952",80.01343,66.44635
"2953",80.05249,66.459656
"2954",80.08423,66.47296
"2955",80.1062,66.48633
"2956",80.11841,66.49963
"2957",80.12329,66.513
"2958",80.12329,66.526306
"2959",80.111084,66.53967
"2960",80.093994,66.55298
"2961",80.076904,66.566284
"2962",80.05737,66.57965
"2963",80.04028,66.59296
"2964",80.028076,66.60632
"2965",80.02319,66.61963
"2966",80.01831,66.632996
"2967",80.01831,66.6463
"2968",80.02319,66.65967
"2969",80.0354,66.67297
"2970",80.045166,66.68628
"2971",80.04761,66.699646
"2972",80.045166,66.71295
"2973",80.04028,66.72632
"2974",80.03052,66.739624
"2975",80.02319,66.75299
"2976",80.01831,66.7663
"2977",80.008545,66.77966
"2978",79.99878,66.79297
"2979",79.98901,66.806274
"2980",79.98169,66.81964
"2981",79.974365,66.83295
"2982",79.96216,66.84631
"2983",79.94995,66.85962
"2984",79.937744,66.872986
"2985",79.923096,66.88629
"2986",79.91089,66.8996
"2987",79.903564,66.912964
"2988",79.89868,66.92627
"2989",79.89624,66.93964
"2990",79.89868,66.95294
"2991",79.89868,66.96631
"2992",79.89868,66.979614
"2993",79.903564,66.99292
"2994",79.90845,67.00629
"2995",79.91821,67.01959
"2996",79.940186,67.03296
"2997",79.971924,67.046265
"2998",80.01099,67.05963
"2999",80.05249,67.07294
"3000",80.09155,67.0863
"3001",80.12329,67.09961
"3002",80.147705,67.112915
"3003",80.15991,67.12628
"3004",80.16724,67.13959
"3005",80.16724,67.152954
"3006",80.15991,67.16626
"3007",80.15015,67.17963
"3008",80.1355,67.19293
"3009",80.12329,67.2063
"3010",80.1062,67.219604
"3011",80.08911,67.23291
"3012",80.07446,67.24628
"3013",80.06714,67.25958
"3014",80.0647,67.27295
"3015",80.0647,67.286255
"3016",80.06958,67.29962
"3017",80.07446,67.31293
"3018",80.07202,67.32623
"3019",80.0647,67.3396
"3020",80.062256,67.352905
"3021",80.05493,67.36627
"3022",80.04761,67.37958
"3023",80.042725,67.392944
"3024",80.03784,67.40625
"3025",80.028076,67.419556
"3026",80.01831,67.43292
"3027",80.00366,67.44623
"3028",79.98413,67.459595
"3029",79.95972,67.4729
"3030",79.93286,67.48627
"3031",79.91089,67.49957
"3032",79.8938,67.51294
"3033",79.88403,67.526245
"3034",79.88159,67.53955
"3035",79.88403,67.55292
"3036",79.886475,67.56622
"3037",79.888916,67.57959
"3038",79.888916,67.592896
"3039",79.8938,67.60626
"3040",79.90112,67.61957
"3041",79.91089,67.632935
"3042",79.92554,67.64624
"3043",79.94995,67.659546
"3044",79.98413,67.67291
"3045",80.025635,67.68622
"3046",80.079346,67.699585
"3047",80.14038,67.71289
"3048",80.19653,67.72626
"3049",80.24048,67.73956
"3050",80.272224,67.75287
"3051",80.28687,67.766235
"3052",80.28199,67.77954
"3053",80.26978,67.79291
"3054",80.24536,67.80621
"3055",80.218506,67.81958
"3056",80.18921,67.832886
"3057",80.164795,67.84619
"3058",80.14038,67.85956
"3059",80.11597,67.87286
"3060",80.096436,67.88623
"3061",80.08667,67.899536
"3062",80.08667,67.9129
"3063",80.10132,67.92621
"3064",80.128174,67.939575
"3065",80.15015,67.95288
"3066",80.16235,67.96619
"3067",80.15991,67.97955
"3068",80.14282,67.99286
"3069",80.11841,68.006226
"3070",80.09888,68.01953
"3071",80.08179,68.0329
"3072",80.06714,68.0462
"3073",80.05249,68.05957
"3074",80.0354,68.072876
"3075",80.01343,68.08618
"3076",79.98901,68.09955
"3077",79.9646,68.112854
"3078",79.94263,68.12622
"3079",79.923096,68.13953
"3080",79.91089,68.15289
"3081",79.903564,68.1662
"3082",79.903564,68.179504
"3083",79.89868,68.19287
"3084",79.8938,68.20618
"3085",79.888916,68.21954
"3086",79.88403,68.23285
"3087",79.88403,68.246216
"3088",79.88159,68.25952
"3089",79.87915,68.27283
"3090",79.87427,68.286194
"3091",79.87427,68.2995
"3092",79.87671,68.31287
"3093",79.888916,68.32617
"3094",79.90845,68.33954
"3095",79.940186,68.352844
"3096",79.98169,68.36621
"3097",80.025635,68.37952
"3098",80.076904,68.39282
"3099",80.128174,68.40619
"3100",80.177,68.419495
"3101",80.22339,68.43286
"3102",80.2649,68.44617
"3103",80.29664,68.45953
"3104",80.308846,68.47284
"3105",80.30152,68.486206
"3106",80.27955,68.49951
"3107",80.25025,68.51282
"3108",80.22095,68.526184
"3109",80.2063,68.53949
"3110",80.19653,68.55286
"3111",80.19409,68.56616
"3112",80.19165,68.57953
"3113",80.18677,68.592834
"3114",80.17212,68.60614
"3115",80.15259,68.61951
"3116",80.12573,68.63281
"3117",80.09155,68.64618
"3118",80.05493,68.659485
"3119",80.01587,68.67285
"3120",79.971924,68.68616
"3121",79.93042,68.69946
"3122",79.888916,68.71283
"3123",79.852295,68.726135
"3124",79.82544,68.7395
"3125",79.80835,68.75281
"3126",79.80347,68.766174
"3127",79.80347,68.77948
"3128",79.80835,68.79285
"3129",79.80591,68.80615
"3130",79.801025,68.81946
"3131",79.78882,68.832825
"3132",79.77661,68.84613
"3133",79.76196,68.8595
"3134",79.74975,68.8728
"3135",79.742424,68.88617
"3136",79.73998,68.899475
"3137",79.73998,68.91284
"3138",79.73754,68.92615
"3139",79.7351,68.93945
"3140",79.7351,68.95282
"3141",79.73266,68.966125
"3142",79.7351,68.97949
"3143",79.74731,68.9928
"3144",79.76929,69.006165
"3145",79.80591,69.01947
"3146",79.85474,69.032776
"3147",79.91333,69.04614
"3148",79.96948,69.05945
"3149",80.02319,69.072815
"3150",80.0647,69.08612
"3151",80.093994,69.09949
"3152",80.111084,69.11279
"3153",80.11597,69.1261
"3154",80.113525,69.139465
"3155",80.10132,69.15277
"3156",80.08667,69.16614
"3157",80.07202,69.17944
"3158",80.062256,69.19281
"3159",80.059814,69.206116
"3160",80.059814,69.21948
"3161",80.062256,69.23279
"3162",80.05737,69.24609
"3163",80.05249,69.25946
"3164",80.04761,69.272766
"3165",80.04761,69.28613
"3166",80.05005,69.29944
"3167",80.059814,69.312805
"3168",80.07202,69.32611
"3169",80.07446,69.33948
"3170",80.07202,69.35278
"3171",80.059814,69.36609
"3172",80.045166,69.379456
"3173",80.03296,69.39276
"3174",80.02319,69.40613
"3175",80.01587,69.41943
"3176",80.008545,69.4328
"3177",80.00122,69.446106
"3178",79.99634,69.45941
"3179",79.9939,69.47278
"3180",79.99878,69.486084
"3181",80.008545,69.49945
"3182",80.02075,69.51276
"3183",80.028076,69.52612
"3184",80.03052,69.53943
"3185",80.01831,69.552734
"3186",79.99634,69.5661
"3187",79.974365,69.57941
"3188",79.94995,69.59277
"3189",79.923096,69.60608
"3190",79.903564,69.619446
"3191",79.8938,69.63275
"3192",79.88403,69.64612
"3193",79.87915,69.659424
"3194",79.88159,69.67273
"3195",79.888916,69.6861
"3196",79.90112,69.6994
"3197",79.91089,69.71277
"3198",79.92798,69.726074
"3199",79.95972,69.73944
"3200",80.00366,69.75275
"3201",80.059814,69.76611
"3202",80.12329,69.77942
"3203",80.18921,69.792725
"3204",80.2478,69.80609
"3205",80.291756,69.8194
"3206",80.31129,69.83276
"3207",80.31373,69.84607
"3208",80.29908,69.859436
"3209",80.272224,69.87274
"3210",80.24048,69.88605
"3211",80.2063,69.899414
"3212",80.16968,69.91272
"3213",80.1355,69.92609
"3214",80.10376,69.93939
"3215",80.076904,69.95276
"3216",80.05493,69.966064
"3217",80.0354,69.97937
"3218",80.02075,69.99274
"3219",80.00366,70.00604
"3220",79.9939,70.01941
"3221",79.98901,70.032715
"3222",79.991455,70.04608
"3223",79.99878,70.05939
"3224",80.00366,70.072754
"3225",80.00366,70.08606
"3226",79.991455,70.099365
"3227",79.96948,70.11273
"3228",79.94507,70.12604
"3229",79.92554,70.139404
"3230",79.90845,70.15271
"3231",79.89868,70.16608
"3232",79.89136,70.17938
"3233",79.88403,70.19275
"3234",79.871826,70.206055
"3235",79.85718,70.21936
"3236",79.84009,70.23273
"3237",79.823,70.24603
"3238",79.80591,70.2594
"3239",79.79126,70.272705
"3240",79.781494,70.28607
"3241",79.77661,70.29938
"3242",79.77417,70.31268
"3243",79.77417,70.32605
"3244",79.76929,70.339355
"3245",79.764404,70.35272
"3246",79.75708,70.36603
"3247",79.7522,70.379395
"3248",79.74731,70.3927
"3249",79.744865,70.406006
"3250",79.74731,70.41937
"3251",79.7522,70.43268
"3252",79.764404,70.446045
"3253",79.77905,70.45935
"3254",79.80347,70.47272
"3255",79.84253,70.48602
"3256",79.89136,70.49939
"3257",79.94751,70.512695
"3258",80.0061,70.526
"3259",80.05737,70.53937
"3260",80.096436,70.55267
"3261",80.128174,70.56604
"3262",80.15015,70.579346
"3263",80.16724,70.59271
"3264",80.17456,70.60602
"3265",80.17456,70.619385
"3266",80.16235,70.63269
"3267",80.13794,70.645996
"3268",80.1062,70.65936
"3269",80.076904,70.67267
"3270",80.04761,70.686035
"3271",80.02075,70.69934
"3272",79.99878,70.71271
"3273",79.97681,70.72601
"3274",79.95239,70.73932
"3275",79.9353,70.752686
"3276",79.923096,70.76599
"3277",79.920654,70.77936
"3278",79.923096,70.79266
"3279",79.92554,70.80603
"3280",79.92554,70.819336
"3281",79.91821,70.83264
"3282",79.903564,70.84601
"3283",79.886475,70.859314
"3284",79.86694,70.87268
"3285",79.84741,70.88599
"3286",79.83276,70.89935
"3287",79.82056,70.91266
"3288",79.81323,70.926025
"3289",79.81079,70.93933
"3290",79.80835,70.95264
"3291",79.801025,70.966
"3292",79.79614,70.97931
"3293",79.7937,70.992676
"3294",79.79614,71.00598
"3295",79.80347,71.01935
"3296",79.80835,71.03265
"3297",79.815674,71.04602
"3298",79.818115,71.059326
"3299",79.81323,71.07263
"3300",79.81079,71.086
"3301",79.81323,71.099304
"3302",79.82056,71.11267
"3303",79.823,71.12598
"3304",79.82788,71.13934
"3305",79.835205,71.15265
"3306",79.84741,71.165955
"3307",79.871826,71.17932
"3308",79.90845,71.19263
"3309",79.95239,71.20599
"3310",80.00122,71.2193
"3311",80.04761,71.232666
"3312",80.08423,71.24597
"3313",80.11597,71.25928
"3314",80.14038,71.272644
"3315",80.15503,71.28595
"3316",80.16235,71.29932
"3317",80.16235,71.31262
"3318",80.15503,71.32599
"3319",80.14282,71.339294
"3320",80.12573,71.35266
"3321",80.10376,71.36597
"3322",80.08179,71.37927
"3323",80.05737,71.39264
"3324",80.03052,71.405945
"3325",80.01099,71.41931
"3326",79.99878,71.43262
"3327",79.9939,71.445984
"3328",79.99634,71.45929
"3329",80.0061,71.47266
"3330",80.01831,71.48596
"3331",80.03052,71.49927
"3332",80.04028,71.512634
"3333",80.05005,71.52594
"3334",80.05493,71.53931
"3335",80.05737,71.55261
"3336",80.059814,71.56598
"3337",80.05737,71.579285
"3338",80.05249,71.59259
"3339",80.045166,71.60596
"3340",80.03784,71.61926
"3341",80.025635,71.63263
"3342",80.01587,71.645935
"3343",80.008545,71.6593
"3344",80.00366,71.67261
"3345",79.99878,71.68591
"3346",79.99634,71.69928
"3347",79.9939,71.712585
"3348",79.98901,71.72595
"3349",79.98169,71.73926
"3350",79.97681,71.752625
"3351",79.971924,71.76593
"3352",79.96948,71.7793
"3353",79.96216,71.7926
"3354",79.95972,71.80591
"3355",79.96216,71.819275
"3356",79.98169,71.83258
"3357",80.01587,71.84595
"3358",80.07202,71.85925
"3359",80.13794,71.87262
"3360",80.201416,71.885925
"3361",80.25269,71.89929
"3362",80.289314,71.9126
"3363",80.308846,71.9259
"3364",80.31861,71.93927
"3365",80.31373,71.952576
"3366",80.30152,71.96594
"3367",80.28443,71.97925
"3368",80.26002,71.992615
"3369",80.235596,72.00592
"3370",80.20874,72.019226
"3371",80.181885,72.03259
"3372",80.15503,72.0459
"3373",80.12573,72.059265
"3374",80.10132,72.07257
"3375",80.08911,72.08594
"3376",80.08423,72.09924
"3377",80.08911,72.11255
"3378",80.09888,72.125916
"3379",80.111084,72.13922
"3380",80.11841,72.15259
"3381",80.11841,72.16589
"3382",80.11597,72.17926
"3383",80.10376,72.192566
"3384",80.08667,72.20593
"3385",80.062256,72.21924
"3386",80.0354,72.232544
"3387",80.00366,72.24591
"3388",79.97681,72.25922
"3389",79.957275,72.27258
"3390",79.94507,72.28589
"3391",79.94263,72.299255
"3392",79.94263,72.31256
"3393",79.9353,72.32593
"3394",79.92554,72.33923
"3395",79.91089,72.35254
"3396",79.89136,72.365906
"3397",79.87915,72.37921
"3398",79.869385,72.39258
"3399",79.8645,72.40588
"3400",79.86206,72.41925
"3401",79.85718,72.432556
"3402",79.852295,72.44586
"3403",79.852295,72.45923
"3404",79.86206,72.472534
"3405",79.888916,72.4859
"3406",79.9353,72.49921
"3407",80.00122,72.51257
"3408",80.07202,72.52588
"3409",80.13794,72.539185
"3410",80.19165,72.55255
"3411",80.22827,72.56586
"3412",80.24536,72.57922
"3413",80.2478,72.59253
"3414",80.24048,72.605896
"3415",80.22095,72.6192
"3416",80.19409,72.63257
"3417",80.164795,72.645874
"3418",80.14038,72.65918
"3419",80.11597,72.67255
"3420",80.09155,72.68585
"3421",80.07202,72.69922
"3422",80.059814,72.712524
"3423",80.05493,72.72589
"3424",80.05737,72.7392
"3425",80.06958,72.75256
"3426",80.079346,72.76587
"3427",80.08423,72.779175
"3428",80.08667,72.79254
"3429",80.08179,72.80585
"3430",80.076904,72.819214
"3431",80.06958,72.83252
"3432",80.0647,72.84589
"3433",80.05493,72.85919
"3434",80.04761,72.8725
"3435",80.04028,72.885864
"3436",80.03296,72.89917
"3437",80.01587,72.91254
"3438",79.99878,72.92584
"3439",79.97681,72.93921
"3440",79.957275,72.952515
"3441",79.9353,72.96582
"3442",79.91821,72.97919
"3443",79.90112,72.99249
"3444",79.89136,73.00586
"3445",79.8938,73.019165
"3446",79.903564,73.03253
"3447",79.920654,73.04584
"3448",79.940186,73.059204
"3449",79.957275,73.07251
"3450",79.9646,73.085815
"3451",79.9646,73.09918
"3452",79.96704,73.11249
"3453",79.98413,73.125854
"3454",80.01587,73.13916
"3455",80.06958,73.15253
"3456",80.13794,73.16583
"3457",80.20874,73.1792
"3458",80.26978,73.192505
"3459",80.306404,73.20581
"3460",80.32105,73.21918
"3461",80.31861,73.23248
"3462",80.30396,73.24585
"3463",80.27955,73.259155
"3464",80.2478,73.27252
"3465",80.21362,73.28583
"3466",80.177,73.29913
"3467",80.13794,73.3125
"3468",80.10864,73.325806
"3469",80.08179,73.33917
"3470",80.062256,73.35248
"3471",80.045166,73.365845
"3472",80.03296,73.37915
"3473",80.02319,73.392456
"3474",80.02075,73.40582
"3475",80.01831,73.41913
"3476",80.01343,73.432495
"3477",80.01099,73.4458
"3478",80.0061,73.45917
"3479",79.99878,73.47247
"3480",79.98901,73.48584
"3481",79.97681,73.499146
"3482",79.96216,73.51245
"3483",79.94995,73.52582
"3484",79.937744,73.53912
"3485",79.92554,73.55249
"3486",79.920654,73.565796
"3487",79.91821,73.57916
"3488",79.91577,73.59247
"3489",79.91577,73.605835
"3490",79.920654,73.61914
"3491",79.92554,73.63245
"3492",79.92798,73.64581
"3493",79.9353,73.65912
"3494",79.94507,73.672485
"3495",79.957275,73.68579
"3496",79.96216,73.69916
"3497",79.96704,73.71246
"3498",79.96216,73.72577
"3499",79.95972,73.739136
"3500",79.96216,73.75244
"3501",79.98169,73.76581
"3502",80.01099,73.77911
"3503",80.05249,73.79248
"3504",80.093994,73.805786
"3505",80.128174,73.81909
"3506",80.147705,73.83246
"3507",80.15503,73.845764
"3508",80.15503,73.85913
"3509",80.15015,73.87244
"3510",80.14282,73.8858
"3511",80.130615,73.89911
"3512",80.11841,73.912476
"3513",80.1062,73.92578
"3514",80.09155,73.93909
"3515",80.08667,73.95245
"3516",80.08911,73.96576
"3517",80.096436,73.979126
"3518",80.10376,73.99243
"3519",80.10376,74.0058
"3520",80.09888,74.019104
"3521",80.08911,74.03247
"3522",80.07446,74.04578
"3523",80.06714,74.05908
"3524",80.062256,74.07245
"3525",80.059814,74.085754
"3526",80.05249,74.09912
"3527",80.0354,74.11243
"3528",80.01343,74.12579
"3529",79.98413,74.1391
"3530",79.94751,74.152405
"3531",79.91333,74.16577
"3532",79.88403,74.17908
"3533",79.85718,74.192444
"3534",79.835205,74.20575
"3535",79.818115,74.21912
"3536",79.80591,74.23242
"3537",79.79126,74.24573
"3538",79.77905,74.259094
"3539",79.76929,74.2724
"3540",79.75708,74.28577
"3541",79.74975,74.29907
"3542",79.73998,74.31244
"3543",79.73266,74.325745
"3544",79.7351,74.33911
"3545",79.742424,74.35242
"3546",79.75952,74.36572
"3547",79.7937,74.37909
"3548",79.84009,74.392395
"3549",79.89136,74.40576
"3550",79.94507,74.41907
"3551",79.99634,74.432434
"3552",80.0354,74.44574
"3553",80.062256,74.45911
"3554",80.06958,74.47241
"3555",80.05737,74.48572
"3556",80.03296,74.499084
"3557",80.00366,74.51239
"3558",79.974365,74.52576
"3559",79.94507,74.53906
"3560",79.923096,74.55243
"3561",79.903564,74.565735
"3562",79.886475,74.57904
"3563",79.871826,74.59241
"3564",79.86694,74.60571
"3565",79.869385,74.61908
"3566",79.87671,74.632385
"3567",79.89136,74.64575
"3568",79.906006,74.65906
"3569",79.923096,74.67236
"3570",79.940186,74.68573
"3571",79.954834,74.699036
"3572",79.96704,74.7124
"3573",79.96948,74.72571
"3574",79.96948,74.739075
"3575",79.957275,74.75238
"3576",79.94263,74.76575
"3577",79.923096,74.77905
"3578",79.906006,74.79236
"3579",79.886475,74.805725
"3580",79.86206,74.81903
"3581",79.83765,74.8324
"3582",79.818115,74.8457
"3583",79.80347,74.85907
"3584",79.798584,74.872375
"3585",79.798584,74.88574
"3586",79.80347,74.89905
"3587",79.798584,74.91235
"3588",79.79126,74.92572
"3589",79.77905,74.939026
"3590",79.76196,74.95239
"3591",79.74975,74.9657
"3592",79.75464,74.979065
"3593",79.77173,74.99237
"3594",79.80347,75.00568
"3595",79.84497,75.01904
"3596",79.89624,75.03235
"3597",79.95239,75.045715
"3598",80.00366,75.05902
"3599",80.05005,75.07239
"3600",80.08911,75.08569
"3601",80.11841,75.099
"3602",80.13306,75.112366
"3603",80.1355,75.12567
"3604",80.130615,75.13904
"3605",80.11841,75.15234
"3606",80.09888,75.16571
"3607",80.076904,75.179016
"3608",80.05249,75.19238
"3609",80.028076,75.20569
"3610",80.0061,75.218994
"3611",79.98901,75.23236
"3612",79.97925,75.24567
"3613",79.97681,75.25903
"3614",79.97925,75.27234
"3615",79.991455,75.285706
"3616",80.00366,75.29901
"3617",80.01587,75.31238
"3618",80.01831,75.32568
"3619",80.01099,75.33899
"3620",79.99878,75.352356
"3621",79.97925,75.36566
"3622",79.957275,75.37903
"3623",79.9353,75.392334
"3624",79.91577,75.4057
"3625",79.90112,75.41901
"3626",79.89136,75.43231
"3627",79.886475,75.44568
"3628",79.87915,75.458984
"3629",79.87671,75.47235
"3630",79.871826,75.48566
"3631",79.869385,75.49902
"3632",79.8645,75.51233
"3633",79.85962,75.525635
"3634",79.85962,75.539
"3635",79.85718,75.55231
"3636",79.852295,75.565674
"3637",79.852295,75.57898
"3638",79.852295,75.59235
"3639",79.85718,75.60565
"3640",79.871826,75.61902
"3641",79.89868,75.632324
"3642",79.9353,75.64563
"3643",79.98413,75.659
"3644",80.045166,75.6723
"3645",80.111084,75.68567
"3646",80.17212,75.698975
"3647",80.22095,75.71234
"3648",80.25269,75.72565
"3649",80.26246,75.73901
"3650",80.257576,75.75232
"3651",80.24048,75.765625
"3652",80.22583,75.77899
"3653",80.2063,75.7923
"3654",80.184326,75.805664
"3655",80.15503,75.81897
"3656",80.12329,75.83234
"3657",80.09155,75.84564
"3658",80.059814,75.85895
"3659",80.04028,75.872314
"3660",80.028076,75.88562
"3661",80.025635,75.89899
"3662",80.03052,75.91229
"3663",80.04028,75.92566
"3664",80.05005,75.938965
"3665",80.05005,75.95227
"3666",80.042725,75.96564
"3667",80.03052,75.97894
"3668",80.01099,75.99231
"3669",79.9939,76.005615
"3670",79.97925,76.01898
"3671",79.96704,76.03229
"3672",79.94995,76.045654
"3673",79.93286,76.05896
"3674",79.91821,76.072266
"3675",79.90845,76.08563
"3676",79.906006,76.09894
"3677",79.91333,76.112305
"3678",79.93042,76.12561
"3679",79.95972,76.13898
"3680",79.9939,76.15228
"3681",80.03296,76.16565
"3682",80.0647,76.178955
"3683",80.08911,76.19226
"3684",80.10132,76.20563
"3685",80.09888,76.21893
"3686",80.08667,76.2323
"3687",80.07446,76.245605
"3688",80.076904,76.25897
"3689",80.09155,76.27228
"3690",80.11841,76.28558
"3691",80.16235,76.29895
"3692",80.20386,76.312256
"3693",80.235596,76.32562
"3694",80.257576,76.33893
"3695",80.26978,76.352295
"3696",80.26978,76.3656
"3697",80.26734,76.37891
"3698",80.26002,76.39227
"3699",80.257576,76.40558
"3700",80.257576,76.418945
"3701",80.255135,76.43225
"3702",80.24292,76.44562
"3703",80.22339,76.45892
"3704",80.18921,76.47229
"3705",80.15259,76.485596
"3706",80.12085,76.4989
"3707",80.09888,76.51227
"3708",80.09155,76.52557
"3709",80.096436,76.53894
"3710",80.10864,76.552246
"3711",80.12573,76.56561
"3712",80.147705,76.57892
"3713",80.17212,76.592285
"3714",80.19653,76.60559
"3715",80.21118,76.6189
"3716",80.21118,76.63226
"3717",80.20386,76.64557
"3718",80.18677,76.658936
"3719",80.164795,76.67224
"3720",80.13794,76.68561
"3721",80.111084,76.69891
"3722",80.08667,76.71222
"3723",80.059814,76.725586
"3724",80.0354,76.73889
"3725",80.01099,76.75226
"3726",79.98901,76.765564
"3727",79.9646,76.77893
"3728",79.94263,76.79224
"3729",79.91821,76.80554
"3730",79.89624,76.81891
"3731",79.87671,76.832214
"3732",79.84985,76.84558
"3733",79.823,76.85889
"3734",79.801025,76.87225
"3735",79.78882,76.88556
"3736",79.78638,76.898926
"3737",79.801025,76.91223
"3738",79.83765,76.92554
"3739",79.886475,76.9389
"3740",79.94507,76.95221
"3741",80.01343,76.965576
"3742",80.08179,76.97888
"3743",80.14526,76.99225
"3744",80.19653,77.005554
"3745",80.23804,77.01892
"3746",80.2649,77.03223
"3747",80.27955,77.04553
"3748",80.27955,77.0589
"3749",80.274666,77.072205
"3750",80.26246,77.08557
"3751",80.2478,77.09888
"3752",80.235596,77.11224
"3753",80.22339,77.12555
"3754",80.21118,77.138855
"3755",80.19409,77.15222
"3756",80.177,77.16553
"3757",80.15259,77.178894
"3758",80.13306,77.1922
"3759",80.111084,77.20557
"3760",80.08911,77.21887
"3761",80.0647,77.23218
"3762",80.04028,77.245544
"3763",80.01099,77.25885
"3764",79.97681,77.27222
"3765",79.940186,77.28552
"3766",79.91089,77.29889
"3767",79.886475,77.312195
"3768",79.871826,77.32556
"3769",79.86206,77.33887
"3770",79.852295,77.35217
"3771",79.83765,77.36554
"3772",79.823,77.378845
"3773",79.81079,77.39221
"3774",79.81079,77.40552
"3775",79.82544,77.418884
"3776",79.84985,77.43219
"3777",79.87915,77.44556
"3778",79.91333,77.45886
"3779",79.94263,77.47217
"3780",79.96704,77.485535
"3781",79.98901,77.49884
"3782",79.99878,77.51221
"3783",79.99878,77.52551
"3784",79.9939,77.53888
"3785",79.98657,77.552185
"3786",79.97925,77.56549
"3787",79.97925,77.57886
"3788",79.97925,77.59216
"3789",79.98413,77.60553
"3790",79.99878,77.618835
"3791",80.03052,77.6322
"3792",80.076904,77.64551
"3793",80.130615,77.65881
"3794",80.177,77.67218
"3795",80.21118,77.685486
"3796",80.22095,77.69885
"3797",80.21118,77.71216
"3798",80.19409,77.725525
"3799",80.177,77.73883
"3800",80.16968,77.7522
"3801",80.177,77.7655
"3802",80.19653,77.77881
"3803",80.22339,77.792175
"3804",80.24292,77.80548
"3805",80.25025,77.81885
"3806",80.23804,77.83215
"3807",80.20874,77.84552
"3808",80.16724,77.858826
"3809",80.128174,77.87219
"3810",80.09888,77.8855
"3811",80.08179,77.8988
"3812",80.07202,77.91217
"3813",80.06714,77.925476
"3814",80.062256,77.93884
"3815",80.05249,77.95215
"3816",80.04028,77.965515
"3817",80.01587,77.97882
"3818",79.98413,77.99213
"3819",79.94263,78.00549
"3820",79.90112,78.0188
"3821",79.86206,78.032166
"3822",79.835205,78.04547
"3823",79.815674,78.05884
"3824",79.801025,78.07214
"3825",79.79126,78.08545
"3826",79.783936,78.098816
"3827",79.77417,78.11212
"3828",79.77173,78.12549
"3829",79.77661,78.138794
"3830",79.783936,78.15216
"3831",79.79126,78.16547
"3832",79.798584,78.17883
"3833",79.81079,78.19214
"3834",79.82544,78.205444
"3835",79.84009,78.21881
"3836",79.84741,78.23212
"3837",79.85474,78.24548
"3838",79.8645,78.25879
"3839",79.87915,78.272156
"3840",79.90112,78.28546
"3841",79.923096,78.29883
"3842",79.9353,78.31213
"3843",79.940186,78.32544
"3844",79.9353,78.338806
"3845",79.93042,78.35211
"3846",79.940186,78.36548
"3847",79.96704,78.378784
"3848",80.0061,78.39215
"3849",80.042725,78.40546
"3850",80.07446,78.41882
"3851",80.093994,78.43213
"3852",80.09888,78.445496
"3853",80.08423,78.4588
"3854",80.05493,78.47217
"3855",80.02319,78.48547
"3856",79.98169,78.49884
"3857",79.94507,78.512146
"3858",79.91089,78.52551
"3859",79.888916,78.53882
"3860",79.87671,78.552185
"3861",79.871826,78.56549
"3862",79.88159,78.57886
"3863",79.903564,78.59216
"3864",79.9353,78.60553
"3865",79.974365,78.618835
"3866",80.01343,78.6322
"3867",80.04761,78.64551
"3868",80.06958,78.658875
"3869",80.08667,78.67218
"3870",80.1062,78.68555
"3871",80.128174,78.69885
"3872",80.15259,78.71222
"3873",80.17944,78.725525
"3874",80.19653,78.73889
"3875",80.19653,78.7522
"3876",80.18677,78.765564
"3877",80.16235,78.77887
"3878",80.1355,78.79224
"3879",80.111084,78.80554
"3880",80.08667,78.81891
"3881",80.06714,78.832214
"3882",80.05249,78.84558
"3883",80.042725,78.85889
"3884",80.03296,78.87225
"3885",80.028076,78.88556
"3886",80.02319,78.898926
"3887",80.02075,78.91223
"3888",80.02075,78.9256
"3889",80.02075,78.9389
"3890",80.02319,78.95227
"3891",80.025635,78.965576
"3892",80.028076,78.97894
"3893",80.02319,78.99225
"3894",80.01831,79.005615
"3895",80.01099,79.01892
"3896",80.00122,79.03229
"3897",79.98901,79.04559
"3898",79.98169,79.05896
"3899",79.97925,79.072266
"3900",79.98657,79.08563
"3901",80.008545,79.09894
"3902",80.04028,79.112305
"3903",80.08423,79.12561
"3904",80.128174,79.13898
"3905",80.16724,79.15228
"3906",80.19409,79.16565
"3907",80.20874,79.178955
"3908",80.216064,79.19232
"3909",80.20874,79.20563
"3910",80.18921,79.218994
"3911",80.16724,79.2323
"3912",80.14282,79.24567
"3913",80.11597,79.25897
"3914",80.09155,79.27234
"3915",80.07202,79.285645
"3916",80.05249,79.29901
"3917",80.03296,79.31232
"3918",80.008545,79.32568
"3919",79.98657,79.33899
"3920",79.96948,79.352356
"3921",79.9646,79.36566
"3922",79.9646,79.37903
"3923",79.971924,79.392334
"3924",79.97681,79.4057
"3925",79.98169,79.41901
"3926",79.98169,79.43237
"3927",79.98413,79.44568
"3928",79.98169,79.459045
"3929",79.97925,79.47235
"3930",79.971924,79.48572
"3931",79.96216,79.49902
"3932",79.94263,79.51239
"3933",79.92554,79.525696
"3934",79.90845,79.53906
"3935",79.888916,79.55237
"3936",79.869385,79.565735
"3937",79.852295,79.57904
"3938",79.835205,79.59241
"3939",79.82056,79.60571
"3940",79.81323,79.61908
"3941",79.80835,79.632385
"3942",79.80347,79.64575
"3943",79.798584,79.65906
"3944",79.79126,79.672424
"3945",79.78638,79.68573
"3946",79.78638,79.6991
"3947",79.77905,79.7124
"3948",79.77417,79.72577
"3949",79.764404,79.739075
"3950",79.74975,79.75244
"3951",79.73022,79.76575
"3952",79.72045,79.77911
"3953",79.71313,79.79242
"3954",79.71557,79.805786
"3955",79.727776,79.81909
"3956",79.7522,79.83246
"3957",79.79126,79.845764
"3958",79.84253,79.85913
"3959",79.89624,79.87244
"3960",79.94507,79.8858
"3961",79.98657,79.89911
"3962",80.01343,79.912476
"3963",80.025635,79.92578
"3964",80.028076,79.93915
"3965",80.01831,79.95245
"3966",80.00366,79.96582
"3967",79.97925,79.979126
"3968",79.95239,79.99249
"3969",79.92554,80.0058
"3970",79.903564,80.019165
"3971",79.88159,80.03247
"3972",79.86694,80.04584
"3973",79.852295,80.05914
"3974",79.84497,80.07251
"3975",79.84253,80.085815
"3976",79.84985,80.09918
"3977",79.85962,80.11249
"3978",79.87427,80.125854
"3979",79.888916,80.13916
"3980",79.903564,80.15253
"3981",79.90845,80.16583
"3982",79.90845,80.1792
"3983",79.90112,80.192505
"3984",79.886475,80.20587
"3985",79.8645,80.21918
"3986",79.84497,80.232544
"3987",79.83032,80.24585
"3988",79.818115,80.25922
"3989",79.80835,80.27252
"3990",79.80347,80.28589
"3991",79.79614,80.299194
"3992",79.78882,80.31256
"3993",79.77905,80.32587
"3994",79.76929,80.33923
"3995",79.766846,80.35254
"3996",79.76929,80.365906
"3997",79.77417,80.37921
"3998",79.781494,80.39258
"3999",79.78638,80.40588
"4000",79.783936,80.41925
"4001",79.77417,80.432556
"4002",79.764404,80.44592
"4003",79.75464,80.45923
"4004",79.74731,80.472595
"4005",79.74731,80.4859
"4006",79.74975,80.49927
"4007",79.75952,80.51257
"4008",79.77905,80.52594
"4009",79.81079,80.539246
"4010",79.852295,80.55261
"4011",79.90112,80.56592
"4012",79.957275,80.579285
"4013",80.008545,80.59259
"4014",80.05493,80.60596
"4015",80.08667,80.61926
"4016",80.10376,80.63263
"4017",80.10132,80.645935
"4018",80.08667,80.6593
"4019",80.062256,80.67261
"4020",80.04028,80.685974
"4021",80.01831,80.69928
"4022",80.00366,80.71265
"4023",79.98657,80.72595
"4024",79.9646,80.73932
"4025",79.940186,80.752625
"4026",79.920654,80.76599
"4027",79.906006,80.7793
"4028",79.90112,80.79266
"4029",79.90845,80.80597
"4030",79.920654,80.819336
"4031",79.937744,80.83264
"4032",79.957275,80.84601
"4033",79.974365,80.859314
"4034",79.98901,80.87268
"4035",79.9939,80.88599
"4036",79.991455,80.89935
"4037",79.98169,80.91266
"4038",79.96704,80.926025
"4039",79.95972,80.93933
"4040",79.957275,80.9527
"4041",79.95972,80.966
"4042",79.96216,80.97937
"4043",79.96704,80.992676
"4044",79.96948,81.00604
"4045",79.974365,81.01935
"4046",79.98657,81.032715
"4047",79.99878,81.04602
"4048",80.01587,81.05939
"4049",80.03296,81.07269
"4050",80.042725,81.08606
"4051",80.04761,81.099365
"4052",80.04761,81.11273
"4053",80.045166,81.12604
"4054",80.03784,81.139404
"4055",80.03296,81.15271
"4056",80.03296,81.16608
"4057",80.042725,81.17938
"4058",80.062256,81.19275
"4059",80.09155,81.206055
"4060",80.130615,81.21942
"4061",80.17212,81.23273
"4062",80.20874,81.24609
"4063",80.23804,81.2594
"4064",80.25025,81.272766
"4065",80.24536,81.28607
"4066",80.22339,81.29944
"4067",80.19165,81.312744
"4068",80.15259,81.32611
"4069",80.111084,81.33942
"4070",80.07202,81.35278
"4071",80.04761,81.36609
"4072",80.025635,81.379456
"4073",80.01343,81.39276
"4074",80.0061,81.40613
"4075",80.008545,81.41943
"4076",80.02075,81.4328
"4077",80.045166,81.446106
"4078",80.07446,81.45947
"4079",80.1062,81.47278
"4080",80.1355,81.486145
"4081",80.15259,81.49945
"4082",80.15747,81.51282
"4083",80.15503,81.52612
"4084",80.147705,81.53949
"4085",80.1355,81.552795
"4086",80.12085,81.56616
"4087",80.09888,81.57947
"4088",80.076904,81.592834
"4089",80.05493,81.60614
"4090",80.0354,81.61951
"4091",80.02319,81.63281
"4092",80.01343,81.64618
"4093",80.00366,81.659485
"4094",79.9939,81.67285
"4095",79.98413,81.68616
"4096",79.971924,81.699524
"4097",79.96216,81.71283
"4098",79.95239,81.7262
"4099",79.94995,81.7395
"4100",79.94751,81.75287
"4101",79.94751,81.766174
"4102",79.95972,81.77954
"4103",79.98169,81.79285
"4104",80.01587,81.80621
"4105",80.062256,81.81952
"4106",80.12329,81.832886
"4107",80.181885,81.84619
"4108",80.235596,81.85956
"4109",80.28199,81.87286
"4110",80.31373,81.88623
"4111",80.33326,81.899536
"4112",80.34058,81.9129
"4113",80.3357,81.92621
"4114",80.32105,81.939575
"4115",80.2942,81.95288
"4116",80.26002,81.96625
"4117",80.22583,81.97955
"4118",80.19409,81.99292
"4119",80.16235,82.006226
"4120",80.128174,82.01959
"4121",80.10132,82.0329
"4122",80.079346,82.046265
"4123",80.059814,82.05957
"4124",80.05005,82.07294
"4125",80.05493,82.08624
"4126",80.06714,82.09961
"4127",80.08423,82.112915
"4128",80.093994,82.12628
"4129",80.09888,82.13959
"4130",80.09155,82.152954
"4131",80.07202,82.16626
"4132",80.04028,82.17963
"4133",80.00122,82.19293
"4134",79.96216,82.2063
"4135",79.923096,82.219604
"4136",79.886475,82.23297
"4137",79.85718,82.24628
"4138",79.84009,82.25964
"4139",79.82788,82.27295
"4140",79.815674,82.286316
"4141",79.80591,82.29962
"4142",79.7937,82.31299
"4143",79.783936,82.326294
"4144",79.77173,82.33966
"4145",79.75708,82.35297
"4146",79.74975,82.36633
"4147",79.744865,82.37964
"4148",79.744865,82.393005
"4149",79.7522,82.40631
"4150",79.77417,82.41968
"4151",79.81079,82.43298
"4152",79.85718,82.44635
"4153",79.90845,82.459656
"4154",79.9646,82.47302
"4155",80.02319,82.48633
"4156",80.079346,82.499695
"4157",80.12573,82.513
"4158",80.164795,82.52637
"4159",80.19653,82.53967
"4160",80.216064,82.55304
"4161",80.22095,82.566345
"4162",80.216064,82.57971
"4163",80.198975,82.59302
"4164",80.177,82.606384
"4165",80.15015,82.61969
"4166",80.12329,82.63306
"4167",80.096436,82.64636
"4168",80.076904,82.65973
"4169",80.062256,82.673035
"4170",80.05493,82.6864
"4171",80.05493,82.69971
"4172",80.06714,82.71307
"4173",80.079346,82.72638
"4174",80.08911,82.739746
"4175",80.08911,82.75305
"4176",80.076904,82.76642
"4177",80.05737,82.779724
"4178",80.03296,82.79309
"4179",80.00366,82.8064
"4180",79.98169,82.81976
"4181",79.96216,82.83307
"4182",79.94995,82.846436
"4183",79.94263,82.85974
"4184",79.9353,82.87311
"4185",79.93042,82.88641
"4186",79.92554,82.89978
"4187",79.920654,82.913086
"4188",79.920654,82.92645
"4189",79.92554,82.93976
"4190",79.9353,82.953125
"4191",79.94507,82.96643
"4192",79.94751,82.9798
"4193",79.94507,82.9931
"4194",79.940186,83.00647
"4195",79.940186,83.019775
"4196",79.94751,83.03314
"4197",79.971924,83.04645
"4198",80.0061,83.059814
"4199",80.04761,83.07312
"4200",80.09155,83.08649
"4201",80.1355,83.09979
"4202",80.177,83.11316
"4203",80.21362,83.126465
"4204",80.23804,83.13983
"4205",80.24536,83.15314
"4206",80.23804,83.166504
"4207",80.21362,83.17981
"4208",80.17944,83.19318
"4209",80.14282,83.20648
"4210",80.111084,83.21985
"4211",80.08179,83.233154
"4212",80.06714,83.24652
"4213",80.062256,83.25983
"4214",80.07202,83.27319
"4215",80.08423,83.2865
"4216",80.10376,83.299866
"4217",80.12085,83.31317
"4218",80.1355,83.32654
"4219",80.14038,83.33984
"4220",80.14038,83.35321
"4221",80.130615,83.366516
"4222",80.11597,83.37988
"4223",80.093994,83.39319
"4224",80.07202,83.406555
"4225",80.04761,83.41986
"4226",80.02075,83.43323
"4227",79.9939,83.44653
"4228",79.96704,83.4599
"4229",79.94507,83.473206
"4230",79.91821,83.48657
"4231",79.89624,83.49988
"4232",79.87915,83.513245
"4233",79.86206,83.52655
"4234",79.84985,83.53992
"4235",79.84253,83.55322
"4236",79.83765,83.56659
"4237",79.835205,83.579895
"4238",79.835205,83.59326
"4239",79.83765,83.60657
"4240",79.84741,83.619934
"4241",79.86694,83.63324
"4242",79.89624,83.64661
"4243",79.93286,83.65991
"4244",79.98169,83.67328
"4245",80.03784,83.686584
"4246",80.096436,83.69995
"4247",80.14526,83.71326
"4248",80.181885,83.72662
"4249",80.198975,83.73993
"4250",80.201416,83.753296
"4251",80.18677,83.7666
"4252",80.16724,83.77997
"4253",80.14526,83.793274
"4254",80.12573,83.80664
"4255",80.111084,83.81995
"4256",80.111084,83.83331
"4257",80.11841,83.84662
"4258",80.130615,83.859985
"4259",80.14282,83.87329
"4260",80.15503,83.88666
"4261",80.15747,83.89996
"4262",80.15015,83.91333
"4263",80.14038,83.926636
"4264",80.13306,83.94
"4265",80.12329,83.95331
"4266",80.11841,83.966675
"4267",80.12329,83.97998
"4268",80.128174,83.99335
"4269",80.130615,84.00665
"4270",80.12085,84.02002
"4271",80.10376,84.033325
"4272",80.08179,84.04669
"4273",80.05493,84.06
"4274",80.025635,84.073364
"4275",79.99878,84.08667
"4276",79.971924,84.10004
"4277",79.94507,84.11334
"4278",79.923096,84.12671
"4279",79.903564,84.140015
"4280",79.888916,84.15338
"4281",79.88159,84.16669
"4282",79.88159,84.18005
"4283",79.886475,84.19336
"4284",79.888916,84.206726
"4285",79.89624,84.22003
"4286",79.903564,84.2334
"4287",79.90845,84.246704
"4288",79.91821,84.26007
"4289",79.93042,84.27338
"4290",79.940186,84.28674
"4291",79.94751,84.30005
"4292",79.957275,84.313416
"4293",79.96948,84.32672
"4294",79.99634,84.34009
"4295",80.0354,84.35339
"4296",80.08179,84.36676
"4297",80.130615,84.380066
"4298",80.17212,84.39343
"4299",80.2063,84.40674
"4300",80.22583,84.420105
"4301",80.23071,84.43341
"4302",80.22339,84.44678
"4303",80.20386,84.46008
"4304",80.17212,84.47345
"4305",80.14038,84.486755
"4306",80.10864,84.50012
"4307",80.08179,84.51343
"4308",80.059814,84.526794
"4309",80.042725,84.5401
"4310",80.03296,84.55347
"4311",80.025635,84.56677
"4312",80.025635,84.58014
"4313",80.025635,84.593445
"4314",80.028076,84.60681
"4315",80.03296,84.62012
"4316",80.0354,84.633484
"4317",80.0354,84.64679
"4318",80.03296,84.66016
"4319",80.0354,84.67346
"4320",80.03296,84.68683
"4321",80.01831,84.700134
"4322",80.00122,84.7135
"4323",79.97925,84.72681
"4324",79.95239,84.74017
"4325",79.92554,84.75348
"4326",79.89868,84.766846
"4327",79.87427,84.78015
"4328",79.852295,84.79352
"4329",79.83032,84.80682
"4330",79.81079,84.82019
"4331",79.79614,84.833496
"4332",79.78882,84.84686
"4333",79.781494,84.86017
"4334",79.77661,84.873535
"4335",79.77173,84.88684
"4336",79.766846,84.90021
"4337",79.75952,84.91351
"4338",79.74731,84.92688
"4339",79.7351,84.940186
"4340",79.72289,84.95355
"4341",79.708244,84.96686
"4342",79.69604,84.980225
"4343",79.693596,84.99353
"4344",79.69848,85.0069
"4345",79.710686,85.0202
"4346",79.725334,85.03357
"4347",79.74975,85.046875
"4348",79.77661,85.06024
"4349",79.815674,85.07355
"4350",79.86206,85.086914
"4351",79.91821,85.10022
"4352",79.974365,85.11359
"4353",80.028076,85.12689
"4354",80.06958,85.14026
"4355",80.096436,85.153564
"4356",80.10864,85.16693
"4357",80.1062,85.18024
"4358",80.096436,85.1936
"4359",80.08179,85.20691
"4360",80.062256,85.220276
"4361",80.042725,85.23358
"4362",80.02319,85.24695
"4363",80.0061,85.260254
"4364",79.98901,85.27362
"4365",79.97681,85.28693
"4366",79.96948,85.30029
"4367",79.9646,85.3136
"4368",79.9646,85.326965
"4369",79.96948,85.34027
"4370",79.96948,85.35364
"4371",79.96948,85.36694
"4372",79.9646,85.38031
"4373",79.954834,85.393616
"4374",79.94507,85.40698
"4375",79.937744,85.42029
"4376",79.92798,85.433655
"4377",79.91089,85.44696
"4378",79.8938,85.46033
"4379",79.869385,85.47363
"4380",79.84497,85.487
"4381",79.82544,85.500305
"4382",79.81323,85.51367
"4383",79.80591,85.52698
"4384",79.80591,85.540344
"4385",79.80347,85.55365
"4386",79.80347,85.56702
"4387",79.801025,85.58032
"4388",79.80347,85.59369
"4389",79.80591,85.606995
"4390",79.81079,85.62036
"4391",79.81079,85.63367
"4392",79.81323,85.64703
"4393",79.81079,85.66034
"4394",79.80591,85.673706
"4395",79.80347,85.68701
"4396",79.798584,85.70038
"4397",79.79614,85.713684
"4398",79.7937,85.72705
"4399",79.79126,85.74036
"4400",79.7937,85.75372
"4401",79.798584,85.76703
"4402",79.80591,85.780396
"4403",79.82544,85.7937
"4404",79.85474,85.80707
"4405",79.89624,85.82037
"4406",79.94995,85.83374
"4407",80.008545,85.847046
"4408",80.062256,85.86041
"4409",80.10132,85.87372
"4410",80.128174,85.887085
"4411",80.1355,85.90039
"4412",80.12573,85.91376
"4413",80.096436,85.92706
"4414",80.03296,85.94043
"4415",79.93286,85.953735
"4416",79.77905,85.9671
"4417",79.5642,85.98041
"4418",79.281,85.993774
"4419",78.93187,86.00708
"4420",78.51438,86.02045
"4421",78.01877,86.03375
"4422",77.44747,86.04712
"4423",76.839554,86.060425
"4424",76.265816,86.07379
"4425",75.80194,86.0871
"4426",75.50164,86.100464
"4427",75.37957,86.11377
"4428",75.41619,86.12714
"4429",75.562675,86.14044
"4430",75.775085,86.15381
"4431",76.019226,86.167114
"4432",76.28779,86.18048
"4433",76.56611,86.19379
"4434",76.839554,86.20715
"4435",77.09346,86.22046
"4436",77.32784,86.233826
"4437",77.55001,86.24713
"4438",77.7673,86.2605
"4439",77.98215,86.2738
"4440",78.19699,86.28717
"4441",78.4094,86.300476
"4442",78.61204,86.31384
"4443",78.79271,86.32715
"4444",78.95628,86.340515
"4445",79.09544,86.35382
"4446",79.21507,86.36719
"4447",79.31274,86.38049
"4448",79.38842,86.39386
"4449",79.44457,86.407166
"4450",79.483635,86.42053
"4451",79.50561,86.43384
"4452",79.520256,86.447205
"4453",79.52758,86.46051
"4454",79.53246,86.47388
"4455",79.54955,86.48718
"4456",79.588615,86.50055
"4457",79.64721,86.513855
"4458",79.72045,86.52722
"4459",79.801025,86.54053
"4460",79.86206,86.553894
"4461",79.888916,86.5672
"4462",79.87671,86.58057
"4463",79.83276,86.59387
"4464",79.77417,86.60724
"4465",79.72045,86.620544
"4466",79.68627,86.63391
"4467",79.68139,86.64722
"4468",79.70092,86.66058
"4469",79.7351,86.67389
"4470",79.76929,86.687256
"4471",79.80591,86.70056
"4472",79.852295,86.71393
"4473",79.923096,86.727234
"4474",80.05005,86.7406
"4475",80.23804,86.75391
"4476",80.479744,86.76727
"4477",80.75319,86.78058
"4478",81.02663,86.793945
"4479",81.27322,86.80725
"4480",81.47341,86.82062
"4481",81.62234,86.83392
"4482",81.72732,86.84729
"4483",81.80057,86.860596
"4484",81.85672,86.87396
"4485",81.91531,86.88727
"4486",81.97879,86.900635
"4487",82.039825,86.91394
"4488",82.07645,86.92731
"4489",82.04471,86.94061
"4490",81.90311,86.95398
"4491",81.63943,86.967285
"4492",81.29519,86.98065
"4493",80.92897,86.99396
"4494",80.59449,87.007324
"4495",80.3357,87.02063
"4496",80.17456,87.034
"4497",80.093994,87.0473
"4498",80.05005,87.06067
"4499",80.01831,87.073975
"4500",79.991455,87.08734
"4501",79.94995,87.10065
"4502",79.89136,87.11401
"4503",79.823,87.12732
"4504",79.76196,87.140686
"4505",79.71313,87.15399
"4506",79.68139,87.16736
"4507",79.66674,87.180664
"4508",79.6643,87.19403
"4509",79.66918,87.20734
"4510",79.69604,87.2207
"4511",79.75708,87.23401
"4512",79.852295,87.247375
"4513",79.974365,87.26068
"4514",80.10864,87.27405
"4515",80.233154,87.28735
"4516",80.33326,87.30072
"4517",80.4065,87.314026
"4518",80.462654,87.32739
"4519",80.51881,87.3407
"4520",80.5774,87.354065
"4521",80.64088,87.36737
"4522",80.69703,87.38074
"4523",80.740974,87.39404
"4524",80.76784,87.40741
"4525",80.7776,87.420715
"4526",80.77516,87.43408
"4527",80.782486,87.44739
"4528",80.814224,87.460754
"4529",80.87526,87.47406
"4530",80.96559,87.48743
"4531",81.08522,87.50073
"4532",81.231705,87.5141
"4533",81.39529,87.527405
"4534",81.55642,87.54077
"4535",81.69802,87.55408
"4536",81.80057,87.567444
"4537",81.864044,87.58075
"4538",81.898224,87.59412
"4539",81.9202,87.60742
"4540",81.9324,87.62079
"4541",81.94461,87.634094
"4542",81.95682,87.64746
"4543",81.96658,87.66077
"4544",81.97879,87.67413
"4545",82.00809,87.68744
"4546",82.06424,87.700806
"4547",82.14725,87.71411
"4548",82.24002,87.72748
"4549",82.33524,87.74078
"4550",82.42069,87.75415
"4551",82.48417,87.767456
"4552",82.52567,87.78082
"4553",82.55009,87.79413
"4554",82.55741,87.807495
"4555",82.55497,87.8208
"4556",82.547646,87.83417
