"","ppg","time"
"1",85.72396,454.3094
"2",84.35676,454.32272
"3",83.175095,454.33606
"4",82.2327,454.3494
"5",81.55642,454.36273
"6",81.143814,454.37607
"7",80.953384,454.3894
"8",80.919205,454.40274
"9",80.96071,454.41608
"10",81.00954,454.4294
"11",81.007095,454.44275
"12",80.91432,454.4561
"13",80.709236,454.46942
"14",80.38697,454.48276
"15",79.95239,454.4961
"16",79.42504,454.50943
"17",78.82933,454.52277
"18",78.187225,454.5361
"19",77.51827,454.54944
"20",76.84688,454.56277
"21",76.1828,454.5761
"22",75.54803,454.58945
"23",74.949875,454.60278
"24",74.40055,454.61612
"25",73.91226,454.62946
"26",73.48989,454.6428
"27",73.128555,454.65613
"28",72.83803,454.66946
"29",72.61829,454.6828
"30",72.4596,454.69614
"31",72.35462,454.70947
"32",72.291145,454.7228
"33",72.25941,454.73615
"34",72.25941,454.74948
"35",72.27894,454.76282
"36",72.31556,454.77615
"37",72.376595,454.7895
"38",72.45228,454.80283
"39",72.54017,454.81616
"40",72.63294,454.8295
"41",72.72816,454.84283
"42",72.813614,454.85617
"43",72.886856,454.8695
"44",72.95033,454.88284
"45",73.02846,454.89618
"46",73.21156,454.90952
"47",73.66811,454.92285
"48",74.617836,454.9362
"49",76.25605,454.94952
"50",78.660866,454.96286
"51",81.72976,454.9762
"52",85.18196,454.98953
"53",88.62684,455.00287
"54",91.67132,455.0162
"55",94.03464,455.02954
"56",95.570305,455.04288
"57",96.27589,455.0562
"58",96.22461,455.06955
"59",95.54589,455.0829
"60",94.39597,455.09622
"61",92.92134,455.10956
"62",91.244064,455.1229
"63",89.46914,455.13623
"64",87.674675,455.14957
"65",85.926605,455.1629
"66",84.300606,455.17624
"67",82.8748,455.18958
"68",81.72976,455.2029
"69",80.92409,455.21625
"70",80.4773,455.22958
"71",80.35523,455.24292
"72",80.48463,455.25626
"73",80.75807,455.2696
"74",81.08522,455.28293
"75",81.37087,455.29626
"76",81.54177,455.3096
"77",81.55886,455.32294
"78",81.409935,455.33627
"79",81.092545,455.3496
"80",80.635994,455.36295
"81",80.07446,455.37628
"82",79.43969,455.38962
"83",78.768295,455.40295
"84",78.07736,455.4163
"85",77.38888,455.42963
"86",76.71992,455.44296
"87",76.09003,455.4563
"88",75.50408,455.46964
"89",74.966965,455.48297
"90",74.48356,455.4963
"91",74.06363,455.50964
"92",73.704735,455.52298
"93",73.40688,455.53632
"94",73.17738,455.54965
"95",73.006485,455.563
"96",72.884415,455.57632
"97",72.80141,455.58966
"98",72.75502,455.603
"99",72.740364,455.61633
"100",72.75014,455.62967
"101",72.77699,455.643
"102",72.82094,455.65634
"103",72.87221,455.66968
"104",72.92592,455.683
"105",72.97719,455.69635
"106",73.03334,455.7097
"107",73.11391,455.72302
"108",73.29214,455.73636
"109",73.7438,455.7497
"110",74.6984,455.76303
"111",76.351265,455.77637
"112",78.77806,455.7897
"113",81.881134,455.80304
"114",85.37484,455.81638
"115",88.866104,455.8297
"116",91.97162,455.84305
"117",94.4033,455.85638
"118",96.0293,455.86972
"119",96.83009,455.88306
"120",96.87648,455.8964
"121",96.30518,455.90973
"122",95.27001,455.92307
"123",93.91745,455.9364
"124",92.386665,455.94974
"125",90.7802,455.96307
"126",89.163956,455.9764
"127",87.586784,455.98975
"128",86.09506,456.00308
"129",84.732735,456.01642
"130",83.55352,456.02975
"131",82.62089,456.0431
"132",81.96658,456.05643
"133",81.5906,456.06976
"134",81.45632,456.0831
"135",81.4905,456.09644
"136",81.617455,456.10977
"137",81.75418,456.1231
"138",81.83719,456.13644
"139",81.812775,456.14978
"140",81.6614,456.16312
"141",81.36843,456.17645
"142",80.938736,456.1898
"143",80.39918,456.20312
"144",79.77905,456.21646
"145",79.10277,456.2298
"146",78.399635,456.24313
"147",77.69161,456.25647
"148",77.00557,456.2698
"149",76.35615,456.28314
"150",75.76044,456.29648
"151",75.22331,456.3098
"152",74.74967,456.32315
"153",74.339516,456.3365
"154",73.99527,456.34982
"155",73.71694,456.36316
"156",73.49966,456.3765
"157",73.34341,456.38983
"158",73.24086,456.40317
"159",73.18715,456.4165
"160",73.17006,456.42984
"161",73.18227,456.44318
"162",73.216446,456.4565
"163",73.25796,456.46985
"164",73.29946,456.4832
"165",73.338524,456.49652
"166",73.375145,456.50986
"167",73.4313,456.5232
"168",73.57534,456.53653
"169",73.953766,456.54987
"170",74.76921,456.5632
"171",76.207214,456.57654
"172",78.35325,456.58987
"173",81.13405,456.6032
"174",84.31037,456.61655
"175",87.53063,456.62988
"176",90.426186,456.64322
"177",92.7187,456.65656
"178",94.26414,456.6699
"179",95.02586,456.68323
"180",95.06737,456.69656
"181",94.50828,456.7099
"182",93.49264,456.72324
"183",92.16693,456.73657
"184",90.65568,456.7499
"185",89.05165,456.76324
"186",87.430534,456.77658
"187",85.8436,456.78992
"188",84.34211,456.80325
"189",82.99199,456.8166
"190",81.85672,456.82993
"191",80.99245,456.84326
"192",80.43824,456.8566
"193",80.18921,456.86993
"194",80.19409,456.88327
"195",80.37476,456.8966
"196",80.62867,456.90994
"197",80.86061,456.92328
"198",80.99245,456.9366
"199",80.970474,456.94995
"200",80.77516,456.9633
"201",80.40894,456.97662
"202",79.90112,456.98996
"203",79.28344,457.0033
"204",78.59739,457.01663
"205",77.88693,457.02997
"206",77.188675,457.0433
"207",76.52949,457.05664
"208",75.93622,457.06998
"209",75.421074,457.0833
"210",74.99382,457.09665
"211",74.649574,457.11
"212",74.38346,457.12332
"213",74.175934,457.13666
"214",74.022125,457.15
"215",73.900055,457.16333
"216",73.8024,457.17667
"217",73.7145,457.19
"218",73.62905,457.20334
"219",73.54116,457.21667
"220",73.443504,457.23
"221",73.34341,457.24335
"222",73.253075,457.25668
"223",73.18471,457.27002
"224",73.17006,457.28336
"225",73.26772,457.2967
"226",73.585106,457.31003
"227",74.29557,457.32336
"228",75.56756,457.3367
"229",77.50118,457.35004
"230",80.06714,457.36337
"231",83.08476,457.3767
"232",86.25132,457.39005
"233",89.22011,457.40338
"234",91.69817,457.41672
"235",93.507286,457.43005
"236",94.574196,457.4434
"237",94.925766,457.45673
"238",94.66453,457.47006
"239",93.91989,457.4834
"240",92.83833,457.49673
"241",91.54681,457.51007
"242",90.14053,457.5234
"243",88.67811,457.53674
"244",87.19859,457.55008
"245",85.72396,457.56342
"246",84.298164,457.57675
"247",82.97734,457.5901
"248",81.84207,457.60342
"249",80.955826,457.61676
"250",80.365,457.6301
"251",80.05737,457.64343
"252",79.991455,457.65677
"253",80.08423,457.6701
"254",80.23804,457.68344
"255",80.36988,457.69678
"256",80.41627,457.7101
"257",80.32838,457.72345
"258",80.09888,457.7368
"259",79.73022,457.75012
"260",79.23949,457.76346
"261",78.660866,457.7768
"262",78.02121,457.79013
"263",77.349815,457.80347
"264",76.680855,457.8168
"265",76.0412,457.83014
"266",75.44549,457.84348
"267",74.90593,457.8568
"268",74.43473,457.87015
"269",74.03433,457.88348
"270",73.704735,457.89682
"271",73.43862,457.91016
"272",73.23598,457.9235
"273",73.091934,457.93683
"274",72.98695,457.95016
"275",72.918594,457.9635
"276",72.87953,457.97684
"277",72.86488,457.99017
"278",72.86244,458.0035
"279",72.88197,458.01685
"280",72.95766,458.03018
"281",73.1725,458.04352
"282",73.687645,458.05685
"283",74.69352,458.0702
"284",76.33173,458.08353
"285",78.6218,458.09686
"286",81.43191,458.1102
"287",84.49836,458.12354
"288",87.481804,458.13687
"289",90.072174,458.1502
"290",92.05463,458.16354
"291",93.32906,458.17688
"292",93.907684,458.19022
"293",93.86862,458.20355
"294",93.34127,458.2169
"295",92.472115,458.23022
"296",91.393,458.24356
"297",90.21622,458.2569
"298",88.99794,458.27023
"299",87.75525,458.28357
"300",86.485695,458.2969
"301",85.19173,458.31024
"302",83.897766,458.32358
"303",82.66483,458.3369
"304",81.55886,458.35025
"305",80.65064,458.3636
"306",79.974365,458.37692
"307",79.5227,458.39026
"308",79.26879,458.4036
"309",79.14183,458.41693
"310",79.078354,458.43027
"311",79.012436,458.4436
"312",78.887924,458.45694
"313",78.67307,458.47028
"314",78.35325,458.4836
"315",77.93332,458.49695
"316",77.42794,458.51028
"317",76.859085,458.52362
"318",76.25605,458.53696
"319",75.64568,458.5503
"320",75.04997,458.56363
"321",74.486,458.57697
"322",73.96597,458.5903
"323",73.48501,458.60364
"324",73.05287,458.61697
"325",72.67689,458.6303
"326",72.35706,458.64365
"327",72.09827,458.65698
"328",71.89807,458.67032
"329",71.75647,458.68365
"330",71.66369,458.697
"331",71.61974,458.71033
"332",71.61486,458.72366
"333",71.64904,458.737
"334",71.69787,458.75034
"335",71.75891,458.76367
"336",71.81995,458.777
"337",71.888306,458.79034
"338",71.98352,458.80368
"339",72.181274,458.81702
"340",72.63294,458.83035
"341",73.52407,458.8437
"342",75.00603,458.85703
"343",77.13008,458.87036
"344",79.80835,458.8837
"345",82.794235,458.89703
"346",85.75815,458.91037
"347",88.38758,458.9237
"348",90.457924,458.93704
"349",91.85443,458.95038
"350",92.57954,458.9637
"351",92.71381,458.97705
"352",92.37446,458.9904
"353",91.7055,459.00372
"354",90.83147,459.01706
"355",89.85489,459.0304
"356",88.814835,459.04373
"357",87.73327,459.05707
"358",86.590675,459.0704
"359",85.384605,459.08374
"360",84.13458,459.09708
"361",82.88945,459.1104
"362",81.71023,459.12375
"363",80.6775,459.1371
"364",79.84497,459.15042
"365",79.237045,459.16376
"366",78.83421,459.1771
"367",78.60227,459.19043
"368",78.47288,459.20377
"369",78.38499,459.2171
"370",78.27024,459.23044
"371",78.08957,459.24377
"372",77.81857,459.2571
"373",77.45968,459.27045
"374",77.01778,459.28378
"375",76.5124,459.29712
"376",75.96307,459.31046
"377",75.39178,459.3238
"378",74.810715,459.33713
"379",74.24185,459.35046
"380",73.69985,459.3638
"381",73.20912,459.37714
"382",72.77699,459.39047
"383",72.410774,459.4038
"384",72.11536,459.41714
"385",71.88342,459.43048
"386",71.71252,459.44382
"387",71.59533,459.45715
"388",71.52453,459.4705
"389",71.483025,459.48383
"390",71.46349,459.49716
"391",71.46105,459.5105
"392",71.468376,459.52383
"393",71.48791,459.53717
"394",71.519646,459.5505
"395",71.56359,459.56384
"396",71.60754,459.57718
"397",71.65148,459.5905
"398",71.69787,459.60385
"399",71.74181,459.6172
"400",71.79065,459.63052
"401",71.83948,459.64386
"402",71.888306,459.6572
"403",71.93469,459.67053
"404",71.98108,459.68387
"405",72.03479,459.6972
"406",72.10315,459.71054
"407",72.18616,459.72388
"408",72.27894,459.7372
"409",72.38148,459.75055
"410",72.49134,459.7639
"411",72.60853,459.77722
"412",72.72816,459.79056
"413",72.85268,459.8039
"414",72.989395,459.81723
"415",73.16762,459.83057
"416",73.49966,459.8439
"417",74.175934,459.85724
"418",75.40154,459.87057
"419",77.298546,459.8839
"420",79.84985,459.89725
"421",82.85771,459.91058
"422",85.9852,459.92392
"423",88.86366,459.93726
"424",91.19524,459.9506
"425",92.83345,459.96393
"426",93.7612,459.97726
"427",94.05173,459.9906
"428",93.839325,460.00394
"429",93.27047,460.01727
"430",92.48676,460.0306
"431",91.60296,460.04395
"432",90.69474,460.05728
"433",89.80118,460.07062
"434",88.91737,460.08395
"435",88.026245,460.0973
"436",87.10338,460.11063
"437",86.15854,460.12396
"438",85.22102,460.1373
"439",84.34455,460.15063
"440",83.577934,460.16397
"441",82.97002,460.1773
"442",82.533,460.19064
"443",82.24979,460.20398
"444",82.07645,460.21732
"445",81.9617,460.23065
"446",81.85428,460.244
"447",81.705345,460.25732
"448",81.48806,460.27066
"449",81.18288,460.284
"450",80.78493,460.29733
"451",80.306404,460.31067
"452",79.764404,460.324
"453",79.18089,460.33734
"454",78.57786,460.35068
"455",77.98215,460.364
"456",77.418175,460.37735
"457",76.90303,460.3907
"458",76.453804,460.40402
"459",76.0827,460.41736
"460",75.792175,460.4307
"461",75.579765,460.44403
"462",75.43084,460.45737
"463",75.33074,460.4707
"464",75.264824,460.48404
"465",75.21843,460.49738
"466",75.18913,460.5107
"467",75.16472,460.52405
"468",75.142746,460.53738
"469",75.12077,460.55072
"470",75.0988,460.56406
"471",75.06462,460.5774
"472",75.028,460.59073
"473",74.986496,460.60406
"474",74.94499,460.6174
"475",74.90105,460.63074
"476",74.85222,460.64407
"477",74.80339,460.6574
"478",74.75212,460.67075
"479",74.69596,460.68408
"480",74.64469,460.69742
"481",74.600746,460.71075
"482",74.56168,460.7241
"483",74.529945,460.73743
"484",74.50309,460.75076
"485",74.478676,460.7641
"486",74.459145,460.77744
"487",74.44694,460.79077
"488",74.43961,460.8041
"489",74.442055,460.81744
"490",74.4567,460.83078
"491",74.48356,460.84412
"492",74.52262,460.85745
"493",74.57145,460.8708
"494",74.63004,460.88412
"495",74.68864,460.89746
"496",74.75456,460.9108
"497",74.827805,460.92413
"498",74.90837,460.93747
"499",74.98894,460.9508
"500",75.0695,460.96414
"501",75.15495,460.97748
"502",75.25994,460.9908
"503",75.4699,461.00415
"504",75.95087,461.0175
"505",76.91524,461.03082
"506",78.5095,461.04416
"507",80.743416,461.0575
"508",83.44854,461.07083
"509",86.30015,461.08417
"510",88.92226,461.0975
"511",90.9926,461.11084
"512",92.35737,461.12418
"513",93.016556,461.1375
"514",93.065384,461.15085
"515",92.65522,461.16418
"516",91.93988,461.17752
"517",91.05852,461.19086
"518",90.125885,461.2042
"519",89.22011,461.21753
"520",88.39002,461.23087
"521",87.64538,461.2442
"522",86.96422,461.25754
"523",86.31724,461.27087
"524",85.67269,461.2842
"525",85.02327,461.29755
"526",84.386055,461.31088
"527",83.79523,461.32422
"528",83.282524,461.33755
"529",82.879684,461.3509
"530",82.58427,461.36423
"531",82.38651,461.37756
"532",82.25956,461.3909
"533",82.16922,461.40424
"534",82.074005,461.41757
"535",81.94461,461.4309
"536",81.75662,461.44424
"537",81.497826,461.45758
"538",81.160904,461.47092
"539",80.75563,461.48425
"540",80.30152,461.4976
"541",79.815674,461.51093
"542",79.31762,461.52426
"543",78.82201,461.5376
"544",78.35081,461.55093
"545",77.90402,461.56427
"546",77.49386,461.5776
"547",77.13252,461.59094
"548",76.81758,461.60428
"549",76.55146,461.6176
"550",76.32685,461.63095
"551",76.13397,461.6443
"552",75.97284,461.65762
"553",75.83368,461.67096
"554",75.72381,461.6843
"555",75.64324,461.69763
"556",75.59197,461.71097
"557",75.55291,461.7243
"558",75.51873,461.73764
"559",75.48455,461.75098
"560",75.44549,461.7643
"561",75.40887,461.77765
"562",75.369804,461.791
"563",75.338066,461.80432
"564",75.30877,461.81766
"565",75.284355,461.831
"566",75.264824,461.84433
"567",75.24773,461.85767
"568",75.23308,461.871
"569",75.21355,461.88434
"570",75.191574,461.89767
"571",75.17204,461.911
"572",75.15495,461.92435
"573",75.15007,461.93768
"574",75.15495,461.95102
"575",75.16716,461.96436
"576",75.18425,461.9777
"577",75.20622,461.99103
"578",75.23796,462.00436
"579",75.27459,462.0177
"580",75.31121,462.03104
"581",75.355156,462.04437
"582",75.403984,462.0577
"583",75.45525,462.07104
"584",75.51629,462.08438
"585",75.58953,462.09772
"586",75.6701,462.11105
"587",75.75067,462.1244
"588",75.8288,462.13773
"589",75.90936,462.15106
"590",76.016785,462.1644
"591",76.243835,462.17773
"592",76.75899,462.19107
"593",77.76242,462.2044
"594",79.381096,462.21774
"595",81.60769,462.23108
"596",84.26154,462.24442
"597",87.00816,462.25775
"598",89.47402,462.2711
"599",91.35638,462.28442
"600",92.51362,462.29776
"601",92.95064,462.3111
"602",92.77486,462.32443
"603",92.14252,462.33777
"604",91.21721,462.3511
"605",90.125885,462.36444
"606",88.97841,462.37778
"607",87.85535,462.3911
"608",86.80797,462.40445
"609",85.86313,462.4178
"610",85.02815,462.43112
"611",84.300606,462.44446
"612",83.66338,462.4578
"613",83.106735,462.47113
"614",82.64042,462.48447
"615",82.28153,462.4978
"616",82.04227,462.51114
"617",81.92508,462.52448
"618",81.917755,462.5378
"619",81.99344,462.55115
"620",82.10574,462.56448
"621",82.213165,462.57782
"622",82.27177,462.59116
"623",82.2449,462.6045
"624",82.11795,462.61783
"625",81.88846,462.63116
"626",81.57107,462.6445
"627",81.18532,462.65784
"628",80.75807,462.67117
"629",80.31373,462.6845
"630",79.86694,462.69785
"631",79.432365,462.71118
"632",79.027084,462.72452
"633",78.64866,462.73785
"634",78.30686,462.7512
"635",78.00656,462.76453
"636",77.74532,462.77786
"637",77.51583,462.7912
"638",77.3254,462.80453
"639",77.16914,462.81787
"640",77.049515,462.8312
"641",76.95186,462.84454
"642",76.8835,462.85788
"643",76.83711,462.87122
"644",76.8127,462.88455
"645",76.79805,462.8979
"646",76.790726,462.91122
"647",76.7834,462.92456
"648",76.77608,462.9379
"649",76.76143,462.95123
"650",76.74677,462.96457
"651",76.72724,462.9779
"652",76.71259,462.99124
"653",76.700386,463.00458
"654",76.68818,463.0179
"655",76.67597,463.03125
"656",76.66132,463.0446
"657",76.646675,463.05792
"658",76.629585,463.07126
"659",76.61494,463.0846
"660",76.60517,463.09793
"661",76.60517,463.11127
"662",76.60761,463.1246
"663",76.61738,463.13794
"664",76.629585,463.15128
"665",76.64423,463.1646
"666",76.65644,463.17795
"667",76.67109,463.19128
"668",76.69306,463.20462
"669",76.717476,463.21796
"670",76.74433,463.2313
"671",76.77852,463.24463
"672",76.81758,463.25797
"673",76.859085,463.2713
"674",76.89815,463.28464
"675",76.944534,463.29797
"676",77.0251,463.3113
"677",77.21065,463.32465
"678",77.659874,463.33798
"679",78.56809,463.35132
"680",80.059814,463.36465
"681",82.12039,463.378
"682",84.58137,463.39133
"683",87.12291,463.40466
"684",89.38613,463.418
"685",91.08049,463.43134
"686",92.06439,463.44467
"687",92.34516,463.458
"688",92.02777,463.47134
"689",91.25872,463.48468
"690",90.18204,463.49802
"691",88.93446,463.51135
"692",87.6112,463.5247
"693",86.28306,463.53802
"694",85.00862,463.55136
"695",83.81964,463.5647
"696",82.74052,463.57803
"697",81.79324,463.59137
"698",81.004654,463.6047
"699",80.40406,463.61804
"700",80.02075,463.63138
"701",79.87427,463.6447
"702",79.96216,463.65805
"703",80.255135,463.6714
"704",80.67994,463.68472
"705",81.16579,463.69806
"706",81.62234,463.7114
"707",81.98123,463.72473
"708",82.196075,463.73807
"709",82.247345,463.7514
"710",82.13992,463.76474
"711",81.89578,463.77808
"712",81.55398,463.7914
"713",81.143814,463.80475
"714",80.69947,463.81808
"715",80.24292,463.83142
"716",79.801025,463.84476
"717",79.38598,463.8581
"718",79.00755,463.87143
"719",78.66575,463.88477
"720",78.365456,463.8981
"721",78.10666,463.91144
"722",77.88205,463.92477
"723",77.69405,463.9381
"724",77.54757,463.95145
"725",77.43282,463.96478
"726",77.347374,463.97812
"727",77.28634,463.99146
"728",77.24971,464.0048
"729",77.23262,464.01813
"730",77.22774,464.03146
"731",77.23506,464.0448
"732",77.24483,464.05814
"733",77.25704,464.07147
"734",77.26681,464.0848
"735",77.279015,464.09814
"736",77.296104,464.11148
"737",77.315636,464.12482
"738",77.33517,464.13815
"739",77.3547,464.1515
"740",77.37423,464.16483
"741",77.38644,464.17816
"742",77.3962,464.1915
"743",77.401085,464.20483
"744",77.40597,464.21817
"745",77.40353,464.2315
"746",77.401085,464.24484
"747",77.3962,464.25818
"748",77.3962,464.2715
"749",77.3962,464.28485
"750",77.39864,464.2982
"751",77.40597,464.31152
"752",77.41329,464.32486
"753",77.420616,464.3382
"754",77.435265,464.35153
"755",77.45968,464.36487
"756",77.51583,464.3782
"757",77.68917,464.39154
"758",78.12619,464.40488
"759",78.98558,464.4182
"760",80.36744,464.43155
"761",82.247345,464.4449
"762",84.44953,464.45822
"763",86.68345,464.47156
"764",88.63172,464.4849
"765",90.04532,464.49823
"766",90.81926,464.51157
"767",90.95842,464.5249
"768",90.55802,464.53824
"769",89.73525,464.55157
"770",88.621956,464.5649
"771",87.327995,464.57825
"772",85.943695,464.59158
"773",84.53986,464.60492
"774",83.16777,464.61826
"775",81.864044,464.6316
"776",80.672615,464.64493
"777",79.64233,464.65826
"778",78.82445,464.6716
"779",78.27268,464.68494
"780",78.030975,464.69827
"781",78.11398,464.7116
"782",78.48997,464.72495
"783",79.08812,464.73828
"784",79.818115,464.75162
"785",80.56519,464.76495
"786",81.231705,464.7783
"787",81.74197,464.79163
"788",82.0618,464.80496
"789",82.18143,464.8183
"790",82.125275,464.83163
"791",81.92264,464.84497
"792",81.62234,464.8583
"793",81.253685,464.87164
"794",80.848404,464.88498
"795",80.430916,464.89832
"796",80.02319,464.91165
"797",79.62768,464.925
"798",79.26147,464.93832
"799",78.92943,464.95166
"800",78.63889,464.965
"801",78.38987,464.97833
"802",78.1799,464.99167
"803",78.011444,465.005
"804",77.88205,465.01834
"805",77.78195,465.03168
"806",77.70626,465.045
"807",77.65255,465.05835
"808",77.61349,465.0717
"809",77.58907,465.08502
"810",77.58175,465.09836
"811",77.591515,465.1117
"812",77.62081,465.12503
"813",77.65743,465.13837
"814",77.696495,465.1517
"815",77.73556,465.16504
"816",77.77219,465.17838
"817",77.803925,465.1917
"818",77.838104,465.20505
"819",77.872284,465.21838
"820",77.89914,465.23172
"821",77.91867,465.24506
"822",77.93088,465.2584
"823",77.93576,465.27173
"824",77.94064,465.28506
"825",77.945526,465.2984
"826",77.94797,465.31174
"827",77.95285,465.32507
"828",77.95285,465.3384
"829",77.95773,465.35175
"830",77.979706,465.36508
"831",78.065155,465.37842
"832",78.30686,465.39175
"833",78.836655,465.4051
"834",79.75952,465.41843
"835",81.10719,465.43176
"836",82.78935,465.4451
"837",84.60334,465.45844
"838",86.278175,465.47177
"839",87.569695,465.4851
"840",88.33143,465.49844
"841",88.51942,465.51178
"842",88.182495,465.52512
"843",87.42321,465.53845
"844",86.3563,465.5518
"845",85.08186,465.56512
"846",83.69024,465.57846
"847",82.2449,465.5918
"848",80.80446,465.60513
"849",79.40795,465.61847
"850",78.116425,465.6318
"851",76.98848,465.64514
"852",76.09247,465.65848
"853",75.48943,465.6718
"854",75.24284,465.68515
"855",75.39666,465.6985
"856",75.945984,465.71182
"857",76.839554,465.72516
"858",77.979706,465.7385
"859",79.234604,465.75183
"860",80.45533,465.76517
"861",81.50515,465.7785
"862",82.29374,465.79184
"863",82.777145,465.80518
"864",82.95781,465.8185
"865",82.87724,465.83185
"866",82.58915,465.84518
"867",82.15701,465.85852
"868",81.63943,465.87186
"869",81.08034,465.8852
"870",80.51148,465.89853
"871",79.957275,465.91187
"872",79.43725,465.9252
"873",78.95628,465.93854
"874",78.51682,465.95187
"875",78.12863,465.9652
"876",77.7966,465.97855
"877",77.52804,465.99188
"878",77.32052,466.00522
"879",77.171585,466.01855
"880",77.08125,466.0319
"881",77.03975,466.04523
"882",77.03731,466.05856
"883",77.07149,466.0719
"884",77.134964,466.08524
"885",77.225296,466.09857
"886",77.32296,466.1119
"887",77.42794,466.12524
"888",77.52804,466.13858
"889",77.62081,466.15192
"890",77.70626,466.16525
"891",77.78439,466.1786
"892",77.855194,466.19193
"893",77.92355,466.20526
"894",77.977264,466.2186
"895",78.01877,466.23193
"896",78.048065,466.24527
"897",78.065155,466.2586
"898",78.06271,466.27194
"899",78.048065,466.28528
"900",78.01877,466.2986
"901",77.98459,466.31195
"902",77.95285,466.3253
"903",77.96994,466.33862
"904",78.101776,466.35196
"905",78.433815,466.3653
"906",79.03929,466.37863
"907",79.9353,466.39197
"908",81.075455,466.4053
"909",82.33036,466.41864
"910",83.53643,466.43198
"911",84.52766,466.4453
"912",85.189285,466.45865
"913",85.472496,466.472
"914",85.37972,466.48532
"915",84.95735,466.49866
"916",84.27375,466.512
"917",83.39971,466.52533
"918",82.391396,466.53867
"919",81.31716,466.552
"920",80.23071,466.56534
"921",79.19066,466.57867
"922",78.25803,466.592
"923",77.486534,466.60535
"924",76.92256,466.61868
"925",76.58808,466.63202
"926",76.50263,466.64536
"927",76.65156,466.6587
"928",77.01045,466.67203
"929",77.52804,466.68536
"930",78.1384,466.6987
"931",78.77806,466.71204
"932",79.381096,466.72537
"933",79.89868,466.7387
"934",80.30152,466.75204
"935",80.57984,466.76538
"936",80.73609,466.77872
"937",80.7776,466.79205
"938",80.72877,466.8054
"939",80.60914,466.81873
"940",80.44068,466.83206
"941",80.24292,466.8454
"942",80.0354,466.85873
"943",79.823,466.87207
"944",79.61059,466.8854
"945",79.40307,466.89874
"946",79.20531,466.91208
"947",79.01732,466.9254
"948",78.84886,466.93875
"949",78.70725,466.9521
"950",78.58762,466.96542
"951",78.485085,466.97876
"952",78.40208,466.9921
"953",78.34104,467.00543
"954",78.29221,467.01877
"955",78.26292,467.0321
"956",78.25315,467.04544
"957",78.260475,467.05878
"958",78.28489,467.0721
"959",78.32151,467.08545
"960",78.37278,467.0988
"961",78.46067,467.11212
"962",78.658424,467.12546
"963",79.09056,467.1388
"964",79.89868,467.15213
"965",81.16823,467.16547
"966",82.88457,467.1788
"967",84.92317,467.19214
"968",87.05943,467.20547
"969",89.03212,467.2188
"970",90.62638,467.23215
"971",91.70794,467.24548
"972",92.22797,467.25882
"973",92.20111,467.27216
"974",91.69573,467.2855
"975",90.81682,467.29883
"976",89.66201,467.31216
"977",88.33387,467.3255
"978",86.92027,467.33884
"979",85.47982,467.35217
"980",84.0589,467.3655
"981",82.69901,467.37885
"982",81.449,467.39218
"983",80.35767,467.40552
"984",79.48119,467.41885
"985",78.873276,467.4322
"986",78.56809,467.44553
"987",78.57542,467.45886
"988",78.86351,467.4722
"989",79.37621,467.48553
"990",80.025635,467.49887
"991",80.71412,467.5122
"992",81.358665,467.52554
"993",81.8909,467.53888
"994",82.269325,467.55222
"995",82.4744,467.56555
"996",82.51591,467.5789
"997",82.406044,467.59222
"998",82.1741,467.60556
"999",81.849396,467.6189
"1000",81.463646,467.63223
"1001",81.04616,467.64557
"1002",80.61158,467.6589
"1003",80.177,467.67224
"1004",79.75952,467.68558
"1005",79.364006,467.6989
"1006",79.00267,467.71225
"1007",78.68528,467.7256
"1008",78.41428,467.73892
"1009",78.18967,467.75226
"1010",78.01633,467.7656
"1011",77.891815,467.77893
"1012",77.803925,467.79227
"1013",77.747765,467.8056
"1014",77.71603,467.81894
"1015",77.70382,467.83228
"1016",77.70626,467.8456
"1017",77.730675,467.85895
"1018",77.803925,467.87228
"1019",78.02121,467.88562
"1020",78.53391,467.89896
"1021",79.51293,467.9123
"1022",81.06325,467.92563
"1023",83.17265,467.93896
"1024",85.68246,467.9523
"1025",88.33143,467.96564
"1026",90.81438,467.97897
"1027",92.86519,467.9923
"1028",94.3325,468.00565
"1029",95.1577,468.01898
"1030",95.35546,468.03232
"1031",94.99901,468.04565
"1032",94.19821,468.059
"1033",93.067825,468.07233
"1034",91.717705,468.08566
"1035",90.252846,468.099
"1036",88.74891,468.11234
"1037",87.26208,468.12567
"1038",85.83383,468.139
"1039",84.5008,468.15234
"1040",83.29473,468.16568
"1041",82.25956,468.17902
"1042",81.43923,468.19235
"1043",80.87526,468.2057
"1044",80.59205,468.21902
"1045",80.57252,468.23236
"1046",80.765396,468.2457
"1047",81.09987,468.25903
"1048",81.49294,468.27237
"1049",81.85672,468.2857
"1050",82.125275,468.29904
"1051",82.266884,468.31238
"1052",82.266884,468.3257
"1053",82.12283,468.33905
"1054",81.85428,468.3524
"1055",81.480736,468.36572
"1056",81.02907,468.37906
"1057",80.51881,468.3924
"1058",79.97925,468.40573
"1059",79.4226,468.41907
"1060",78.873276,468.4324
"1061",78.345924,468.44574
"1062",77.85031,468.45908
"1063",77.39132,468.4724
"1064",76.981155,468.48575
"1065",76.61494,468.49908
"1066",76.30244,468.51242
"1067",76.033875,468.52576
"1068",75.81415,468.5391
"1069",75.63592,468.55243
"1070",75.4992,468.56577
"1071",75.39666,468.5791
"1072",75.32342,468.59244
"1073",75.27215,468.60577
"1074",75.24284,468.6191
"1075",75.24773,468.63245
"1076",75.335625,468.64578
"1077",75.62859,468.65912
"1078",76.30244,468.67245
"1079",77.52071,468.6858
"1080",79.344475,468.69913
"1081",81.70046,468.71246
"1082",84.386055,468.7258
"1083",87.10338,468.73914
"1084",89.547264,468.75247
"1085",91.493095,468.7658
"1086",92.823685,468.77914
"1087",93.51217,468.79248
"1088",93.60006,468.80582
"1089",93.18013,468.81915
"1090",92.367134,468.8325
"1091",91.283134,468.84583
"1092",90.03555,468.85916
"1093",88.72205,468.8725
"1094",87.40612,468.88583
"1095",86.134125,468.89917
"1096",84.9305,468.9125
"1097",83.80499,468.92584
"1098",82.774704,468.93918
"1099",81.864044,468.9525
"1100",81.10719,468.96585
"1101",80.52369,468.9792
"1102",80.14038,468.99252
"1103",79.940186,469.00586
"1104",79.89136,469.0192
"1105",79.940186,469.03253
"1106",80.03784,469.04587
"1107",80.128174,469.0592
"1108",80.16968,469.07254
"1109",80.12573,469.08588
"1110",79.98413,469.0992
"1111",79.742424,469.11255
"1112",79.40795,469.1259
"1113",79.00267,469.13922
"1114",78.54124,469.15256
"1115",78.04074,469.1659
"1116",77.5256,469.17923
"1117",77.00069,469.19257
"1118",76.48554,469.2059
"1119",75.98505,469.21924
"1120",75.508965,469.23257
"1121",75.06462,469.2459
"1122",74.66422,469.25925
"1123",74.30045,469.27258
"1124",73.987946,469.28592
"1125",73.724266,469.29926
"1126",73.50942,469.3126
"1127",73.338524,469.32593
"1128",73.21156,469.33926
"1129",73.12123,469.3526
"1130",73.060196,469.36594
"1131",73.023575,469.37927
"1132",73.006485,469.3926
"1133",73.0016,469.40594
"1134",73.02113,469.41928
"1135",73.111465,469.43262
"1136",73.38979,469.44595
"1137",74.03189,469.4593
"1138",75.191574,469.47263
"1139",76.9543,469.48596
"1140",79.26391,469.4993
"1141",81.92996,469.51263
"1142",84.65949,469.52597
"1143",87.149765,469.5393
"1144",89.163956,469.55264
"1145",90.582436,469.56598
"1146",91.371025,469.5793
"1147",91.5761,469.59265
"1148",91.283134,469.606
"1149",90.599525,469.61932
"1150",89.64248,469.63266
"1151",88.51209,469.646
"1152",87.30358,469.65933
"1153",86.0853,469.67267
"1154",84.89632,469.686
"1155",83.756165,469.69934
"1156",82.68192,469.71268
"1157",81.6907,469.726
"1158",80.80202,469.73935
"1159",80.04761,469.7527
"1160",79.45678,469.76602
"1161",79.044174,469.77936
"1162",78.80003,469.7927
"1163",78.69993,469.80603
"1164",78.69749,469.81937
"1165",78.751205,469.8327
"1166",78.8098,469.84604
"1167",78.82933,469.85938
"1168",78.7805,469.8727
"1169",78.643776,469.88605
"1170",78.41184,469.89938
"1171",78.099335,469.91272
"1172",77.71603,469.92606
"1173",77.2839,469.9394
"1174",76.82002,469.95273
"1175",76.33906,469.96606
"1176",75.85321,469.9794
"1177",75.38201,469.99274
"1178",74.92546,470.00607
"1179",74.50065,470.0194
"1180",74.11246,470.03275
"1181",73.763336,470.04608
"1182",73.460594,470.05942
"1183",73.20668,470.07275
"1184",72.99916,470.0861
"1185",72.83559,470.09943
"1186",72.71595,470.11276
"1187",72.63294,470.1261
"1188",72.59144,470.13943
"1189",72.57923,470.15277
"1190",72.59632,470.1661
"1191",72.63538,470.17944
"1192",72.68665,470.19278
"1193",72.74525,470.20612
"1194",72.81117,470.21945
"1195",72.88197,470.2328
"1196",72.96498,470.24612
"1197",73.109024,470.25946
"1198",73.4313,470.2728
"1199",74.10025,470.28613
"1200",75.27703,470.29947
"1201",77.04463,470.3128
"1202",79.36889,470.32614
"1203",82.05936,470.33948
"1204",84.825516,470.3528
"1205",87.35485,470.36615
"1206",89.408104,470.3795
"1207",90.83879,470.39282
"1208",91.61761,470.40616
"1209",91.77875,470.4195
"1210",91.41985,470.43283
"1211",90.66544,470.44617
"1212",89.64004,470.4595
"1213",88.446175,470.47284
"1214",87.1815,470.48618
"1215",85.909515,470.4995
"1216",84.66926,470.51285
"1217",83.48516,470.52618
"1218",82.38651,470.53952
"1219",81.409935,470.55286
"1220",80.58961,470.5662
"1221",79.954834,470.57953
"1222",79.52758,470.59286
"1223",79.29565,470.6062
"1224",79.22728,470.61954
"1225",79.276115,470.63287
"1226",79.38598,470.6462
"1227",79.50805,470.65955
"1228",79.5935,470.67288
"1229",79.605705,470.68622
"1230",79.520256,470.69955
"1231",79.33959,470.7129
"1232",79.06859,470.72623
"1233",78.7219,470.73956
"1234",78.314186,470.7529
"1235",77.8674,470.76624
"1236",77.38888,470.77957
"1237",76.893265,470.7929
"1238",76.40009,470.80624
"1239",75.92401,470.81958
"1240",75.47967,470.83292
"1241",75.07683,470.84625
"1242",74.720375,470.8596
"1243",74.41032,470.87292
"1244",74.141754,470.88626
"1245",73.9147,470.8996
"1246",73.72671,470.91293
"1247",73.57778,470.92627
"1248",73.46548,470.9396
"1249",73.38979,470.95294
"1250",73.35073,470.96628
"1251",73.33608,470.9796
"1252",73.34341,470.99295
"1253",73.37026,471.0063
"1254",73.40688,471.01962
"1255",73.45327,471.03296
"1256",73.50454,471.0463
"1257",73.55825,471.05963
"1258",73.60464,471.07297
"1259",73.63882,471.0863
"1260",73.670555,471.09964
"1261",73.75357,471.11298
"1262",74.00015,471.1263
"1263",74.58854,471.13965
"1264",75.69207,471.15298
"1265",77.41329,471.16632
"1266",79.710686,471.17966
"1267",82.40116,471.193
"1268",85.19173,471.20633
"1269",87.75769,471.21967
"1270",89.847565,471.233
"1271",91.30511,471.24634
"1272",92.086365,471.25967
"1273",92.23041,471.273
"1274",91.83734,471.28635
"1275",91.0219,471.29968
"1276",89.91348,471.31302
"1277",88.621956,471.32635
"1278",87.24742,471.3397
"1279",85.85092,471.35303
"1280",84.48615,471.36636
"1281",83.19707,471.3797
"1282",82.02762,471.39304
"1283",81.024185,471.40637
"1284",80.22827,471.4197
"1285",79.67162,471.43304
"1286",79.36645,471.44638
"1287",79.290764,471.45972
"1288",79.3933,471.47305
"1289",79.60815,471.4864
"1290",79.8645,471.49973
"1291",80.09888,471.51306
"1292",80.26734,471.5264
"1293",80.33326,471.53973
"1294",80.289314,471.55307
"1295",80.130615,471.5664
"1296",79.871826,471.57974
"1297",79.517815,471.59308
"1298",79.09544,471.6064
"1299",78.626686,471.61975
"1300",78.13107,471.6331
"1301",77.63058,471.64642
"1302",77.14229,471.65976
"1303",76.67109,471.6731
"1304",76.23407,471.68643
"1305",75.8288,471.69977
"1306",75.46502,471.7131
"1307",75.15007,471.72644
"1308",74.881516,471.73978
"1309",74.65934,471.7531
"1310",74.48844,471.76645
"1311",74.36637,471.7798
"1312",74.28092,471.79312
"1313",74.232086,471.80646
"1314",74.21988,471.8198
"1315",74.23941,471.83313
"1316",74.285805,471.84647
"1317",74.35172,471.8598
"1318",74.42985,471.87314
"1319",74.5153,471.88647
"1320",74.59342,471.8998
"1321",74.666664,471.91315
"1322",74.75456,471.92648
"1323",74.92546,471.93982
"1324",75.30877,471.95316
"1325",76.068054,471.9665
"1326",77.32784,471.97983
"1327",79.1223,471.99316
"1328",81.36355,472.0065
"1329",83.844055,472.01984
"1330",86.27085,472.03317
"1331",88.377815,472.0465
"1332",89.96719,472.05984
"1333",90.94621,472.07318
"1334",91.30511,472.08652
"1335",91.10002,472.09985
"1336",90.426186,472.1132
"1337",89.410545,472.12653
"1338",88.1532,472.13986
"1339",86.744484,472.1532
"1340",85.26498,472.16653
"1341",83.775696,472.17987
"1342",82.337685,472.1932
"1343",81.01442,472.20654
"1344",79.87915,472.21988
"1345",79.00755,472.23322
"1346",78.44602,472.24655
"1347",78.221405,472.2599
"1348",78.30686,472.27322
"1349",78.63401,472.28656
"1350",79.10765,472.2999
"1351",79.635,472.31323
"1352",80.11597,472.32657
"1353",80.48707,472.3399
"1354",80.70435,472.35324
"1355",80.75563,472.36658
"1356",80.64332,472.3799
"1357",80.394295,472.39325
"1358",80.04028,472.4066
"1359",79.61059,472.41992
"1360",79.132065,472.43326
"1361",78.62913,472.4466
"1362",78.12131,472.45993
"1363",77.62325,472.47327
"1364",77.14961,472.4866
"1365",76.71259,472.49994
"1366",76.317085,472.51328
"1367",75.9704,472.5266
"1368",75.6701,472.53995
"1369",75.421074,472.55328
"1370",75.23308,472.56662
"1371",75.09636,472.57996
"1372",75.00847,472.5933
"1373",74.97185,472.60663
"1374",74.97185,472.61996
"1375",74.99626,472.6333
"1376",75.04265,472.64664
"1377",75.0988,472.65997
"1378",75.17937,472.6733
"1379",75.33074,472.68665
"1380",75.65789,472.69998
"1381",76.314644,472.71332
"1382",77.454796,472.72665
"1383",79.14427,472.74
"1384",81.33425,472.75333
"1385",83.84894,472.76666
"1386",86.42466,472.78
"1387",88.76601,472.79333
"1388",90.65324,472.80667
"1389",91.95453,472.82
"1390",92.63325,472.83334
"1391",92.7187,472.84668
"1392",92.298775,472.86002
"1393",91.48333,472.87335
"1394",90.38224,472.8867
"1395",89.0956,472.90002
"1396",87.711296,472.91336
"1397",86.29282,472.9267
"1398",84.88899,472.94003
"1399",83.546196,472.95337
"1400",82.31327,472.9667
"1401",81.253685,472.98004
"1402",80.41871,472.99338
"1403",79.85474,473.0067
"1404",79.57885,473.02005
"1405",79.56176,473.0334
"1406",79.7351,473.04672
"1407",80.02075,473.06006
"1408",80.32838,473.0734
"1409",80.58961,473.08673
"1410",80.75075,473.10007
"1411",80.780045,473.1134
"1412",80.672615,473.12674
"1413",80.43336,473.14008
"1414",80.08179,473.1534
"1415",79.639885,473.16675
"1416",79.13939,473.18008
"1417",78.607155,473.19342
"1418",78.065155,473.20676
"1419",77.53536,473.2201
"1420",77.032425,473.23343
"1421",76.56855,473.24677
"1422",76.15106,473.2601
"1423",75.78485,473.27344
"1424",75.46746,473.28677
"1425",75.1989,473.3001
"1426",74.97429,473.31345
"1427",74.79607,473.32678
"1428",74.66178,473.34012
"1429",74.5568,473.35345
"1430",74.48112,473.3668
"1431",74.42985,473.38013
"1432",74.40299,473.39346
"1433",74.42008,473.4068
"1434",74.54459,473.42014
"1435",74.898605,473.43347
"1436",75.63592,473.4468
"1437",76.893265,473.46014
"1438",78.7219,473.47348
"1439",81.0486,473.48682
"1440",83.67559,473.50015
"1441",86.32212,473.5135
"1442",88.70496,473.52682
"1443",90.60929,473.54016
"1444",91.92523,473.5535
"1445",92.62104,473.56683
"1446",92.74067,473.58017
"1447",92.3769,473.5935
"1448",91.63958,473.60684
"1449",90.63615,473.62018
"1450",89.47158,473.6335
"1451",88.224,473.64685
"1452",86.94713,473.6602
"1453",85.67269,473.67352
"1454",84.43,473.68686
"1455",83.245895,473.7002
"1456",82.16678,473.71353
"1457",81.24391,473.72687
"1458",80.516365,473.7402
"1459",80.01099,473.75354
"1460",79.727776,473.76688
"1461",79.62524,473.7802
"1462",79.656975,473.79355
"1463",79.75708,473.8069
"1464",79.86206,473.82022
"1465",79.91577,473.83356
"1466",79.87915,473.8469
"1467",79.725334,473.86023
"1468",79.45678,473.87357
"1469",79.078354,473.8869
"1470",78.60471,473.90024
"1471",78.065155,473.91357
"1472",77.49142,473.9269
"1473",76.90791,473.94025
"1474",76.33906,473.95358
"1475",75.7995,473.96692
"1476",75.299,473.98026
"1477",74.84978,473.9936
"1478",74.44938,474.00693
"1479",74.10513,474.02026
"1480",73.81949,474.0336
"1481",73.59243,474.04694
"1482",73.426414,474.06027
"1483",73.31167,474.0736
"1484",73.24086,474.08694
"1485",73.20424,474.10028
"1486",73.19203,474.11362
"1487",73.19203,474.12695
"1488",73.20424,474.1403
"1489",73.231094,474.15363
"1490",73.323875,474.16696
"1491",73.59731,474.1803
"1492",74.20767,474.19363
"1493",75.31609,474.20697
"1494",77.02022,474.2203
"1495",79.28832,474.23364
"1496",81.95682,474.24698
"1497",84.754715,474.2603
"1498",87.37682,474.27365
"1499",89.57412,474.287
"1500",91.18303,474.30032
"1501",92.14984,474.31366
"1502",92.49653,474.327
"1503",92.31098,474.34033
"1504",91.71038,474.35367
"1505",90.81926,474.367
"1506",89.74746,474.38034
"1507",88.59022,474.39368
"1508",87.398796,474.407
"1509",86.202484,474.42035
"1510",85.015945,474.4337
"1511",83.84894,474.44702
"1512",82.73319,474.46036
"1513",81.705345,474.4737
"1514",80.816666,474.48703
"1515",80.111084,474.50037
"1516",79.60815,474.5137
"1517",79.29809,474.52704
"1518",79.149155,474.54037
"1519",79.10765,474.5537
"1520",79.11742,474.56705
"1521",79.11253,474.58038
"1522",79.05394,474.59372
"1523",78.91234,474.60706
"1524",78.67307,474.6204
"1525",78.33616,474.63373
"1526",77.91379,474.64706
"1527",77.420616,474.6604
"1528",76.8835,474.67374
"1529",76.32685,474.68707
"1530",75.76776,474.7004
"1531",75.228195,474.71375
"1532",74.720375,474.72708
"1533",74.25651,474.74042
"1534",73.8439,474.75375
"1535",73.48257,474.7671
"1536",73.18471,474.78043
"1537",72.94301,474.79376
"1538",72.75746,474.8071
"1539",72.620735,474.82043
"1540",72.5304,474.83377
"1541",72.48646,474.8471
"1542",72.481575,474.86044
"1543",72.50355,474.87378
"1544",72.54749,474.88712
"1545",72.60609,474.90045
"1546",72.672005,474.9138
"1547",72.74769,474.92712
"1548",72.8307,474.94046
"1549",72.91127,474.9538
"1550",72.989395,474.96713
"1551",73.06264,474.98047
"1552",73.15297,474.9938
"1553",73.31655,475.00714
"1554",73.68032,475.02048
"1555",74.42741,475.0338
"1556",75.716484,475.04715
"1557",77.63546,475.0605
"1558",80.14038,475.07382
"1559",83.035934,475.08716
"1560",86.02182,475.1005
"1561",88.780655,475.11383
"1562",91.04875,475.12717
"1563",92.682076,475.1405
"1564",93.6318,475.15384
"1565",93.93454,475.16718
"1566",93.69283,475.1805
"1567",93.033646,475.19385
"1568",92.086365,475.20718
"1569",90.97063,475.22052
"1570",89.776764,475.23386
"1571",88.54871,475.2472
"1572",87.31823,475.26053
"1573",86.09018,475.27386
"1574",84.87923,475.2872
"1575",83.70977,475.30054
"1576",82.62577,475.31387
"1577",81.685814,475.3272
"1578",80.93385,475.34055
"1579",80.396736,475.35388
"1580",80.07202,475.36722
"1581",79.920654,475.38055
"1582",79.88403,475.3939
"1583",79.8938,475.40723
"1584",79.886475,475.42056
"1585",79.815674,475.4339
"1586",79.65209,475.44724
"1587",79.381096,475.46057
"1588",79.00755,475.4739
"1589",78.54368,475.48724
"1590",78.011444,475.50058
"1591",77.43282,475.51392
"1592",76.841995,475.52725
"1593",76.26093,475.5406
"1594",75.7116,475.55392
"1595",75.20622,475.56726
"1596",74.74967,475.5806
"1597",74.35172,475.59393
"1598",74.00992,475.60727
"1599",73.73159,475.6206
"1600",73.514305,475.63394
"1601",73.358055,475.64728
"1602",73.255516,475.6606
"1603",73.199356,475.67395
"1604",73.18471,475.6873
"1605",73.199356,475.70062
"1606",73.23598,475.71396
"1607",73.28481,475.7273
"1608",73.34585,475.74063
"1609",73.402,475.75397
"1610",73.45327,475.7673
"1611",73.497215,475.78064
"1612",73.53872,475.79398
"1613",73.5729,475.8073
"1614",73.61196,475.82065
"1615",73.64858,475.83398
"1616",73.687645,475.84732
"1617",73.721825,475.86066
"1618",73.75113,475.874
"1619",73.780426,475.88733
"1620",73.80972,475.90067
"1621",73.848785,475.914
"1622",73.89273,475.92734
"1623",73.94888,475.94067
"1624",74.01236,475.954
"1625",74.0856,475.96735
"1626",74.16373,475.98068
"1627",74.25651,475.99402
"1628",74.3859,476.00735
"1629",74.63004,476.0207
"1630",75.14763,476.03403
"1631",76.13641,476.04736
"1632",77.7673,476.0607
"1633",80.09155,476.07404
"1634",83.0164,476.08737
"1635",86.28794,476.1007
"1636",89.549706,476.11404
"1637",92.457466,476.12738
"1638",94.75731,476.14072
"1639",96.31739,476.15405
"1640",97.12062,476.1674
"1641",97.2256,476.18073
"1642",96.76906,476.19406
"1643",95.89258,476.2074
"1644",94.747536,476.22073
"1645",93.46334,476.23407
"1646",92.140076,476.2474
"1647",90.829025,476.26074
"1648",89.55215,476.27408
"1649",88.309456,476.2874
"1650",87.098495,476.30075
"1651",85.93881,476.3141
"1652",84.859695,476.32742
"1653",83.90265,476.34076
"1654",83.10185,476.3541
"1655",82.47929,476.36743
"1656",82.0325,476.38077
"1657",81.72976,476.3941
"1658",81.529564,476.40744
"1659",81.38064,476.42078
"1660",81.22926,476.4341
"1661",81.03151,476.44745
"1662",80.75075,476.4608
"1663",80.38453,476.47412
"1664",79.92554,476.48746
"1665",79.38842,476.5008
"1666",78.79515,476.51413
"1667",78.167694,476.52747
"1668",77.52804,476.5408
"1669",76.893265,476.55414
"1670",76.282906,476.56747
"1671",75.70916,476.5808
"1672",75.18181,476.59415
"1673",74.70573,476.60748
"1674",74.29313,476.62082
"1675",73.93912,476.63416
"1676",73.64126,476.6475
"1677",73.40444,476.66083
"1678",73.22133,476.67416
"1679",73.08949,476.6875
"1680",72.99916,476.70084
"1681",72.94789,476.71417
"1682",72.92348,476.7275
"1683",72.92348,476.74084
"1684",72.935684,476.75418
"1685",72.96498,476.76752
"1686",73.00404,476.78085
"1687",73.05531,476.7942
"1688",73.11879,476.80753
"1689",73.19203,476.82086
"1690",73.270164,476.8342
"1691",73.34829,476.84753
"1692",73.41665,476.86087
"1693",73.4728,476.8742
"1694",73.52163,476.88754
"1695",73.56313,476.90088
"1696",73.602196,476.9142
"1697",73.63882,476.92755
"1698",73.66811,476.9409
"1699",73.69253,476.95422
"1700",73.7145,476.96756
"1701",73.73647,476.9809
"1702",73.76822,476.99423
"1703",73.80972,477.00757
"1704",73.865875,477.0209
"1705",73.92691,477.03424
"1706",73.99771,477.04758
"1707",74.075836,477.0609
"1708",74.1564,477.07425
"1709",74.24185,477.0876
"1710",74.34196,477.10092
"1711",74.46647,477.11426
"1712",74.68864,477.1276
"1713",75.16228,477.14093
"1714",76.09003,477.15427
"1715",77.65255,477.1676
"1716",79.93286,477.18094
"1717",82.85771,477.19427
"1718",86.19028,477.2076
"1719",89.57656,477.22095
"1720",92.65766,477.23428
"1721",95.15282,477.24762
"1722",96.91554,477.26096
"1723",97.89456,477.2743
"1724",98.14114,477.28763
"1725",97.75784,477.30096
"1726",96.88869,477.3143
"1727",95.6704,477.32764
"1728",94.25193,477.34097
"1729",92.74311,477.3543
"1730",91.229416,477.36765
"1731",89.75723,477.38098
"1732",88.341194,477.39432
"1733",87.00084,477.40765
"1734",85.75815,477.421
"1735",84.65705,477.43433
"1736",83.736626,477.44766
"1737",83.04326,477.461
"1738",82.58671,477.47433
"1739",82.35233,477.48767
"1740",82.28886,477.501
"1741",82.32792,477.51434
"1742",82.388954,477.52768
"1743",82.408485,477.54102
"1744",82.337685,477.55435
"1745",82.14969,477.5677
"1746",81.8201,477.58102
"1747",81.36355,477.59436
"1748",80.79225,477.6077
"1749",80.14038,477.62103
"1750",79.43725,477.63437
"1751",78.71946,477.6477
"1752",78.009,477.66104
"1753",77.332726,477.67438
"1754",76.70771,477.6877
"1755",76.13397,477.70105
"1756",75.62371,477.7144
"1757",75.18669,477.72772
"1758",74.82292,477.74106
"1759",74.52262,477.7544
"1760",74.29069,477.76773
"1761",74.1149,477.78107
"1762",73.985504,477.7944
"1763",73.882965,477.80774
"1764",73.80728,477.82108
"1765",73.74868,477.8344
"1766",73.70718,477.84775
"1767",73.68276,477.86108
"1768",73.67544,477.87442
"1769",73.68276,477.88776
"1770",73.70229,477.9011
"1771",73.738914,477.91443
"1772",73.78531,477.92776
"1773",73.848785,477.9411
"1774",73.92203,477.95444
"1775",74.005035,477.96777
"1776",74.0856,477.9811
"1777",74.158844,477.99445
"1778",74.215,478.00778
"1779",74.25651,478.02112
"1780",74.285805,478.03445
"1781",74.305336,478.0478
"1782",74.32487,478.06113
"1783",74.34928,478.07446
"1784",74.38346,478.0878
"1785",74.43473,478.10114
"1786",74.50797,478.11447
"1787",74.60319,478.1278
"1788",74.71549,478.14114
"1789",74.83513,478.15448
"1790",74.9572,478.16782
"1791",75.08415,478.18115
"1792",75.21355,478.1945
"1793",75.36248,478.20782
"1794",75.5993,478.22116
"1795",76.070496,478.2345
"1796",76.96651,478.24783
"1797",78.46067,478.26117
"1798",80.62867,478.2745
"1799",83.404594,478.28784
"1800",86.55894,478.30118
"1801",89.75479,478.3145
"1802",92.664986,478.32785
"1803",95.03319,478.3412
"1804",96.71046,478.35452
"1805",97.6553,478.36786
"1806",97.901886,478.3812
"1807",97.53567,478.39453
"1808",96.68604,478.40787
"1809",95.49218,478.4212
"1810",94.08835,478.43454
"1811",92.57954,478.44788
"1812",91.04387,478.4612
"1813",89.532616,478.47455
"1814",88.07507,478.48788
"1815",86.6981,478.50122
"1816",85.43099,478.51456
"1817",84.317696,478.5279
"1818",83.39727,478.54123
"1819",82.7161,478.55457
"1820",82.27665,478.5679
"1821",82.05936,478.58124
"1822",82.01297,478.59457
"1823",82.074005,478.6079
"1824",82.161896,478.62125
"1825",82.21805,478.63458
"1826",82.18631,478.64792
"1827",82.039825,478.66125
"1828",81.75906,478.6746
"1829",81.3489,478.68793
"1830",80.82399,478.70126
"1831",80.21362,478.7146
"1832",79.54223,478.72794
"1833",78.84154,478.74127
"1834",78.14084,478.7546
"1835",77.45724,478.76794
"1836",76.805374,478.78128
"1837",76.19989,478.79462
"1838",75.65301,478.80795
"1839",75.16716,478.8213
"1840",74.75212,478.83463
"1841",74.40055,478.84796
"1842",74.11734,478.8613
"1843",73.89029,478.87463
"1844",73.7145,478.88797
"1845",73.585106,478.9013
"1846",73.49966,478.91464
"1847",73.44839,478.92798
"1848",73.42397,478.9413
"1849",73.42153,478.95465
"1850",73.43618,478.968
"1851",73.463036,478.98132
"1852",73.49966,478.99466
"1853",73.54604,479.008
"1854",73.59731,479.02133
"1855",73.651024,479.03467
"1856",73.70229,479.048
"1857",73.75357,479.06134
"1858",73.8024,479.07468
"1859",73.846344,479.088
"1860",73.88541,479.10135
"1861",73.917145,479.1147
"1862",73.951324,479.12802
"1863",73.987946,479.14136
"1864",74.03189,479.1547
"1865",74.08316,479.16803
"1866",74.13443,479.18137
"1867",74.18814,479.1947
"1868",74.24185,479.20804
"1869",74.29313,479.22137
"1870",74.34684,479.2347
"1871",74.42008,479.24805
"1872",74.564125,479.26138
"1873",74.90593,479.27472
"1874",75.631035,479.28806
"1875",76.93965,479.3014
"1876",78.9514,479.31473
"1877",81.64431,479.32806
"1878",84.82063,479.3414
"1879",88.16052,479.35474
"1880",91.300224,479.36807
"1881",93.944305,479.3814
"1882",95.90234,479.39474
"1883",97.1133,479.40808
"1884",97.599144,479.42142
"1885",97.43801,479.43475
"1886",96.74708,479.4481
"1887",95.65331,479.46143
"1888",94.28855,479.47476
"1889",92.76509,479.4881
"1890",91.18303,479.50143
"1891",89.61562,479.51477
"1892",88.10681,479.5281
"1893",86.678566,479.54144
"1894",85.36263,479.55478
"1895",84.18097,479.5681
"1896",83.175095,479.58145
"1897",82.37675,479.5948
"1898",81.815216,479.60812
"1899",81.478294,479.62146
"1900",81.341576,479.6348
"1901",81.35134,479.64813
"1902",81.43923,479.66147
"1903",81.53445,479.6748
"1904",81.58572,479.68814
"1905",81.54421,479.70148
"1906",81.38064,479.7148
"1907",81.08522,479.72815
"1908",80.66529,479.7415
"1909",80.13794,479.75482
"1910",79.52514,479.76816
"1911",78.85863,479.7815
"1912",78.167694,479.79483
"1913",77.47433,479.80817
"1914",76.79805,479.8215
"1915",76.15839,479.83484
"1916",75.56756,479.84818
"1917",75.03044,479.8615
"1918",74.55436,479.87485
"1919",74.144196,479.88818
"1920",73.795074,479.90152
"1921",73.49966,479.91486
"1922",73.255516,479.9282
"1923",73.06264,479.94153
"1924",72.90639,479.95486
"1925",72.7892,479.9682
"1926",72.7013,479.98154
"1927",72.637825,479.99487
"1928",72.58167,480.0082
"1929",72.5304,480.02155
"1930",72.47669,480.03488
"1931",72.4181,480.04822
"1932",72.359505,480.06155
"1933",72.308235,480.0749
"1934",72.26917,480.08823
"1935",72.25208,480.10156
"1936",72.25941,480.1149
"1937",72.29603,480.12823
"1938",72.37171,480.14157
"1939",72.47913,480.1549
"1940",72.61341,480.16824
"1941",72.76967,480.18158
"1942",72.94057,480.19492
"1943",73.109024,480.20825
"1944",73.28237,480.2216
"1945",73.45327,480.23492
"1946",73.62661,480.24826
"1947",73.80972,480.2616
"1948",74.005035,480.27493
"1949",74.26383,480.28827
"1950",74.70573,480.3016
"1951",75.51385,480.31494
"1952",76.86641,480.32828
"1953",78.87816,480.3416
"1954",81.51003,480.35495
"1955",84.57404,480.3683
"1956",87.76013,480.38162
"1957",90.73136,480.39496
"1958",93.206985,480.4083
"1959",95.02342,480.42163
"1960",96.12207,480.43497
"1961",96.52003,480.4483
"1962",96.3003,480.46164
"1963",95.58251,480.47498
"1964",94.48142,480.4883
"1965",93.119095,480.50165
"1966",91.60052,480.51498
"1967",90.0087,480.52832
"1968",88.40711,480.54166
"1969",86.83971,480.555
"1970",85.33822,480.56833
"1971",83.95148,480.58167
"1972",82.72343,480.595
"1973",81.71267,480.60834
"1974",80.96559,480.62167
"1975",80.50904,480.635
"1976",80.31861,480.64835
"1977",80.35523,480.66168
"1978",80.54078,480.67502
"1979",80.78981,480.68835
"1980",81.02663,480.7017
"1981",81.19508,480.71503
"1982",81.24635,480.72836
"1983",81.163345,480.7417
"1984",80.94118,480.75504
"1985",80.584724,480.76837
"1986",80.11841,480.7817
"1987",79.56176,480.79504
"1988",78.94896,480.80838
"1989",78.30198,480.82172
"1990",77.645226,480.83505
"1991",77.00313,480.8484
"1992",76.39277,480.86172
"1993",75.81903,480.87506
"1994",75.29656,480.8884
"1995",74.84001,480.90173
"1996",74.444496,480.91507
"1997",74.110016,480.9284
"1998",73.83658,480.94174
"1999",73.619286,480.95508
"2000",73.45327,480.9684
"2001",73.3312,480.98175
"2002",73.25796,480.9951
"2003",73.22377,481.00842
"2004",73.22133,481.02176
"2005",73.2433,481.0351
"2006",73.27749,481.04843
"2007",73.31655,481.06177
"2008",73.36294,481.0751
"2009",73.41421,481.08844
"2010",73.463036,481.10178
"2011",73.514305,481.1151
"2012",73.56313,481.12845
"2013",73.60708,481.14178
"2014",73.651024,481.15512
"2015",73.69497,481.16846
"2016",73.7438,481.1818
"2017",73.795074,481.19513
"2018",73.85123,481.20847
"2019",73.91226,481.2218
"2020",73.97574,481.23514
"2021",74.04166,481.24847
"2022",74.110016,481.2618
"2023",74.195465,481.27515
"2024",74.356606,481.28848
"2025",74.74235,481.30182
"2026",75.560234,481.31516
"2027",76.998245,481.3285
"2028",79.1638,481.34183
"2029",81.99832,481.35516
"2030",85.2723,481.3685
"2031",88.639046,481.38184
"2032",91.74212,481.39517
"2033",94.28855,481.4085
"2034",96.114746,481.42184
"2035",97.17189,481.43518
"2036",97.49905,481.44852
"2037",97.1841,481.46185
"2038",96.35401,481.4752
"2039",95.13573,481.48853
"2040",93.65865,481.50186
"2041",92.02533,481.5152
"2042",90.321205,481.52853
"2043",88.60975,481.54187
"2044",86.93492,481.5552
"2045",85.33822,481.56854
"2046",83.86603,481.58188
"2047",82.57206,481.5952
"2048",81.51736,481.60855
"2049",80.75319,481.6219
"2050",80.291756,481.63522
"2051",80.12573,481.64856
"2052",80.19653,481.6619
"2053",80.42359,481.67523
"2054",80.72144,481.68857
"2055",81.00954,481.7019
"2056",81.22194,481.71524
"2057",81.3196,481.72858
"2058",81.28054,481.7419
"2059",81.09987,481.75525
"2060",80.782486,481.7686
"2061",80.34791,481.78192
"2062",79.818115,481.79526
"2063",79.22484,481.8086
"2064",78.59495,481.82193
"2065",77.95285,481.83527
"2066",77.315636,481.8486
"2067",76.6955,481.86194
"2068",76.10956,481.87527
"2069",75.57,481.8886
"2070",75.08171,481.90195
"2071",74.649574,481.91528
"2072",74.27604,481.92862
"2073",73.953766,481.94196
"2074",73.687645,481.9553
"2075",73.4728,481.96863
"2076",73.30923,481.98196
"2077",73.19203,481.9953
"2078",73.12123,482.00864
"2079",73.08705,482.02197
"2080",73.074844,482.0353
"2081",73.07973,482.04865
"2082",73.1017,482.06198
"2083",73.13588,482.07532
"2084",73.18471,482.08865
"2085",73.24574,482.102
"2086",73.31655,482.11533
"2087",73.38979,482.12866
"2088",73.460594,482.142
"2089",73.52651,482.15533
"2090",73.59243,482.16867
"2091",73.65835,482.182
"2092",73.71694,482.19534
"2093",73.777985,482.20868
"2094",73.83902,482.22202
"2095",73.95621,482.23535
"2096",74.251625,482.2487
"2097",74.92546,482.26202
"2098",76.19501,482.27536
"2099",78.21164,482.2887
"2100",80.972916,482.30203
"2101",84.298164,482.31537
"2102",87.86267,482.3287
"2103",91.27581,482.34204
"2104",94.19577,482.35538
"2105",96.412605,482.3687
"2106",97.83353,482.38205
"2107",98.47074,482.3954
"2108",98.41703,482.40872
"2109",97.78226,482.42206
"2110",96.705574,482.4354
"2111",95.311516,482.44873
"2112",93.71969,482.46207
"2113",92.02045,482.4754
"2114",90.287025,482.48874
"2115",88.57313,482.50208
"2116",86.92027,482.5154
"2117",85.365074,482.52875
"2118",83.96124,482.54208
"2119",82.76494,482.55542
"2120",81.83475,482.56876
"2121",81.19997,482.5821
"2122",80.87038,482.59543
"2123",80.80934,482.60876
"2124",80.94606,482.6221
"2125",81.19997,482.63544
"2126",81.48562,482.64877
"2127",81.72976,482.6621
"2128",81.881134,482.67545
"2129",81.90555,482.68878
"2130",81.78592,482.70212
"2131",81.52224,482.71545
"2132",81.126724,482.7288
"2133",80.618904,482.74213
"2134",80.03052,482.75546
"2135",79.38842,482.7688
"2136",78.71458,482.78214
"2137",78.030975,482.79547
"2138",77.35714,482.8088
"2139",76.71015,482.82214
"2140",76.09979,482.83548
"2141",75.53338,482.84882
"2142",75.018234,482.86215
"2143",74.56168,482.8755
"2144",74.16617,482.88882
"2145",73.829254,482.90216
"2146",73.55581,482.9155
"2147",73.340965,482.92883
"2148",73.17494,482.94217
"2149",73.05287,482.9555
"2150",72.96498,482.96884
"2151",72.918594,482.98218
"2152",72.90883,482.9955
"2153",72.92592,483.00885
"2154",72.96254,483.0222
"2155",73.01381,483.03552
"2156",73.077286,483.04886
"2157",73.14809,483.0622
"2158",73.231094,483.07553
"2159",73.31899,483.08887
"2160",73.40444,483.1022
"2161",73.48501,483.11554
"2162",73.55825,483.12888
"2163",73.67544,483.1422
"2164",73.95621,483.15555
"2165",74.598305,483.16888
"2166",75.81903,483.18222
"2167",77.7673,483.19556
"2168",80.44312,483.2089
"2169",83.685356,483.22223
"2170",87.17418,483.23557
"2171",90.528725,483.2489
"2172",93.41451,483.26224
"2173",95.606926,483.27557
"2174",97.01564,483.2889
"2175",97.65774,483.30225
"2176",97.61379,483.31558
"2177",97.005875,483.32892
"2178",95.96338,483.34225
"2179",94.6157,483.3556
"2180",93.07027,483.36893
"2181",91.422295,483.38226
"2182",89.73769,483.3956
"2183",88.07263,483.40894
"2184",86.46372,483.42227
"2185",84.95979,483.4356
"2186",83.59991,483.44894
"2187",82.44022,483.46228
"2188",81.52712,483.47562
"2189",80.885025,483.48895
"2190",80.51881,483.5023
"2191",80.39185,483.51562
"2192",80.45045,483.52896
"2193",80.61646,483.5423
"2194",80.816666,483.55563
"2195",80.972916,483.56897
"2196",81.03883,483.5823
"2197",80.98024,483.59564
"2198",80.79469,483.60898
"2199",80.48463,483.6223
"2200",80.06714,483.63565
"2201",79.569084,483.649
"2202",78.99779,483.66232
"2203",78.37766,483.67566
"2204",77.730675,483.689
"2205",77.07393,483.70233
"2206",76.42695,483.71567
"2207",75.81171,483.729
"2208",75.23796,483.74234
"2209",74.71061,483.75568
"2210",74.23697,483.769
"2211",73.82193,483.78235
"2212",73.46792,483.7957
"2213",73.17738,483.80902
"2214",72.94057,483.82236
"2215",72.75502,483.8357
"2216",72.61829,483.84903
"2217",72.52064,483.86237
"2218",72.4596,483.8757
"2219",72.44007,483.88904
"2220",72.45228,483.90237
"2221",72.49134,483.9157
"2222",72.55482,483.92905
"2223",72.63538,483.94238
"2224",72.72083,483.95572
"2225",72.81117,483.96906
"2226",72.903946,483.9824
"2227",72.99672,483.99573
"2228",73.11391,484.00906
"2229",73.338524,484.0224
"2230",73.829254,484.03574
"2231",74.79118,484.04907
"2232",76.404976,484.0624
"2233",78.73655,484.07574
"2234",81.68337,484.08908
"2235",84.98421,484.10242
"2236",88.28748,484.11575
"2237",91.24162,484.1291
"2238",93.58053,484.14243
"2239",95.17723,484.15576
"2240",96.009766,484.1691
"2241",96.13672,484.18243
"2242",95.66308,484.19577
"2243",94.70603,484.2091
"2244",93.399864,484.22244
"2245",91.85687,484.23578
"2246",90.177155,484.2491
"2247",88.446175,484.26245
"2248",86.727394,484.2758
"2249",85.0721,484.28912
"2250",83.53887,484.30246
"2251",82.18631,484.3158
"2252",81.07057,484.32913
"2253",80.24536,484.34247
"2254",79.73022,484.3558
"2255",79.51293,484.36914
"2256",79.54223,484.38248
"2257",79.74731,484.3958
"2258",80.03784,484.40915
"2259",80.33814,484.4225
"2260",80.570076,484.43582
"2261",80.689705,484.44916
"2262",80.66773,484.4625
"2263",80.50904,484.47583
"2264",80.216064,484.48917
"2265",79.81323,484.5025
"2266",79.3225,484.51584
"2267",78.76341,484.52917
"2268",78.16281,484.5425
"2269",77.54269,484.55585
"2270",76.92256,484.56918
"2271",76.32197,484.58252
"2272",75.74822,484.59586
"2273",75.208664,484.6092
"2274",74.71549,484.62253
"2275",74.27604,484.63586
"2276",73.89761,484.6492
"2277",73.582664,484.66254
"2278",73.3312,484.67587
"2279",73.14076,484.6892
"2280",73.0016,484.70255
"2281",72.90639,484.71588
"2282",72.85512,484.72922
"2283",72.83803,484.74255
"2284",72.84779,484.7559
"2285",72.87953,484.76923
"2286",72.92836,484.78256
"2287",72.99184,484.7959
"2288",73.06508,484.80923
"2289",73.14076,484.82257
"2290",73.22621,484.8359
"2291",73.36538,484.84924
"2292",73.67544,484.86258
"2293",74.339516,484.87592
"2294",75.560234,484.88925
"2295",77.454796,484.9026
"2296",80.0061,484.91592
"2297",83.03349,484.92926
"2298",86.2269,484.9426
"2299",89.22987,484.95593
"2300",91.74456,484.96927
"2301",93.58541,484.9826
"2302",94.67918,484.99594
"2303",95.045395,485.00928
"2304",94.769516,485.0226
"2305",93.961395,485.03595
"2306",92.75777,485.0493
"2307",91.268486,485.06262
"2308",89.61318,485.07596
"2309",87.87976,485.0893
"2310",86.134125,485.10263
"2311",84.44221,485.11597
"2312",82.87236,485.1293
"2313",81.49294,485.14264
"2314",80.36744,485.15598
"2315",79.54955,485.1693
"2316",79.06859,485.18265
"2317",78.907455,485.19598
"2318",79.00511,485.20932
"2319",79.281,485.22266
"2320",79.64233,485.236
"2321",80.00366,485.24933
"2322",80.28443,485.26266
"2323",80.448006,485.276
"2324",80.465096,485.28934
"2325",80.33814,485.30267
"2326",80.076904,485.316
"2327",79.70092,485.32935
"2328",79.234604,485.34268
"2329",78.69993,485.35602
"2330",78.12375,485.36935
"2331",77.523155,485.3827
"2332",76.92012,485.39603
"2333",76.334175,485.40936
"2334",75.78241,485.4227
"2335",75.26971,485.43604
"2336",74.80827,485.44937
"2337",74.39811,485.4627
"2338",74.04166,485.47604
"2339",73.73647,485.48938
"2340",73.48501,485.50272
"2341",73.28481,485.51605
"2342",73.128555,485.5294
"2343",73.01869,485.54272
"2344",72.94545,485.55606
"2345",72.90883,485.5694
"2346",72.89906,485.58273
"2347",72.91127,485.59607
"2348",72.9308,485.6094
"2349",72.95033,485.62274
"2350",72.969864,485.63608
"2351",73.01137,485.6494
"2352",73.13588,485.66275
"2353",73.480125,485.6761
"2354",74.23941,485.68942
"2355",75.596855,485.70276
"2356",77.63546,485.7161
"2357",80.30152,485.72943
"2358",83.38018,485.74277
"2359",86.5272,485.7561
"2360",89.3959,485.76944
"2361",91.70794,485.78278
"2362",93.30953,485.7961
"2363",94.15427,485.80945
"2364",94.295876,485.82278
"2365",93.82956,485.83612
"2366",92.87251,485.84946
"2367",91.55169,485.8628
"2368",89.98428,485.87613
"2369",88.272835,485.88947
"2370",86.49302,485.9028
"2371",84.72541,485.91614
"2372",83.0457,485.92947
"2373",81.529564,485.9428
"2374",80.255135,485.95615
"2375",79.293205,485.96948
"2376",78.69016,485.98282
"2377",78.44114,485.99615
"2378",78.50706,486.0095
"2379",78.8098,486.02283
"2380",79.24681,486.03616
"2381",79.72045,486.0495
"2382",80.147705,486.06284
"2383",80.462654,486.07617
"2384",80.63111,486.0895
"2385",80.64088,486.10284
"2386",80.49683,486.11618
"2387",80.21362,486.12952
"2388",79.815674,486.14285
"2389",79.32983,486.1562
"2390",78.77806,486.16953
"2391",78.18967,486.18286
"2392",77.58419,486.1962
"2393",76.98604,486.20953
"2394",76.41474,486.22287
"2395",75.88495,486.2362
"2396",75.406425,486.24954
"2397",74.986496,486.26288
"2398",74.6276,486.2762
"2399",74.33463,486.28955
"2400",74.10025,486.3029
"2401",73.92935,486.31622
"2402",73.81705,486.32956
"2403",73.75601,486.3429
"2404",73.73403,486.35623
"2405",73.74624,486.36957
"2406",73.78531,486.3829
"2407",73.84146,486.39624
"2408",73.9025,486.40958
"2409",73.985504,486.4229
"2410",74.141754,486.43625
"2411",74.48844,486.4496
"2412",75.20378,486.46292
"2413",76.44648,486.47626
"2414",78.2971,486.4896
"2415",80.69703,486.50293
"2416",83.44854,486.51627
"2417",86.25376,486.5296
"2418",88.797745,486.54294
"2419",90.84856,486.55627
"2420",92.25971,486.5696
"2421",92.9897,486.58295
"2422",93.07515,486.59628
"2423",92.59174,486.60962
"2424",91.64446,486.62296
"2425",90.34318,486.6363
"2426",88.79286,486.64963
"2427",87.07652,486.66296
"2428",85.28207,486.6763
"2429",83.4876,486.68964
"2430",81.78348,486.70297
"2431",80.274666,486.7163
"2432",79.0515,486.72964
"2433",78.19943,486.74298
"2434",77.75998,486.75632
"2435",77.71847,486.76965
"2436",78.00412,486.783
"2437",78.51194,486.79633
"2438",79.1223,486.80966
"2439",79.725334,486.823
"2440",80.23071,486.83633
"2441",80.584724,486.84967
"2442",80.75319,486.863
"2443",80.73365,486.87634
"2444",80.53834,486.88968
"2445",80.19409,486.903
"2446",79.742424,486.91635
"2447",79.217514,486.9297
"2448",78.65354,486.94302
"2449",78.07248,486.95636
"2450",77.49874,486.9697
"2451",76.94209,486.98303
"2452",76.419624,486.99637
"2453",75.93866,487.0097
"2454",75.511406,487.02304
"2455",75.142746,487.03638
"2456",74.83757,487.0497
"2457",74.59586,487.06305
"2458",74.42252,487.0764
"2459",74.305336,487.08972
"2460",74.23697,487.10306
"2461",74.20767,487.1164
"2462",74.212555,487.12973
"2463",74.25407,487.14307
"2464",74.36149,487.1564
"2465",74.63981,487.16974
"2466",75.24773,487.18307
"2467",76.35859,487.1964
"2468",78.08469,487.20975
"2469",80.411385,487.22308
"2470",83.18242,487.23642
"2471",86.10971,487.24976
"2472",88.87099,487.2631
"2473",91.18791,487.27643
"2474",92.89693,487.28976
"2475",93.924774,487.3031
"2476",94.28611,487.31644
"2477",94.049286,487.32977
"2478",93.3193,487.3431
"2479",92.20599,487.35645
"2480",90.82414,487.36978
"2481",89.27871,487.38312
"2482",87.64782,487.39645
"2483",85.99252,487.4098
"2484",84.38117,487.42313
"2485",82.8748,487.43646
"2486",81.55886,487.4498
"2487",80.49683,487.46313
"2488",79.74975,487.47647
"2489",79.34203,487.4898
"2490",79.23949,487.50314
"2491",79.381096,487.51648
"2492",79.67895,487.52982
"2493",80.03052,487.54315
"2494",80.34547,487.5565
"2495",80.56275,487.56982
"2496",80.635994,487.58316
"2497",80.550545,487.5965
"2498",80.31617,487.60983
"2499",79.95239,487.62317
"2500",79.47875,487.6365
"2501",78.92943,487.64984
"2502",78.33372,487.66318
"2503",77.71603,487.6765
"2504",77.09834,487.68985
"2505",76.50507,487.7032
"2506",75.95575,487.71652
"2507",75.45281,487.72986
"2508",75.003586,487.7432
"2509",74.62028,487.75653
"2510",74.302895,487.76987
"2511",74.04898,487.7832
"2512",73.85611,487.79654
"2513",73.71938,487.80988
"2514",73.62661,487.8232
"2515",73.57046,487.83655
"2516",73.548485,487.84988
"2517",73.568016,487.86322
"2518",73.69497,487.87656
"2519",74.05386,487.8899
"2520",74.83269,487.90323
"2521",76.18768,487.91656
"2522",78.17502,487.9299
"2523",80.73121,487.94324
"2524",83.63653,487.95657
"2525",86.58091,487.9699
"2526",89.24452,487.98325
"2527",91.39056,487.99658
"2528",92.892044,488.00992
"2529",93.712364,488.02325
"2530",93.893036,488.0366
"2531",93.524376,488.04993
"2532",92.72602,488.06326
"2533",91.62005,488.0766
"2534",90.31632,488.08994
"2535",88.90761,488.10327
"2536",87.45495,488.1166
"2537",85.99985,488.12994
"2538",84.57404,488.14328
"2539",83.226364,488.15662
"2540",82.01785,488.16995
"2541",81.007095,488.1833
"2542",80.24292,488.19662
"2543",79.744865,488.20996
"2544",79.49584,488.2233
"2545",79.43969,488.23663
"2546",79.50805,488.24997
"2547",79.62768,488.2633
"2548",79.73266,488.27664
"2549",79.766846,488.28998
"2550",79.68871,488.3033
"2551",79.48608,488.31665
"2552",79.15648,488.33
"2553",78.71458,488.34332
"2554",78.17746,488.35666
"2555",77.57931,488.37
"2556",76.946976,488.38333
"2557",76.30488,488.39667
"2558",75.67986,488.41
"2559",75.09636,488.42334
"2560",74.57145,488.43668
"2561",74.107574,488.45
"2562",73.70718,488.46335
"2563",73.37026,488.47668
"2564",73.091934,488.49002
"2565",72.87465,488.50336
"2566",72.71107,488.5167
"2567",72.59632,488.53003
"2568",72.52308,488.54337
"2569",72.481575,488.5567
"2570",72.46693,488.57004
"2571",72.48402,488.58337
"2572",72.58167,488.5967
"2573",72.867325,488.61005
"2574",73.51186,488.62338
"2575",74.686195,488.63672
"2576",76.49531,488.65005
"2577",78.91722,488.6634
"2578",81.78348,488.67673
"2579",84.79378,488.69006
"2580",87.62585,488.7034
"2581",90.00137,488.71674
"2582",91.75433,488.73007
"2583",92.81148,488.7434
"2584",93.20943,488.75674
"2585",93.033646,488.77008
"2586",92.4062,488.78342
"2587",91.45159,488.79675
"2588",90.29923,488.8101
"2589",89.04677,488.82343
"2590",87.75037,488.83676
"2591",86.43687,488.8501
"2592",85.13069,488.86343
"2593",83.84894,488.87677
"2594",82.62333,488.8901
"2595",81.50759,488.90344
"2596",80.55543,488.91678
"2597",79.80835,488.9301
"2598",79.281,488.94345
"2599",78.96361,488.9568
"2600",78.8098,488.97012
"2601",78.765854,488.98346
"2602",78.77074,488.9968
"2603",78.76097,489.01013
"2604",78.68528,489.02347
"2605",78.50706,489.0368
"2606",78.221405,489.05014
"2607",77.83322,489.06348
"2608",77.3547,489.0768
"2609",76.81026,489.09015
"2610",76.22919,489.1035
"2611",75.631035,489.11682
"2612",75.035324,489.13016
"2613",74.461586,489.1435
"2614",73.92691,489.15683
"2615",73.443504,489.17017
"2616",72.65736,489.19684
"2617",72.361946,489.21017
"2618",72.13245,489.2235
"2619",71.96155,489.23685
"2620",71.8468,489.25018
"2621",71.78088,489.26352
"2622",71.76135,489.27686
"2623",71.78088,489.2902
"2624",71.82727,489.30353
"2625",71.888306,489.31686
"2626",71.96155,489.3302
"2627",72.03479,489.34354
"2628",72.10803,489.35687
"2629",72.19104,489.3702
"2630",72.33753,489.38354
"2631",72.66224,489.39688
"2632",73.35073,489.41022
"2633",74.5861,489.42355
"2634",76.48554,489.4369
"2635",79.027084,489.45023
"2636",82.03006,489.46356
"2637",85.1844,489.4769
"2638",88.14343,489.49023
"2639",90.6215,489.50357
"2640",93.51949,489.53024
"2641",93.91501,489.54358
"2642",93.71725,489.55692
"2643",93.05562,489.57025
"2644",92.0766,489.5836
"2645",90.90471,489.59692
"2646",89.63271,489.61026
"2647",88.32899,489.6236
"2648",87.01793,489.63693
"2649",85.71664,489.65027
"2650",84.44221,489.6636
"2651",83.22392,489.67694
"2652",82.108185,489.69028
"2653",81.146255,489.7036
"2654",80.38209,489.71695
"2655",79.83276,489.7303
"2656",79.48852,489.74362
"2657",79.30053,489.75696
"2658",79.21507,489.7703
"2659",79.1638,489.78363
"2660",79.093,489.79697
"2661",78.95384,489.8103
"2662",78.72434,489.82364
"2663",78.38743,489.83698
"2664",77.95041,489.8503
"2665",77.4255,489.86365
"2666",76.839554,489.87698
"2667",76.21698,489.89032
"2668",75.58953,489.90366
"2669",74.97429,489.917
"2670",74.39567,489.93033
"2671",73.863434,489.94366
"2672",73.39468,489.957
"2673",72.989395,489.97034
"2674",72.6598,489.98367
"2675",72.40345,489.997
"2676",72.20813,490.01035
"2677",72.07141,490.02368
"2678",71.98596,490.03702
"2679",71.939575,490.05035
"2680",71.92493,490.0637
"2681",71.93713,490.07703
"2682",71.96399,490.09036
"2683",71.99817,490.1037
"2684",72.03479,490.11703
"2685",72.076294,490.13037
"2686",72.12268,490.1437
"2687",72.16907,490.15704
"2688",72.2301,490.17038
"2689",72.29603,490.18372
"2690",72.37415,490.19705
"2691",72.45716,490.2104
"2692",72.54749,490.22372
"2693",72.637825,490.23706
"2694",72.7306,490.2504
"2695",72.8185,490.26373
"2696",72.901505,490.27707
"2697",72.98451,490.2904
"2698",73.06996,490.30374
"2699",73.16029,490.31708
"2700",73.272606,490.3304
"2701",73.46792,490.34375
"2702",73.882965,490.3571
"2703",74.71549,490.37042
"2704",76.173035,490.38376
"2705",78.363014,490.3971
"2706",81.24391,490.41043
"2707",84.593575,490.42377
"2708",88.06287,490.4371
"2709",91.268486,490.45044
"2710",93.90524,490.46378
"2711",95.79492,490.4771
"2712",96.89601,490.49045
"2713",97.252464,490.50378
"2714",96.97902,490.51712
"2715",96.21973,490.53046
"2716",95.12596,490.5438
"2717",93.83688,490.55713
"2718",92.455025,490.57047
"2719",91.04875,490.5838
"2720",89.6498,490.59714
"2721",88.26795,490.61047
"2722",86.925156,490.6238
"2723",85.643394,490.63715
"2724",84.46906,490.65048
"2725",83.455864,490.66382
"2726",82.650185,490.67715
"2727",82.05936,490.6905
"2728",81.668724,490.70383
"2729",81.43679,490.71716
"2730",81.29763,490.7305
"2731",81.197525,490.74384
"2732",81.075455,490.75717
"2733",80.89235,490.7705
"2734",80.621346,490.78384
"2735",80.257576,490.79718
"2736",79.798584,490.81052
"2737",79.25414,490.82385
"2738",78.64622,490.8372
"2739",77.99924,490.85052
"2740",77.332726,490.86386
"2741",76.66621,490.8772
"2742",76.019226,490.89053
"2743",75.40887,490.90387
"2744",74.844894,490.9172
"2745",74.34684,490.93054
"2746",73.92203,490.94388
"2747",73.568016,490.9572
"2748",73.27749,490.97055
"2749",73.04799,490.9839
"2750",72.86977,490.99722
"2751",72.740364,491.01056
"2752",72.65736,491.0239
"2753",72.61585,491.03723
"2754",72.61097,491.05057
"2755",72.6305,491.0639
"2756",72.66712,491.07724
"2757",72.71351,491.09058
"2758",72.76723,491.1039
"2759",72.8185,491.11725
"2760",72.87465,491.13058
"2761",72.92836,491.14392
"2762",72.98207,491.15726
"2763",73.0309,491.1706
"2764",73.0724,491.18393
"2765",73.1017,491.19727
"2766",73.128555,491.2106
"2767",73.15053,491.22394
"2768",73.17006,491.23727
"2769",73.196915,491.2506
"2770",73.231094,491.26395
"2771",73.27749,491.27728
"2772",73.33364,491.29062
"2773",73.402,491.30396
"2774",73.48501,491.3173
"2775",73.582664,491.33063
"2776",73.6852,491.34396
"2777",73.795074,491.3573
"2778",73.90982,491.37064
"2779",74.02945,491.38397
"2780",74.16861,491.3973
"2781",74.37614,491.41064
"2782",74.78874,491.42398
"2783",75.60174,491.43732
"2784",77.02266,491.45065
"2785",79.17113,491.464
"2786",82.020294,491.47733
"2787",85.35775,491.49066
"2788",88.84413,491.504
"2789",92.10101,491.51733
"2790",94.81346,491.53067
"2791",96.79347,491.544
"2792",97.97757,491.55734
"2793",98.40238,491.57068
"2794",98.168,491.584
"2795",97.4136,491.59735
"2796",96.28565,491.6107
"2797",94.923325,491.62402
"2798",93.44625,491.63736
"2799",91.92767,491.6507
"2800",90.41398,491.66403
"2801",88.93202,491.67737
"2802",87.50378,491.6907
"2803",86.16342,491.70404
"2804",84.95491,491.71738
"2805",83.929504,491.7307
"2806",83.12871,491.74405
"2807",82.56718,491.7574
"2808",82.22537,491.77072
"2809",82.056915,491.78406
"2810",82.00076,491.7974
"2811",82.00076,491.81073
"2812",81.98367,491.82407
"2813",81.89578,491.8374
"2814",81.70046,491.85074
"2815",81.38552,491.86407
"2816",80.94362,491.8774
"2817",80.39185,491.89075
"2818",79.75952,491.90408
"2819",79.07591,491.91742
"2820",78.365456,491.93076
"2821",77.64767,491.9441
"2822",76.944534,491.95743
"2823",76.27558,491.97076
"2824",75.66033,491.9841
"2825",75.11101,491.99744
"2826",74.63981,492.01077
"2827",74.23941,492.0241
"2828",73.90738,492.03745
"2829",73.633934,492.05078
"2830",73.411766,492.06412
"2831",73.23842,492.07745
"2832",73.11391,492.0908
"2833",73.03822,492.10413
"2834",72.99672,492.11746
"2835",72.98207,492.1308
"2836",72.98451,492.14413
"2837",72.99672,492.15747
"2838",73.01869,492.1708
"2839",73.04555,492.18414
"2840",73.07973,492.19748
"2841",73.11879,492.21082
"2842",73.15785,492.22415
"2843",73.19447,492.2375
"2844",73.231094,492.25082
"2845",73.26528,492.26416
"2846",73.29458,492.2775
"2847",73.323875,492.29083
"2848",73.35073,492.30417
"2849",73.38247,492.3175
"2850",73.41421,492.33084
"2851",73.45815,492.34418
"2852",73.51186,492.3575
"2853",73.58022,492.37085
"2854",73.66079,492.3842
"2855",73.75845,492.39752
"2856",73.863434,492.41086
"2857",73.97574,492.4242
"2858",74.092926,492.43753
"2859",74.24429,492.45087
"2860",74.52262,492.4642
"2861",75.11101,492.47754
"2862",76.2121,492.49088
"2863",77.996796,492.5042
"2864",80.49439,492.51755
"2865",83.57061,492.53088
"2866",86.93736,492.54422
"2867",90.228424,492.55756
"2868",93.102005,492.5709
"2869",95.33349,492.58423
"2870",96.81056,492.59756
"2871",97.53567,492.6109
"2872",97.58694,492.62424
"2873",97.076675,492.63757
"2874",96.13672,492.6509
"2875",94.906235,492.66425
"2876",93.5024,492.67758
"2877",92.015564,492.69092
"2878",90.511635,492.70425
"2879",89.02968,492.7176
"2880",87.59655,492.73093
"2881",86.23422,492.74426
"2882",84.979324,492.7576
"2883",83.88312,492.77094
"2884",82.99687,492.78427
"2885",82.34501,492.7976
"2886",81.9324,492.81094
"2887",81.72732,492.82428
"2888",81.67849,492.83762
"2889",81.722435,492.85095
"2890",81.7908,492.8643
"2891",81.829865,492.87762
"2892",81.78836,492.89096
"2893",81.636986,492.9043
"2894",81.356224,492.91763
"2895",80.9485,492.93097
"2896",80.430916,492.9443
"2897",79.82788,492.95764
"2898",79.166245,492.97098
"2899",78.47776,492.9843
"2900",77.79172,492.99765
"2901",77.1252,493.011
"2902",76.49531,493.02432
"2903",75.914246,493.03766
"2904",75.386894,493.051
"2905",74.91814,493.06433
"2906",74.512856,493.07767
"2907",74.17349,493.091
"2908",73.900055,493.10434
"2909",73.6852,493.11768
"2910",73.52407,493.131
"2911",73.409325,493.14435
"2912",73.33364,493.15768
"2913",73.29214,493.17102
"2914",73.27505,493.18436
"2915",73.272606,493.1977
"2916",73.287254,493.21103
"2917",73.31167,493.22437
"2918",73.35073,493.2377
"2919",73.39956,493.25104
"2920",73.45327,493.26437
"2921",73.5021,493.2777
"2922",73.55093,493.29105
"2923",73.58999,493.30438
"2924",73.62417,493.31772
"2925",73.66079,493.33105
"2926",73.69253,493.3444
"2927",73.724266,493.35773
"2928",73.75845,493.37106
"2929",73.8024,493.3844
"2930",73.85855,493.39774
"2931",73.93179,493.41107
"2932",74.00992,493.4244
"2933",74.09537,493.43774
"2934",74.18814,493.45108
"2935",74.302895,493.46442
"2936",74.510414,493.47775
"2937",74.95476,493.4911
"2938",75.841,493.50443
"2939",77.347374,493.51776
"2940",79.554436,493.5311
"2941",82.388954,493.54443
"2942",85.6141,493.55777
"2943",88.885635,493.5711
"2944",91.85443,493.58444
"2945",94.259254,493.59778
"2946",95.96338,493.6111
"2947",96.937515,493.62445
"2948",97.22316,493.6378
"2949",96.917984,493.65112
"2950",96.13672,493.66446
"2951",95.0161,493.6778
"2952",93.6733,493.69113
"2953",92.22064,493.70447
"2954",90.738686,493.7178
"2955",89.27871,493.73114
"2956",87.85779,493.74448
"2957",86.4979,493.7578
"2958",85.22591,493.77115
"2959",84.07599,493.7845
"2960",83.09453,493.79782
"2961",82.32792,493.81116
"2962",81.80545,493.8245
"2963",81.51003,493.83783
"2964",81.409935,493.85117
"2965",81.44167,493.8645
"2966",81.53933,493.87784
"2967",81.62478,493.89117
"2968",81.64431,493.9045
"2969",81.55642,493.91785
"2970",81.341576,493.93118
"2971",80.99489,493.94452
"2972",80.533455,493.95786
"2973",79.98413,493.9712
"2974",79.37621,493.98453
"2975",78.73167,493.99786
"2976",78.07492,494.0112
"2977",77.42794,494.02454
"2978",76.807816,494.03787
"2979",76.224304,494.0512
"2980",75.68963,494.06454
"2981",75.208664,494.07788
"2982",74.78874,494.09122
"2983",74.43229,494.10455
"2984",74.13687,494.1179
"2985",73.900055,494.13123
"2986",73.71694,494.14456
"2987",73.57778,494.1579
"2988",73.47524,494.17123
"2989",73.40688,494.18457
"2990",73.37026,494.1979
"2991",73.35317,494.21124
"2992",73.358055,494.22458
"2993",73.38003,494.2379
"2994",73.41665,494.25125
"2995",73.46792,494.2646
"2996",73.52407,494.27792
"2997",73.582664,494.29126
"2998",73.63882,494.3046
"2999",73.69009,494.31793
"3000",73.73159,494.33127
"3001",73.7731,494.3446
"3002",73.80972,494.35794
"3003",73.85611,494.37128
"3004",73.90738,494.3846
"3005",73.96597,494.39795
"3006",74.03189,494.4113
"3007",74.107574,494.42462
"3008",74.19058,494.43796
"3009",74.29069,494.4513
"3010",74.442055,494.46463
"3011",74.757,494.47797
"3012",75.41863,494.4913
"3013",76.627144,494.50464
"3014",78.51194,494.51797
"3015",81.077896,494.5313
"3016",84.15167,494.54465
"3017",87.430534,494.55798
"3018",90.55314,494.57132
"3019",93.21431,494.58466
"3020",95.218735,494.598
"3021",96.49561,494.61133
"3022",97.059586,494.62466
"3023",96.98634,494.638
"3024",96.393074,494.65134
"3025",95.40185,494.66467
"3026",94.13962,494.678
"3027",92.7187,494.69135
"3028",91.22453,494.70468
"3029",89.71816,494.71802
"3030",88.233765,494.73135
"3031",86.79576,494.7447
"3032",85.435875,494.75803
"3033",84.190735,494.77136
"3034",83.10918,494.7847
"3035",82.24979,494.79803
"3036",81.63943,494.81137
"3037",81.2781,494.8247
"3038",81.13649,494.83804
"3039",81.15846,494.85138
"3040",81.27322,494.86472
"3041",81.40505,494.87805
"3042",81.4905,494.8914
"3043",81.48318,494.90472
"3044",81.35378,494.91806
"3045",81.09743,494.9314
"3046",80.719,494.94473
"3047",80.23071,494.95807
"3048",79.65453,494.9714
"3049",79.0222,494.98474
"3050",78.35813,494.99808
"3051",77.69405,495.0114
"3052",77.051956,495.02475
"3053",76.44404,495.0381
"3054",75.88495,495.05142
"3055",75.372246,495.06476
"3056",74.91325,495.0781
"3057",74.50797,495.09143
"3058",74.1564,495.10477
"3059",73.86099,495.1181
"3060",73.62661,495.13144
"3061",73.43862,495.14478
"3062",73.29702,495.1581
"3063",73.196915,495.17145
"3064",73.13344,495.18478
"3065",73.09682,495.19812
"3066",73.08461,495.21146
"3067",73.09926,495.2248
"3068",73.128555,495.23813
"3069",73.17006,495.25146
"3070",73.21889,495.2648
"3071",73.270164,495.27814
"3072",73.323875,495.29147
"3073",73.38491,495.3048
"3074",73.45083,495.31815
"3075",73.51919,495.33148
"3076",73.59243,495.34482
"3077",73.670555,495.35815
"3078",73.74624,495.3715
"3079",73.81705,495.38483
"3080",73.882965,495.39816
"3081",73.94644,495.4115
"3082",74.01236,495.42484
"3083",74.141754,495.43817
"3084",74.461586,495.4515
"3085",75.16716,495.46484
"3086",76.46113,495.47818
"3087",78.46067,495.49152
"3088",81.13893,495.50485
"3089",84.29572,495.5182
"3090",87.60876,495.53152
"3091",90.71671,495.54486
"3092",93.32174,495.5582
"3093",95.25048,495.57153
"3094",96.43702,495.58487
"3095",96.900894,495.5982
"3096",96.72999,495.61154
"3097",96.03662,495.62488
"3098",94.9453,495.6382
"3099",93.58053,495.65155
"3100",92.06439,495.6649
"3101",90.477455,495.67822
"3102",88.88075,495.69156
"3103",87.31579,495.7049
"3104",85.821625,495.71823
"3105",84.42512,495.73157
"3106",83.17265,495.7449
"3107",82.11063,495.75824
"3108",81.28542,495.77158
"3109",80.71656,495.7849
"3110",80.40162,495.79825
"3111",80.30152,495.81158
"3112",80.360115,495.82492
"3113",80.50172,495.83826
"3114",80.65308,495.8516
"3115",80.75807,495.86493
"3116",80.76784,495.87827
"3117",80.655525,495.8916
"3118",80.42359,495.90494
"3119",80.06958,495.91827
"3120",79.61547,495.9316
"3121",79.07591,495.94495
"3122",78.48264,495.95828
"3123",77.86008,495.97162
"3124",77.22774,495.98495
"3125",76.60761,495.9983
"3126",76.0119,496.01163
"3127",75.45525,496.02496
"3128",74.94255,496.0383
"3129",74.48356,496.05164
"3130",74.08316,496.06497
"3131",73.7438,496.0783
"3132",73.463036,496.09164
"3133",73.23842,496.10498
"3134",73.06752,496.11832
"3135",72.94301,496.13165
"3136",72.86244,496.145
"3137",72.816055,496.15833
"3138",72.80141,496.17166
"3139",72.80629,496.185
"3140",72.82338,496.19833
"3141",72.850235,496.21167
"3142",72.88197,496.225
"3143",72.921036,496.23834
"3144",72.96498,496.25168
"3145",73.01625,496.265
"3146",73.077286,496.27835
"3147",73.13832,496.2917
"3148",73.2018,496.30502
"3149",73.26528,496.31836
"3150",73.33364,496.3317
"3151",73.40444,496.34503
"3152",73.47524,496.35837
"3153",73.548485,496.3717
"3154",73.62661,496.38504
"3155",73.738914,496.39838
"3156",73.97818,496.4117
"3157",74.529945,496.42505
"3158",75.62127,496.4384
"3159",77.418175,496.45172
"3160",79.96216,496.46506
"3161",83.12627,496.4784
"3162",86.62241,496.49173
"3163",90.06485,496.50507
"3164",93.09956,496.5184
"3165",95.484856,496.53174
"3166",97.10597,496.54507
"3167",97.94827,496.5584
"3168",98.07767,496.57175
"3169",97.61135,496.58508
"3170",96.68116,496.59842
"3171",95.4165,496.61176
"3172",93.93454,496.6251
"3173",92.33051,496.63843
"3174",90.68986,496.65176
"3175",89.058975,496.6651
"3176",87.47448,496.67844
"3177",85.97055,496.69177
"3178",84.596016,496.7051
"3179",83.39483,496.71844
"3180",82.41337,496.73178
"3181",81.688255,496.74512
"3182",81.22194,496.75845
"3183",80.990005,496.7718
"3184",80.94362,496.78513
"3185",81.01686,496.79846
"3186",81.13893,496.8118
"3187",81.24391,496.82513
"3188",81.28054,496.83847
"3189",81.214615,496.8518
"3190",81.024185,496.86514
"3191",80.71656,496.87848
"3192",80.30396,496.8918
"3193",79.80347,496.90515
"3194",79.23216,496.9185
"3195",78.61448,496.93182
"3196",77.97238,496.94516
"3197",77.32052,496.9585
"3198",76.67841,496.97183
"3199",76.068054,496.98517
"3200",75.491875,496.9985
"3201",74.96208,497.01184
"3202",74.48356,497.02518
"3203",74.06607,497.0385
"3204",73.704735,497.05185
"3205",73.402,497.0652
"3206",73.16029,497.07852
"3207",72.96742,497.09186
"3208",72.82338,497.1052
"3209",72.72083,497.11853
"3210",72.65247,497.13187
"3211",72.61341,497.1452
"3212",72.60609,497.15854
"3213",72.61585,497.17188
"3214",72.64027,497.1852
"3215",72.67689,497.19855
"3216",72.72816,497.21188
"3217",72.78676,497.22522
"3218",72.85512,497.23856
"3219",72.935684,497.2519
"3220",73.023575,497.26523
"3221",73.11391,497.27856
"3222",73.196915,497.2919
"3223",73.27749,497.30524
"3224",73.35317,497.31857
"3225",73.428856,497.3319
"3226",73.54604,497.34525
"3227",73.82437,497.35858
"3228",74.461586,497.37192
"3229",75.67986,497.38525
"3230",77.63546,497.3986
"3231",80.34547,497.41193
"3232",83.64629,497.42526
"3233",87.20836,497.4386
"3234",90.64591,497.45193
"3235",93.61471,497.46527
"3236",95.887695,497.4786
"3237",97.376976,497.49194
"3238",98.08743,497.50528
"3239",98.0972,497.51862
"3240",97.5259,497.53195
"3241",96.50782,497.5453
"3242",95.17479,497.55862
"3243",93.64889,497.57196
"3244",92.02777,497.5853
"3245",90.39445,497.59863
"3246",88.80263,497.61197
"3247",87.28161,497.6253
"3248",85.86069,497.63864
"3249",84.576485,497.65198
"3250",83.46563,497.6653
"3251",82.57206,497.67865
"3252",81.91531,497.692
"3253",81.497826,497.70532
"3254",81.290306,497.71866
"3255",81.253685,497.732
"3256",81.3196,497.74533
"3257",81.427025,497.75867
"3258",81.514915,497.772
"3259",81.52712,497.78534
"3260",81.43191,497.79868
"3261",81.20973,497.812
"3262",80.87038,497.82535
"3263",80.42603,497.83868
"3264",79.8938,497.85202
"3265",79.30541,497.86536
"3266",78.675514,497.8787
"3267",78.02121,497.89203
"3268",77.35958,497.90536
"3269",76.71259,497.9187
"3270",76.09247,497.93204
"3271",75.508965,497.94537
"3272",74.97185,497.9587
"3273",74.493324,497.97205
"3274",74.073395,497.98538
"3275",73.71694,497.99872
"3276",73.42397,498.01205
"3277",73.19203,498.0254
"3278",73.01137,498.03873
"3279",72.87709,498.05206
"3280",72.78432,498.0654
"3281",72.72816,498.07874
"3282",72.70374,498.09207
"3283",72.708626,498.1054
"3284",72.73792,498.11874
"3285",72.78676,498.13208
"3286",72.85268,498.14542
"3287",72.92348,498.15875
"3288",73.0016,498.1721
"3289",73.08217,498.18542
"3290",73.16762,498.19876
"3291",73.248184,498.2121
"3292",73.32632,498.22543
"3293",73.39468,498.23877
"3294",73.463036,498.2521
"3295",73.56069,498.26544
"3296",73.797516,498.27878
"3297",74.35905,498.2921
"3298",75.46502,498.30545
"3299",77.27657,498.3188
"3300",79.82788,498.33212
"3301",82.97246,498.34546
"3302",86.40513,498.3588
"3303",89.74502,498.37213
"3304",92.64301,498.38547
"3305",94.85985,498.3988
"3306",96.30274,498.41214
"3307",96.97414,498.42548
"3308",96.954605,498.4388
"3309",96.361336,498.45215
"3310",95.31884,498.46548
"3311",93.94919,498.47882
"3312",92.367134,498.49216
"3313",90.663,498.5055
"3314",88.92226,498.51883
"3315",87.203476,498.53217
"3316",85.56039,498.5455
"3317",84.04913,498.55884
"3318",82.72587,498.57217
"3319",81.64431,498.5855
"3320",80.84352,498.59885
"3321",80.34791,498.61218
"3322",80.1355,498.62552
"3323",80.15259,498.63885
"3324",80.33326,498.6522
"3325",80.587166,498.66553
"3326",80.84108,498.67886
"3327",81.024185,498.6922
"3328",81.094986,498.70554
"3329",81.03151,498.71887
"3330",80.82887,498.7322
"3331",80.50172,498.74554
"3332",80.06714,498.75888
"3333",79.54711,498.77222
"3334",78.96849,498.78555
"3335",78.35325,498.7989
"3336",77.72335,498.81223
"3337",77.0959,498.82556
"3338",76.490425,498.8389
"3339",75.91913,498.85223
"3340",75.386894,498.86557
"3341",74.90105,498.8789
"3342",74.47135,498.89224
"3343",74.090485,498.90558
"3344",73.76578,498.9189
"3345",73.497215,498.93225
"3346",73.27993,498.9456
"3347",73.11635,498.95892
"3348",73.0016,498.97226
"3349",72.92836,498.9856
"3350",72.8893,498.99893
"3351",72.88197,499.01227
"3352",72.901505,499.0256
"3353",72.94545,499.03894
"3354",73.00893,499.05228
"3355",73.077286,499.0656
"3356",73.15297,499.07895
"3357",73.22865,499.0923
"3358",73.304344,499.10562
"3359",73.37759,499.11896
"3360",73.443504,499.1323
"3361",73.52651,499.14563
"3362",73.6852,499.15897
"3363",74.06363,499.1723
"3364",74.861984,499.18564
"3365",76.27558,499.19897
"3366",78.38987,499.2123
"3367",81.146255,499.22565
"3368",84.32014,499.23898
"3369",87.57458,499.25232
"3370",90.545815,499.26566
"3371",92.95308,499.279
"3372",94.642555,499.29233
"3373",95.570305,499.30566
"3374",95.77295,499.319
"3375",95.34814,499.33234
"3376",94.42039,499.34567
"3377",93.119095,499.359
"3378",91.55901,499.37234
"3379",89.84512,499.38568
"3380",88.060425,499.39902
"3381",86.275734,499.41235
"3382",84.55207,499.4257
"3383",82.96025,499.43903
"3384",81.566185,499.45236
"3385",80.43824,499.4657
"3386",79.63012,499.47903
"3387",79.1638,499.49237
"3388",79.01732,499.5057
"3389",79.12962,499.51904
"3390",79.429924,499.53238
"3391",79.818115,499.54572
"3392",80.20874,499.55905
"3393",80.52369,499.5724
"3394",80.71168,499.58572
"3395",80.74586,499.59906
"3396",80.618904,499.6124
"3397",80.34791,499.62573
"3398",79.9646,499.63907
"3399",79.49096,499.6524
"3400",78.95628,499.66574
"3401",78.37766,499.67908
"3402",77.77707,499.6924
"3403",77.16914,499.70575
"3404",76.578316,499.7191
"3405",76.0119,499.73242
"3406",75.48943,499.74576
"3407",75.01579,499.7591
"3408",74.598305,499.77243
"3409",74.23453,499.78577
"3410",73.93179,499.7991
"3411",73.68276,499.81244
"3412",73.48745,499.82578
"3413",73.34341,499.8391
"3414",73.24086,499.85245
"3415",73.1725,499.86578
"3416",73.14076,499.87912
"3417",73.13588,499.89246
"3418",73.15785,499.9058
"3419",73.199356,499.91913
"3420",73.26284,499.93246
"3421",73.340965,499.9458
"3422",73.428856,499.95914
"3423",73.51186,499.97247
"3424",73.59487,499.9858
"3425",73.69253,499.99915
"3426",73.87076,500.01248
"3427",74.28092,500.02582
"3428",75.11589,500.03915
"3429",76.561226,500.0525
"3430",78.69016,500.06583
"3431",81.43679,500.07916
"3432",84.57404,500.0925
"3433",87.75769,500.10583
"3434",90.633705,500.11917
"3435",92.93355,500.1325
"3436",94.50584,500.14584
"3437",95.32372,500.15918
"3438",95.4287,500.17252
"3439",94.923325,500.18585
"3440",93.93698,500.1992
"3441",92.5893,500.21252
"3442",90.99016,500.22586
"3443",89.24208,500.2392
"3444",87.430534,500.25253
"3445",85.61898,500.26587
"3446",83.87335,500.2792
"3447",82.26444,500.29254
"3448",80.86549,500.30588
"3449",79.73998,500.3192
"3450",78.94652,500.33255
"3451",78.51194,500.3459
"3452",78.40452,500.35922
"3453",78.56077,500.37256
"3454",78.90257,500.3859
"3455",79.32494,500.39923
"3456",79.7351,500.41257
"3457",80.06714,500.4259
"3458",80.26734,500.43924
"3459",80.31861,500.45258
"3460",80.21362,500.4659
"3461",79.97681,500.47925
"3462",79.62524,500.49258
"3463",79.18822,500.50592
"3464",78.68528,500.51926
"3465",78.14084,500.5326
"3466",77.574425,500.54593
"3467",77.00069,500.55927
"3468",76.439156,500.5726
"3469",75.90936,500.58594
"3470",75.41863,500.59927
"3471",74.97185,500.6126
"3472",74.57389,500.62595
"3473",74.232086,500.63928
"3474",73.93912,500.65262
"3475",73.69985,500.66595
"3476",73.50942,500.6793
"3477",73.36294,500.69263
"3478",73.2604,500.70596
"3479",73.196915,500.7193
"3480",73.17494,500.73264
"3481",73.18959,500.74597
"3482",73.23842,500.7593
"3483",73.306786,500.77264
"3484",73.39468,500.78598
"3485",73.48501,500.79932
"3486",73.58022,500.81265
"3487",73.687645,500.826
"3488",73.86832,500.83932
"3489",74.251625,500.85266
"3490",75.03044,500.866
"3491",76.37812,500.87933
"3492",78.38743,500.89267
"3493",80.99733,500.906
"3494",84.00275,500.91934
"3495",87.07408,500.93268
"3496",89.87442,500.946
"3497",92.13275,500.95935
"3498",93.70016,500.9727
"3499",94.53025,500.98602
"3500",94.66209,500.99936
"3501",94.188446,501.0127
"3502",93.22896,501.02603
"3503",91.90814,501.03937
"3504",90.33341,501.0527
"3505",88.59998,501.06604
"3506",86.79332,501.07938
"3507",84.981766,501.0927
"3508",83.23857,501.10605
"3509",81.63943,501.1194
"3510",80.27711,501.13272
"3511",79.23216,501.14606
"3512",78.555885,501.1594
"3513",78.27268,501.17273
"3514",78.34104,501.18607
"3515",78.68284,501.1994
"3516",79.19554,501.21274
"3517",79.76929,501.22607
"3518",80.306404,501.2394
"3519",80.73853,501.25275
"3520",81.01686,501.26608
"3521",81.12184,501.27942
"3522",81.05348,501.29276
"3523",80.82643,501.3061
"3524",80.462654,501.31943
"3525",79.991455,501.33276
"3526",79.449455,501.3461
"3527",78.86839,501.35944
"3528",78.27024,501.37277
"3529",77.679405,501.3861
"3530",77.11055,501.39944
"3531",76.57343,501.41278
"3532",76.07782,501.42612
"3533",75.631035,501.43945
"3534",75.2404,501.4528
"3535",74.91325,501.46613
"3536",74.64713,501.47946
"3537",74.442055,501.4928
"3538",74.29069,501.50613
"3539",74.19791,501.51947
"3540",74.15396,501.5328
"3541",74.15152,501.54614
"3542",74.18082,501.55948
"3543",74.232086,501.5728
"3544",74.30045,501.58615
"3545",74.40299,501.5995
"3546",74.617836,501.61282
"3547",75.09636,501.62616
"3548",76.02411,501.6395
"3549",77.54757,501.65283
"3550",79.70336,501.66617
"3551",82.38163,501.6795
"3552",85.34066,501.69284
"3553",88.24597,501.70618
"3554",90.792404,501.7195
"3555",92.76509,501.73285
"3556",94.05905,501.7462
"3557",94.66697,501.75952
"3558",94.640114,501.77286
"3559",94.07614,501.7862
"3560",93.09224,501.79953
"3561",91.79584,501.81287
"3562",90.287025,501.8262
"3563",88.64881,501.83954
"3564",86.94957,501.85287
"3565",85.25033,501.8662
"3566",83.614555,501.87955
"3567",82.11795,501.89288
"3568",80.84108,501.90622
"3569",79.86206,501.91956
"3570",79.234604,501.9329
"3571",78.96361,501.94623
"3572",79.00511,501.95956
"3573",79.28832,501.9729
"3574",79.710686,501.98624
"3575",80.16724,501.99957
"3576",80.5774,502.0129
"3577",80.87038,502.02625
"3578",81.004654,502.03958
"3579",80.96803,502.05292
"3580",80.77028,502.06625
"3581",80.43336,502.0796
"3582",79.97925,502.09293
"3583",79.44213,502.10626
"3584",78.84642,502.1196
"3585",78.21896,502.13293
"3586",77.58419,502.14627
"3587",76.96651,502.1596
"3588",76.383,502.17294
"3589",75.84833,502.18628
"3590",75.369804,502.19962
"3591",74.95232,502.21295
"3592",74.60319,502.2263
"3593",74.322426,502.23962
"3594",74.110016,502.25296
"3595",73.96353,502.2663
"3596",73.882965,502.27963
"3597",73.85123,502.29297
"3598",73.85123,502.3063
"3599",73.88541,502.31964
"3600",73.98306,502.33298
"3601",74.246735,502.3463
"3602",74.85466,502.35965
"3603",75.98505,502.373
"3604",77.747765,502.38632
"3605",80.12329,502.39966
"3606",82.94072,502.413
"3607",85.91684,502.42633
"3608",88.72205,502.43967
"3609",91.087814,502.453
"3610",92.8481,502.46634
"3611",93.9321,502.47968
"3612",94.35447,502.493
"3613",94.186005,502.50635
"3614",93.5317,502.51968
"3615",92.51606,502.53302
"3616",91.244064,502.54636
"3617",89.813385,502.5597
"3618",88.29725,502.57303
"3619",86.751816,502.58636
"3620",85.223465,502.5997
"3621",83.758606,502.61304
"3622",82.42069,502.62637
"3623",81.270775,502.6397
"3624",80.37476,502.65305
"3625",79.764404,502.66638
"3626",79.44213,502.67972
"3627",79.36645,502.69305
"3628",79.47143,502.7064
"3629",79.674065,502.71973
"3630",79.89136,502.73306
"3631",80.059814,502.7464
"3632",80.1355,502.75974
"3633",80.08179,502.77307
"3634",79.886475,502.7864
"3635",79.55932,502.79974
"3636",79.1223,502.81308
"3637",78.59495,502.82642
"3638",78.00656,502.83975
"3639",77.38888,502.8531
"3640",76.76387,502.86642
"3641",76.155945,502.87976
"3642",75.57488,502.8931
"3643",75.03044,502.90643
"3644",74.53971,502.91977
"3645",74.10513,502.9331
"3646",73.73159,502.94644
"3647",73.428856,502.95978
"3648",73.196915,502.9731
"3649",73.02846,502.98645
"3650",72.91127,502.9998
"3651",72.83559,503.01312
"3652",72.79164,503.02646
"3653",72.781876,503.0398
"3654",72.82338,503.05313
"3655",72.99916,503.06647
"3656",73.460594,503.0798
"3657",74.38102,503.09314
"3658",75.90448,503.10648
"3659",78.065155,503.1198
"3660",80.75563,503.13315
"3661",83.73174,503.14648
"3662",86.67124,503.15982
"3663",89.27871,503.17316
"3664",91.34661,503.1865
"3665",92.76753,503.19983
"3666",93.521935,503.21317
"3667",93.66598,503.2265
"3668",93.29244,503.23984
"3669",92.51606,503.25317
"3670",91.45403,503.2665
"3671",90.213776,503.27985
"3672",88.87831,503.29318
"3673",87.50378,503.30652
"3674",86.117035,503.31985
"3675",84.74006,503.3332
"3676",83.41192,503.34653
"3677",82.176544,503.35986
"3678",81.09987,503.3732
"3679",80.233154,503.38654
"3680",79.61059,503.39987
"3681",79.22728,503.4132
"3682",79.0515,503.42654
"3683",79.0222,503.43988
"3684",79.07591,503.45322
"3685",79.13695,503.46655
"3686",79.15648,503.4799
"3687",79.08324,503.49323
"3688",78.90257,503.50656
"3689",78.60471,503.5199
"3690",78.20187,503.53323
"3691",77.713585,503.54657
"3692",77.15938,503.5599
"3693",76.56611,503.57324
"3694",75.95575,503.58658
"3695",75.34783,503.5999
"3696",74.76921,503.61325
"3697",74.229645,503.6266
"3698",73.741356,503.63992
"3699",73.306786,503.65326
"3700",72.9308,503.6666
"3701",72.61829,503.67993
"3702",72.36439,503.69327
"3703",72.17639,503.7066
"3704",72.044556,503.71994
"3705",71.96399,503.73328
"3706",71.922485,503.7466
"3707",71.91516,503.75995
"3708",71.92981,503.7733
"3709",71.95911,503.78662
"3710",72.00549,503.79996
"3711",72.09338,503.8133
"3712",72.29603,503.82663
"3713",72.75258,503.83997
"3714",73.65835,503.8533
"3715",75.159836,503.86664
"3716",77.313194,503.87997
"3717",80.025635,503.8933
"3718",83.075,503.90665
"3719",86.134125,503.91998
"3720",88.89296,503.93332
"3721",91.11711,503.94666
"3722",92.68696,503.96
"3723",93.56588,503.97333
"3724",93.80026,503.98666
"3725",93.4902,504
"3726",92.76753,504.01334
"3727",91.75433,504.02667
"3728",90.57023,504.04
"3729",89.30068,504.05334
"3730",87.99695,504.06668
"3731",86.68101,504.08002
"3732",85.367516,504.09335
"3733",84.07599,504.1067
"3734",82.847946,504.12003
"3735",81.72732,504.13336
"3736",80.77028,504.1467
"3737",80.01587,504.16003
"3738",79.47631,504.17337
"3739",79.132065,504.1867
"3740",78.94896,504.20004
"3741",78.870834,504.21338
"3742",78.83421,504.2267
"3743",78.785385,504.24005
"3744",78.6804,504.2534
"3745",78.49729,504.26672
"3746",78.21408,504.28006
"3747",77.838104,504.2934
"3748",77.37911,504.30673
"3749",76.84688,504.32007
"3750",76.263374,504.3334
"3751",75.65545,504.34674
"3752",75.04509,504.36008
"3753",74.4567,504.3734
"3754",73.90494,504.38675
"3755",73.402,504.4001
"3756",72.95766,504.41342
"3757",72.584114,504.42676
"3758",72.28138,504.4401
"3759",72.047,504.45343
"3760",71.87366,504.46677
"3761",71.74914,504.4801
"3762",71.66369,504.49344
"3763",71.61486,504.50677
"3764",71.59289,504.5201
"3765",71.60021,504.53345
"3766",71.63439,504.54678
"3767",71.6881,504.56012
"3768",71.75403,504.57346
"3769",71.82971,504.5868
"3770",71.90784,504.60013
"3771",71.993286,504.61346
"3772",72.08118,504.6268
"3773",72.17639,504.64014
"3774",72.271614,504.65347
"3775",72.361946,504.6668
"3776",72.44251,504.68015
"3777",72.5304,504.69348
"3778",72.69398,504.70682
"3779",73.077286,504.72015
"3780",73.900055,504.7335
"3781",75.34783,504.74683
"3782",77.52071,504.76016
"3783",80.35767,504.7735
"3784",83.631645,504.78683
"3785",86.993515,504.80017
"3786",90.091705,504.8135
"3787",92.63569,504.82684
"3788",94.47166,504.84018
"3789",95.553215,504.85352
"3790",95.92432,504.86685
"3791",95.68993,504.8802
"3792",94.98192,504.89352
"3793",93.95163,504.90686
"3794",92.72358,504.9202
"3795",91.405205,504.93353
"3796",90.0502,504.94687
"3797",88.69276,504.9602
"3798",87.34264,504.97354
"3799",86.014496,504.98688
"3800",84.73762,505.0002
"3801",83.560844,505.01355
"3802",82.533,505.0269
"3803",81.70046,505.04022
"3804",81.075455,505.05356
"3805",80.65064,505.0669
"3806",80.39185,505.08023
"3807",80.25025,505.09357
"3808",80.164795,505.1069
"3809",80.076904,505.12024
"3810",79.937744,505.13358
"3811",79.71557,505.1469
"3812",79.38842,505.16025
"3813",78.96361,505.17358
"3814",78.45335,505.18692
"3815",77.87717,505.20026
"3816",77.2546,505.2136
"3817",76.612495,505.22693
"3818",75.97772,505.24026
"3819",75.36248,505.2536
"3820",74.78874,505.26694
"3821",74.26139,505.28027
"3822",73.795074,505.2936
"3823",73.38491,505.30695
"3824",73.03822,505.32028
"3825",72.75258,505.33362
"3826",72.5304,505.34695
"3827",72.359505,505.3603
"3828",72.23743,505.37363
"3829",72.15686,505.38696
"3830",72.112915,505.4003
"3831",72.09094,505.41364
"3832",72.0885,505.42697
"3833",72.10071,505.4403
"3834",72.12024,505.45364
"3835",72.149536,505.46698
"3836",72.19104,505.48032
"3837",72.24231,505.49365
"3838",72.30579,505.507
"3839",72.38392,505.52032
"3840",72.47181,505.53366
"3841",72.56214,505.547
"3842",72.654915,505.56033
"3843",72.74769,505.57367
"3844",72.84291,505.587
"3845",72.94789,505.60034
"3846",73.05287,505.61368
"3847",73.162735,505.627
"3848",73.27749,505.64035
"3849",73.392235,505.6537
"3850",73.51186,505.66702
"3851",73.63882,505.68036
"3852",73.7731,505.6937
"3853",73.90982,505.70703
"3854",74.05386,505.72037
"3855",74.20523,505.7337
"3856",74.40055,505.74704
"3857",74.73991,505.76038
"3858",75.41375,505.7737
"3859",76.63691,505.78705
"3860",78.57542,505.80038
"3861",81.26345,505.81372
"3862",84.54719,505.82706
"3863",88.1239,505.8404
"3864",91.60052,505.85373
"3865",94.625465,505.86707
"3866",96.95949,505.8804
"3867",98.492714,505.89374
"3868",99.23979,505.90707
"3869",99.27154,505.9204
"3870",98.72709,505.93375
"3871",97.74807,505.94708
"3872",96.480965,505.96042
"3873",95.045395,505.97375
"3874",93.53414,505.9871
"3875",92.01068,506.00043
"3876",90.50431,506.01376
"3877",89.03212,506.0271
"3878",87.61364,506.04044
"3879",86.29282,506.05377
"3880",85.11116,506.0671
"3881",84.11749,506.08044
"3882",83.34844,506.09378
"3883",82.80888,506.10712
"3884",82.46952,506.12045
"3885",82.286415,506.1338
"3886",82.193634,506.14713
"3887",82.127716,506.16046
"3888",82.03006,506.1738
"3889",81.85672,506.18713
"3890",81.57839,506.20047
"3891",81.18288,506.2138
"3892",80.6775,506.22714
"3893",80.07446,506.24048
"3894",79.398186,506.2538
"3895",78.67063,506.26715
"3896",77.92355,506.2805
"3897",77.18135,506.29382
"3898",76.46357,506.30716
"3899",75.789734,506.3205
"3900",75.176926,506.33383
"3901",74.632484,506.34717
"3902",74.1564,506.3605
"3903",73.75601,506.37384
"3904",73.42397,506.38718
"3905",73.16029,506.4005
"3906",72.9601,506.41385
"3907",72.8185,506.4272
"3908",72.72816,506.44052
"3909",72.68177,506.45386
"3910",72.66712,506.4672
"3911",72.674446,506.48053
"3912",72.69642,506.49387
"3913",72.72816,506.5072
"3914",72.764786,506.52054
"3915",72.80629,506.53387
"3916",72.84779,506.5472
"3917",72.89174,506.56055
"3918",72.92836,506.57388
"3919",72.95766,506.58722
"3920",72.98207,506.60056
"3921",73.00404,506.6139
"3922",73.03334,506.62723
"3923",73.06752,506.64056
"3924",73.109024,506.6539
"3925",73.15541,506.66724
"3926",73.20668,506.68057
"3927",73.25796,506.6939
"3928",73.31655,506.70724
"3929",73.38247,506.72058
"3930",73.460594,506.73392
"3931",73.54604,506.74725
"3932",73.636375,506.7606
"3933",73.72915,506.77393
"3934",73.82193,506.78726
"3935",73.92691,506.8006
"3936",74.07828,506.81393
"3937",74.38346,506.82727
"3938",75.035324,506.8406
"3939",76.26093,506.85394
"3940",78.22629,506.86728
"3941",80.96071,506.8806
"3942",84.30793,506.89395
"3943",87.955444,506.9073
"3944",91.50286,506.92062
"3945",94.59861,506.93396
"3946",96.99611,506.9473
"3947",98.58793,506.96063
"3948",99.369194,506.97397
"3949",99.41802,506.9873
"3950",98.85161,507.00064
"3951",97.813995,507.01398
"3952",96.45167,507.0273
"3953",94.90135,507.04065
"3954",93.263145,507.054
"3955",91.612724,507.06732
"3956",90.00137,507.08066
"3957",88.45594,507.094
"3958",87.00084,507.10733
"3959",85.662926,507.12067
"3960",84.491035,507.134
"3961",83.52178,507.14734
"3962",82.78203,507.16068
"3963",82.286415,507.174
"3964",82.00809,507.18735
"3965",81.8909,507.20068
"3966",81.86893,507.21402
"3967",81.87869,507.22736
"3968",81.8616,507.2407
"3969",81.77371,507.25403
"3970",81.58083,507.26736
"3971",81.270775,507.2807
"3972",80.833755,507.29404
"3973",80.27711,507.30737
"3974",79.622795,507.3207
"3975",78.907455,507.33405
"3976",78.16037,507.34738
"3977",77.41329,507.36072
"3978",76.68818,507.37405
"3979",75.999695,507.3874
"3980",75.36004,507.40073
"3981",74.78142,507.41406
"3982",74.27116,507.4274
"3983",73.831696,507.44073
"3984",73.46548,507.45407
"3985",73.16762,507.4674
"3986",72.935684,507.48074
"3987",72.75746,507.4941
"3988",72.62562,507.50742
"3989",72.532845,507.52078
"3990",72.46937,507.5341
"3991",72.43275,507.54745
"3992",72.41566,507.56076
"3993",72.42054,507.57413
"3994",72.44251,507.58743
"3995",72.481575,507.6008
"3996",72.535286,507.6141
"3997",72.601204,507.62747
"3998",72.672005,507.64078
"3999",72.742805,507.65414
"4000",72.816055,507.66745
"4001",72.886856,507.68082
"4002",72.952774,507.69412
"4003",73.01381,507.7075
"4004",73.074844,507.7208
"4005",73.13344,507.73416
"4006",73.18715,507.74747
"4007",73.24574,507.76083
"4008",73.306786,507.77414
"4009",73.375145,507.7875
"4010",73.44839,507.8008
"4011",73.52163,507.81418
"4012",73.602196,507.82748
"4013",73.69009,507.84085
"4014",73.80972,507.85416
"4015",74.05142,507.86752
"4016",74.59342,507.88083
"4017",75.67498,507.8942
"4018",77.48409,507.9075
"4019",80.09155,507.92087
"4020",83.37774,507.93417
"4021",87.05211,507.94754
"4022",90.70939,507.96085
"4023",93.96872,507.9742
"4024",96.551765,507.98752
"4025",98.3267,508.0009
"4026",99.27642,508.0142
"4027",99.46685,508.02756
"4028",99.01274,508.04086
"4029",98.05325,508.05423
"4030",96.72022,508.06754
"4031",95.14549,508.0809
"4032",93.43893,508.0942
"4033",91.68841,508.10757
"4034",89.952545,508.12088
"4035",88.2826,508.13425
"4036",86.710304,508.14755
"4037",85.27718,508.16092
"4038",84.0296,508.17422
"4039",83.018845,508.1876
"4040",82.27421,508.2009
"4041",81.80789,508.21426
"4042",81.5906,508.22757
"4043",81.57351,508.24094
"4044",81.68093,508.25424
"4045",81.83475,508.2676
"4046",81.95682,508.2809
"4047",81.991,508.29428
"4048",81.898224,508.3076
"4049",81.65652,508.32095
"4050",81.26833,508.33426
"4051",80.75319,508.34763
"4052",80.13794,508.36093
"4053",79.449455,508.3743
"4054",78.71458,508.3876
"4055",77.960175,508.40097
"4056",77.21553,508.41428
"4057",76.50019,508.42764
"4058",75.83124,508.44095
"4059",75.21843,508.4543
"4060",74.67399,508.46762
"4061",74.20279,508.481
"4062",73.80728,508.4943
"4063",73.480125,508.50766
"4064",73.21889,508.52097
"4065",73.02113,508.53433
"4066",72.87221,508.54764
"4067",72.76967,508.561
"4068",72.7013,508.5743
"4069",72.66956,508.58768
"4070",72.66468,508.60098
"4071",72.68177,508.61435
"4072",72.71839,508.62766
"4073",72.762344,508.64102
"4074",72.813614,508.65433
"4075",72.867325,508.6677
"4076",72.921036,508.681
"4077",72.97719,508.69437
"4078",73.03578,508.70767
"4079",73.091934,508.72104
"4080",73.1432,508.73434
"4081",73.196915,508.7477
"4082",73.25063,508.76102
"4083",73.304344,508.77438
"4084",73.36782,508.7877
"4085",73.44106,508.80106
"4086",73.51919,508.81436
"4087",73.599754,508.82773
"4088",73.6852,508.84103
"4089",73.7731,508.8544
"4090",73.8732,508.8677
"4091",74.04166,508.88107
"4092",74.424965,508.89438
"4093",75.24773,508.90775
"4094",76.734566,508.92105
"4095",79.00511,508.93442
"4096",82.02518,508.94772
"4097",85.555504,508.9611
"4098",89.22499,508.9744
"4099",92.628365,508.98776
"4100",95.448235,509.00107
"4101",97.50149,509.01443
"4102",98.736855,509.02774
"4103",99.18364,509.0411
"4104",98.934616,509.0544
"4105",98.109406,509.06778
"4106",96.83986,509.0811
"4107",95.26269,509.09445
"4108",93.5024,509.10776
"4109",91.65667,509.12112
"4110",89.80362,509.13443
"4111",87.99695,509.1478
"4112",86.28062,509.1611
"4113",84.70344,509.17447
"4114",83.32159,509.18777
"4115",82.19852,509.20114
"4116",81.3782,509.21445
"4117",80.8777,509.2278
"4118",80.67506,509.24112
"4119",80.71168,509.2545
"4120",80.90944,509.2678
"4121",81.17799,509.28116
"4122",81.43435,509.29446
"4123",81.61013,509.30783
"4124",81.64919,509.32114
"4125",81.532005,509.3345
"4126",81.25613,509.3478
"4127",80.833755,509.36118
"4128",80.291756,509.37448
"4129",79.6643,509.38785
"4130",78.9807,509.40115
"4131",78.26292,509.41452
"4132",77.54269,509.42783
"4133",76.83467,509.4412
"4134",76.16571,509.4545
"4135",75.543144,509.46786
"4136",74.984055,509.48117
"4137",74.493324,509.49454
"4138",74.073395,509.50784
"4139",73.71938,509.5212
"4140",73.4313,509.53452
"4141",73.20424,509.54788
"4142",73.03334,509.5612
"4143",72.90883,509.57455
"4144",72.82582,509.58786
"4145",72.779434,509.60123
"4146",72.75746,509.61453
"4147",72.75746,509.6279
"4148",72.77455,509.6412
"4149",72.816055,509.65457
"4150",72.87221,509.66788
"4151",72.938126,509.68124
"4152",73.01137,509.69455
"4153",73.08949,509.70792
"4154",73.16518,509.72122
"4155",73.23842,509.7346
"4156",73.306786,509.7479
"4157",73.375145,509.76126
"4158",73.443504,509.77457
"4159",73.51186,509.78793
"4160",73.585106,509.80124
"4161",73.66323,509.8146
"4162",73.74624,509.8279
"4163",73.83414,509.84128
"4164",73.92447,509.85458
"4165",74.03433,509.86795
"4166",74.23453,509.88126
"4167",74.686195,509.89462
"4168",75.613945,509.90793
"4169",77.22774,509.9213
"4170",79.622795,509.9346
"4171",82.71122,509.94797
"4172",86.23422,509.96127
"4173",89.796295,509.97464
"4174",93.00679,509.98795
"4175",95.58007,510.0013
"4176",97.36477,510.01462
"4177",98.3267,510.02798
"4178",98.529335,510.0413
"4179",98.072784,510.05466
"4180",97.07912,510.06796
"4181",95.68261,510.08133
"4182",94.00046,510.09464
"4183",92.1474,510.108
"4184",90.20889,510.1213
"4185",88.26307,510.13467
"4186",86.366066,510.14798
"4187",84.58625,510.16135
"4188",82.98711,510.17465
"4189",81.6321,510.18802
"4190",80.584724,510.20132
"4191",79.886475,510.2147
"4192",79.53246,510.228
"4193",79.48608,510.24136
"4194",79.67162,510.25467
"4195",79.9939,510.26804
"4196",80.35035,510.28134
"4197",80.65308,510.2947
"4198",80.8362,510.308
"4199",80.86305,510.32138
"4200",80.71656,510.3347
"4201",80.40162,510.34805
"4202",79.94263,510.36136
"4203",79.361565,510.37473
"4204",78.68772,510.38803
"4205",77.95041,510.4014
"4206",77.18135,510.4147
"4207",76.40742,510.42807
"4208",75.65545,510.44138
"4209",74.94743,510.45474
"4210",74.30045,510.46805
"4211",73.72671,510.4814
"4212",73.23842,510.49472
"4213",72.84291,510.5081
"4214",72.54261,510.5214
"4215",72.33265,510.53476
"4216",72.21057,510.54807
"4217",72.15686,510.56143
"4218",72.166626,510.57474
"4219",72.22278,510.5881
"4220",72.31068,510.6014
"4221",72.42298,510.61478
"4222",72.54505,510.62808
"4223",72.66468,510.64145
"4224",72.779434,510.65475
"4225",72.886856,510.66812
"4226",72.97475,510.68143
"4227",73.04799,510.6948
"4228",73.109024,510.7081
"4229",73.16029,510.72147
"4230",73.2018,510.73477
"4231",73.2433,510.74814
"4232",73.28481,510.76144
"4233",73.321434,510.7748
"4234",73.358055,510.78812
"4235",73.39956,510.80148
"4236",73.44839,510.8148
"4237",73.5021,510.82816
"4238",73.568016,510.84146
"4239",73.66323,510.85483
"4240",73.85611,510.86813
"4241",74.302895,510.8815
"4242",75.22331,510.8948
"4243",76.81026,510.90817
"4244",79.14183,510.92148
"4245",82.127716,510.93484
"4246",85.50179,510.94815
"4247",88.88075,510.96152
"4248",91.88617,510.97482
"4249",94.2446,510.9882
"4250",95.82178,511.0015
"4251",96.59815,511.01486
"4252",96.639656,511.02817
"4253",96.05371,511.04153
"4254",94.96239,511.05484
"4255",93.4902,511.0682
"4256",91.73968,511.0815
"4257",89.813385,511.09488
"4258",87.78943,511.1082
"4259",85.748375,511.12155
"4260",83.76593,511.13486
"4261",81.93973,511.14822
"4262",80.35767,511.16153
"4263",79.11253,511.1749
"4264",78.28489,511.1882
"4265",77.90646,511.20157
"4266",77.95285,511.21487
"4267",78.35081,511.22824
"4268",78.98802,511.24155
"4269",79.7351,511.2549
"4270",80.462654,511.26822
"4271",81.07301,511.2816
"4272",81.50515,511.2949
"4273",81.72732,511.30826
"4274",81.74197,511.32156
"4275",81.566185,511.33493
"4276",81.231705,511.34824
"4277",80.77028,511.3616
"4278",80.20874,511.3749
"4279",79.58129,511.38828
"4280",78.91478,511.40158
"4281",78.24094,511.41495
"4282",77.576866,511.42825
"4283",76.94942,511.44162
"4284",76.3708,511.45493
"4285",75.84833,511.4683
"4286",75.38201,511.4816
"4287",74.97673,511.49496
"4288",74.63737,511.50827
"4289",74.36637,511.52164
"4290",74.1564,511.53494
"4291",74.00748,511.5483
"4292",73.9147,511.5616
"4293",73.863434,511.57498
"4294",73.848785,511.5883
"4295",73.85855,511.60165
"4296",73.882965,511.61496
"4297",73.92691,511.62833
"4298",73.97574,511.64163
"4299",74.03677,511.655
"4300",74.110016,511.6683
"4301",74.18814,511.68167
"4302",74.27116,511.69498
"4303",74.35905,511.70834
"4304",74.44938,511.72165
"4305",74.53727,511.73502
"4306",74.62272,511.74832
"4307",74.7277,511.7617
"4308",74.93523,511.775
"4309",75.42596,511.78836
"4310",76.43427,511.80167
"4311",78.14328,511.81503
"4312",80.618904,511.82834
"4313",83.74151,511.8417
"4314",87.220566,511.855
"4315",90.65812,511.86838
"4316",93.68307,511.88168
"4317",96.03906,511.89505
"4318",97.60403,511.90836
"4319",98.36576,511.92172
"4320",98.39262,511.93503
"4321",97.78958,511.9484
"4322",96.6836,511.9617
"4323",95.19432,511.97507
"4324",93.434044,511.98837
"4325",91.5053,512.0018
"4326",89.49355,512.0151
"4327",87.4696,512.02844
"4328",85.49935,512.04175
"4329",83.65362,512.0551
"4330",82.01297,512.0684
"4331",80.66285,512.0818
"4332",79.676506,512.0951
"4333",79.097885,512.10846
"4334",78.922104,512.12177
"4335",79.09544,512.13513
"4336",79.520256,512.14844
"4337",80.079346,512.1618
"4338",80.65797,512.1751
"4339",81.15846,512.1885
"4340",81.514915,512.2018
"4341",81.685814,512.21515
"4342",81.668724,512.22845
"4343",81.461205,512.2418
"4344",81.094986,512.2551
"4345",80.59693,512.2685
"4346",80.00122,512.2818
"4347",79.33959,512.29517
"4348",78.641335,512.3085
"4349",77.9382,512.32184
"4350",77.24483,512.33514
"4351",76.578316,512.3485
"4352",75.95087,512.3618
"4353",75.37469,512.3752
"4354",74.8571,512.3885
"4355",74.40543,512.40186
"4356",74.02701,512.41516
"4357",73.71938,512.4285
"4358",73.480125,512.44183
"4359",73.3019,512.4552
"4360",73.179825,512.4685
"4361",73.09926,512.4819
"4362",73.060196,512.4952
"4363",73.05531,512.50854
"4364",73.07973,512.52185
"4365",73.126114,512.5352
"4366",73.19203,512.5485
"4367",73.272606,512.5619
"4368",73.36294,512.5752
"4369",73.45571,512.58856
"4370",73.548485,512.60187
"4371",73.636375,512.61523
"4372",73.741356,512.62854
"4373",73.936676,512.6419
"4374",74.39323,512.6552
"4375",75.34783,512.6686
"4376",77.00557,512.6819
"4377",79.449455,512.69525
"4378",82.59403,512.70856
"4379",86.168304,512.7219
"4380",89.779205,512.7352
"4381",93.033646,512.7486
"4382",95.64843,512.7619
"4383",97.479515,512.77527
"4384",98.49027,512.7886
"4385",98.739296,512.80194
"4386",98.336464,512.81525
"4387",97.40627,512.8286
"4388",96.07324,512.8419
"4389",94.466774,512.8553
"4390",92.69184,512.8686
"4391",90.829025,512.88196
"4392",88.94911,512.89526
"4393",87.10338,512.9086
"4394",85.347984,512.92194
"4395",83.75128,512.9353
"4396",82.374306,512.9486
"4397",81.28054,512.962
"4398",80.51392,512.9753
"4399",80.07446,512.98865
"4400",79.93042,513.00195
"4401",80.01099,513.0153
"4402",80.24048,513.0286
"4403",80.52369,513.042
"4404",80.782486,513.0553
"4405",80.953384,513.06866
"4406",80.99733,513.082
"4407",80.88991,513.09534
"4408",80.63355,513.10864
"4409",80.24292,513.122
"4410",79.73998,513.1353
"4411",79.14671,513.1487
"4412",78.49241,513.162
"4413",77.803925,513.17535
"4414",77.100784,513.18866
"4415",76.40742,513.202
"4416",75.736015,513.21533
"4417",75.10368,513.2287
"4418",74.52506,513.242
"4419",74.005035,513.2554
"4420",73.55093,513.2687
"4421",73.162735,513.28204
"4422",72.84291,513.29535
"4423",72.58167,513.3087
"4424",72.379036,513.322
"4425",72.2301,513.3354
"4426",72.12756,513.3487
"4427",72.06897,513.36206
"4428",72.04944,513.37537
"4429",72.059204,513.38873
"4430",72.10071,513.40204
"4431",72.166626,513.4154
"4432",72.25208,513.4287
"4433",72.34974,513.4421
"4434",72.45716,513.4554
"4435",72.56458,513.46875
"4436",72.66468,513.48206
"4437",72.7599,513.4954
"4438",72.86488,513.5087
"4439",73.04799,513.5221
"4440",73.46792,513.5354
"4441",74.35172,513.54877
"4442",75.90936,513.5621
"4443",78.25315,513.57544
"4444",81.3196,513.58875
"4445",84.85237,513.6021
"4446",88.47303,513.6154
"4447",91.78607,513.6288
"4448",94.48875,513.6421
"4449",96.41749,513.65546
"4450",97.533226,513.66876
"4451",97.87991,513.6821
"4452",97.56252,513.69543
"4453",96.71046,513.7088
"4454",95.45312,513.7221
"4455",93.91989,513.7355
"4456",92.22064,513.7488
"4457",90.440834,513.76215
"4458",88.656136,513.77545
"4459",86.91295,513.7888
"4460",85.25765,513.8021
"4461",83.74883,513.8155
"4462",82.442665,513.8288
"4463",81.39529,513.84216
"4464",80.64088,513.85547
"4465",80.184326,513.86884
"4466",79.991455,513.88214
"4467",80.01099,513.8955
"4468",80.15747,513.9088
"4469",80.35523,513.9222
"4470",80.533455,513.9355
"4471",80.635994,513.94885
"4472",80.62623,513.96216
"4473",80.482185,513.9755
"4474",80.20386,513.98883
"4475",79.80347,514.0022
"4476",79.30541,514.0155
"4477",78.7219,514.0289
"4478",78.08713,514.0422
"4479",77.420616,514.05554
"4480",76.74433,514.06885
"4481",76.070496,514.0822
"4482",75.41619,514.0955
"4483",74.79851,514.1089
"4484",74.22476,514.1222
"4485",73.71206,514.13556
"4486",73.26772,514.14886
"4487",72.89174,514.16223
"4488",72.586555,514.17554
"4489",72.3473,514.1889
"4490",72.17151,514.2022
"4491",72.059204,514.2156
"4492",72.01282,514.2289
"4493",72.02258,514.24225
"4494",72.08118,514.25555
"4495",72.17395,514.2689
"4496",72.29359,514.2822
"4497",72.41566,514.2956
"4498",72.54017,514.3089
"4499",72.66712,514.32227
"4500",72.78676,514.3356
"4501",72.89418,514.34894
"4502",72.99428,514.36224
"4503",73.08705,514.3756
"4504",73.1725,514.3889
"4505",73.289696,514.4023
"4506",73.54604,514.4156
"4507",74.144196,514.42896
"4508",75.31121,514.44226
"4509",77.21553,514.4556
"4510",79.88159,514.46893
"4511",83.1458,514.4823
"4512",86.68345,514.4956
"4513",90.089264,514.509
"4514",93.01167,514.5223
"4515",95.23094,514.53564
"4516",96.65919,514.54895
"4517",97.306175,514.5623
