"","ppg","time"
"1",81.566185,29.097961
"2",81.17555,29.111298
"3",80.99977,29.12463
"4",80.987564,29.137962
"5",81.077896,29.151295
"6",81.18776,29.164627
"7",81.25613,29.177963
"8",81.231705,29.191296
"9",81.094986,29.204628
"10",80.84352,29.217964
"11",80.48463,29.231297
"12",80.04028,29.244629
"13",79.534904,29.257961
"14",78.99779,29.271294
"15",78.45579,29.28463
"16",77.93332,29.297962
"17",77.435265,29.311295
"18",76.961624,29.32463
"19",76.50019,29.337963
"20",76.04608,29.351295
"21",75.60418,29.364628
"22",75.194016,29.37796
"23",74.830246,29.391296
"24",74.529945,29.404629
"25",74.29069,29.417961
"26",74.0856,29.431297
"27",73.900055,29.44463
"28",73.721825,29.457962
"29",73.54604,29.471294
"30",73.36782,29.484627
"31",73.18959,29.497963
"32",73.023575,29.511295
"33",72.88197,29.524628
"34",72.80141,29.537964
"35",72.82826,29.551296
"36",72.99916,29.564629
"37",73.31411,29.577961
"38",73.77554,29.591293
"39",74.43961,29.60463
"40",75.41619,29.617962
"41",76.82735,29.631294
"42",78.746315,29.64463
"43",81.143814,29.657963
"44",83.85626,29.671295
"45",86.63706,29.684628
"46",89.20058,29.69796
"47",91.31487,29.711296
"48",92.840775,29.724628
"49",93.73434,29.73796
"50",94.00778,29.751297
"51",93.746544,29.76463
"52",93.07515,29.777962
"53",92.13519,29.791294
"54",91.04631,29.804626
"55",89.88663,29.817963
"56",88.70252,29.831295
"57",87.518425,29.844627
"58",86.34409,29.857964
"59",85.19905,29.871296
"60",84.1297,29.884628
"61",83.18242,29.89796
"62",82.40116,29.911293
"63",81.80301,29.92463
"64",81.38064,29.937962
"65",81.10475,29.951294
"66",80.92653,29.96463
"67",80.799576,29.977962
"68",80.68238,29.991295
"69",80.54322,30.004627
"70",80.35035,30.01796
"71",80.08423,30.031296
"72",79.73998,30.044628
"73",79.3225,30.05796
"74",78.84398,30.071297
"75",78.32639,30.08463
"76",77.789276,30.097961
"77",77.264366,30.111294
"78",76.756546,30.124626
"79",76.27314,30.137962
"80",75.81903,30.151295
"81",75.389336,30.164627
"82",74.986496,30.177963
"83",74.62028,30.191296
"84",74.29069,30.204628
"85",74.0148,30.21796
"86",73.616844,30.244629
"87",73.494774,30.257961
"88",73.42397,30.271294
"89",73.38979,30.28463
"90",73.38247,30.297962
"91",73.39468,30.311295
"92",73.41665,30.324627
"93",73.44106,30.33796
"94",73.46548,30.351295
"95",73.497215,30.364628
"96",73.56313,30.37796
"97",73.73647,30.391296
"98",74.15396,30.404629
"99",74.984055,30.417961
"100",76.35859,30.431293
"101",78.31663,30.444626
"102",80.77272,30.457962
"103",83.51446,30.471294
"104",86.239105,30.484627
"105",88.656136,30.497963
"106",90.55314,30.511295
"107",91.81293,30.524628
"108",92.4184,30.53796
"109",92.43305,30.551292
"110",91.97162,30.564629
"111",91.1635,30.577961
"112",90.14542,30.591293
"113",89.022354,30.60463
"114",87.86023,30.617962
"115",86.70054,30.631294
"116",85.557945,30.644627
"117",84.44953,30.657959
"118",83.39483,30.671295
"119",82.42802,30.684628
"120",81.59548,30.69796
"121",80.93385,30.711296
"122",80.448006,30.724628
"123",80.12573,30.73796
"124",79.9353,30.751293
"125",79.83032,30.764626
"126",79.75708,30.777962
"127",79.676506,30.791294
"128",79.54955,30.804626
"129",79.35424,30.817963
"130",79.093,30.831295
"131",78.75853,30.844627
"132",78.365456,30.85796
"133",77.92844,30.871292
"134",77.46212,30.884628
"135",76.97627,30.89796
"136",76.49287,30.911293
"137",76.02167,30.92463
"138",75.577324,30.937962
"139",75.16716,30.951294
"140",74.80339,30.964626
"141",74.486,30.977959
"142",74.21744,30.991295
"143",74.00015,31.004627
"144",73.83902,31.01796
"145",73.73159,31.031296
"146",73.673,31.044628
"147",73.653465,31.05796
"148",73.66323,31.071293
"149",73.69253,31.084625
"150",73.73403,31.097961
"151",73.780426,31.111294
"152",73.83658,31.124626
"153",73.90494,31.137962
"154",74.019684,31.151295
"155",74.268715,31.164627
"156",74.79851,31.17796
"157",75.76044,31.191292
"158",77.26925,31.204628
"159",79.3225,31.21796
"160",81.795685,31.231293
"161",84.45197,31.244629
"162",86.99107,31.257961
"163",89.146866,31.271294
"164",90.7338,31.284626
"165",91.663994,31.297958
"166",91.95209,31.311295
"167",91.6762,31.324627
"168",90.965744,31.33796
"169",89.95743,31.351295
"170",88.78554,31.364628
"171",87.5404,31.37796
"172",86.2855,31.391293
"173",85.04768,31.404625
"174",83.8587,31.417961
"175",82.738075,31.431293
"176",81.7322,31.444626
"177",80.88991,31.457962
"178",80.2478,31.471294
"179",79.815674,31.484627
"180",79.57641,31.49796
"181",79.48608,31.511292
"182",79.49096,31.524628
"183",79.53002,31.53796
"184",79.551994,31.551292
"185",79.5227,31.564629
"186",79.412834,31.577961
"187",79.21263,31.591293
"188",78.924545,31.604626
"189",78.56809,31.617958
"190",78.15549,31.631294
"191",77.71114,31.644627
"192",77.24971,31.657959
"193",76.78584,31.671295
"194",76.33662,31.684628
"195",75.90936,31.69796
"196",75.511406,31.711292
"197",75.15495,31.724625
"198",74.84001,31.73796
"199",74.56657,31.751293
"200",74.339516,31.764626
"201",74.16373,31.777962
"202",74.03433,31.791294
"203",73.94888,31.804626
"204",73.900055,31.817959
"205",73.88052,31.831291
"206",73.88052,31.844627
"207",73.88785,31.85796
"208",73.900055,31.871292
"209",73.944,31.884628
"210",74.090485,31.89796
"211",74.48112,31.911293
"212",75.28191,31.924625
"213",76.64179,31.937958
"214",78.60227,31.951294
"215",81.08522,31.964626
"216",83.86603,31.977959
"217",86.6395,31.991295
"218",89.10292,32.004627
"219",91.02922,32.01796
"220",92.28901,32.031292
"221",92.86763,32.044624
"222",92.83345,32.05796
"223",92.318306,32.071293
"224",91.46868,32.084625
"225",90.42863,32.09796
"226",89.30312,32.111294
"227",88.165405,32.124626
"228",87.04234,32.13796
"229",85.93393,32.15129
"230",84.84993,32.164627
"231",83.80255,32.17796
"232",82.82109,32.19129
"233",81.94217,32.204628
"234",81.20485,32.21796
"235",80.62623,32.231293
"236",80.20874,32.244625
"237",79.92798,32.257957
"238",79.742424,32.271294
"239",79.59838,32.284626
"240",79.45434,32.29796
"241",79.273674,32.311295
"242",79.03441,32.324627
"243",78.72678,32.33796
"244",78.348366,32.35129
"245",77.91135,32.364624
"246",77.43282,32.37796
"247",76.927444,32.391293
"248",76.41474,32.404625
"249",75.90936,32.41796
"250",75.423515,32.431293
"251",74.97429,32.444626
"252",74.564125,32.45796
"253",74.20523,32.47129
"254",73.90494,32.484627
"255",73.66323,32.49796
"256",73.477684,32.51129
"257",73.34341,32.524628
"258",73.253075,32.53796
"259",73.2018,32.551292
"260",73.18227,32.564625
"261",73.179825,32.577957
"262",73.196915,32.591293
"263",73.24086,32.604626
"264",73.37026,32.617958
"265",73.70962,32.631294
"266",74.42008,32.644627
"267",75.650566,32.65796
"268",77.47921,32.67129
"269",79.84985,32.684624
"270",82.57694,32.69796
"271",85.3724,32.711292
"272",87.92615,32.724625
"273",89.98428,32.73796
"274",91.39056,32.751293
"275",92.103455,32.764626
"276",92.1767,32.777958
"277",91.72991,32.79129
"278",90.91936,32.804626
"279",89.89639,32.81796
"280",88.77821,32.83129
"281",87.63317,32.844627
"282",86.50034,32.85796
"283",85.37728,32.871292
"284",84.27131,32.884624
"285",83.192184,32.897957
"286",82.178986,32.911293
"287",81.26833,32.924625
"288",80.50172,32.937958
"289",79.90112,32.951294
"290",79.4641,32.964626
"291",79.166245,32.97796
"292",78.97337,32.99129
"293",78.84154,33.004623
"294",78.72434,33.01796
"295",78.58274,33.031292
"296",78.38987,33.044624
"297",78.13107,33.05796
"298",77.80881,33.071293
"299",77.42794,33.084625
"300",77.00313,33.097958
"301",76.54658,33.11129
"302",76.07294,33.124626
"303",75.596855,33.13796
"304",75.13298,33.15129
"305",74.6984,33.164627
"306",74.30045,33.17796
"307",73.94644,33.19129
"308",73.64126,33.204624
"309",73.38979,33.217957
"310",73.19447,33.231293
"311",73.05287,33.244625
"312",72.95766,33.257957
"313",72.901505,33.271294
"314",72.87709,33.284626
"315",72.87465,33.29796
"316",72.88197,33.31129
"317",72.89662,33.324623
"318",72.918594,33.33796
"319",72.96498,33.35129
"320",73.091934,33.364624
"321",73.4313,33.37796
"322",74.1564,33.391293
"323",75.41375,33.404625
"324",77.28634,33.417957
"325",79.727776,33.43129
"326",82.53544,33.444626
"327",85.4139,33.45796
"328",88.03113,33.47129
"329",90.13321,33.484627
"330",91.55169,33.49796
"331",92.2475,33.51129
"332",92.27924,33.524624
"333",91.776306,33.537956
"334",90.8925,33.551292
"335",89.78165,33.564625
"336",88.56336,33.577957
"337",87.31335,33.591293
"338",86.07553,33.604626
"339",84.86458,33.617958
"340",83.700005,33.63129
"341",82.60868,33.644623
"342",81.634544,33.65796
"343",80.816666,33.67129
"344",80.184326,33.684624
"345",79.744865,33.69796
"346",79.47143,33.711292
"347",79.32983,33.724625
"348",79.26879,33.737957
"349",79.237045,33.75129
"350",79.19066,33.764626
"351",79.097885,33.777958
"352",78.93431,33.79129
"353",78.692604,33.804626
"354",78.37278,33.81796
"355",77.98703,33.83129
"356",77.54269,33.844624
"357",77.06172,33.857956
"358",76.56855,33.871292
"359",76.08026,33.884624
"360",75.60906,33.897957
"361",75.1696,33.911293
"362",74.77165,33.924625
"363",74.4152,33.937958
"364",74.10269,33.95129
"365",73.8439,33.964622
"366",73.64126,33.97796
"367",73.49233,33.99129
"368",73.392235,34.004623
"369",73.340965,34.01796
"370",73.33364,34.031292
"371",73.36538,34.044624
"372",73.428856,34.057957
"373",73.514305,34.07129
"374",73.61196,34.084625
"375",73.71206,34.097958
"376",73.80728,34.11129
"377",73.89029,34.124626
"378",73.968414,34.13796
"379",74.06119,34.15129
"380",74.2272,34.164623
"381",74.59098,34.177956
"382",75.32586,34.19129
"383",76.592964,34.204624
"384",78.470436,34.217957
"385",80.90944,34.231293
"386",83.72198,34.244625
"387",86.60288,34.257957
"388",89.22499,34.27129
"389",91.3222,34.284622
"390",92.72846,34.29796
"391",93.39742,34.31129
"392",93.37301,34.324623
"393",92.78462,34.33796
"394",91.77875,34.35129
"395",90.51652,34.364624
"396",89.11513,34.377956
"397",87.66735,34.39129
"398",86.22934,34.404625
"399",84.84505,34.417957
"400",83.55596,34.43129
"401",82.41581,34.444626
"402",81.47585,34.45796
"403",80.780045,34.47129
"404",80.34058,34.484623
"405",80.13306,34.497955
"406",80.09888,34.51129
"407",80.17456,34.524624
"408",80.28443,34.537956
"409",80.360115,34.551292
"410",80.360115,34.564625
"411",80.26246,34.577957
"412",80.05005,34.59129
"413",79.73754,34.60462
"414",79.33715,34.617958
"415",78.87572,34.63129
"416",78.3679,34.644623
"417",77.840546,34.65796
"418",77.30831,34.67129
"419",76.79317,34.684624
"420",76.299995,34.697956
"421",75.843445,34.71129
"422",75.4284,34.724625
"423",75.05974,34.737957
"424",74.73991,34.75129
"425",74.47379,34.764626
"426",74.25407,34.777958
"427",74.08804,34.79129
"428",73.968414,34.804623
"429",73.89273,34.817955
"430",73.85611,34.83129
"431",73.85611,34.844624
"432",73.88541,34.857956
"433",73.93912,34.871292
"434",74.01236,34.884624
"435",74.090485,34.897957
"436",74.161285,34.91129
"437",74.22232,34.92462
"438",74.27848,34.937958
"439",74.373695,34.95129
"440",74.62028,34.964622
"441",75.18669,34.97796
"442",76.24872,34.991295
"443",77.92355,35.004627
"444",80.20386,35.01796
"445",82.94316,35.031296
"446",85.858246,35.044632
"447",88.621956,35.057964
"448",90.94133,35.071297
"449",92.62104,35.084633
"450",93.58053,35.09797
"451",93.84177,35.1113
"452",93.504845,35.124634
"453",92.70893,35.13797
"454",91.61028,35.151306
"455",90.34074,35.16464
"456",88.99794,35.17797
"457",87.640495,35.191307
"458",86.30991,35.204643
"459",85.01839,35.217976
"460",83.80499,35.231308
"461",82.70878,35.244644
"462",81.77127,35.25798
"463",81.03151,35.271313
"464",80.50172,35.284645
"465",80.17212,35.29798
"466",79.99634,35.311317
"467",79.920654,35.32465
"468",79.888916,35.337982
"469",79.84497,35.35132
"470",79.744865,35.364655
"471",79.55688,35.377987
"472",79.27856,35.39132
"473",78.9099,35.404655
"474",78.46555,35.41799
"475",77.9675,35.431324
"476",77.44259,35.444656
"477",76.90791,35.457993
"478",76.37324,35.47133
"479",75.862976,35.48466
"480",75.38445,35.497993
"481",74.94743,35.51133
"482",74.55192,35.524666
"483",74.20523,35.538
"484",73.90494,35.55133
"485",73.65591,35.564667
"486",73.45571,35.578003
"487",73.306786,35.591335
"488",73.20668,35.604668
"489",73.14809,35.618004
"490",73.12123,35.63134
"491",73.11391,35.644672
"492",73.12367,35.658005
"493",73.15053,35.67134
"494",73.18471,35.684677
"495",73.231094,35.69801
"496",73.28481,35.71134
"497",73.35073,35.724678
"498",73.42153,35.738014
"499",73.497215,35.751347
"500",73.568016,35.76468
"501",73.63149,35.778015
"502",73.6852,35.79135
"503",73.73647,35.804684
"504",73.85367,35.818016
"505",74.158844,35.831352
"506",74.844894,35.84469
"507",76.104675,35.85802
"508",78.05051,35.871353
"509",80.65308,35.88469
"510",83.719536,35.898026
"511",86.939804,35.911358
"512",89.94278,35.92469
"513",92.43305,35.938026
"514",94.222626,35.951363
"515",95.25292,35.964695
"516",95.5581,35.978027
"517",95.26025,35.991364
"518",94.51316,36.0047
"519",93.47555,36.018032
"520",92.281685,36.031364
"521",91.03166,36.0447
"522",89.79141,36.058037
"523",88.57801,36.07137
"524",87.396355,36.0847
"525",86.25132,36.098038
"526",85.15999,36.111374
"527",84.14679,36.124706
"528",83.25323,36.13804
"529",82.50858,36.151375
"530",81.92508,36.16471
"531",81.50027,36.178043
"532",81.20241,36.191376
"533",80.98512,36.204712
"534",80.8069,36.21805
"535",80.61646,36.23138
"536",80.38453,36.244713
"537",80.08911,36.25805
"538",79.727776,36.271385
"539",79.30053,36.284718
"540",78.819565,36.29805
"541",78.30198,36.311386
"542",77.76242,36.324722
"543",77.205765,36.338055
"544",76.64423,36.351387
"545",76.087585,36.364723
"546",75.54803,36.37806
"547",75.04265,36.39139
"548",74.581215,36.404724
"549",74.18326,36.41806
"550",73.84146,36.431396
"551",73.56069,36.44473
"552",73.33364,36.45806
"553",73.15541,36.471397
"554",73.01381,36.484734
"555",72.91615,36.498066
"556",72.85268,36.5114
"557",72.82338,36.524734
"558",72.8307,36.53807
"559",72.86488,36.551403
"560",72.91371,36.564735
"561",72.97963,36.57807
"562",73.05043,36.591408
"563",73.12123,36.60474
"564",73.2018,36.618073
"565",73.289696,36.63141
"566",73.38003,36.644745
"567",73.477684,36.658077
"568",73.58022,36.67141
"569",73.68032,36.684746
"570",73.7731,36.698082
"571",73.85855,36.711414
"572",73.94888,36.724747
"573",74.075836,36.738083
"574",74.35172,36.75142
"575",74.949875,36.76475
"576",76.05829,36.778084
"577",77.8259,36.79142
"578",80.26978,36.804756
"579",83.24101,36.81809
"580",86.451515,36.83142
"581",89.5375,36.844757
"582",92.18158,36.858093
"583",94.15915,36.871426
"584",95.37011,36.884758
"585",95.82666,36.898094
"586",95.621574,36.91143
"587",94.89159,36.924763
"588",93.79294,36.938095
"589",92.46967,36.95143
"590",91.04631,36.964767
"591",89.600975,36.9781
"592",88.182495,36.991432
"593",86.82262,37.00477
"594",85.54574,37.018105
"595",84.386055,37.031437
"596",83.3753,37.04477
"597",82.547646,37.058105
"598",81.917755,37.07144
"599",81.48318,37.084774
"600",81.21217,37.098106
"601",81.06325,37.111443
"602",80.990005,37.12478
"603",80.93385,37.13811
"604",80.850845,37.151443
"605",80.709236,37.16478
"606",80.48951,37.178116
"607",80.184326,37.19145
"608",79.801025,37.20478
"609",79.35668,37.218117
"610",78.86351,37.231453
"611",78.3386,37.244785
"612",77.79904,37.258118
"613",77.25948,37.271454
"614",76.73701,37.28479
"615",76.241394,37.298122
"616",75.78485,37.311455
"617",75.36736,37.32479
"618",74.98894,37.338127
"619",74.652016,37.35146
"620",74.35905,37.36479
"621",74.11246,37.378128
"622",73.9147,37.391464
"623",73.75601,37.404797
"624",73.64126,37.41813
"625",73.55825,37.431465
"626",73.497215,37.4448
"627",73.45815,37.458134
"628",73.443504,37.471466
"629",73.445946,37.484802
"630",73.460594,37.49814
"631",73.48745,37.51147
"632",73.51919,37.524803
"633",73.55093,37.53814
"634",73.582664,37.551476
"635",73.62173,37.564808
"636",73.65835,37.57814
"637",73.69985,37.591476
"638",73.74868,37.604813
"639",73.8024,37.618145
"640",73.85611,37.631477
"641",73.91226,37.644814
"642",73.96597,37.65815
"643",74.02457,37.671482
"644",74.110016,37.684814
"645",74.302895,37.69815
"646",74.76189,37.711487
"647",75.68719,37.72482
"648",77.239944,37.73815
"649",79.47631,37.751488
"650",82.29618,37.764824
"651",85.45785,37.778156
"652",88.61219,37.79149
"653",91.41985,37.804825
"654",93.63424,37.81816
"655",95.11864,37.831493
"656",95.85596,37.844826
"657",95.90234,37.858162
"658",95.37499,37.8715
"659",94.415504,37.88483
"660",93.16792,37.898163
"661",91.74456,37.9115
"662",90.24307,37.924835
"663",88.73182,37.938168
"664",87.26208,37.9515
"665",85.87778,37.964836
"666",84.63264,37.978172
"667",83.580376,37.991505
"668",82.760056,38.004837
"669",82.19119,38.018173
"670",81.866486,38.03151
"671",81.74197,38.04484
"672",81.75662,38.058174
"673",81.83963,38.07151
"674",81.9202,38.084846
"675",81.94949,38.09818
"676",81.8909,38.11151
"677",81.72732,38.124847
"678",81.45876,38.138184
"679",81.092545,38.151516
"680",80.64576,38.16485
"681",80.13794,38.178185
"682",79.59106,38.19152
"683",79.01976,38.204853
"684",78.44846,38.218185
"685",77.8967,38.23152
"686",77.37179,38.244858
"687",76.8835,38.25819
"688",76.439156,38.271523
"689",76.04364,38.28486
"690",75.701836,38.298195
"691",75.41131,38.311527
"692",75.17204,38.32486
"693",74.97917,38.338196
"694",74.83757,38.351532
"695",74.73502,38.364864
"696",74.66422,38.378197
"697",74.62516,38.391533
"698",74.61051,38.40487
"699",74.61051,38.4182
"700",74.62028,38.431534
"701",74.63981,38.44487
"702",74.666664,38.458206
"703",74.6984,38.47154
"704",74.737465,38.48487
"705",74.78142,38.498207
"706",74.83269,38.511543
"707",74.88396,38.524876
"708",74.932785,38.538208
"709",74.966965,38.551544
"710",74.99382,38.56488
"711",75.02312,38.578213
"712",75.125656,38.591545
"713",75.43572,38.60488
"714",76.138855,38.618217
"715",77.401085,38.63155
"716",79.29565,38.644882
"717",81.76395,38.65822
"718",84.60578,38.671555
"719",87.50622,38.684887
"720",90.14786,38.69822
"721",92.2768,38.711555
"722",93.746544,38.72489
"723",94.503395,38.738224
"724",94.588844,38.751556
"725",94.100555,38.764893
"726",93.16792,38.77823
"727",91.92279,38.79156
"728",90.494545,38.804893
"729",88.98085,38.81823
"730",87.45739,38.831566
"731",85.98276,38.8449
"732",84.60334,38.85823
"733",83.3753,38.871567
"734",82.34989,38.884903
"735",81.57351,38.898235
"736",81.06325,38.911568
"737",80.80446,38.924904
"738",80.75319,38.93824
"739",80.83864,38.951572
"740",80.990005,38.964905
"741",81.13405,38.97824
"742",81.21217,38.991577
"743",81.19264,39.00491
"744",81.05592,39.01824
"745",80.797134,39.031578
"746",80.430916,39.044914
"747",79.97681,39.058247
"748",79.4641,39.07158
"749",78.91478,39.084915
"750",78.35569,39.09825
"751",77.806366,39.111584
"752",77.28634,39.124916
"753",76.79805,39.138252
"754",76.351265,39.15159
"755",75.94354,39.16492
"756",75.579765,39.178253
"757",75.2575,39.19159
"758",74.984055,39.204926
"759",74.75212,39.218258
"760",74.564125,39.23159
"761",74.42008,39.244926
"762",74.31266,39.258263
"763",74.24185,39.271595
"764",74.19791,39.284927
"765",74.17105,39.298264
"766",74.158844,39.3116
"767",74.15152,39.324932
"768",74.14664,39.338264
"769",74.15152,39.3516
"770",74.161285,39.364937
"771",74.17105,39.37827
"772",74.18326,39.3916
"773",74.18814,39.404938
"774",74.1857,39.418274
"775",74.19791,39.431606
"776",74.28092,39.44494
"777",74.57145,39.458275
"778",75.25262,39.47161
"779",76.50263,39.484943
"780",78.41184,39.498276
"781",80.95094,39.511612
"782",83.914856,39.52495
"783",87.00572,39.53828
"784",89.88907,39.551613
"785",92.28657,39.56495
"786",94.032196,39.578285
"787",95.062485,39.591618
"788",95.414055,39.60495
"789",95.17967,39.618286
"790",94.49363,39.631622
"791",93.49264,39.644955
"792",92.31342,39.658287
"793",91.04631,39.671623
"794",89.76944,39.68496
"795",88.514534,39.69829
"796",87.30358,39.711624
"797",86.14633,39.72496
"798",85.067215,39.738297
"799",84.09796,39.75163
"800",83.265434,39.76496
"801",82.59403,39.778297
"802",82.091095,39.791634
"803",81.739525,39.804966
"804",81.50759,39.8183
"805",81.34402,39.831635
"806",81.20241,39.84497
"807",81.03883,39.858303
"808",80.82399,39.871635
"809",80.53101,39.88497
"810",80.16235,39.898308
"811",79.725334,39.91164
"812",79.22728,39.924973
"813",78.68284,39.93831
"814",78.11398,39.951645
"815",77.53536,39.964977
"816",76.95918,39.97831
"817",76.40742,39.991646
"818",75.88739,40.004982
"819",75.406425,40.018314
"820",74.969406,40.031647
"821",74.581215,40.044983
"822",74.24185,40.05832
"823",73.953766,40.07165
"824",73.71938,40.084984
"825",73.54116,40.09832
"826",73.40688,40.111656
"827",73.30923,40.12499
"828",73.25063,40.13832
"829",73.22133,40.151657
"830",73.216446,40.164993
"831",73.22865,40.178326
"832",73.255516,40.191658
"833",73.3019,40.204994
"834",73.35073,40.21833
"835",73.40688,40.231663
"836",73.46792,40.244995
"837",73.51919,40.25833
"838",73.56069,40.271667
"839",73.59487,40.285
"840",73.63882,40.298332
"841",73.760895,40.31167
"842",74.09781,40.325005
"843",74.82536,40.338337
"844",76.104675,40.35167
"845",78.02121,40.365005
"846",80.52125,40.37834
"847",83.41192,40.391674
"848",86.39048,40.405006
"849",89.129776,40.418343
"850",91.36858,40.43168
"851",92.95308,40.44501
"852",93.839325,40.458344
"853",94.05905,40.47168
"854",93.714806,40.485016
"855",92.93599,40.49835
"856",91.8642,40.51168
"857",90.62638,40.525017
"858",89.31289,40.538353
"859",87.989624,40.551685
"860",86.70054,40.565018
"861",85.46517,40.578354
"862",84.30549,40.59169
"863",83.25567,40.605022
"864",82.357216,40.618355
"865",81.63943,40.63169
"866",81.11696,40.645027
"867",80.780045,40.65836
"868",80.59449,40.67169
"869",80.5066,40.685028
"870",80.45533,40.698364
"871",80.396736,40.711697
"872",80.2942,40.72503
"873",80.12085,40.738365
"874",79.86694,40.7517
"875",79.53002,40.765034
"876",79.11986,40.778366
"877",78.6511,40.791702
"878",78.14084,40.80504
"879",77.60616,40.81837
"880",77.07149,40.831703
"881",76.54902,40.84504
"882",76.050964,40.858376
"883",75.58953,40.871708
"884",75.1696,40.88504
"885",74.79607,40.898376
"886",74.46647,40.911713
"887",74.18082,40.925045
"888",73.94644,40.938377
"889",73.75845,40.951714
"890",73.616844,40.96505
"891",73.51919,40.978382
"892",73.45815,40.991714
"893",73.426414,41.00505
"894",73.42153,41.018387
"895",73.44106,41.03172
"896",73.480125,41.04505
"897",73.52895,41.058388
"898",73.58999,41.071724
"899",73.651024,41.085056
"900",73.7145,41.09839
"901",73.7731,41.111725
"902",73.829254,41.12506
"903",73.87564,41.138393
"904",73.917145,41.151726
"905",73.96109,41.165062
"906",74.056305,41.1784
"907",74.31754,41.19173
"908",74.90837,41.205063
"909",75.99725,41.2184
"910",77.68673,41.231735
"911",79.954834,41.245068
"912",82.64286,41.2584
"913",85.48226,41.271736
"914",88.15808,41.285072
"915",90.40177,41.298405
"916",92.04242,41.311737
"917",93.00191,41.325073
"918",93.29244,41.33841
"919",93.00191,41.35174
"920",92.24994,41.365074
"921",91.17082,41.37841
"922",89.89639,41.391747
"923",88.516975,41.40508
"924",87.10338,41.41841
"925",85.70931,41.431747
"926",84.3885,41.445084
"927",83.1873,41.458416
"928",82.16678,41.47175
"929",81.38064,41.485085
"930",80.848404,41.49842
"931",80.567635,41.511753
"932",80.499275,41.525085
"933",80.5774,41.53842
"934",80.72877,41.551758
"935",80.88258,41.56509
"936",80.97536,41.578423
"937",80.9778,41.59176
"938",80.86305,41.605095
"939",80.635994,41.618427
"940",80.30396,41.63176
"941",79.88403,41.645096
"942",79.40063,41.658432
"943",78.873276,41.671764
"944",78.331276,41.685097
"945",77.789276,41.698433
"946",77.26925,41.71177
"947",76.77852,41.7251
"948",76.32685,41.738434
"949",75.91669,41.75177
"950",75.55535,41.765106
"951",75.2404,41.77844
"952",74.97429,41.79177
"953",74.757,41.805107
"954",74.5861,41.818443
"955",74.459145,41.831776
"956",74.37614,41.845108
"957",74.33219,41.858444
"958",74.322426,41.87178
"959",74.34196,41.885113
"960",74.37858,41.898445
"961",74.42741,41.91178
"962",74.48356,41.925117
"963",74.54215,41.93845
"964",74.59342,41.951782
"965",74.63004,41.96512
"966",74.66178,41.978455
"967",74.71549,41.991787
"968",74.88884,42.00512
"969",75.33074,42.018456
"970",76.224304,42.03179
"971",77.69161,42.045124
"972",79.75952,42.058456
"973",82.30839,42.071793
"974",85.09895,42.08513
"975",87.83093,42.09846
"976",90.21866,42.111794
"977",92.05463,42.12513
"978",93.23628,42.138466
"979",93.7441,42.1518
"980",93.644005,42.16513
"981",93.048294,42.178467
"982",92.09125,42.191803
"983",90.90227,42.205135
"984",89.59365,42.218468
"985",88.24353,42.231804
"986",86.89586,42.24514
"987",85.58724,42.258472
"988",84.34699,42.271805
"989",83.22148,42.28514
"990",82.25468,42.298477
"991",81.497826,42.31181
"992",80.96071,42.32514
"993",80.64332,42.338478
"994",80.5066,42.351814
"995",80.49439,42.365147
"996",80.5359,42.37848
"997",80.567635,42.391815
"998",80.54322,42.40515
"999",80.428474,42.418484
"1000",80.201416,42.431816
"1001",79.87671,42.445152
"1002",79.46166,42.45849
"1003",78.98314,42.47182
"1004",78.45579,42.485153
"1005",77.90402,42.49849
"1006",77.34493,42.511826
"1007",76.79805,42.525158
"1008",76.27314,42.53849
"1009",75.78729,42.551826
"1010",75.34539,42.565163
"1011",74.96208,42.578495
"1012",74.632484,42.591827
"1013",74.356606,42.605164
"1014",74.13199,42.6185
"1015",73.95621,42.631832
"1016",73.81705,42.645164
"1017",73.721825,42.6585
"1018",73.66079,42.671837
"1019",73.636375,42.68517
"1020",73.63882,42.6985
"1021",73.66567,42.711838
"1022",73.70962,42.725174
"1023",73.76578,42.738506
"1024",73.82681,42.75184
"1025",73.882965,42.765175
"1026",73.93179,42.77851
"1027",73.970856,42.791843
"1028",74.00748,42.805176
"1029",74.09781,42.818512
"1030",74.36393,42.83185
"1031",74.97673,42.84518
"1032",76.11688,42.858513
"1033",77.89426,42.87185
"1034",80.29908,42.885185
"1035",83.158005,42.898518
"1036",86.19028,42.91185
"1037",89.06142,42.925186
"1038",91.48821,42.938522
"1039",93.277794,42.951855
"1040",94.35447,42.965187
"1041",94.73777,42.978523
"1042",94.53025,42.99186
"1043",93.86862,43.00519
"1044",92.911575,43.018524
"1045",91.80072,43.03186
"1046",90.64591,43.045197
"1047",89.498436,43.05853
"1048",88.38026,43.07186
"1049",87.276726,43.085197
"1050",86.185394,43.098534
"1051",85.10628,43.111866
"1052",84.07355,43.1252
"1053",83.12871,43.138535
"1054",82.31571,43.15187
"1055",81.64919,43.165203
"1056",81.13161,43.178535
"1057",80.740974,43.19187
"1058",80.445564,43.205208
"1059",80.198975,43.21854
"1060",79.96948,43.231873
"1061",79.72289,43.24521
"1062",79.43481,43.258545
"1063",79.08812,43.271877
"1064",78.6804,43.28521
"1065",78.21896,43.298546
"1066",77.71603,43.311882
"1067",77.18623,43.325214
"1068",76.646675,43.338547
"1069",76.10956,43.351883
"1070",75.58953,43.36522
"1071",75.0988,43.37855
"1072",74.64469,43.391884
"1073",74.24185,43.40522
"1074",73.88785,43.418556
"1075",73.585106,43.43189
"1076",73.33364,43.44522
"1077",73.13344,43.458557
"1078",72.98695,43.471893
"1079",72.886856,43.485226
"1080",72.82582,43.498558
"1081",72.79408,43.511894
"1082",72.781876,43.52523
"1083",72.781876,43.538563
"1084",72.80141,43.551895
"1085",72.8307,43.56523
"1086",72.87709,43.578568
"1087",72.9308,43.5919
"1088",72.99184,43.605232
"1089",73.057755,43.61857
"1090",73.126114,43.631905
"1091",73.196915,43.645237
"1092",73.27749,43.65857
"1093",73.36782,43.671906
"1094",73.47524,43.68524
"1095",73.619286,43.698574
"1096",73.85367,43.711906
"1097",74.28092,43.725243
"1098",75.0695,43.73858
"1099",76.39765,43.75191
"1100",78.37522,43.765244
"1101",80.98512,43.77858
"1102",84.051575,43.791916
"1103",87.26696,43.80525
"1104",90.27482,43.81858
"1105",92.76021,43.831917
"1106",94.5156,43.845253
"1107",95.467766,43.858585
"1108",95.66552,43.871918
"1109",95.2285,43.885254
"1110",94.3325,43.89859
"1111",93.16304,43.911922
"1112",91.88373,43.925255
"1113",90.6215,43.93859
"1114",89.4374,43.951927
"1115",88.34852,43.96526
"1116",87.33776,43.978592
"1117",86.3856,43.99193
"1118",85.47738,44.005264
"1119",84.62531,44.018597
"1120",83.85382,44.03193
"1121",83.17021,44.045265
"1122",82.58671,44.0586
"1123",82.08621,44.071934
"1124",81.651634,44.085266
"1125",81.253685,44.098602
"1126",80.87282,44.11194
"1127",80.48707,44.12527
"1128",80.08667,44.138603
"1129",79.66674,44.15194
"1130",79.22728,44.165276
"1131",78.768295,44.178608
"1132",78.30686,44.19194
"1133",77.840546,44.205276
"1134",77.37667,44.218613
"1135",76.929886,44.231945
"1136",76.49775,44.245277
"1137",76.0827,44.258614
"1138",75.67986,44.27195
"1139",75.29168,44.285282
"1140",74.90593,44.298615
"1141",74.52506,44.31195
"1142",74.15396,44.325287
"1143",73.80728,44.33862
"1144",73.49233,44.35195
"1145",73.22865,44.365288
"1146",73.01869,44.378624
"1147",72.87221,44.391956
"1148",72.78676,44.40529
"1149",72.7599,44.418625
"1150",72.779434,44.43196
"1151",72.8307,44.445293
"1152",72.903946,44.458626
"1153",72.98451,44.471962
"1154",73.057755,44.4853
"1155",73.11391,44.49863
"1156",73.15541,44.511963
"1157",73.17494,44.5253
"1158",73.179825,44.538635
"1159",73.17738,44.551968
"1160",73.179825,44.5653
"1161",73.18959,44.578636
"1162",73.20424,44.591972
"1163",73.22865,44.605305
"1164",73.255516,44.618637
"1165",73.30923,44.631973
"1166",73.46548,44.64531
"1167",73.87808,44.65864
"1168",74.73014,44.671974
"1169",76.18524,44.68531
"1170",78.30442,44.698647
"1171",81.00221,44.71198
"1172",84.04669,44.72531
"1173",87.10094,44.738647
"1174",89.82071,44.751984
"1175",91.947205,44.765316
"1176",93.33883,44.77865
"1177",93.961395,44.791985
"1178",93.88571,44.80532
"1179",93.241165,44.818653
"1180",92.1889,44.831985
"1181",90.88762,44.84532
"1182",89.461815,44.858658
"1183",88.00427,44.87199
"1184",86.571144,44.885323
"1185",85.20149,44.89866
"1186",83.92462,44.911995
"1187",82.77959,44.925327
"1188",81.81033,44.93866
"1189",81.058365,44.951996
"1190",80.5359,44.965332
"1191",80.22827,44.978664
"1192",80.09888,44.991997
"1193",80.08179,45.005333
"1194",80.10864,45.01867
"1195",80.12085,45.032
"1196",80.07446,45.045334
"1197",79.94263,45.05867
"1198",79.71313,45.072006
"1199",79.38842,45.08534
"1200",78.9807,45.09867
"1201",78.51438,45.112007
"1202",78.00656,45.125343
"1203",77.47921,45.138676
"1204",76.94942,45.152008
"1205",76.43183,45.165344
"1206",75.9411,45.17868
"1207",75.48943,45.192013
"1208",75.089035,45.205345
"1209",74.73991,45.21868
"1210",74.444496,45.232018
"1211",74.20279,45.24535
"1212",74.01236,45.258682
"1213",73.87076,45.27202
"1214",73.77066,45.285355
"1215",73.71206,45.298687
"1216",73.6852,45.31202
"1217",73.6852,45.325356
"1218",73.704735,45.33869
"1219",73.738914,45.352024
"1220",73.78531,45.365356
"1221",73.83902,45.378693
"1222",73.9025,45.39203
"1223",73.97574,45.40536
"1224",74.05386,45.418694
"1225",74.13199,45.43203
"1226",74.215,45.445366
"1227",74.29313,45.4587
"1228",74.36393,45.47203
"1229",74.43229,45.485367
"1230",74.50309,45.498703
"1231",74.60563,45.512035
"1232",74.84001,45.525368
"1233",75.36492,45.538704
"1234",76.36347,45.55204
"1235",77.960175,45.565372
"1236",80.181885,45.578705
"1237",82.899216,45.59204
"1238",85.84848,45.605377
"1239",88.70252,45.61871
"1240",91.16594,45.632042
"1241",93.02144,45.64538
"1242",94.168915,45.658714
"1243",94.60349,45.672047
"1244",94.39353,45.68538
"1245",93.661095,45.698715
"1246",92.5478,45.71205
"1247",91.18791,45.725384
"1248",89.69863,45.738716
"1249",88.162964,45.752052
"1250",86.6395,45.76539
"1251",85.189285,45.77872
"1252",83.86603,45.792053
"1253",82.72343,45.80539
"1254",81.82498,45.818726
"1255",81.20485,45.832058
"1256",80.87038,45.84539
"1257",80.7776,45.858727
"1258",80.85817,45.872063
"1259",81.02907,45.885395
"1260",81.20485,45.898727
"1261",81.31472,45.912064
"1262",81.322044,45.9254
"1263",81.20485,45.938732
"1264",80.96071,45.952065
"1265",80.601814,45.9654
"1266",80.14282,45.978737
"1267",79.61059,45.99207
"1268",79.03197,46.0054
"1269",78.43137,46.018738
"1270",77.83566,46.032074
"1271",77.2546,46.045406
"1272",76.70771,46.05874
"1273",76.20477,46.072075
"1274",75.74822,46.08541
"1275",75.34539,46.098743
"1276",74.99626,46.112076
"1277",74.6984,46.125412
"1278",74.4567,46.13875
"1279",74.268715,46.15208
"1280",74.13199,46.165413
"1281",74.04166,46.17875
"1282",73.99527,46.192085
"1283",73.98306,46.205418
"1284",73.99771,46.21875
"1285",74.03189,46.232086
"1286",74.08804,46.245422
"1287",74.14908,46.258755
"1288",74.21011,46.272087
"1289",74.26139,46.285423
"1290",74.31022,46.29876
"1291",74.39323,46.31209
"1292",74.62272,46.325424
"1293",75.174484,46.33876
"1294",76.23407,46.352097
"1295",77.93088,46.36543
"1296",80.27711,46.37876
"1297",83.12627,46.392097
"1298",86.204926,46.405434
"1299",89.17372,46.418766
"1300",91.72503,46.4321
"1301",93.65133,46.445435
"1302",94.84276,46.45877
"1303",95.30175,46.472103
"1304",95.11131,46.485435
"1305",94.40574,46.49877
"1306",93.348595,46.512108
"1307",92.09369,46.52544
"1308",90.76555,46.538773
"1309",89.44228,46.55211
"1310",88.15564,46.565445
"1311",86.91539,46.578777
"1312",85.7264,46.59211
"1313",84.596016,46.605446
"1314",83.560844,46.618782
"1315",82.65751,46.632114
"1316",81.91531,46.645447
"1317",81.3489,46.658783
"1318",80.953384,46.67212
"1319",80.69459,46.68545
"1320",80.52369,46.698784
"1321",80.38941,46.71212
"1322",80.24536,46.725456
"1323",80.05005,46.73879
"1324",79.781494,46.75212
"1325",79.43481,46.765457
"1326",79.012436,46.778793
"1327",78.52415,46.792126
"1328",77.99191,46.805458
"1329",77.43038,46.818794
"1330",76.85664,46.83213
"1331",76.28779,46.845463
"1332",75.7409,46.858795
"1333",75.228195,46.87213
"1334",74.75456,46.885468
"1335",74.32975,46.8988
"1336",73.95621,46.912132
"1337",73.633934,46.92547
"1338",73.36782,46.938805
"1339",73.16029,46.952137
"1340",73.006485,46.96547
"1341",72.901505,46.978806
"1342",72.84291,46.99214
"1343",72.82338,47.005474
"1344",72.83803,47.018806
"1345",72.88197,47.032143
"1346",72.94789,47.04548
"1347",73.02602,47.05881
"1348",73.10658,47.072144
"1349",73.18471,47.08548
"1350",73.253075,47.098816
"1351",73.31167,47.11215
"1352",73.3605,47.12548
"1353",73.42153,47.138817
"1354",73.568016,47.152153
"1355",73.93912,47.165485
"1356",74.73258,47.178818
"1357",76.12421,47.192154
"1358",78.19211,47.20549
"1359",80.867935,47.218822
"1360",83.93683,47.232155
"1361",87.06676,47.24549
"1362",89.915924,47.258827
"1363",92.20355,47.27216
"1364",93.77585,47.285492
"1365",94.5864,47.29883
"1366",94.696266,47.312164
"1367",94.220184,47.325497
"1368",93.32418,47.33883
"1369",92.16693,47.352165
"1370",90.87785,47.3655
"1371",89.55947,47.378834
"1372",88.26307,47.392166
"1373",87.00816,47.405502
"1374",85.80209,47.41884
"1375",84.65949,47.43217
"1376",83.59991,47.445503
"1377",82.66483,47.45884
"1378",81.88602,47.472176
"1379",81.28542,47.485508
"1380",80.85573,47.49884
"1381",80.57496,47.512177
"1382",80.39918,47.525513
"1383",80.27955,47.538845
"1384",80.164795,47.552177
"1385",80.02075,47.565514
"1386",79.81323,47.57885
"1387",79.52758,47.592182
"1388",79.1638,47.605515
"1389",78.73167,47.61885
"1390",78.24094,47.632187
"1391",77.71603,47.64552
"1392",77.1667,47.65885
"1393",76.61494,47.672188
"1394",76.07538,47.685524
"1395",75.55535,47.698856
"1396",75.06462,47.71219
"1397",74.615395,47.725525
"1398",74.21744,47.73886
"1399",73.87564,47.752193
"1400",73.59243,47.765526
"1401",73.3727,47.778862
"1402",73.20912,47.7922
"1403",73.08949,47.80553
"1404",73.006485,47.818863
"1405",72.9601,47.8322
"1406",72.938126,47.845535
"1407",72.94301,47.858868
"1408",72.972305,47.8722
"1409",73.01869,47.885536
"1410",73.074844,47.898872
"1411",73.1432,47.912205
"1412",73.21889,47.925537
"1413",73.29702,47.938873
"1414",73.375145,47.95221
"1415",73.44839,47.96554
"1416",73.51675,47.978874
"1417",73.5729,47.99221
"1418",73.63149,48.005547
"1419",73.73647,48.01888
"1420",73.99039,48.03221
"1421",74.55924,48.045547
"1422",75.63592,48.058884
"1423",77.36202,48.072216
"1424",79.76196,48.08555
"1425",82.69413,48.098885
"1426",85.875336,48.11222
"1427",88.94911,48.125553
"1428",91.58343,48.138885
"1429",93.539024,48.15222
"1430",94.7158,48.165558
"1431",95.12596,48.17889
"1432",94.86717,48.192223
"1433",94.08835,48.20556
"1434",92.9604,48.218895
"1435",91.63958,48.232227
"1436",90.24307,48.24556
"1437",88.84657,48.258896
"1438",87.49645,48.272232
"1439",86.21469,48.285564
"1440",85.015945,48.298897
"1441",83.92706,48.312233
"1442",82.98222,48.32557
"1443",82.21805,48.3389
"1444",81.651634,48.352234
"1445",81.27566,48.36557
"1446",81.05592,48.378906
"1447",80.9485,48.39224
"1448",80.89479,48.40557
"1449",80.8362,48.418907
"1450",80.73609,48.432243
"1451",80.55543,48.445576
"1452",80.28687,48.458908
"1453",79.92554,48.472244
"1454",79.48608,48.48558
"1455",78.98558,48.498913
"1456",78.44602,48.512245
"1457",77.88937,48.52558
"1458",77.32784,48.538918
"1459",76.77608,48.55225
"1460",76.24628,48.565582
"1461",75.74822,48.57892
"1462",75.28924,48.592255
"1463",74.87419,48.605587
"1464",74.512856,48.61892
"1465",74.19791,48.632256
"1466",73.934235,48.64559
"1467",73.721825,48.658924
"1468",73.55825,48.672256
"1469",73.44106,48.685593
"1470",73.36294,48.69893
"1471",73.31899,48.71226
"1472",73.306786,48.725594
"1473",73.31411,48.73893
"1474",73.33364,48.752266
"1475",73.37026,48.7656
"1476",73.40688,48.77893
"1477",73.45327,48.792267
"1478",73.50698,48.805603
"1479",73.565575,48.818935
"1480",73.62173,48.832268
"1481",73.68032,48.845604
"1482",73.73647,48.85894
"1483",73.78531,48.872272
"1484",73.829254,48.885605
"1485",73.8732,48.89894
"1486",73.919586,48.912277
"1487",74.005035,48.92561
"1488",74.2272,48.938942
"1489",74.75456,48.95228
"1490",75.77753,48.965614
"1491",77.44259,48.978947
"1492",79.781494,48.99228
"1493",82.667274,49.005615
"1494",85.83139,49.01895
"1495",88.92226,49.032284
"1496",91.61028,49.045616
"1497",93.65133,49.058952
"1498",94.93065,49.07229
"1499",95.433586,49.08562
"1500",95.25292,49.098953
"1501",94.52537,49.11229
"1502",93.40963,49.125626
"1503",92.05463,49.138958
"1504",90.58976,49.15229
"1505",89.10048,49.165627
"1506",87.64782,49.178963
"1507",86.26353,49.192295
"1508",84.98909,49.205627
"1509",83.861145,49.218964
"1510",82.91875,49.2323
"1511",82.19852,49.245632
"1512",81.71755,49.258965
"1513",81.461205,49.2723
"1514",81.3782,49.285637
"1515",81.40505,49.29897
"1516",81.47097,49.3123
"1517",81.512474,49.325638
"1518",81.478294,49.338974
"1519",81.34402,49.352306
"1520",81.10719,49.36564
"1521",80.76784,49.378975
"1522",80.3357,49.39231
"1523",79.83276,49.405643
"1524",79.27856,49.418976
"1525",78.695045,49.432312
"1526",78.101776,49.44565
"1527",77.51827,49.45898
"1528",76.961624,49.472313
"1529",76.44648,49.48565
"1530",75.97284,49.498985
"1531",75.55779,49.512318
"1532",75.1989,49.52565
"1533",74.89372,49.538986
"1534",74.64469,49.552322
"1535",74.444496,49.565655
"1536",74.29313,49.578987
"1537",74.19058,49.592323
"1538",74.13199,49.60566
"1539",74.10025,49.61899
"1540",74.090485,49.632324
"1541",74.10025,49.64566
"1542",74.11978,49.658997
"1543",74.1564,49.67233
"1544",74.20523,49.68566
"1545",74.26627,49.698997
"1546",74.33219,49.712334
"1547",74.39811,49.725666
"1548",74.45426,49.739
"1549",74.50309,49.752335
"1550",74.53971,49.76567
"1551",74.56168,49.779003
"1552",74.57633,49.792336
"1553",74.632484,49.80567
"1554",74.83269,49.819008
"1555",75.3576,49.83234
"1556",76.39033,49.845673
"1557",78.05295,49.85901
"1558",80.343025,49.872345
"1559",83.10918,49.885677
"1560",86.065765,49.89901
"1561",88.87831,49.912346
"1562",91.24895,49.925682
"1563",92.97261,49.939014
"1564",93.96628,49.952347
"1565",94.24216,49.965683
"1566",93.88815,49.97902
"1567",93.03609,49.99235
"1568",91.827576,50.005684
"1569",90.39933,50.01902
"1570",88.86122,50.032356
"1571",87.291374,50.04569
"1572",85.753265,50.05902
"1573",84.30549,50.072357
"1574",83.004196,50.085693
"1575",81.900665,50.099026
"1576",81.05104,50.11236
"1577",80.48951,50.125694
"1578",80.2063,50.13903
"1579",80.16235,50.152363
"1580",80.28443,50.165695
"1581",80.49439,50.17903
"1582",80.706795,50.192368
"1583",80.850845,50.2057
"1584",80.885025,50.219032
"1585",80.79225,50.23237
"1586",80.56519,50.245705
"1587",80.216064,50.259037
"1588",79.76196,50.27237
"1589",79.234604,50.285706
"1590",78.660866,50.29904
"1591",78.07004,50.312374
"1592",77.486534,50.325706
"1593",76.927444,50.339043
"1594",76.404976,50.35238
"1595",75.92645,50.36571
"1596",75.4992,50.379044
"1597",75.11833,50.39238
"1598",74.793625,50.405716
"1599",74.51774,50.41905
"1600",74.29557,50.43238
"1601",74.12222,50.445717
"1602",73.99771,50.459053
"1603",73.9147,50.472385
"1604",73.87076,50.485718
"1605",73.85855,50.499054
"1606",73.87076,50.51239
"1607",73.91226,50.525723
"1608",73.968414,50.539055
"1609",74.04166,50.55239
"1610",74.124664,50.565727
"1611",74.20523,50.57906
"1612",74.27604,50.592392
"1613",74.32975,50.60573
"1614",74.37858,50.619064
"1615",74.47379,50.632397
"1616",74.73502,50.64573
"1617",75.34295,50.659065
"1618",76.48798,50.6724
"1619",78.28977,50.685734
"1620",80.74586,50.699066
"1621",83.69756,50.712402
"1622",86.84703,50.72574
"1623",89.847565,50.73907
"1624",92.38911,50.752403
"1625",94.26414,50.76574
"1626",95.37743,50.779076
"1627",95.75342,50.792408
"1628",95.49218,50.80574
"1629",94.73289,50.819077
"1630",93.64645,50.832413
"1631",92.38178,50.845745
"1632",91.05852,50.859077
"1633",89.74258,50.872414
"1634",88.47303,50.88575
"1635",87.257195,50.899082
"1636",86.0853,50.912415
"1637",84.972,50.92575
"1638",83.94415,50.939087
"1639",83.04082,50.952415
"1640",82.2913,50.96575
"1641",81.71999,50.97908
"1642",81.31228,50.992416
"1643",81.03395,51.005745
"1644",80.84352,51.01908
"1645",80.689705,51.03241
"1646",80.52369,51.045746
"1647",80.306404,51.059074
"1648",80.01831,51.07241
"1649",79.65209,51.08574
"1650",79.21019,51.099075
"1651",78.69749,51.112404
"1652",78.14084,51.12574
"1653",77.56466,51.13907
"1654",76.978714,51.152405
"1655",76.402534,51.165733
"1656",75.85321,51.17907
"1657",75.338066,51.192398
"1658",74.864426,51.205734
"1659",74.43961,51.219063
"1660",74.06851,51.2324
"1661",73.75113,51.245728
"1662",73.48745,51.259064
"1663",73.27749,51.272392
"1664",73.12123,51.28573
"1665",73.00893,51.299057
"1666",72.938126,51.312393
"1667",72.901505,51.32572
"1668",72.89174,51.339058
"1669",72.901505,51.352386
"1670",72.9308,51.365723
"1671",72.97719,51.37905
"1672",73.03822,51.392387
"1673",73.10658,51.405716
"1674",73.179825,51.419052
"1675",73.25796,51.43238
"1676",73.32876,51.445717
"1677",73.38735,51.459045
"1678",73.43618,51.47238
"1679",73.48745,51.48571
"1680",73.585106,51.499046
"1681",73.85367,51.512375
"1682",74.48356,51.52571
"1683",75.667656,51.53904
"1684",77.5256,51.552376
"1685",80.059814,51.565704
"1686",83.09697,51.57904
"1687",86.327,51.59237
"1688",89.3959,51.605705
"1689",91.98627,51.619034
"1690",93.88815,51.63237
"1691",95.011215,51.6457
"1692",95.38476,51.659035
"1693",95.113754,51.672363
"1694",94.35691,51.6857
"1695",93.28512,51.699028
"1696",92.0473,51.712364
"1697",90.758224,51.725693
"1698",89.48867,51.73903
"1699",88.255745,51.752357
"1700",87.06676,51.765694
"1701",85.9144,51.779022
"1702",84.81331,51.79236
"1703",83.79767,51.805687
"1704",82.90166,51.819023
"1705",82.16434,51.83235
"1706",81.59304,51.845688
"1707",81.180435,51.859016
"1708",80.89479,51.872353
"1709",80.689705,51.88568
"1710",80.516365,51.899017
"1711",80.323494,51.912346
"1712",80.08667,51.925682
"1713",79.783936,51.93901
"1714",79.41039,51.952347
"1715",78.9807,51.965675
"1716",78.502174,51.97901
"1717",77.98947,51.99234
"1718",77.45724,52.005676
"1719",76.91524,52.019005
"1720",76.3708,52.03234
"1721",75.843445,52.04567
"1722",75.34539,52.059006
"1723",74.88396,52.072334
"1724",74.47135,52.08567
"1725",74.110016,52.099
"1726",73.80484,52.112335
"1727",73.55093,52.125664
"1728",73.34585,52.139
"1729",73.18959,52.15233
"1730",73.07973,52.165665
"1731",73.01381,52.178993
"1732",72.97963,52.19233
"1733",72.97475,52.205658
"1734",72.98695,52.218994
"1735",73.01137,52.232323
"1736",73.043106,52.24566
"1737",73.08705,52.258987
"1738",73.1432,52.272324
"1739",73.20424,52.285652
"1740",73.27505,52.29899
"1741",73.35073,52.312317
"1742",73.428856,52.325653
"1743",73.497215,52.33898
"1744",73.55337,52.352318
"1745",73.59243,52.365646
"1746",73.62417,52.378983
"1747",73.66811,52.39231
"1748",73.78775,52.405647
"1749",74.12222,52.418976
"1750",74.8571,52.432312
"1751",76.17792,52.44564
"1752",78.184784,52.458977
"1753",80.84108,52.472305
"1754",83.94415,52.48564
"1755",87.1693,52.49897
"1756",90.1503,52.512306
"1757",92.5893,52.525635
"1758",94.295876,52.53897
"1759",95.20897,52.5523
"1760",95.37499,52.565636
"1761",94.91844,52.578964
"1762",94.00046,52.5923
"1763",92.79195,52.60563
"1764",91.441826,52.618965
"1765",90.06485,52.632294
"1766",88.71473,52.64563
"1767",87.42077,52.65896
"1768",86.19272,52.672295
"1769",85.03548,52.685623
"1770",83.97589,52.69896
"1771",83.04814,52.712288
"1772",82.2913,52.725624
"1773",81.72488,52.738953
"1774",81.341576,52.75229
"1775",81.109634,52.765617
"1776",80.98268,52.778954
"1777",80.90456,52.792282
"1778",80.81911,52.80562
"1779",80.689705,52.818947
"1780",80.48463,52.832283
"1781",80.19409,52.84561
"1782",79.815674,52.858948
"1783",79.361565,52.872276
"1784",78.85863,52.885612
"1785",78.31663,52.89894
"1786",77.75998,52.912277
"1787",77.19356,52.925606
"1788",76.64179,52.938942
"1789",76.11688,52.95227
"1790",75.631035,52.965607
"1791",75.19646,52.978935
"1792",74.81804,52.99227
"1793",74.50065,53.0056
"1794",74.23453,53.018936
"1795",74.022125,53.032265
"1796",73.85123,53.0456
"1797",73.721825,53.05893
"1798",73.62905,53.072266
"1799",73.5729,53.085594
"1800",73.5436,53.09893
"1801",73.54116,53.11226
"1802",73.56313,53.125595
"1803",73.59731,53.138924
"1804",73.64126,53.15226
"1805",73.69253,53.16559
"1806",73.75357,53.178925
"1807",73.81949,53.192253
"1808",73.88785,53.20559
"1809",73.96109,53.218918
"1810",74.03677,53.232254
"1811",74.10513,53.245583
"1812",74.16617,53.25892
"1813",74.21988,53.272247
"1814",74.25651,53.285583
"1815",74.29557,53.298912
"1816",74.39323,53.31225
"1817",74.666664,53.325577
"1818",75.29656,53.338913
"1819",76.46601,53.35224
"1820",78.28733,53.365578
"1821",80.743416,53.378906
"1822",83.6585,53.392242
"1823",86.73228,53.40557
"1824",89.60342,53.418907
"1825",91.97894,53.432236
"1826",93.661095,53.44557
"1827",94.56931,53.4589
"1828",94.73533,53.472237
"1829",94.26414,53.485565
"1830",93.30953,53.4989
"1831",92.02533,53.51223
"1832",90.565346,53.525566
"1833",89.04921,53.538895
"1834",87.54772,53.55223
"1835",86.10971,53.56556
"1836",84.76692,53.578896
"1837",83.56573,53.592224
"1838",82.55009,53.60556
"1839",81.761505,53.61889
"1840",81.231705,53.632225
"1841",80.9485,53.645554
"1842",80.87038,53.65889
"1843",80.93385,53.67222
"1844",81.058365,53.685555
"1845",81.17067,53.698883
"1846",81.214615,53.71222
"1847",81.15358,53.725548
"1848",80.96315,53.738884
"1849",80.65064,53.752213
"1850",80.235596,53.76555
"1851",79.73998,53.778877
"1852",79.19066,53.792213
"1853",78.61204,53.805542
"1854",78.02609,53.81888
"1855",77.452354,53.832207
"1856",76.90547,53.845543
"1857",76.40009,53.85887
"1858",75.945984,53.872208
"1859",75.5407,53.885536
"1860",75.18181,53.898872
"1861",74.864426,53.9122
"1862",74.59098,53.925537
"1863",74.36637,53.938866
"1864",74.19058,53.9522
"1865",74.06119,53.96553
"1866",73.98306,53.978867
"1867",73.94156,53.992195
"1868",73.93179,54.00553
"1869",73.944,54.01886
"1870",73.98062,54.032196
"1871",74.03189,54.045525
"1872",74.09781,54.05886
"1873",74.175934,54.07219
"1874",74.251625,54.085526
"1875",74.32487,54.098854
"1876",74.38834,54.11219
"1877",74.43473,54.12552
"1878",74.47135,54.138855
"1879",74.51774,54.152184
"1880",74.666664,54.16552
"1881",75.06706,54.17885
"1882",75.914246,54.192184
"1883",77.37179,54.205513
"1884",79.49828,54.21885
"1885",82.20096,54.232178
"1886",85.243,54.245514
"1887",88.289925,54.258842
"1888",91.00725,54.27218
"1889",93.14107,54.285507
"1890",94.540016,54.298843
"1891",95.17235,54.312172
"1892",95.10155,54.32551
"1893",94.45701,54.338837
"1894",93.40475,54.352173
"1895",92.11322,54.3655
"1896",90.71671,54.378838
"1897",89.30801,54.392166
"1898",87.93591,54.405502
"1899",86.61997,54.41883
"1900",85.367516,54.432167
"1901",84.20294,54.445496
"1902",83.158005,54.45883
"1903",82.27421,54.47216
"1904",81.58083,54.485497
"1905",81.0901,54.498825
"1906",80.780045,54.51216
"1907",80.60914,54.52549
"1908",80.52369,54.538826
"1909",80.465096,54.552155
"1910",80.38209,54.56549
"1911",80.235596,54.57882
"1912",80.00366,54.592155
"1913",79.676506,54.605484
"1914",79.256584,54.61882
"1915",78.76097,54.63215
"1916",78.2092,54.645485
"1917",77.625694,54.658813
"1918",77.02998,54.67215
"1919",76.44892,54.68548
"1920",75.8996,54.698814
"1921",75.39178,54.712143
"1922",74.93034,54.72548
"1923",74.52262,54.738808
"1924",74.16861,54.752144
"1925",73.87076,54.765472
"1926",73.619286,54.77881
"1927",73.41909,54.792137
"1928",73.26528,54.805473
"1929",73.15297,54.8188
"1930",73.08217,54.832138
"1931",73.043106,54.845467
"1932",73.03334,54.858803
"1933",73.043106,54.87213
"1934",73.06752,54.885468
"1935",73.09926,54.898796
"1936",73.1432,54.912132
"1937",73.19203,54.92546
"1938",73.255516,54.938797
"1939",73.321434,54.952126
"1940",73.38735,54.96546
"1941",73.45327,54.97879
"1942",73.514305,54.992126
"1943",73.57046,55.005455
"1944",73.619286,55.01879
"1945",73.68276,55.03212
"1946",73.814606,55.045456
"1947",74.14908,55.058784
"1948",74.881516,55.07212
"1949",76.207214,55.08545
"1950",78.24338,55.098785
"1951",80.95827,55.112114
"1952",84.159,55.12545
"1953",87.51598,55.13878
"1954",90.65568,55.152115
"1955",93.25582,55.165443
"1956",95.12352,55.17878
"1957",96.183105,55.19211
"1958",96.4712,55.205444
"1959",96.10742,55.218773
"1960",95.26269,55.23211
"1961",94.11032,55.245438
"1962",92.81148,55.258774
"1963",91.476006,55.272102
"1964",90.17227,55.28544
"1965",88.92226,55.298767
"1966",87.71618,55.312103
"1967",86.54429,55.32543
"1968",85.41634,55.338768
"1969",84.36164,55.352097
"1970",83.4168,55.365433
"1971",82.62089,55.37876
"1972",81.991,55.392097
"1973",81.51736,55.405426
"1974",81.17555,55.418762
"1975",80.921646,55.43209
"1976",80.709236,55.445427
"1977",80.49683,55.458755
"1978",80.2478,55.47209
"1979",79.94263,55.48542
"1980",79.569084,55.498756
"1981",79.12718,55.512085
"1982",78.626686,55.52542
"1983",78.082245,55.53875
"1984",77.51339,55.552086
"1985",76.93233,55.565414
"1986",76.35615,55.57875
"1987",75.80438,55.59208
"1988",75.28191,55.605415
"1989",74.80339,55.618744
"1990",74.36637,55.63208
"1991",73.98062,55.64541
"1992",73.64858,55.658745
"1993",73.375145,55.672073
"1994",73.15541,55.68541
"1995",72.99672,55.69874
"1996",72.8893,55.712074
"1997",72.82338,55.725403
"1998",72.7892,55.73874
"1999",72.779434,55.752068
"2000",72.7892,55.765404
"2001",72.8185,55.778732
"2002",72.85512,55.79207
"2003",72.901505,55.805397
"2004",72.952774,55.818733
"2005",73.00893,55.83206
"2006",73.0724,55.845398
"2007",73.14076,55.858727
"2008",73.216446,55.872063
"2009",73.29214,55.88539
"2010",73.36538,55.898727
"2011",73.426414,55.912056
"2012",73.4728,55.925392
"2013",73.51186,55.93872
"2014",73.57534,55.952057
"2015",73.75113,55.965385
"2016",74.195465,55.97872
"2017",75.11833,55.99205
"2018",76.69306,56.005386
"2019",78.99046,56.018715
"2020",81.91043,56.03205
"2021",85.20393,56.04538
"2022",88.51209,56.058716
"2023",91.473564,56.072044
"2024",93.80026,56.08538
"2025",95.34081,56.09871
"2026",96.06836,56.112045
"2027",96.04883,56.125374
"2028",95.42626,56.13871
"2029",94.374,56.15204
"2030",93.07027,56.165375
"2031",91.65911,56.178703
"2032",90.23819,56.19204
"2033",88.85878,56.205368
"2034",87.535515,56.218704
"2035",86.275734,56.232033
"2036",85.07698,56.24537
"2037",83.97345,56.258698
"2038",83.001755,56.272034
"2039",82.19852,56.285362
"2040",81.58816,56.2987
"2041",81.16823,56.312027
"2042",80.902115,56.325363
"2043",80.73853,56.33869
"2044",80.62379,56.352028
"2045",80.50172,56.365356
"2046",80.33326,56.378693
"2047",80.09888,56.39202
"2048",79.79126,56.405357
"2049",79.40307,56.418686
"2050",78.94896,56.432022
"2051",78.44114,56.44535
"2052",77.891815,56.458687
"2053",77.32296,56.472015
"2054",76.749214,56.48535
"2055",76.1828,56.49868
"2056",75.64568,56.512016
"2057",75.15251,56.525345
"2058",74.70817,56.53868
"2059",74.322426,56.55201
"2060",73.99283,56.565346
"2061",73.721825,56.578674
"2062",73.49966,56.59201
"2063",73.323875,56.60534
"2064",73.196915,56.618675
"2065",73.11635,56.632004
"2066",73.074844,56.64534
"2067",73.0724,56.65867
"2068",73.09926,56.672005
"2069",73.1432,56.685333
"2070",73.2018,56.69867
"2071",73.26772,56.711998
"2072",73.33608,56.725334
"2073",73.402,56.738663
"2074",73.4728,56.752
"2075",73.54604,56.765327
"2076",73.62661,56.778664
"2077",73.70718,56.791992
"2078",73.79263,56.80533
"2079",73.87076,56.818657
"2080",73.944,56.831993
"2081",74.00015,56.84532
"2082",74.04898,56.858658
"2083",74.10269,56.871986
"2084",74.22232,56.885323
"2085",74.53239,56.89865
"2086",75.228195,56.911987
"2087",76.49287,56.925316
"2088",78.4387,56.938652
"2089",81.03639,56.95198
"2090",84.1004,56.965317
"2091",87.31335,56.978645
"2092",90.30656,56.99198
"2093",92.77486,57.00531
"2094",94.52537,57.018646
"2095",95.47509,57.031975
"2096",95.65331,57.04531
"2097",95.17235,57.05864
"2098",94.18356,57.071976
"2099",92.857864,57.085304
"2100",91.34417,57.09864
"2101",89.77188,57.11197
"2102",88.216675,57.125305
"2103",86.72251,57.138634
"2104",85.32357,57.15197
"2105",84.05646,57.1653
"2106",82.96513,57.178635
"2107",82.09842,57.191963
"2108",81.49294,57.2053
"2109",81.1487,57.218628
"2110",81.02907,57.231964
"2111",81.07057,57.245293
"2112",81.197525,57.25863
"2113",81.33425,57.271957
"2114",81.41726,57.285294
"2115",81.39773,57.298622
"2116",81.248795,57.31196
"2117",80.96559,57.325287
"2118",80.56519,57.338623
"2119",80.076904,57.35195
"2120",79.52514,57.365288
"2121",78.93675,57.378616
"2122",78.331276,57.391953
"2123",77.72579,57.40528
"2124",77.134964,57.418617
"2125",76.575874,57.431946
"2126",76.05829,57.445282
"2127",75.596855,57.45861
"2128",75.19646,57.471947
"2129",74.847336,57.485275
"2130",74.54948,57.49861
"2131",74.302895,57.51194
"2132",74.10513,57.525276
"2133",73.951324,57.538605
"2134",73.8439,57.55194
"2135",73.77554,57.56527
"2136",73.75113,57.578606
"2137",73.75357,57.591934
"2138",73.777985,57.60527
"2139",73.82437,57.6186
"2140",73.88541,57.631935
"2141",73.953766,57.645264
"2142",74.02701,57.6586
"2143",74.10269,57.67193
"2144",74.17105,57.685265
"2145",74.232086,57.698593
"2146",74.27848,57.71193
"2147",74.3151,57.725258
"2148",74.371254,57.738594
"2149",74.53727,57.751923
"2150",74.97917,57.76526
"2151",75.88983,57.778587
"2152",77.435265,57.791924
"2153",79.66918,57.805252
"2154",82.496376,57.81859
"2155",85.65316,57.831917
"2156",88.797745,57.845253
"2157",91.59319,57.85858
"2158",93.77341,57.871918
"2159",95.19676,57.885246
"2160",95.8291,57.898582
"2161",95.73144,57.91191
"2162",95.04051,57.925247
"2163",93.91989,57.938576
"2164",92.542915,57.951912
"2165",91.053635,57.96524
"2166",89.55459,57.978577
"2167",88.094604,57.991905
"2168",86.695656,58.00524
"2169",85.37728,58.01857
"2170",84.16144,58.031906
"2171",83.08232,58.045235
"2172",82.18387,58.05857
"2173",81.49294,58.0719
"2174",81.02174,58.085236
"2175",80.7483,58.098564
"2176",80.62379,58.1119
"2177",80.587166,58.12523
"2178",80.57496,58.138565
"2179",80.52857,58.151894
"2180",80.39918,58.16523
"2181",80.17456,58.17856
"2182",79.84985,58.191895
"2183",79.432365,58.205223
"2184",78.93919,58.21856
"2185",78.39475,58.231888
"2186",77.81613,58.245224
"2187",77.222855,58.258553
"2188",76.63691,58.27189
"2189",76.068054,58.285217
"2190",75.53582,58.298553
"2191",75.04509,58.311882
"2192",74.60563,58.32522
"2193",74.215,58.338547
"2194",73.88052,58.351883
"2195",73.602196,58.36521
"2196",73.38003,58.378548
"2197",73.21156,58.391876
"2198",73.091934,58.405212
"2199",73.01381,58.41854
"2200",72.96498,58.431877
"2201",72.94545,58.445206
"2202",72.95033,58.45854
"2203",72.97719,58.47187
"2204",73.023575,58.485207
"2205",73.08461,58.498535
"2206",73.16029,58.51187
"2207",73.23842,58.5252
"2208",73.321434,58.538536
"2209",73.39956,58.551865
"2210",73.480125,58.5652
"2211",73.55337,58.57853
"2212",73.619286,58.591866
"2213",73.68032,58.605194
"2214",73.78531,58.61853
"2215",74.04166,58.63186
"2216",74.634926,58.645195
"2217",75.77753,58.658524
"2218",77.61593,58.67186
"2219",80.16968,58.68519
"2220",83.28741,58.698524
"2221",86.6688,58.711853
"2222",89.94034,58.72519
"2223",92.75777,58.738518
"2224",94.87938,58.751854
"2225",96.197754,58.765182
"2226",96.705574,58.77852
"2227",96.50294,58.791847
"2228",95.73876,58.805183
"2229",94.59861,58.818512
"2230",93.25582,58.83185
"2231",91.84955,58.845177
"2232",90.47257,58.858513
"2233",89.15419,58.87184
"2234",87.89441,58.885178
"2235",86.68589,58.898506
"2236",85.53109,58.911842
"2237",84.44953,58.92517
"2238",83.48516,58.938507
"2239",82.67216,58.951836
"2240",82.03494,58.96517
"2241",81.56863,58.9785
"2242",81.24635,58.991837
"2243",81.0193,59.005165
"2244",80.84596,59.0185
"2245",80.67506,59.03183
"2246",80.47242,59.045166
"2247",80.20386,59.058495
"2248",79.86206,59.07183
"2249",79.44457,59.08516
"2250",78.96117,59.098495
"2251",78.42649,59.111824
"2252",77.86252,59.12516
"2253",77.2839,59.13849
"2254",76.70527,59.151825
"2255",76.14618,59.165154
"2256",75.60906,59.17849
"2257",75.106125,59.19182
"2258",74.649574,59.205154
"2259",74.24185,59.218483
"2260",73.89029,59.23182
"2261",73.59487,59.245148
"2262",73.358055,59.258484
"2263",73.17494,59.271812
"2264",73.043106,59.28515
"2265",72.96254,59.298477
"2266",72.918594,59.311813
"2267",72.903946,59.32514
"2268",72.91371,59.338478
"2269",72.935684,59.351807
"2270",72.96742,59.365143
"2271",73.01381,59.37847
"2272",73.06996,59.391808
"2273",73.131,59.405136
"2274",73.2018,59.418472
"2275",73.27749,59.4318
"2276",73.35073,59.445137
"2277",73.42153,59.458466
"2278",73.48989,59.4718
"2279",73.54604,59.48513
"2280",73.599754,59.498466
"2281",73.687645,59.511795
"2282",73.92203,59.52513
"2283",74.48112,59.53846
"2284",75.57244,59.551796
"2285",77.34493,59.565125
"2286",79.82788,59.57846
"2287",82.87724,59.59179
"2288",86.19516,59.605125
"2289",89.41299,59.618454
"2290",92.191345,59.63179
"2291",94.278786,59.64512
"2292",95.56054,59.658455
"2293",96.041504,59.671783
"2294",95.81201,59.68512
"2295",95.02342,59.69845
"2296",93.85886,59.711784
"2297",92.48676,59.725113
"2298",91.036545,59.73845
"2299",89.59609,59.751778
"2300",88.21179,59.765114
"2301",86.888535,59.778442
"2302",85.64095,59.79178
"2303",84.48615,59.805107
"2304",83.458305,59.818443
"2305",82.58671,59.83177
"2306",81.90799,59.845108
"2307",81.42947,59.858437
"2308",81.12428,59.871773
"2309",80.94362,59.8851
"2310",80.8362,59.898438
"2311",80.7483,59.911766
"2312",80.62867,59.925102
"2313",80.445564,59.93843
"2314",80.184326,59.951767
"2315",79.84009,59.965096
"2316",79.415276,59.97843
"2317",78.92943,59.99176
"2318",78.399635,60.005096
"2319",77.83566,60.018425
"2320",77.264366,60.03176
"2321",76.697945,60.04509
"2322",76.14862,60.058426
"2323",75.631035,60.071754
"2324",75.15251,60.08509
"2325",74.72282,60.09842
"2326",74.34196,60.111755
"2327",74.0148,60.125084
"2328",73.738914,60.13842
"2329",73.51675,60.15175
"2330",73.34829,60.165085
"2331",73.22621,60.178413
"2332",73.145645,60.19175
"2333",73.09926,60.20508
"2334",73.07973,60.218414
"2335",73.08461,60.231743
"2336",73.10658,60.24508
"2337",73.15053,60.258408
"2338",73.199356,60.271744
"2339",73.255516,60.285072
"2340",73.31655,60.29841
"2341",73.37759,60.311737
"2342",73.44106,60.325073
"2343",73.5021,60.3384
"2344",73.56069,60.351738
"2345",73.61196,60.365067
"2346",73.65835,60.378403
"2347",73.69985,60.39173
"2348",73.75357,60.405067
"2349",73.8732,60.418396
"2350",74.19058,60.431732
"2351",74.90105,60.44506
"2352",76.190125,60.458397
"2353",78.1799,60.471725
"2354",80.84108,60.48506
"2355",83.97589,60.49839
"2356",87.257195,60.511726
"2357",90.31632,60.525055
"2358",92.83833,60.53839
"2359",94.625465,60.55172
"2360",95.606926,60.565056
"2361",95.819336,60.578384
"2362",95.37499,60.59172
"2363",94.43015,60.60505
"2364",93.155716,60.618385
"2365",91.70306,60.631714
"2366",90.18692,60.64505
"2367",88.690315,60.65838
"2368",87.25231,60.671715
"2369",85.90219,60.685043
"2370",84.66682,60.69838
"2371",83.57305,60.711708
"2372",82.66239,60.725044
"2373",81.96658,60.738373
"2374",81.50027,60.75171
"2375",81.23903,60.765038
"2376",81.13405,60.778374
"2377",81.126724,60.791702
"2378",81.146255,60.80504
"2379",81.13405,60.818367
"2380",81.05348,60.831703
"2381",80.88258,60.84503
"2382",80.61402,60.858368
"2383",80.25269,60.871696
"2384",79.81323,60.885033
"2385",79.30785,60.89836
"2386",78.75609,60.911697
"2387",78.18234,60.925026
"2388",77.60128,60.938362
"2389",77.032425,60.95169
"2390",76.490425,60.965027
"2391",75.98749,60.978355
"2392",75.53094,60.99169
"2393",75.13298,61.00502
"2394",74.79118,61.018356
"2395",74.50797,61.031685
"2396",74.28092,61.04502
"2397",74.10269,61.05835
"2398",73.970856,61.071686
"2399",73.88052,61.085014
"2400",73.82681,61.09835
"2401",73.80484,61.11168
"2402",73.80728,61.125015
"2403",73.83414,61.138344
"2404",73.8732,61.15168
"2405",73.92935,61.16501
"2406",73.99771,61.178345
"2407",74.07095,61.191673
"2408",74.13931,61.20501
"2409",74.20279,61.218338
"2410",74.25651,61.231674
"2411",74.288246,61.245003
"2412",74.30778,61.25834
"2413",74.32975,61.271667
"2414",74.40299,61.285004
"2415",74.632484,61.298332
"2416",75.1989,61.31167
"2417",76.28535,61.324997
"2418",78.01633,61.338333
"2419",80.38697,61.35166
"2420",83.24101,61.364998
"2421",86.29282,61.378326
"2422",89.18593,61.391663
"2423",91.615166,61.40499
"2424",93.35836,61.418327
"2425",94.330055,61.431656
"2426",94.54246,61.444992
"2427",94.08591,61.45832
"2428",93.09956,61.471657
"2429",91.75189,61.484985
"2430",90.18448,61.49832
"2431",88.52186,61.51165
"2432",86.85191,61.524986
"2433",85.23811,61.538315
"2434",83.734184,61.55165
"2435",82.388954,61.56498
"2436",81.26833,61.578316
"2437",80.41871,61.591644
"2438",79.88159,61.60498
"2439",79.64721,61.61831
"2440",79.66674,61.631645
"2441",79.85962,61.644974
"2442",80.13794,61.65831
"2443",80.40406,61.67164
"2444",80.59205,61.684975
"2445",80.66041,61.698303
"2446",80.584724,61.71164
"2447",80.365,61.724968
"2448",80.01099,61.738304
"2449",79.551994,61.751633
"2450",79.012436,61.76497
"2451",78.42161,61.778297
"2452",77.81369,61.791634
"2453",77.21309,61.804962
"2454",76.63691,61.8183
"2455",76.09735,61.831627
"2456",75.60418,61.844963
"2457",75.16228,61.85829
"2458",74.77898,61.871628
"2459",74.459145,61.884956
"2460",74.20035,61.898293
"2461",73.99771,61.91162
"2462",73.846344,61.924957
"2463",73.741356,61.938286
"2464",73.670555,61.951622
"2465",73.63149,61.96495
"2466",73.62173,61.978287
"2467",73.6437,61.991615
"2468",73.6852,62.00495
"2469",73.74868,62.01828
"2470",73.82681,62.031616
"2471",73.90982,62.044945
"2472",73.987946,62.05828
"2473",74.056305,62.07161
"2474",74.110016,62.084946
"2475",74.158844,62.098274
"2476",74.24429,62.11161
"2477",74.48112,62.12494
"2478",75.04997,62.138275
"2479",76.14618,62.151604
"2480",77.91623,62.16494
"2481",80.38453,62.17827
"2482",83.41436,62.191605
"2483",86.710304,62.204933
"2484",89.90616,62.21827
"2485",92.664986,62.231598
"2486",94.74021,62.244934
"2487",96.01221,62.258263
"2488",96.483406,62.2716
"2489",96.24902,62.284927
"2490",95.46044,62.298264
"2491",94.29099,62.311592
"2492",92.911575,62.32493
"2493",91.458916,62.338257
"2494",90.020905,62.351593
"2495",88.64149,62.36492
"2496",87.327995,62.378258
"2497",86.07797,62.391586
"2498",84.89876,62.404922
"2499",83.81964,62.41825
"2500",82.879684,62.431587
"2501",82.11063,62.444916
"2502",81.532005,62.458252
"2503",81.13161,62.47158
"2504",80.86549,62.484917
"2505",80.689705,62.498245
"2506",80.5481,62.51158
"2507",80.396736,62.52491
"2508",80.19653,62.538246
"2509",79.92798,62.551575
"2510",79.58129,62.56491
"2511",79.16136,62.57824
"2512",78.675514,62.591576
"2513",78.1384,62.604904
"2514",77.5671,62.61824
"2515",76.98604,62.63157
"2516",76.404976,62.644905
"2517",75.843445,62.658234
"2518",75.31609,62.67157
"2519",74.83269,62.6849
"2520",74.40055,62.698235
"2521",74.019684,62.711563
"2522",73.69497,62.7249
"2523",73.42153,62.738228
"2524",73.20668,62.751564
"2525",73.03334,62.764893
"2526",72.91127,62.77823
"2527",72.82582,62.791557
"2528",72.779434,62.804893
"2529",72.764786,62.818222
"2530",72.77455,62.83156
"2531",72.813614,62.844887
"2532",72.87465,62.858223
"2533",72.94789,62.87155
"2534",73.02846,62.884888
"2535",73.11391,62.898216
"2536",73.196915,62.911552
"2537",73.26772,62.92488
"2538",73.32876,62.938217
"2539",73.38003,62.951546
"2540",73.445946,62.96488
"2541",73.60464,62.97821
"2542",74.0148,62.991547
"2543",74.87663,63.004875
"2544",76.37812,63.01821
"2545",78.59495,63.03154
"2546",81.45632,63.044876
"2547",84.715645,63.058205
"2548",88.0116,63.07154
"2549",90.982834,63.08487
"2550",93.33883,63.098206
"2551",94.91844,63.111534
"2552",95.68017,63.12487
"2553",95.69482,63.1382
"2554",95.099106,63.151535
"2555",94.06882,63.164864
"2556",92.77974,63.1782
"2557",91.393,63.19153
"2558",90.0087,63.204865
"2559",88.68055,63.218193
"2560",87.415886,63.23153
"2561",86.20737,63.244858
"2562",85.05745,63.258194
"2563",83.9881,63.271523
"2564",83.02617,63.28486
"2565",82.21561,63.298187
"2566",81.57839,63.311523
"2567",81.10475,63.324852
"2568",80.77516,63.33819
"2569",80.5481,63.351517
"2570",80.37476,63.364853
"2571",80.21118,63.37818
"2572",80.02319,63.391518
"2573",79.77661,63.404846
"2574",79.4641,63.418182
"2575",79.08324,63.43151
"2576",78.63889,63.444847
"2577",78.14328,63.458176
"2578",77.61593,63.47151
"2579",77.06416,63.48484
"2580",76.50019,63.498177
"2581",75.945984,63.511505
"2582",75.41375,63.52484
"2583",74.91814,63.53817
"2584",74.47379,63.551506
"2585",74.0856,63.564835
"2586",73.75601,63.57817
"2587",73.480125,63.5915
"2588",73.255516,63.604836
"2589",73.08217,63.618164
"2590",72.952774,63.6315
"2591",72.867325,63.64483
"2592",72.82582,63.658165
"2593",72.813614,63.671494
"2594",72.82826,63.68483
"2595",72.85756,63.69816
"2596",72.90639,63.711494
"2597",72.96254,63.724823
"2598",73.023575,63.73816
"2599",73.08461,63.751488
"2600",73.15053,63.764824
"2601",73.21889,63.778152
"2602",73.27993,63.79149
"2603",73.33364,63.804817
"2604",73.38247,63.818153
"2605",73.4313,63.831482
"2606",73.51919,63.84482
"2607",73.760895,63.858147
"2608",74.33219,63.871483
"2609",75.42596,63.88481
"2610",77.19112,63.898148
"2611",79.64477,63.911476
"2612",82.6453,63.924812
"2613",85.907074,63.93814
"2614",89.04921,63.951477
"2615",91.734795,63.964806
"2616",93.72701,63.97814
"2617",94.91112,63.99147
"2618",95.29687,64.00481
"2619",94.994125,64.018135
"2620",94.15671,64.03147
"2621",92.9604,64.0448
"2622",91.578545,64.058136
"2623",90.13077,64.071465
"2624",88.70496,64.0848
"2625",87.33532,64.09813
"2626",86.03647,64.111465
"2627",84.81087,64.124794
"2628",83.682915,64.13813
"2629",82.69413,64.15146
"2630",81.881134,64.164795
"2631",81.270775,64.17812
"2632",80.86305,64.19146
"2633",80.62379,64.20479
"2634",80.5066,64.218124
"2635",80.45289,64.23145
"2636",80.40162,64.24479
"2637",80.31861,64.25812
"2638",80.16724,64.271454
"2639",79.9353,64.28478
"2640",79.61547,64.29812
"2641",79.217514,64.31145
"2642",78.751205,64.32478
"2643",78.23361,64.33811
"2644",77.67696,64.35145
"2645",77.10811,64.36478
"2646",76.541695,64.37811
"2647",75.99481,64.39144
"2648",75.48699,64.40478
"2649",75.03044,64.418106
"2650",74.6276,64.43144
"2651",74.28336,64.44477
"2652",73.99771,64.45811
"2653",73.763336,64.471436
"2654",73.57534,64.48477
"2655",73.43862,64.4981
"2656",73.340965,64.51144
"2657",73.27749,64.524765
"2658",73.25063,64.5381
"2659",73.253075,64.55143
"2660",73.28237,64.564766
"2661",73.32876,64.578094
"2662",73.38735,64.59143
"2663",73.45571,64.60476
"2664",73.52407,64.618095
"2665",73.59731,64.631424
"2666",73.673,64.64476
"2667",73.75357,64.65809
"2668",73.831696,64.671425
"2669",73.90494,64.68475
"2670",73.96597,64.69809
"2671",74.0148,64.71142
"2672",74.075836,64.724754
"2673",74.23453,64.73808
"2674",74.649574,64.75142
"2675",75.51629,64.76475
"2676",77.00557,64.77808
"2677",79.168686,64.79141
"2678",81.917755,64.80475
"2679",85.00862,64.81808
"2680",88.094604,64.83141
"2681",90.82414,64.84474
"2682",92.93843,64.85808
"2683",94.28367,64.87141
"2684",94.837875,64.88474
"2685",94.66941,64.89807
"2686",93.91745,64.91141
"2687",92.73823,64.924736
"2688",91.29778,64.93807
"2689",89.73281,64.9514
"2690",88.13367,64.96474
"2691",86.571144,64.978065
"2692",85.09163,64.9914
"2693",83.74395,65.00473
"2694",82.56962,65.01807
"2695",81.62234,65.031395
"2696",80.936295,65.04473
"2697",80.52857,65.05806
"2698",80.36988,65.071396
"2699",80.40894,65.084724
"2700",80.56031,65.09806
"2701",80.7483,65.11139
"2702",80.89967,65.124725
"2703",80.95827,65.138054
"2704",80.89479,65.15139
"2705",80.69459,65.16472
"2706",80.37476,65.178055
"2707",79.94507,65.19138
"2708",79.432365,65.20472
"2709",78.870834,65.21805
"2710",78.28245,65.231384
"2711",77.69161,65.24471
"2712",77.120316,65.25805
"2713",76.58076,65.27138
"2714",76.07782,65.28471
"2715",75.62615,65.29804
"2716",75.22087,65.31138
"2717",74.86931,65.32471
"2718",74.56657,65.33804
"2719",74.322426,65.35137
"2720",74.127106,65.36471
"2721",73.98062,65.37804
"2722",73.88052,65.39137
"2723",73.814606,65.4047
"2724",73.78287,65.41804
"2725",73.78287,65.431366
"2726",73.80728,65.4447
"2727",73.85611,65.45803
"2728",73.92203,65.47137
"2729",74.00015,65.484695
"2730",74.08316,65.49803
"2731",74.1564,65.51136
"2732",74.215,65.5247
"2733",74.26139,65.538025
"2734",74.31022,65.55136
"2735",74.43229,65.56469
"2736",74.776535,65.578026
"2737",75.53826,65.591354
"2738",76.89082,65.60469
"2739",78.92699,65.61802
"2740",81.5906,65.631355
"2741",84.65705,65.644684
"2742",87.79431,65.65802
"2743",90.64591,65.67135
"2744",92.93111,65.684685
"2745",94.47166,65.69801
"2746",95.22362,65.71135
"2747",95.238266,65.72468
"2748",94.640114,65.738014
"2749",93.58297,65.75134
"2750",92.23529,65.76468
"2751",90.74113,65.77801
"2752",89.21278,65.79134
"2753",87.711296,65.80467
"2754",86.275734,65.81801
"2755",84.92073,65.83134
"2756",83.67071,65.84467
"2757",82.562294,65.858
"2758",81.64187,65.87134
"2759",80.94606,65.88467
"2760",80.482185,65.898
"2761",80.22827,65.91133
"2762",80.1355,65.92467
"2763",80.13794,65.937996
"2764",80.16724,65.95133
"2765",80.16724,65.96466
"2766",80.093994,65.978
"2767",79.920654,65.991325
"2768",79.63744,66.00466
"2769",79.2517,66.01799
"2770",78.785385,66.03133
"2771",78.25315,66.044655
"2772",77.68429,66.05799
"2773",77.09102,66.07132
"2774",76.50263,66.084656
"2775",75.931335,66.097984
"2776",75.3991,66.11132
"2777",74.90593,66.12465
"2778",74.46647,66.137985
"2779",74.07828,66.15131
"2780",73.75113,66.16465
"2781",73.48257,66.17798
"2782",73.26772,66.191315
"2783",73.10414,66.20464
"2784",72.98695,66.21798
"2785",72.91127,66.23131
"2786",72.87221,66.244644
"2787",72.86977,66.25797
"2788",72.89662,66.27131
"2789",72.94545,66.28464
"2790",73.00893,66.29797
"2791",73.08461,66.3113
"2792",73.162735,66.32464
"2793",73.24574,66.33797
"2794",73.323875,66.3513
"2795",73.39956,66.36463
"2796",73.463036,66.37797
"2797",73.52407,66.3913
"2798",73.60464,66.40463
"2799",73.78775,66.41796
"2800",74.23453,66.4313
"2801",75.159836,66.444626
"2802",76.74677,66.45796
"2803",79.07103,66.47129
"2804",82.04471,66.48463
"2805",85.41634,66.497955
"2806",88.81239,66.51129
"2807",91.85443,66.52462
"2808",94.25437,66.53796
"2809",95.8584,66.551285
"2810",96.62989,66.56462
"2811",96.64454,66.57795
"2812",96.04639,66.591286
"2813",95.01366,66.604614
"2814",93.71725,66.61795
"2815",92.315865,66.63128
"2816",90.91203,66.644615
"2817",89.56191,66.65794
"2818",88.275276,66.67128
"2819",87.04967,66.68461
"2820",85.87778,66.697945
"2821",84.771805,66.71127
"2822",83.76105,66.72461
"2823",82.88701,66.73794
"2824",82.176544,66.751274
"2825",81.63943,66.7646
"2826",81.25613,66.77794
"2827",80.99245,66.79127
"2828",80.797134,66.8046
"2829",80.62379,66.81793
"2830",80.42603,66.83127
"2831",80.17456,66.8446
"2832",79.852295,66.85793
"2833",79.45678,66.87126
"2834",78.995346,66.8846
"2835",78.4802,66.89793
"2836",77.92355,66.91126
"2837",77.34493,66.92459
"2838",76.75899,66.93793
"2839",76.18036,66.951256
"2840",75.62859,66.96459
"2841",75.11589,66.97792
"2842",74.65446,66.99126
"2843",74.24185,67.004585
"2844",73.88541,67.01792
"2845",73.585106,67.03125
"2846",73.340965,67.044586
"2847",73.14809,67.057915
"2848",73.006485,67.07125
"2849",72.90883,67.08458
"2850",72.84047,67.097916
"2851",72.80385,67.111244
"2852",72.796524,67.12458
"2853",72.813614,67.13791
"2854",72.850235,67.151245
"2855",72.903946,67.16457
"2856",72.96742,67.17791
"2857",73.03578,67.19124
"2858",73.10658,67.204575
"2859",73.17494,67.2179
"2860",73.23842,67.23124
"2861",73.29946,67.24457
"2862",73.35317,67.257904
"2863",73.411766,67.27123
"2864",73.53384,67.28457
"2865",73.85367,67.2979
"2866",74.56168,67.31123
"2867",75.85321,67.32456
"2868",77.855194,67.3379
"2869",80.550545,67.35123
"2870",83.74395,67.36456
"2871",87.10826,67.37789
"2872",90.26261,67.39123
"2873",92.88228,67.40456
"2874",94.75731,67.41789
"2875",95.80957,67.43122
"2876",96.06348,67.44456
"2877",95.64599,67.457886
"2878",94.713356,67.47122
"2879",93.45602,67.48455
"2880",92.03265,67.49789
"2881",90.56779,67.511215
"2882",89.1371,67.52455
"2883",87.7699,67.53788
"2884",86.46616,67.551216
"2885",85.23811,67.564545
"2886",84.11017,67.57788
"2887",83.1165,67.59121
"2888",82.29374,67.604546
"2889",81.66628,67.617874
"2890",81.231705,67.63121
"2891",80.95094,67.64454
"2892",80.7776,67.657875
"2893",80.655525,67.6712
"2894",80.54078,67.68454
"2895",80.38697,67.69787
"2896",80.16968,67.711205
"2897",79.87671,67.72453
"2898",79.500725,67.73787
"2899",79.05394,67.7512
"2900",78.54856,67.764534
"2901",77.99924,67.77786
"2902",77.42794,67.7912
"2903",76.85176,67.80453
"2904",76.28779,67.81786
"2905",75.75067,67.83119
"2906",75.245285,67.84453
"2907",74.78386,67.85786
"2908",74.371254,67.87119
"2909",74.00748,67.88452
"2910",73.69253,67.89786
"2911",73.428856,67.91119
"2912",73.21889,67.92452
"2913",73.06264,67.93785
"2914",72.955215,67.95119
"2915",72.89418,67.964516
"2916",72.86977,67.97785
"2917",72.87465,67.99118
"2918",72.89906,68.00452
"2919",72.935684,68.017845
"2920",72.98207,68.03118
"2921",73.03578,68.04451
"2922",73.094376,68.057846
"2923",73.15785,68.071175
"2924",73.233536,68.08451
"2925",73.30923,68.09784
"2926",73.38247,68.111176
"2927",73.44839,68.124504
"2928",73.50698,68.13784
"2929",73.55581,68.15117
"2930",73.62417,68.164505
"2931",73.79019,68.17783
"2932",74.20035,68.19117
"2933",75.05974,68.2045
"2934",76.55634,68.217834
"2935",78.76341,68.23116
"2936",81.61501,68.2445
"2937",84.8719,68.25783
"2938",88.18005,68.271164
"2939",91.16594,68.28449
"2940",93.541466,68.29783
"2941",95.13573,68.31116
"2942",95.8999,68.32449
"2943",95.89746,68.33782
"2944",95.26025,68.35116
"2945",94.15427,68.36449
"2946",92.75777,68.37782
"2947",91.229416,68.39115
"2948",89.671776,68.40449
"2949",88.15564,68.417816
"2950",86.71519,68.43115
"2951",85.37484,68.44448
"2952",84.156555,68.45782
"2953",83.09941,68.471146
"2954",82.247345,68.48448
"2955",81.62234,68.49781
"2956",81.22926,68.51115
"2957",81.03883,68.524475
"2958",80.99245,68.53781
"2959",81.01442,68.55114
"2960",81.04372,68.564476
"2961",81.02663,68.577805
"2962",80.92409,68.59114
"2963",80.72144,68.60447
"2964",80.41627,68.617805
"2965",80.01099,68.631134
"2966",79.52514,68.64447
"2967",78.9807,68.6578
"2968",78.397194,68.671135
"2969",77.80148,68.68446
"2970",77.21309,68.6978
"2971",76.64912,68.71113
"2972",76.121765,68.724464
"2973",75.63836,68.73779
"2974",75.20622,68.75113
"2975",74.82292,68.76446
"2976",74.495766,68.777794
"2977",74.21988,68.79112
"2978",74.00015,68.80446
"2979",73.83414,68.81779
"2980",73.71694,68.83112
"2981",73.6437,68.84445
"2982",73.60952,68.85779
"2983",73.60464,68.87112
"2984",73.63149,68.88445
"2985",73.68032,68.89778
"2986",73.7438,68.91112
"2987",73.814606,68.924446
"2988",73.89273,68.93778
"2989",73.97574,68.95111
"2990",74.06119,68.96445
"2991",74.141754,68.977776
"2992",74.212555,68.99111
"2993",74.26383,69.00444
"2994",74.29801,69.01778
"2995",74.33463,69.031105
"2996",74.45426,69.04444
"2997",74.813156,69.05777
"2998",75.60906,69.071106
"2999",77.00557,69.084435
"3000",79.078354,69.09777
"3001",81.75662,69.1111
"3002",84.80354,69.124435
"3003",87.8822,69.137764
"3004",90.63615,69.1511
"3005",92.79439,69.16443
"3006",94.19333,69.177765
"3007",94.79149,69.19109
"3008",94.65232,69.20443
"3009",93.90524,69.21776
"3010",92.70893,69.231094
"3011",91.226974,69.24442
"3012",89.60586,69.25776
"3013",87.94812,69.27109
"3014",86.327,69.284424
"3015",84.791336,69.29775
"3016",83.38506,69.31109
"3017",82.15457,69.32442
"3018",81.15602,69.33775
"3019",80.430916,69.35108
"3020",80.00122,69.36442
"3021",79.84009,69.37775
"3022",79.89136,69.39108
"3023",80.07202,69.40441
"3024",80.29908,69.41775
"3025",80.48951,69.431076
"3026",80.58228,69.44441
"3027",80.550545,69.45774
"3028",80.377205,69.47108
"3029",80.07202,69.484406
"3030",79.65453,69.49774
"3031",79.149155,69.51107
"3032",78.58518,69.52441
"3033",77.98703,69.537735
"3034",77.383995,69.55107
"3035",76.79805,69.5644
"3036",76.241394,69.577736
"3037",75.72625,69.591064
"3038",75.26238,69.6044
"3039",74.84978,69.61773
"3040",74.49088,69.631065
"3041",74.19302,69.644394
"3042",73.951324,69.65773
"3043",73.763336,69.67106
"3044",73.62661,69.684395
"3045",73.53384,69.69772
"3046",73.480125,69.71106
"3047",73.46548,69.72439
"3048",73.477684,69.737724
"3049",73.514305,69.75105
"3050",73.57534,69.76439
"3051",73.64858,69.77772
"3052",73.73403,69.79105
"3053",73.81949,69.80438
"3054",73.89517,69.81772
"3055",73.95621,69.83105
"3056",74.01236,69.84438
"3057",74.110016,69.85771
"3058",74.34928,69.87105
"3059",74.915695,69.88438
"3060",76.0119,69.89771
"3061",77.786835,69.91104
"3062",80.257576,69.92438
"3063",83.29229,69.937706
"3064",86.60288,69.95104
"3065",89.81583,69.96437
"3066",92.5893,69.97771
"3067",94.67429,69.991035
"3068",95.956055,70.00437
"3069",96.42237,70.0177
"3070",96.1709,70.03104
"3071",95.35546,70.044365
"3072",94.15671,70.0577
"3073",92.75044,70.07103
"3074",91.28069,70.084366
"3075",89.83536,70.097694
"3076",88.448616,70.11103
"3077",87.12779,70.12436
"3078",85.86557,70.137695
"3079",84.66682,70.151024
"3080",83.56573,70.16436
"3081",82.59647,70.17769
"3082",81.80301,70.191025
"3083",81.19997,70.20435
"3084",80.780045,70.21769
"3085",80.51392,70.23102
"3086",80.34791,70.244354
"3087",80.22095,70.25768
"3088",80.09155,70.27102
"3089",79.91089,70.28435
"3090",79.65942,70.29768
"3091",79.32494,70.31101
"3092",78.91478,70.32435
"3093",78.43626,70.33768
"3094",77.90646,70.35101
"3095",77.34493,70.36434
"3096",76.76631,70.37768
"3097",76.19501,70.39101
"3098",75.63592,70.40434
"3099",75.11101,70.41767
"3100",74.62516,70.43101
"3101",74.18814,70.444336
"3102",73.79996,70.45767
"3103",73.46548,70.471
"3104",73.18715,70.48434
"3105",72.96742,70.497665
"3106",72.798965,70.511
"3107",72.67933,70.52433
"3108",72.603645,70.53767
"3109",72.569466,70.550995
"3110",72.56458,70.56433
"3111",72.589,70.57766
"3112",72.637825,70.590996
"3113",72.706184,70.604324
"3114",72.78432,70.61766
"3115",72.87709,70.63099
"3116",72.969864,70.644325
"3117",73.05531,70.65765
"3118",73.128555,70.67099
"3119",73.18959,70.68432
"3120",73.23842,70.697655
"3121",73.3019,70.71098
"3122",73.46548,70.72432
"3123",73.88052,70.73765
"3124",74.75212,70.750984
"3125",76.26826,70.76431
"3126",78.51682,70.77765
"3127",81.42458,70.79098
"3128",84.75716,70.80431
"3129",88.145874,70.81764
"3130",91.21477,70.83098
"3131",93.65865,70.84431
"3132",95.30663,70.85764
"3133",96.112305,70.87097
"3134",96.146484,70.88431
"3135",95.54589,70.89764
"3136",94.49607,70.91097
"3137",93.18257,70.9243
"3138",91.756775,70.93764
"3139",90.33097,70.950966
"3140",88.956436,70.9643
"3141",87.64782,70.97763
"3142",86.39048,70.99097
"3143",85.1844,71.004295
"3144",84.051575,71.01763
"3145",83.02373,71.03096
"3146",82.14725,71.0443
"3147",81.45144,71.057625
"3148",80.938736,71.07096
"3149",80.587166,71.08429
"3150",80.35767,71.097626
"3151",80.19165,71.110954
"3152",80.045166,71.12429
"3153",79.87427,71.13762
"3154",79.65453,71.150955
"3155",79.35912,71.16428
"3156",78.99046,71.17762
"3157",78.555885,71.19095
"3158",78.06271,71.204285
"3159",77.5256,71.21761
"3160",76.97139,71.23095
"3161",76.40742,71.24428
"3162",75.84589,71.257614
"3163",75.30633,71.27094
"3164",74.79851,71.28428
"3165",74.33463,71.29761
"3166",73.919586,71.31094
"3167",73.565575,71.32427
"3168",73.26772,71.33761
"3169",73.0309,71.35094
"3170",72.84779,71.36427
"3171",72.71839,71.3776
"3172",72.63294,71.39094
"3173",72.586555,71.40427
"3174",72.567024,71.4176
"3175",72.569466,71.43093
"3176",72.59144,71.44427
"3177",72.63538,71.457596
"3178",72.69642,71.47093
"3179",72.76967,71.48426
"3180",72.850235,71.4976
"3181",72.935684,71.510925
"3182",73.01869,71.52426
"3183",73.09682,71.53759
"3184",73.1725,71.55093
"3185",73.24086,71.564255
"3186",73.3019,71.57759
"3187",73.35561,71.59092
"3188",73.43618,71.604256
"3189",73.62417,71.617584
"3190",74.08804,71.63092
"3191",75.04021,71.64425
"3192",76.65644,71.657585
"3193",79.00511,71.67091
"3194",81.991,71.68425
"3195",85.34554,71.69758
"3196",88.70008,71.710915
"3197",91.6762,71.72424
"3198",94.0029,71.73758
"3199",95.516594,71.75091
"3200",96.19043,71.764244
"3201",96.09766,71.77757
"3202",95.3872,71.79091
"3203",94.237274,71.80424
"3204",92.83833,71.81757
"3205",91.33929,71.8309
"3206",89.850006,71.84424
"3207",88.41932,71.85757
"3208",87.061874,71.8709
"3209",85.78256,71.88423
"3210",84.59113,71.89757
"3211",83.52178,71.9109
"3212",82.61845,71.92423
"3213",81.91287,71.93756
"3214",81.40505,71.9509
"3215",81.08034,71.964226
"3216",80.88991,71.97756
"3217",80.782486,71.99089
"3218",80.69947,72.00423
"3219",80.601814,72.017555
"3220",80.45045,72.03089
"3221",80.22583,72.04422
"3222",79.91089,72.057556
"3223",79.51537,72.070885
"3224",79.04173,72.08422
"3225",78.51438,72.09755
"3226",77.95285,72.110886
"3227",77.37423,72.124214
"3228",76.79561,72.13755
"3229",76.23407,72.15088
"3230",75.701836,72.164215
"3231",75.211105,72.17754
"3232",74.76921,72.19088
"3233",74.38102,72.20421
"3234",74.04654,72.217545
"3235",73.76578,72.23087
"3236",73.53628,72.24421
"3237",73.3605,72.25754
"3238",73.233536,72.270874
"3239",73.15297,72.2842
"3240",73.1017,72.29754
"3241",73.08705,72.31087
"3242",73.094376,72.3242
"3243",73.12123,72.33753
"3244",73.16029,72.35087
"3245",73.214005,72.3642
"3246",73.27749,72.37753
"3247",73.34585,72.39086
"3248",73.41909,72.4042
"3249",73.497215,72.41753
"3250",73.57534,72.43086
"3251",73.651024,72.44419
"3252",73.71206,72.45753
"3253",73.760895,72.470856
"3254",73.80728,72.48419
"3255",73.89273,72.49752
"3256",74.11978,72.51086
"3257",74.669106,72.524185
"3258",75.74334,72.53752
"3259",77.49142,72.55085
"3260",79.93042,72.564186
"3261",82.91875,72.577515
"3262",86.168304,72.59085
"3263",89.31533,72.60418
"3264",92.01068,72.617516
"3265",94.012665,72.630844
"3266",95.21141,72.64418
"3267",95.60204,72.65751
"3268",95.27978,72.670845
"3269",94.39597,72.68417
"3270",93.12642,72.69751
"3271",91.62737,72.71084
"3272",90.03555,72.724174
"3273",88.44129,72.7375
"3274",86.90074,72.75084
"3275",85.45052,72.76417
"3276",84.12726,72.777504
"3277",82.97246,72.79083
"3278",82.03006,72.80417
"3279",81.33425,72.8175
"3280",80.90456,72.83083
"3281",80.71656,72.84416
"3282",80.71168,72.8575
"3283",80.816666,72.87083
"3284",80.96559,72.88416
"3285",81.077896,72.89749
"3286",81.09987,72.91083
"3287",81.004654,72.92416
"3288",80.78737,72.93749
"3289",80.45777,72.95082
"3290",80.028076,72.96416
"3291",79.5227,72.977486
"3292",78.96605,72.99082
"3293",78.37766,73.00415
"3294",77.77707,73.01749
"3295",77.188675,73.030815
"3296",76.63447,73.04415
"3297",76.12421,73.05748
"3298",75.6701,73.070816
"3299",75.26971,73.084145
"3300",74.9279,73.09748
"3301",74.63981,73.11081
"3302",74.40543,73.124146
"3303",74.2272,73.137474
"3304",74.09781,73.15081
"3305",74.00992,73.16414
"3306",73.96353,73.177475
"3307",73.94888,73.1908
"3308",73.95865,73.20414
"3309",73.987946,73.21747
"3310",74.03433,73.230804
"3311",74.09537,73.24413
"3312",74.16861,73.25747
"3313",74.249176,73.2708
"3314",74.32487,73.284134
"3315",74.39567,73.29746
"3316",74.44694,73.3108
"3317",74.476234,73.32413
"3318",74.50065,73.33746
"3319",74.59342,73.35079
"3320",74.88396,73.36413
"3321",75.56756,73.37746
"3322",76.83467,73.39079
"3323",78.78294,73.40412
"3324",81.36355,73.41746
"3325",84.37873,73.430786
"3326",87.49889,73.44412
"3327",90.36271,73.45745
"3328",92.66987,73.47079
"3329",94.237274,73.484116
"3330",95.00633,73.49745
"3331",95.02342,73.51078
"3332",94.40574,73.52412
"3333",93.3193,73.537445
"3334",91.92767,73.55078
"3335",90.3798,73.56411
"3336",88.780655,73.577446
"3337",87.203476,73.590775
"3338",85.68734,73.60411
"3339",84.27619,73.61744
"3340",83.00664,73.630775
"3341",81.92752,73.644104
"3342",81.0901,73.65744
"3343",80.51392,73.67077
"3344",80.201416,73.684105
"3345",80.113525,73.69743
"3346",80.17456,73.71077
"3347",80.31129,73.7241
"3348",80.448006,73.737434
"3349",80.51881,73.75076
"3350",80.482185,73.7641
"3351",80.31861,73.77743
"3352",80.03296,73.790764
"3353",79.635,73.80409
"3354",79.14183,73.81743
"3355",78.58274,73.83076
"3356",77.98459,73.84409
"3357",77.37179,73.85742
"3358",76.771194,73.87076
"3359",76.20233,73.88409
"3360",75.682304,73.89742
"3361",75.21355,73.91075
"3362",74.79851,73.92409
"3363",74.43473,73.937416
"3364",74.124664,73.95075
"3365",73.86832,73.96408
"3366",73.65835,73.97742
"3367",73.49966,73.990746
"3368",73.38735,74.00408
"3369",73.321434,74.01741
"3370",73.289696,74.03075
"3371",73.289696,74.044075
"3372",73.31655,74.05741
"3373",73.37026,74.07074
"3374",73.43618,74.084076
"3375",73.51186,74.097404
"3376",73.59243,74.11074
"3377",73.673,74.12407
"3378",73.741356,74.137405
"3379",73.797516,74.150734
"3380",73.846344,74.16407
"3381",73.92203,74.1774
"3382",74.12222,74.190735
"3383",74.6276,74.20406
"3384",75.648125,74.2174
"3385",77.349815,74.23073
"3386",79.781494,74.244064
"3387",82.82353,74.25739
"3388",86.19272,74.27073
"3389",89.51797,74.28406
"3390",92.43305,74.29739
"3391",94.67429,74.31072
"3392",96.114746,74.32406
"3393",96.74464,74.33739
"3394",96.64942,74.35072
"3395",95.98291,74.36405
"3396",94.92088,74.37739
"3397",93.626915,74.39072
"3398",92.23773,74.40405
"3399",90.85344,74.41738
"3400",89.515526,74.43072
"3401",88.22888,74.444046
"3402",86.98863,74.45738
"3403",85.79477,74.47071
"3404",84.66682,74.48405
"3405",83.63897,74.497375
"3406",82.757614,74.51071
"3407",82.04471,74.52404
"3408",81.50515,74.53738
"3409",81.1194,74.550705
"3410",80.85329,74.56404
"3411",80.65797,74.57737
"3412",80.482185,74.590706
"3413",80.289314,74.604034
"3414",80.045166,74.61737
"3415",79.73266,74.6307
"3416",79.33715,74.644035
"3417",78.870834,74.657364
"3418",78.34348,74.6707
"3419",77.77463,74.68403
"3420",77.18623,74.697365
"3421",76.59785,74.71069
"3422",76.02411,74.72403
"3423",75.47723,74.73736
"3424",74.966965,74.750694
"3425",74.49821,74.76402
"3426",74.075836,74.77736
"3427",73.70718,74.79069
"3428",73.39712,74.80402
"3429",73.14809,74.81735
"3430",72.9601,74.83069
"3431",72.82582,74.84402
"3432",72.740364,74.85735
"3433",72.689095,74.87068
"3434",72.672005,74.88402
"3435",72.674446,74.89735
"3436",72.69398,74.91068
"3437",72.72816,74.92401
"3438",72.779434,74.93735
"3439",72.84535,74.950676
"3440",72.91615,74.96401
"3441",72.99428,74.97734
"3442",73.074844,74.99068
"3443",73.15053,75.004005
"3444",73.21889,75.01734
"3445",73.27993,75.03067
"3446",73.3312,75.04401
"3447",73.38491,75.057335
"3448",73.50942,75.07067
"3449",73.848785,75.084
"3450",74.61051,75.097336
"3451",75.98993,75.110664
"3452",78.099335,75.124
"3453",80.89967,75.13733
"3454",84.18341,75.150665
"3455",87.59655,75.163994
"3456",90.76311,75.17733
"3457",93.3608,75.19066
"3458",95.19432,75.203995
"3459",96.19043,75.21732
"3460",96.39063,75.23066
"3461",95.9292,75.24399
"3462",94.974594,75.257324
"3463",93.70992,75.27065
"3464",92.301216,75.28399
"3465",90.86565,75.29732
"3466",89.47646,75.31065
"3467",88.1532,75.32398
"3468",86.89586,75.33732
"3469",85.70687,75.35065
"3470",84.593575,75.36398
"3471",83.58282,75.37731
"3472",82.718544,75.39065
"3473",82.02762,75.40398
"3474",81.512474,75.41731
"3475",81.15114,75.43064
"3476",80.91188,75.44398
"3477",80.73609,75.457306
"3478",80.5774,75.47064
"3479",80.394295,75.48397
"3480",80.15503,75.49731
"3481",79.84253,75.510635
"3482",79.45678,75.52397
"3483",79.00267,75.5373
"3484",78.487526,75.55064
"3485",77.93088,75.563965
"3486",77.35714,75.5773
"3487",76.77608,75.59063
"3488",76.209656,75.603966
"3489",75.6701,75.617294
"3490",75.16716,75.63063
"3491",74.70084,75.64396
"3492",74.27848,75.657295
"3493",73.90982,75.67062
"3494",73.59487,75.68396
"3495",73.340965,75.69729
"3496",73.14076,75.710625
"3497",72.989395,75.72395
"3498",72.886856,75.73729
"3499",72.82338,75.75062
"3500",72.79408,75.763954
"3501",72.79408,75.77728
"3502",72.82094,75.79062
"3503",72.85756,75.80395
"3504",72.903946,75.81728
"3505",72.95033,75.83061
"3506",72.99916,75.84395
"3507",73.05043,75.85728
"3508",73.09926,75.87061
"3509",73.15785,75.88394
"3510",73.22377,75.89728
"3511",73.29214,75.91061
"3512",73.358055,75.92394
"3513",73.42397,75.93727
"3514",73.48501,75.95061
"3515",73.54116,75.963936
"3516",73.59487,75.97727
"3517",73.66079,75.9906
"3518",73.78287,76.00394
"3519",74.08072,76.017265
"3520",74.74723,76.0306
"3521",75.98749,76.04393
"3522",77.94797,76.05727
"3523",80.62867,76.070595
"3524",83.84894,76.08393
"3525",87.28405,76.09726
"3526",90.54337,76.110596
"3527",93.280235,76.123924
"3528",95.274895,76.13726
"3529",96.43458,76.15059
"3530",96.79103,76.163925
"3531",96.446785,76.17725
"3532",95.56542,76.19059
"3533",94.31785,76.20392
"3534",92.87251,76.217255
"3535",91.35638,76.23058
"3536",89.85977,76.24392
"3537",88.41932,76.25725
"3538",87.05211,76.270584
"3539",85.78012,76.28391
"3540",84.62287,76.29725
"3541",83.614555,76.31058
"3542",82.79668,76.32391
"3543",82.196075,76.33724
"3544",81.795685,76.35058
"3545",81.56863,76.36391
"3546",81.45876,76.37724
"3547",81.40505,76.39057
"3548",81.34646,76.40391
"3549",81.23659,76.41724
"3550",81.0486,76.43057
"3551",80.762955,76.4439
"3552",80.38453,76.45724
"3553",79.92798,76.470566
"3554",79.398186,76.4839
"3555",78.82201,76.49723
"3556",78.21896,76.51057
"3557",77.61349,76.523895
"3558",77.02266,76.53723
"3559",76.46113,76.55056
"3560",75.93866,76.563896
"3561",75.46746,76.577225
"3562",75.04753,76.59056
"3563",74.67887,76.60389
"3564",74.36637,76.617226
"3565",74.11246,76.630554
"3566",73.90494,76.64389
"3567",73.741356,76.65722
"3568",73.62173,76.670555
"3569",73.54116,76.68388
"3570",73.494774,76.69722
"3571",73.48501,76.71055
"3572",73.50454,76.723885
"3573",73.54116,76.73721
"3574",73.58755,76.75055
"3575",73.636375,76.76388
"3576",73.6852,76.777214
"3577",73.73403,76.79054
"3578",73.78531,76.80388
"3579",73.846344,76.81721
"3580",73.917145,76.83054
"3581",73.99039,76.84387
"3582",74.05875,76.85721
"3583",74.12222,76.87054
"3584",74.175934,76.88387
"3585",74.212555,76.8972
"3586",74.25895,76.91054
"3587",74.373695,76.92387
"3588",74.69108,76.9372
"3589",75.406425,76.95053
"3590",76.700386,76.96387
"3591",78.67063,76.977196
"3592",81.28298,76.99053
"3593",84.3299,77.00386
"3594",87.48913,77.0172
"3595",90.39689,77.030525
"3596",92.755325,77.04386
"3597",94.37888,77.05719
"3598",95.1992,77.070526
"3599",95.25292,77.083855
"3600",94.6572,77.09719
"3601",93.57076,77.11052
"3602",92.15961,77.123856
"3603",90.56779,77.137184
"3604",88.91005,77.15052
"3605",87.2694,77.16385
"3606",85.697105,77.177185
"3607",84.244446,77.19051
"3608",82.96025,77.20385
"3609",81.90555,77.21718
"3610",81.1194,77.230515
"3611",80.63111,77.24384
"3612",80.42115,77.25718
"3613",80.430916,77.27051
"3614",80.584724,77.283844
"3615",80.78981,77.29717
"3616",80.970474,77.31051
"3617",81.06569,77.32384
"3618",81.03395,77.33717
"3619",80.86549,77.3505
"3620",80.55787,77.36384
"3621",80.13306,77.37717
"3622",79.61303,77.3905
"3623",79.03441,77.40383
"3624",78.42649,77.41717
"3625",77.81613,77.4305
"3626",77.22041,77.44383
"3627",76.65644,77.45716
"3628",76.13397,77.4705
"3629",75.65789,77.483826
"3630",75.23552,77.49716
"3631",74.86931,77.51049
"3632",74.5568,77.52383
"3633",74.30045,77.537155
"3634",74.09537,77.55049
"3635",73.94644,77.56382
"3636",73.84146,77.577156
"3637",73.777985,77.590485
"3638",73.75113,77.60382
"3639",73.74868,77.61715
"3640",73.763336,77.630486
"3641",73.79019,77.643814
"3642",73.83414,77.65715
"3643",73.88541,77.67048
"3644",73.944,77.683815
"3645",74.00748,77.69714
"3646",74.06363,77.71048
"3647",74.11734,77.72381
"3648",74.16617,77.737144
"3649",74.20523,77.75047
"3650",74.25407,77.76381
"3651",74.38346,77.77714
"3652",74.73502,77.790474
"3653",75.51385,77.8038
"3654",76.910355,77.81714
"3655",79.01976,77.83047
"3656",81.79813,77.8438
"3657",85.015945,77.85713
"3658",88.326546,77.87047
"3659",91.36126,77.8838
"3660",93.82468,77.89713
"3661",95.52392,77.91046
"3662",96.40284,77.9238
"3663",96.5127,77.937126
"3664",95.97803,77.95046
"3665",94.959946,77.96379
"3666",93.644005,77.97713
"3667",92.18158,77.990456
"3668",90.68986,78.00379
"3669",89.232315,78.01712
"3670",87.83826,78.03046
"3671",86.51011,78.043785
"3672",85.25277,78.05712
"3673",84.09308,78.07045
"3674",83.06767,78.083786
"3675",82.21561,78.097115
"3676",81.566185,78.11045
"3677",81.1194,78.12378
"3678",80.84352,78.137115
"3679",80.68482,78.150444
"3680",80.587166,78.16378
"3681",80.49683,78.17711
"3682",80.35767,78.190445
"3683",80.14526,78.20377
"3684",79.84009,78.21711
"3685",79.44213,78.23044
"3686",78.96361,78.243774
"3687",78.42161,78.2571
"3688",77.840546,78.27044
"3689",77.2375,78.28377
"3690",76.63935,78.297104
"3691",76.05585,78.31043
"3692",75.4992,78.32377
"3693",74.986496,78.3371
"3694",74.52018,78.35043
"3695",74.10269,78.36376
"3696",73.73647,78.3771
"3697",73.4313,78.39043
"3698",73.179825,78.40376
"3699",72.98207,78.41709
"3700",72.84047,78.43043
"3701",72.74769,78.443756
"3702",72.7013,78.45709
"3703",72.691536,78.47042
"3704",72.706184,78.48376
"3705",72.740364,78.497086
"3706",72.7892,78.51042
"3707",72.84291,78.52375
"3708",72.903946,78.53709
"3709",72.97719,78.550415
"3710",73.06264,78.56375
"3711",73.14809,78.57708
"3712",73.233536,78.590416
"3713",73.304344,78.603745
"3714",73.36294,78.61708
"3715",73.40688,78.63041
"3716",73.460594,78.643745
"3717",73.599754,78.657074
"3718",73.97574,78.67041
"3719",74.793625,78.68374
"3720",76.25117,78.697075
"3721",78.450905,78.7104
"3722",81.339134,78.72374
"3723",84.698555,78.73707
"3724",88.17273,78.750404
"3725",91.37591,78.76373
"3726",93.98581,78.77707
"3727",95.81201,78.7904
"3728",96.78859,78.803734
"3729",96.96437,78.81706
"3730",96.4712,78.8304
"3731",95.49218,78.84373
"3732",94.2153,78.85706
"3733",92.806595,78.87039
"3734",91.38567,78.88373
"3735",90.01358,78.89706
"3736",88.70496,78.91039
"3737",87.447624,78.92372
"3738",86.239105,78.93706
"3739",85.084305,78.950386
"3740",84.017395,78.96372
"3741",83.07988,78.97705
"3742",82.30106,78.99039
"3743",81.70046,79.003716
"3744",81.26589,79.01705
"3745",80.96559,79.03038
"3746",80.75075,79.04372
"3747",80.57496,79.057045
"3748",80.38941,79.07038
"3749",80.16235,79.08371
"3750",79.869385,79.097046
"3751",79.50317,79.110374
"3752",79.06615,79.12371
"3753",78.56809,79.13704
"3754",78.02121,79.150375
"3755",77.44259,79.163704
"3756",76.84932,79.17704
"3757",76.25849,79.19037
"3758",75.684746,79.203705
"3759",75.140305,79.21703
"3760",74.634926,79.23037
"3761",74.178375,79.2437
"3762",73.777985,79.257034
"3763",73.445946,79.27036
"3764",73.17738,79.2837
"3765",72.969864,79.29703
"3766",72.82094,79.31036
"3767",72.71595,79.32369
"3768",72.64759,79.33703
"3769",72.61341,79.35036
"3770",72.60609,79.36369
"3771",72.620735,79.37702
"3772",72.65247,79.39036
"3773",72.69886,79.40369
"3774",72.75746,79.41702
"3775",72.82582,79.43035
"3776",72.90639,79.44369
"3777",72.99428,79.457016
"3778",73.08217,79.47035
"3779",73.162735,79.48368
"3780",73.231094,79.49702
"3781",73.28481,79.510345
"3782",73.3312,79.52368
"3783",73.39468,79.53701
"3784",73.55337,79.55035
"3785",73.970856,79.563675
"3786",74.84978,79.57701
"3787",76.37812,79.59034
"3788",78.641335,79.603676
"3789",81.56863,79.617004
"3790",84.90852,79.63034
"3791",88.30457,79.64367
"3792",91.371025,79.657005
"3793",93.81491,79.670334
"3794",95.45312,79.68367
"3795",96.24902,79.697
"3796",96.26612,79.710335
"3797",95.64599,79.72366
"3798",94.56931,79.737
"3799",93.21919,79.75033
"3800",91.74944,79.763664
"3801",90.269936,79.77699
"3802",88.83681,79.79033
"3803",87.47448,79.80366
"3804",86.18295,79.81699
"3805",84.97444,79.83032
"3806",83.87091,79.84366
"3807",82.9041,79.85699
"3808",82.11307,79.87032
"3809",81.51736,79.88365
"3810",81.10719,79.89699
"3811",80.848404,79.91032
"3812",80.69215,79.92365
"3813",80.587166,79.93698
"3814",80.482185,79.95032
"3815",80.33082,79.963646
"3816",80.113525,79.97698
"3817",79.81079,79.99031
"3818",79.42504,80.00365
"3819",78.96605,80.016975
"3820",78.44846,80.03031
"3821",77.89426,80.04364
"3822",77.32296,80.05698
"3823",76.74677,80.070305
"3824",76.18524,80.08364
"3825",75.648125,80.09697
"3826",75.142746,80.110306
"3827",74.68131,80.123634
"3828",74.27604,80.13697
"3829",73.92447,80.1503
"3830",73.633934,80.163635
"3831",73.402,80.17696
"3832",73.22621,80.1903
"3833",73.09682,80.20363
"3834",73.01381,80.216965
"3835",72.96498,80.23029
"3836",72.94545,80.24363
"3837",72.952774,80.25696
"3838",72.98207,80.270294
"3839",73.023575,80.28362
"3840",73.07973,80.29696
"3841",73.13832,80.31029
"3842",73.2018,80.32362
"3843",73.26528,80.33695
"3844",73.32632,80.35029
"3845",73.38491,80.36362
"3846",73.43862,80.37695
"3847",73.48501,80.39028
"3848",73.52163,80.40362
"3849",73.55093,80.41695
"3850",73.58755,80.43028
"3851",73.68276,80.44361
"3852",73.96109,80.45695
"3853",74.61295,80.470276
"3854",75.83856,80.48361
"3855",77.7673,80.49694
"3856",80.39185,80.51028
"3857",83.53887,80.523605
"3858",86.888535,80.53694
"3859",90.057526,80.55027
"3860",92.716255,80.56361
"3861",94.63767,80.576935
"3862",95.73144,80.59027
"3863",96.009766,80.6036
"3864",95.589836,80.616936
"3865",94.625465,80.630264
"3866",93.30465,80.6436
"3867",91.78851,80.65693
"3868",90.20645,80.670265
"3869",88.64393,80.68359
"3870",87.14488,80.69693
"3871",85.73861,80.71026
"3872",84.454414,80.723595
"3873",83.32891,80.73692
"3874",82.40116,80.75026
"3875",81.7029,80.76359
"3876",81.24635,80.776924
"3877",81.004654,80.79025
"3878",80.93141,80.80359
"3879",80.96315,80.81692
"3880",81.03151,80.83025
"3881",81.06813,80.84358
"3882",81.02663,80.85692
"3883",80.8777,80.87025
"3884",80.61158,80.88358
"3885",80.233154,80.89691
"3886",79.766846,80.91025
"3887",79.234604,80.92358
"3888",78.66575,80.93691
"3889",78.0798,80.95024
"3890",77.49142,80.96358
"3891",76.92256,80.976906
"3892",76.385445,80.99024
"3893",75.89227,81.00357
"3894",75.45281,81.01691
"3895",75.06706,81.030235
"3896",74.737465,81.04357
"3897",74.459145,81.0569
"3898",74.2272,81.07024
"3899",74.0441,81.083565
"3900",73.90982,81.0969
"3901",73.81705,81.11023
"3902",73.763336,81.123566
"3903",73.7438,81.136894
"3904",73.75601,81.15023
"3905",73.78775,81.16356
"3906",73.83902,81.176895
"3907",73.90494,81.19022
"3908",73.97574,81.20356
"3909",74.05142,81.21689
"3910",74.127106,81.230225
"3911",74.19791,81.24355
"3912",74.25651,81.25689
"3913",74.29801,81.27022
"3914",74.32975,81.283554
"3915",74.37614,81.29688
"3916",74.50553,81.31022
"3917",74.86931,81.32355
"3918",75.667656,81.33688
"3919",77.06416,81.35021
"3920",79.13695,81.36355
"3921",81.815216,81.37688
"3922",84.86702,81.39021
"3923",87.953,81.40354
"3924",90.719154,81.41688
"3925",92.88716,81.43021
"3926",94.293434,81.44354
"3927",94.89403,81.45687
"3928",94.74998,81.47021
"3929",93.99069,81.483536
"3930",92.78462,81.49687
"3931",91.29778,81.5102
"3932",89.669334,81.52354
"3933",88.009155,81.536865
"3934",86.37827,81.5502
"3935",84.8304,81.56353
"3936",83.40215,81.576866
"3937",82.14969,81.590195
"3938",81.129166,81.60353
"3939",80.37965,81.61686
"3940",79.923096,81.630196
"3941",79.744865,81.643524
"3942",79.79126,81.65686
"3943",79.971924,81.67019
"3944",80.20386,81.683525
"3945",80.39918,81.69685
"3946",80.50172,81.71019
"3947",80.46998,81.72352
"3948",80.29664,81.736855
"3949",79.98901,81.75018
"3950",79.5642,81.76352
"3951",79.0515,81.77685
"3952",78.48264,81.790184
"3953",77.88449,81.80351
"3954",77.281456,81.81685
"3955",76.700386,81.83018
"3956",76.15106,81.84351
"3957",75.64568,81.85684
"3958",75.194016,81.87018
"3959",74.79607,81.88351
"3960",74.444496,81.89684
"3961",74.144196,81.91017
"3962",73.89761,81.92351
"3963",73.704735,81.93684
"3964",73.565575,81.95017
"3965",73.4728,81.9635
"3966",73.428856,81.97684
"3967",73.42153,81.990166
"3968",73.445946,82.0035
"3969",73.494774,82.01683
"3970",73.56313,82.03017
"3971",73.6437,82.043495
"3972",73.72915,82.05683
"3973",73.80972,82.07016
"3974",73.88052,82.083496
"3975",73.94156,82.096825
"3976",74.00015,82.11016
"3977",74.11246,82.12349
"3978",74.41032,82.136826
"3979",75.09392,82.150154
"3980",76.36103,82.16349
"3981",78.33616,82.17682
"3982",81.00954,82.190155
"3983",84.19318,82.20348
"3984",87.56237,82.21682
"3985",90.736244,82.23015
"3986",93.38766,82.243484
"3987",95.294426,82.25681
"3988",96.3711,82.27015
"3989",96.6421,82.28348
"3990",96.23193,82.296814
"3991",95.30175,82.31014
"3992",94.03952,82.32348
"3993",92.60395,82.33681
"3994",91.12688,82.35014
"3995",89.686424,82.36347
"3996",88.307014,82.37681
"3997",86.98619,82.39014
"3998",85.72152,82.40347
"3999",84.52766,82.4168
"4000",83.42657,82.43014
"4001",82.46464,82.44347
"4002",81.68093,82.4568
"4003",81.08766,82.47013
"4004",80.67017,82.48347
"4005",80.39918,82.496796
"4006",80.22095,82.51013
"4007",80.08423,82.52346
"4008",79.937744,82.5368
"4009",79.742424,82.550125
"4010",79.47875,82.56346
"4011",79.12962,82.57679
"4012",78.70237,82.590126
"4013",78.20187,82.603455
"4014",77.64767,82.61679
"4015",77.06172,82.63012
"4016",76.46601,82.643456
"4017",75.880066,82.656784
"4018",75.318535,82.67012
"4019",74.79118,82.68345
"4020",74.305336,82.696785
"4021",73.8732,82.71011
"4022",73.497215,82.72345
"4023",73.18471,82.73678
"4024",72.935684,82.750114
"4025",72.74525,82.76344
"4026",72.59876,82.77678
"4027",72.50111,82.79011
"4028",72.44007,82.803444
"4029",72.41566,82.81677
"4030",72.42054,82.83011
"4031",72.45472,82.84344
"4032",72.51331,82.85677
"4033",72.586555,82.8701
"4034",72.674446,82.88344
"4035",72.76967,82.89677
"4036",72.86488,82.9101
"4037",72.95033,82.92343
"4038",73.023575,82.93677
"4039",73.08705,82.9501
"4040",73.15297,82.96344
"4041",73.26528,82.976776
"4042",73.54116,82.99011
"4043",74.175934,83.00345
"4044",75.386894,83.016785
"4045",77.32052,83.03012
"4046",79.98901,83.04346
"4047",83.23125,83.05679
"4048",86.729836,83.07013
"4049",90.08682,83.083466
"4050",92.93843,83.0968
"4051",95.03807,83.11014
"4052",96.28321,83.123474
"4053",96.688484,83.13681
"4054",96.3711,83.15015
"4055",95.50683,83.16348
"4056",94.293434,83.17682
"4057",92.90425,83.190155
"4058",91.473564,83.20349
"4059",90.07706,83.21683
"4060",88.744026,83.23016
"4061",87.4696,83.2435
"4062",86.239105,83.256836
"4063",85.050125,83.27017
"4064",83.929504,83.28351
"4065",82.913864,83.296844
"4066",82.05203,83.31018
"4067",81.36355,83.32352
"4068",80.848404,83.33685
"4069",80.49195,83.35019
"4070",80.24536,83.363525
"4071",80.0647,83.37686
"4072",79.90112,83.3902
"4073",79.71313,83.403534
"4074",79.4641,83.41687
"4075",79.13939,83.43021
"4076",78.73899,83.44354
"4077",78.2678,83.45688
"4078",77.74288,83.470215
"4079",77.18379,83.48355
"4080",76.60517,83.49689
"4081",76.02655,83.51022
"4082",75.46014,83.52356
"4083",74.92058,83.536896
"4084",74.41764,83.55023
"4085",73.96353,83.56357
"4086",73.565575,83.576904
"4087",73.233536,83.59024
"4088",72.95766,83.60358
"4089",72.742805,83.61691
"4090",72.57923,83.63025
"4091",72.46937,83.643585
"4092",72.40589,83.65692
"4093",72.379036,83.67026
"4094",72.38636,83.68359
"4095",72.413216,83.69693
"4096",72.45472,83.710266
"4097",72.50843,83.7236
"4098",72.57435,83.73694
"4099",72.65003,83.750275
"4100",72.73304,83.76361
"4101",72.8185,83.77695
"4102",72.901505,83.79028
"4103",72.97963,83.80362
"4104",73.04555,83.816956
"4105",73.10414,83.83029
"4106",73.16518,83.84363
"4107",73.248184,83.856964
"4108",73.43862,83.8703
"4109",73.89517,83.88364
"4110",74.83513,83.89697
"4111",76.4416,83.91031
"4112",78.79759,83.923645
"4113",81.82498,83.93698
"4114",85.262535,83.95032
"4115",88.7367,83.96365
"4116",91.84955,83.97699
"4117",94.30076,83.990326
"4118",95.91211,84.00366
"4119",96.65919,84.017
"4120",96.61036,84.030334
"4121",95.91943,84.04367
"4122",94.77196,84.05701
"4123",93.35592,84.07034
"4124",91.827576,84.08368
"4125",90.29435,84.097015
"4126",88.80995,84.11035
"4127",87.39391,84.12369
"4128",86.05356,84.137024
"4129",84.788895,84.15036
"4130",83.63409,84.1637
"4131",82.62333,84.17703
"4132",81.80057,84.19037
"4133",81.18532,84.203705
"4134",80.77516,84.21704
"4135",80.533455,84.23038
"4136",80.4065,84.24371
"4137",80.33326,84.25705
"4138",80.257576,84.270386
"4139",80.1355,84.28372
"4140",79.937744,84.29706
"4141",79.65453,84.310394
"4142",79.28344,84.32373
"4143",78.83421,84.33707
"4144",78.31663,84.3504
"4145",77.75021,84.36374
"4146",77.15938,84.377075
"4147",76.56367,84.39041
"4148",75.98505,84.40375
"4149",75.43816,84.41708
"4150",74.9279,84.43042
"4151",74.46647,84.443756
"4152",74.06363,84.45709
"4153",73.71694,84.47043
"4154",73.42397,84.483765
"4155",73.18471,84.4971
"4156",73.0016,84.51044
"4157",72.86244,84.52377
"4158",72.77455,84.53711
"4159",72.7306,84.550446
"4160",72.725716,84.56378
"4161",72.75502,84.57712
"4162",72.81117,84.590454
"4163",72.884415,84.60379
"4164",72.969864,84.61713
"4165",73.06996,84.63046
"4166",73.17738,84.6438
"4167",73.289696,84.657135
"4168",73.40444,84.67047
"4169",73.51186,84.68381
"4170",73.60708,84.69714
"4171",73.687645,84.71048
"4172",73.760895,84.723816
"4173",73.85123,84.73715
"4174",74.056305,84.75049
"4175",74.547035,84.763824
"4176",75.53582,84.77716
"4177",77.18623,84.7905
"4178",79.54711,84.80383
"4179",82.5037,84.81717
"4180",85.785,84.830505
"4181",89.01503,84.84384
"4182",91.83246,84.85718
"4183",93.96872,84.870514
"4184",95.291985,84.88385
"4185",95.77295,84.89719
"4186",95.49218,84.91052
"4187",94.60105,84.92386
"4188",93.27535,84.937195
"4189",91.68597,84.95053
"4190",89.9794,84.96387
"4191",88.26063,84.9772
"4192",86.59312,84.99054
"4193",85.02083,85.003876
"4194",83.59014,85.01721
"4195",82.34501,85.03055
"4196",81.34402,85.043884
"4197",80.62867,85.05722
"4198",80.20874,85.07056
"4199",80.062256,85.08389
"4200",80.130615,85.09723
"4201",80.33082,85.110565
"4202",80.570076,85.1239
"4203",80.77028,85.13724
"4204",80.87282,85.15057
"4205",80.84352,85.16391
"4206",80.67017,85.177246
"4207",80.36256,85.19058
"4208",79.937744,85.20392
"4209",79.42748,85.217255
"4210",78.85863,85.23059
"4211",78.260475,85.24393
"4212",77.65499,85.25726
"4213",77.06416,85.2706
"4214",76.507515,85.283936
"4215",75.98993,85.29727
"4216",75.52361,85.31061
"4217",75.10857,85.323944
"4218",74.74723,85.33728
"4219",74.43229,85.35062
"4220",74.17105,85.36395
"4221",73.96597,85.37729
"4222",73.80972,85.390625
"4223",73.704735,85.40396
"4224",73.64858,85.4173
"4225",73.633934,85.43063
"4226",73.651024,85.44397
"4227",73.69009,85.457306
"4228",73.74868,85.47064
"4229",73.81705,85.48398
"4230",73.882965,85.497314
"4231",73.94644,85.51065
"4232",74.002594,85.52399
"4233",74.04898,85.53732
"4234",74.124664,85.55066
"4235",74.319984,85.563995
"4236",74.80827,85.57733
"4237",75.79706,85.59067
"4238",77.437706,85.604004
"4239",79.77417,85.61734
"4240",82.69413,85.63068
"4241",85.9144,85.64401
"4242",89.0663,85.65735
"4243",91.80072,85.670685
"4244",93.856415,85.68402
"4245",95.099106,85.69736
"4246",95.51415,85.71069
"4247",95.19432,85.72403
"4248",94.28123,85.737366
"4249",92.962845,85.7507
"4250",91.40276,85.76404
"4251",89.74258,85.777374
"4252",88.077515,85.79071
"4253",86.46616,85.80405
"4254",84.9427,85.81738
"4255",83.543755,85.83072
"4256",82.31327,85.844055
"4257",81.30251,85.85739
"4258",80.55543,85.87073
"4259",80.08667,85.88406
"4260",79.87671,85.8974
"4261",79.86206,85.910736
"4262",79.971924,85.92407
"4263",80.12329,85.93741
"4264",80.24536,85.950745
"4265",80.28199,85.96408
"4266",80.20386,85.97742
"4267",79.99634,85.99075
"4268",79.66674,86.00409
"4269",79.22728,86.017426
"4270",78.70237,86.03076
"4271",78.116425,86.0441
"4272",77.50118,86.057434
"4273",76.88106,86.07077
"4274",76.280464,86.08411
"4275",75.716484,86.09744
"4276",75.20134,86.11078
"4277",74.74723,86.124115
"4278",74.354164,86.13745
"4279",74.022125,86.15079
"4280",73.7438,86.16412
"4281",73.52163,86.17746
"4282",73.35073,86.190796
"4283",73.231094,86.20413
"4284",73.16029,86.21747
"4285",73.13344,86.230804
"4286",73.14809,86.24414
"4287",73.196915,86.25748
"4288",73.270164,86.27081
"4289",73.3605,86.28415
"4290",73.45083,86.297485
"4291",73.53384,86.31082
"4292",73.602196,86.32416
"4293",73.66811,86.337494
"4294",73.777985,86.35083
"4295",74.06607,86.36417
"4296",74.73014,86.3775
"4297",75.98505,86.39084
"4298",77.962616,86.404175
"4299",80.66529,86.41751
"4300",83.914856,86.43085
"4301",87.37682,86.44418
"4302",90.65324,86.45752
"4303",93.39742,86.470856
"4304",95.37499,86.48419
"4305",96.498055,86.49753
"4306",96.79347,86.510864
"4307",96.38819,86.5242
"4308",95.46288,86.53754
"4309",94.20798,86.55087
"4310",92.79927,86.56421
"4311",91.35882,86.577545
"4312",88.619514,86.60422
"4313",87.33288,86.61755
"4314",86.0853,86.63089
"4315",84.88899,86.644226
"4316",83.773254,86.65756
"4317",82.78203,86.6709
"4318",81.951935,86.684235
"4319",81.30007,86.69757
"4320",80.82643,86.71091
"4321",80.499275,86.72424
"4322",80.272224,86.73758
"4323",80.093994,86.750916
"4324",79.92554,86.76425
"4325",79.72045,86.77759
"4326",79.45434,86.790924
"4327",79.11253,86.80426
"4328",78.692604,86.8176
"4329",78.204315,86.83093
"4330",77.662315,86.84427
"4331",77.08858,86.857605
"4332",76.50507,86.87094
"4333",75.928894,86.88428
"4334",75.369804,86.89761
"4335",74.84001,86.91095
"4336",74.354164,86.924286
"4337",73.9147,86.93762
"4338",73.53384,86.95096
"4339",73.21156,86.964294
"4340",72.952774,86.97763
"4341",72.75014,86.99097
"4342",72.61341,87.0043
"4343",72.532845,87.01764
"4344",72.498665,87.030975
"4345",72.50355,87.04431
"4346",72.54017,87.05765
"4347",72.59876,87.070984
"4348",72.66712,87.08432
"4349",72.74525,87.09766
"4350",72.82094,87.11099
"4351",72.89418,87.12433
"4352",72.95766,87.137665
"4353",73.02602,87.151
"4354",73.14076,87.16434
"4355",73.41665,87.17767
"4356",74.02945,87.19101
"4357",75.19646,87.204346
"4358",77.06172,87.21768
"4359",79.64721,87.23102
"4360",82.791794,87.244354
"4361",86.187836,87.25769
"4362",89.43496,87.27103
"4363",92.17914,87.28436
"4364",94.17136,87.2977
"4365",95.311516,87.311035
"4366",95.62646,87.32437
"4367",95.235825,87.33771
"4368",94.32273,87.35104
"4369",93.084915,87.36438
"4370",91.69329,87.377716
"4371",90.2797,87.39105
"4372",88.90761,87.40439
"4373",87.59655,87.417725
"4374",86.33189,87.43106
"4375",85.103836,87.4444
"4376",83.92462,87.45773
"4377",82.82597,87.47107
"4378",81.8616,87.484406
"4379",81.07301,87.49774
"4380",80.4773,87.51108
"4381",80.05737,87.524414
"4382",79.783936,87.53775
"4383",79.59838,87.55109
"4384",79.45922,87.56442
"4385",79.310295,87.57776
"4386",79.11742,87.591095
"4387",78.86351,87.60443
"4388",78.53147,87.61777
"4389",78.12619,87.6311
"4390",77.659874,87.64444
"4391",77.14473,87.657776
"4392",76.59785,87.67111
"4393",76.04608,87.68445
"4394",75.4992,87.697784
"4395",74.969406,87.71112
"4396",74.478676,87.72446
"4397",74.03189,87.73779
"4398",73.6437,87.75113
"4399",73.30923,87.764465
"4400",73.03334,87.7778
"4401",72.81117,87.79114
"4402",72.64271,87.804474
"4403",72.52064,87.81781
"4404",72.447395,87.83115
"4405",72.413216,87.84448
"4406",72.42054,87.85782
"4407",72.45472,87.871155
"4408",72.50843,87.88449
"4409",72.584114,87.89783
"4410",72.674446,87.91116
"4411",72.76967,87.9245
"4412",72.86,87.937836
"4413",72.94545,87.95117
"4414",73.01625,87.96451
"4415",73.08217,87.977844
"4416",73.15785,87.99118
"4417",73.28481,88.00452
"4418",73.57778,88.01785
"4419",74.21988,88.03119
"4420",75.40887,88.044525
"4421",77.28878,88.05786
"4422",79.87915,88.0712
"4423",83.018845,88.08453
"4424",86.38804,88.09787
"4425",89.59365,88.111206
"4426",92.27924,88.12454
"4427",94.205536,88.13788
"4428",95.27001,88.151215
"4429",95.49706,88.16455
"4430",95.011215,88.17789
"4431",93.99313,88.19122
"4432",92.64301,88.20456
"4433",91.13176,88.217896
"4434",89.58877,88.23123
"4435",88.0824,88.24457
"4436",86.64683,88.257904
"4437",85.29183,88.27124
"4438",84.0296,88.28458
"4439",82.89189,88.29791
"4440",81.92508,88.31125
"4441",81.16823,88.324585
"4442",80.63355,88.33792
"4443",80.308846,88.35126
"4444",80.15015,88.36459
"4445",80.10132,88.37793
"4446",80.09888,88.391266
"4447",80.08179,88.4046
"4448",80.008545,88.41794
"4449",79.852295,88.431274
"4450",79.60082,88.44461
"4451",79.2517,88.45795
"4452",78.819565,88.47128
"4453",78.328835,88.48462
"4454",77.79904,88.497955
"4455",77.24727,88.51129
"4456",76.697945,88.52463
"4457",76.16083,88.537964
"4458",75.65301,88.5513
"4459",75.18181,88.56464
"4460",74.75456,88.57797
"4461",74.38102,88.59131
"4462",74.06607,88.604645
"4463",73.8024,88.61798
"4464",73.59731,88.63132
"4465",73.44106,88.64465
"4466",73.33364,88.65799
"4467",73.270164,88.671326
"4468",73.25063,88.68466
"4469",73.26772,88.698
"4470",73.321434,88.711334
"4471",73.402,88.72467
"4472",73.5021,88.73801
"4473",73.61196,88.75134
"4474",73.71206,88.76468
"4475",73.80484,88.778015
"4476",73.87564,88.79135
"4477",73.934235,88.80469
"4478",74.0148,88.81802
"4479",74.22232,88.83136
"4480",74.72526,88.844696
"4481",75.72137,88.85803
"4482",77.36935,88.87137
"4483",79.70092,88.884705
"4484",82.59159,88.89804
"4485",85.750824,88.91138
"4486",88.814835,88.92471
"4487",91.424736,88.93805
"4488",93.32906,88.951385
"4489",94.398415,88.96472
"4490",94.642555,88.97806
"4491",94.16647,88.991394
"4492",93.14351,89.00473
"4493",91.756775,89.01807
"4494",90.177155,89.0314
"4495",88.534065,89.04474
"4496",86.90074,89.058075
"4497",85.313805,89.07141
"4498",83.81476,89.08475
"4499",82.45243,89.09808
"4500",81.28298,89.11142
"4501",80.37476,89.124756
"4502",79.766846,89.13809
"4503",79.4641,89.15143
"4504",79.415276,89.164764
"4505",79.534904,89.1781
"4506",79.73754,89.19144
"4507",79.9353,89.20477
"4508",80.05005,89.21811
"4509",80.05005,89.231445
"4510",79.91577,89.24478
"4511",79.64965,89.25812
"4512",79.26635,89.271454
"4513",78.79271,89.28479
"4514",78.260475,89.29813
"4515",77.68673,89.31146
"4516",77.09834,89.3248
"4517",76.52705,89.338135
"4518",75.982605,89.35147
"4519",75.47967,89.36481
"4520",75.03288,89.37814
"4521",74.64225,89.39148
"4522",74.302895,89.404816
"4523",74.0148,89.41815
"4524",73.780426,89.43149
"4525",73.599754,89.444824
"4526",73.4728,89.45816
"4527",73.39712,89.4715
"4528",73.37026,89.48483
"4529",73.38003,89.49817
"4530",73.42153,89.511505
"4531",73.48745,89.52484
"4532",73.565575,89.53818
"4533",73.64858,89.55151
"4534",73.72671,89.56485
"4535",73.797516,89.578186
"4536",73.85367,89.59152
"4537",73.936676,89.60486
"4538",74.13443,89.618195
"4539",74.62028,89.63153
"4540",75.60418,89.64487
"4541",77.264366,89.6582
"4542",79.656975,89.67154
"4543",82.67216,89.684875
"4544",86.03647,89.69821
"4545",89.36172,89.71155
"4546",92.27436,89.724884
"4547",94.47898,89.73822
"4548",95.8291,89.75156
"4549",96.31739,89.76489
"4550",96.03906,89.77823
"4551",95.16502,89.791565
"4552",93.90524,89.8049
"4553",92.44038,89.81824
"4554",90.914474,89.83157
"4555",89.41543,89.84491
"4556",87.97742,89.858246
"4557",86.598,89.87158
"4558",85.27474,89.88492
"4559",84.0296,89.898254
"4560",82.89189,89.91159
