"","ppg","time"
"1",76.63935,726.53394
"2",77.19356,726.5471
"3",78.14084,726.5603
"4",79.500725,726.5735
"5",81.197525,726.5867
"6",83.06279,726.59985
"7",84.893875,726.61304
"8",86.49058,726.6262
"9",87.708855,726.6394
"10",88.47059,726.6526
"11",88.76845,726.6658
"12",88.656136,726.67896
"13",88.22156,726.69214
"14",87.55993,726.7053
"15",86.76158,726.7185
"16",85.89975,726.7317
"17",85.04036,726.7449
"18",84.242004,726.75806
"19",83.54864,726.77124
"20",83.00664,726.7844
"21",82.63554,726.7976
"22",82.4329,726.8108
"23",82.35966,726.824
"24",82.374306,726.83716
"25",82.41825,726.85034
"26",82.442665,726.8635
"27",82.41093,726.8767
"28",82.29862,726.8899
"29",82.09354,726.9031
"30",81.80057,726.91626
"31",81.41726,726.92944
"32",80.955826,726.9426
"33",80.43824,726.9558
"34",79.886475,726.969
"35",79.31762,726.9822
"36",78.75853,726.99536
"37",78.221405,727.00854
"38",77.71603,727.0217
"39",77.261925,727.0349
"40",76.86153,727.0481
"41",76.51972,727.0613
"42",76.23895,727.07446
"43",76.02167,727.08765
"44",75.84589,727.1008
"45",75.70428,727.114
"46",75.577324,727.1272
"47",75.46502,727.1404
"48",75.38445,727.15356
"49",75.372246,727.16675
"50",75.494316,727.17993
"51",75.83856,727.1931
"52",76.50019,727.2063
"53",77.51339,727.2195
"54",78.86107,727.23267
"55",80.4358,727.24585
"56",82.0618,727.25903
"57",83.54864,727.2722
"58",84.732735,727.2854
"59",85.51156,727.2986
"60",85.85092,727.31177
"61",85.78989,727.32495
"62",85.41146,727.33813
"63",84.81331,727.3513
"64",84.085754,727.3645
"65",83.31182,727.3777
"66",82.547646,727.39087
"67",81.83719,727.40405
"68",81.22194,727.41724
"69",80.74586,727.4304
"70",80.428474,727.4436
"71",80.28199,727.4568
"72",80.28199,727.47
"73",80.39185,727.48315
"74",80.55787,727.49634
"75",80.719,727.5095
"76",80.82399,727.5227
"77",80.82643,727.5359
"78",80.70191,727.5491
"79",80.448006,727.56226
"80",80.076904,727.57544
"81",79.60815,727.5886
"82",79.063705,727.6018
"83",78.45823,727.615
"84",77.803925,727.6282
"85",77.11299,727.64136
"86",76.41474,727.65454
"87",75.736015,727.6677
"88",75.11833,727.6809
"89",74.60319,727.6941
"90",74.22476,727.7073
"91",73.99527,727.72046
"92",73.90738,727.73364
"93",73.92935,727.7468
"94",74.02457,727.76
"95",74.161285,727.7732
"96",74.31266,727.7864
"97",74.47379,727.79956
"98",74.66178,727.81274
"99",74.9279,727.8259
"100",75.32342,727.8391
"101",75.96063,727.8523
"102",76.94942,727.8655
"103",78.31663,727.87866
"104",79.99634,727.89185
"105",81.85184,727.905
"106",83.70733,727.9182
"107",85.35531,727.9314
"108",86.6273,727.9446
"109",87.4403,727.95776
"110",87.78699,727.97095
"111",87.68932,727.98413
"112",87.23033,727.9973
"113",86.51011,728.0105
"114",85.63363,728.0237
"115",84.67902,728.03687
"116",83.70489,728.05005
"117",82.7625,728.06323
"118",81.90311,728.0764
"119",81.18532,728.0896
"120",80.6482,728.1028
"121",80.308846,728.11597
"122",80.17212,728.12915
"123",80.21118,728.14233
"124",80.38697,728.1555
"125",80.64332,728.1687
"126",80.92653,728.1819
"127",81.17311,728.19507
"128",81.31716,728.20825
"129",81.31716,728.22144
"130",81.16579,728.2346
"131",80.89235,728.2478
"132",80.5359,728.261
"133",80.15015,728.2742
"134",79.764404,728.28735
"135",79.415276,728.30054
"136",79.10765,728.3137
"137",78.839096,728.3269
"138",78.5803,728.3401
"139",78.31907,728.3533
"140",78.02609,728.36646
"141",77.69405,728.37964
"142",77.3254,728.3928
"143",76.93477,728.406
"144",76.54658,728.4192
"145",76.175476,728.4324
"146",75.81415,728.44556
"147",75.46014,728.45874
"148",75.10124,728.4719
"149",74.76189,728.4851
"150",74.50065,728.4983
"151",74.42008,728.5115
"152",74.634926,728.52466
"153",75.21843,728.53784
"154",76.175476,728.551
"155",77.41573,728.5642
"156",78.79515,728.5774
"157",80.13794,728.5906
"158",81.28542,728.60376
"159",82.12283,728.61694
"160",82.581825,728.6301
"161",82.64774,728.6433
"162",82.36454,728.6565
"163",81.815216,728.6697
"164",81.109634,728.68286
"165",80.34547,728.69604
"166",79.59838,728.7092
"167",78.922104,728.7224
"168",78.348366,728.7356
"169",77.87961,728.7488
"170",77.523155,728.76196
"171",77.30343,728.77515
"172",77.23018,728.7883
"173",77.30343,728.8015
"174",77.50118,728.8147
"175",77.78195,728.8279
"176",78.09201,728.84106
"177",78.38743,728.85425
"178",78.63889,728.86743
"179",78.84642,728.8806
"180",79.01976,728.8938
"181",79.15404,728.907
"182",79.237045,728.92017
"183",79.24925,728.93335
"184",79.185776,728.94653
"185",79.061264,728.9597
"186",78.89281,728.9729
"187",78.70237,728.9861
"188",78.51438,728.99927
"189",78.34104,729.01245
"190",78.18234,729.02563
"191",78.02365,729.0388
"192",77.84543,729.052
"193",77.61593,729.0652
"194",77.30587,729.07837
"195",76.90547,729.09155
"196",76.44648,729.10474
"197",75.97528,729.1179
"198",75.55535,729.1311
"199",75.245285,729.1443
"200",75.11345,729.1575
"201",75.2404,729.17065
"202",75.69207,729.18384
"203",76.51972,729.197
"204",77.72335,729.2102
"205",79.24925,729.2234
"206",80.98268,729.2366
"207",82.760056,729.24976
"208",84.39094,729.26294
"209",85.72152,729.2761
"210",86.64439,729.2893
"211",87.1107,729.3025
"212",87.13512,729.3157
"213",86.783554,729.32886
"214",86.15854,729.34204
"215",85.36019,729.3552
"216",84.47639,729.3684
"217",83.58282,729.3816
"218",82.7454,729.3948
"219",82.01541,729.40796
"220",81.42947,729.42114
"221",81.02174,729.4343
"222",80.814224,729.4475
"223",80.80934,729.4607
"224",80.96803,729.4739
"225",81.21217,729.48706
"226",81.47341,729.50024
"227",81.71267,729.5134
"228",81.90311,729.5266
"229",82.022736,729.5398
"230",82.06668,729.553
"231",82.03494,729.56616
"232",81.92752,729.57935
"233",81.761505,729.5925
"234",81.59548,729.6057
"235",81.480736,729.6189
"236",81.43923,729.6321
"237",81.45632,729.64526
"238",81.50027,729.65845
"239",81.53933,729.67163
"240",81.532005,729.6848
"241",81.42947,729.698
"242",81.22682,729.7112
"243",80.955826,729.72437
"244",80.66529,729.73755
"245",80.394295,729.75073
"246",80.18921,729.7639
"247",80.10864,729.7771
"248",80.198975,729.7903
"249",80.50172,729.80347
"250",81.075455,729.81665
"251",81.95926,729.82983
"252",83.12871,729.843
"253",84.48615,729.8562
"254",85.8851,729.8694
"255",87.17174,729.88257
"256",88.20935,729.89575
"257",88.91249,729.90894
"258",89.23964,729.9221
"259",89.19325,729.9353
"260",88.81239,729.9485
"261",88.162964,729.9617
"262",87.33532,729.97485
"263",86.42466,729.98804
"264",85.53353,730.0012
"265",84.73762,730.0144
"266",84.085754,730.0276
"267",83.58526,730.0408
"268",83.209274,730.05396
"269",82.916306,730.06714
"270",82.667274,730.0803
"271",82.4329,730.0935
"272",82.2034,730.1067
"273",81.99344,730.1199
"274",81.80545,730.13306
"275",81.634544,730.14624
"276",81.46853,730.1594
"277",81.28298,730.1726
"278",81.0486,730.1858
"279",80.74586,730.199
"280",80.360115,730.21216
"281",79.90845,730.22534
"282",79.41772,730.2385
"283",78.94408,730.2517
"284",78.555885,730.2649
"285",78.28245,730.2781
"286",78.101776,730.29126
"287",77.94797,730.30444
"288",77.72579,730.3176
"289",77.37423,730.3308
"290",76.89082,730.344
"291",76.34638,730.3572
"292",75.85321,730.37036
"293",75.53582,730.38354
"294",75.47967,730.3967
"295",75.73846,730.4099
"296",76.32929,730.4231
"297",77.25948,730.4363
"298",78.53147,730.44946
"299",80.12573,730.46265
"300",81.95438,730.4758
"301",83.86359,730.489
"302",85.64828,730.5022
"303",87.09361,730.5154
"304",88.48524,730.54175
"305",88.46082,730.55493
"306",88.10925,730.5681
"307",87.57458,730.5813
"308",86.959335,730.5945
"309",86.3148,730.60767
"310",85.643394,730.62085
"311",84.92317,730.63403
"312",84.13214,730.6472
"313",83.27764,730.6604
"314",82.39384,730.6736
"315",81.529564,730.68677
"316",80.743416,730.69995
"317",80.062256,730.71313
"318",79.4934,730.7263
"319",79.012436,730.7395
"320",78.58274,730.7527
"321",78.17502,730.76587
"322",77.7673,730.77905
"323",77.35714,730.79224
"324",76.944534,730.8054
"325",76.51728,730.8186
"326",76.07782,730.8318
"327",75.62371,730.845
"328",75.16472,730.85815
"329",74.720375,730.87134
"330",74.31754,730.8845
"331",73.96597,730.8977
"332",73.68032,730.9109
"333",73.45571,730.9241
"334",73.27749,730.93726
"335",73.13344,730.95044
"336",73.006485,730.9636
"337",72.88197,730.9768
"338",72.74525,730.99
"339",72.60853,731.0032
"340",72.49134,731.01636
"341",72.41566,731.02954
"342",72.410774,731.0427
"343",72.53773,731.0559
"344",72.88197,731.0691
"345",73.5436,731.0823
"346",74.60807,731.09546
"347",76.087585,731.10864
"348",77.908905,731.1218
"349",79.89624,731.135
"350",81.832306,731.1482
"351",83.51446,731.1614
"352",84.808426,731.17456
"353",85.66781,731.18774
"354",86.13168,731.2009
"355",86.278175,731.2141
"356",86.202484,731.2273
"357",85.980316,731.2405
"358",85.66537,731.25366
"359",85.279625,731.26685
"360",84.83284,731.28
"361",84.33967,731.2932
"362",83.8172,731.3064
"363",83.29229,731.3196
"364",82.79668,731.33276
"365",82.3621,731.34595
"366",82.003204,731.35913
"367",81.71999,731.3723
"368",81.48562,731.3855
"369",81.26589,731.3987
"370",80.987564,731.41187
"371",80.58228,731.42505
"372",80.01099,731.43823
"373",79.30541,731.4514
"374",78.519264,731.4646
"375",77.72335,731.4778
"376",76.998245,731.49097
"377",76.37812,731.50415
"378",75.85077,731.51733
"379",75.37713,731.5305
"380",74.9572,731.5437
"381",74.59586,731.5569
"382",74.302895,731.57007
"383",74.092926,731.58325
"384",73.9733,731.59644
"385",73.936676,731.6096
"386",73.951324,731.6228
"387",73.985504,731.636
"388",74.005035,731.6492
"389",73.99039,731.66235
"390",73.94156,731.67554
"391",73.8732,731.6887
"392",73.83658,731.7019
"393",73.917145,731.7151
"394",74.20523,731.7283
"395",74.77898,731.74146
"396",75.68719,731.75464
"397",76.91768,731.7678
"398",78.397194,731.781
"399",79.96948,731.7942
"400",81.463646,731.8074
"401",82.718544,731.82056
"402",83.61944,731.83374
"403",84.12482,731.8469
"404",84.26887,731.8601
"405",84.137024,731.8733
"406",83.84161,731.8865
"407",83.47784,731.89966
"408",83.104294,731.91284
"409",82.738075,731.926
"410",82.371864,731.9392
"411",81.988556,731.9524
"412",81.58572,731.9656
"413",81.17311,731.97876
"414",80.7776,731.99194
"415",80.42603,732.0051
"416",80.11841,732.0183
"417",79.84741,732.0315
"418",79.59838,732.0447
"419",79.361565,732.05786
"420",79.13939,732.07104
"421",78.93431,732.0842
"422",78.73411,732.0974
"423",78.49241,732.1106
"424",78.17258,732.1238
"425",77.76242,732.13696
"426",77.27169,732.15015
"427",76.74189,732.1633
"428",76.226746,732.1765
"429",75.76776,732.1897
"430",75.37713,732.2029
"431",75.04753,732.21606
"432",74.76677,732.22925
"433",74.53239,732.24243
"434",74.34684,732.2556
"435",74.22232,732.2688
"436",74.161285,732.282
"437",74.15152,732.29517
"438",74.16861,732.30835
"439",74.19302,732.32153
"440",74.212555,732.3347
"441",74.215,732.3479
"442",74.21011,732.3611
"443",74.20767,732.37427
"444",74.212555,732.38745
"445",74.22232,732.40063
"446",74.24429,732.4138
"447",74.305336,732.427
"448",74.459145,732.4402
"449",74.79118,732.45337
"450",75.40154,732.46655
"451",76.3708,732.47974
"452",77.7087,732.4929
"453",79.33959,732.5061
"454",81.112076,732.5193
"455",82.83574,732.5325
"456",84.317696,732.54565
"457",85.42367,732.55884
"458",86.09506,732.572
"459",86.3563,732.5852
"460",86.2855,732.5984
"461",85.997406,732.6116
"462",85.61166,732.62476
"463",85.21126,732.63794
"464",84.84993,732.6511
"465",84.53498,732.6643
"466",84.23712,732.6775
"467",83.92462,732.6907
"468",83.56817,732.70386
"469",83.17021,732.71704
"470",82.74052,732.7302
"471",82.31327,732.7434
"472",81.91531,732.7566
"473",81.57595,732.7698
"474",81.29763,732.78296
"475",81.077896,732.79614
"476",80.902115,732.8093
"477",80.75563,732.8225
"478",80.60914,732.8357
"479",80.45289,732.8489
"480",80.26978,732.86206
"481",80.045166,732.87524
"482",79.77905,732.8884
"483",79.48119,732.9016
"484",79.16136,732.9148
"485",78.83177,732.928
"486",78.504616,732.94116
"487",78.19455,732.95435
"488",77.91135,732.9675
"489",77.659874,732.9807
"490",77.44015,732.9939
"491",77.24483,733.0071
"492",77.07149,733.02026
"493",76.90547,733.03345
"494",76.74677,733.04663
"495",76.59785,733.0598
"496",76.47822,733.073
"497",76.385445,733.0862
"498",76.31953,733.09937
"499",76.27802,733.11255
"500",76.24872,733.12573
"501",76.22186,733.1389
"502",76.190125,733.1521
"503",76.1535,733.1653
"504",76.10712,733.17847
"505",76.053406,733.19165
"506",76.00458,733.20483
"507",76.00458,733.218
"508",76.14374,733.2312
"509",76.53437,733.2444
"510",77.281456,733.25757
"511",78.42405,733.27075
"512",79.920654,733.28394
"513",81.617455,733.2971
"514",83.30694,733.3103
"515",84.79378,733.3235
"516",85.93149,733.3367
"517",86.67124,733.34985
"518",87.03258,733.36304
"519",87.08385,733.3762
"520",86.91051,733.3894
"521",86.61021,733.4026
"522",86.25132,733.4158
"523",85.8851,733.42896
"524",85.52865,733.44214
"525",85.172195,733.4553
"526",84.79378,733.4685
"527",84.37385,733.4817
"528",83.91974,733.4949
"529",83.44854,733.50806
"530",82.99687,733.52124
"531",82.59647,733.5344
"532",82.266884,733.5476
"533",82.003204,733.5608
"534",81.79813,733.574
"535",81.6321,733.58716
"536",81.48318,733.60034
"537",81.324486,733.6135
"538",81.143814,733.6267
"539",80.92897,733.6399
"540",80.67506,733.6531
"541",80.37476,733.66626
"542",80.045166,733.67944
"543",79.70092,733.6926
"544",79.35424,733.7058
"545",79.029526,733.719
"546",78.73899,733.7322
"547",78.49241,733.74536
"548",78.29221,733.75854
"549",78.133514,733.7717
"550",78.01633,733.7849
"551",77.925995,733.7981
"552",77.85031,733.8113
"553",77.78439,733.82446
"554",77.71603,733.83765
"555",77.642784,733.8508
"556",77.56466,733.864
"557",77.48409,733.8772
"558",77.39376,733.8904
"559",77.29366,733.90356
"560",77.18135,733.91675
"561",77.05684,733.92993
"562",76.925,733.9431
"563",76.78584,733.9563
"564",76.654,733.9695
"565",76.53437,733.98267
"566",76.42451,733.99585
"567",76.32197,734.00903
"568",76.22186,734.0222
"569",76.11932,734.0354
"570",76.03143,734.0486
"571",75.99237,734.06177
"572",76.0827,734.07495
"573",76.4123,734.08813
"574",77.09102,734.1013
"575",78.17258,734.1145
"576",79.639885,734.1277
"577",81.358665,734.14087
"578",83.1458,734.15405
"579",84.78645,734.16724
"580",86.10727,734.1804
"581",87.010605,734.1936
"582",87.49157,734.2068
"583",87.606316,734.22
"584",87.46227,734.23315
"585",87.17662,734.24634
"586",86.83971,734.2595
"587",86.51743,734.2727
"588",86.23178,734.2859
"589",85.960785,734.2991
"590",85.67513,734.31226
"591",85.3431,734.32544
"592",84.95491,734.3386
"593",84.51789,734.3518
"594",84.068665,734.365
"595",83.63897,734.3782
"596",83.267876,734.39136
"597",82.967575,734.40454
"598",82.73075,734.4177
"599",82.53544,734.4309
"600",82.35966,734.4441
"601",82.176544,734.4573
"602",81.969025,734.47046
"603",81.71999,734.48364
"604",81.427025,734.4968
"605",81.092545,734.51
"606",80.726326,734.5232
"607",80.343025,734.5364
"608",79.957275,734.54956
"609",79.588615,734.56274
"610",79.237045,734.5759
"611",78.905014,734.5891
"612",78.59251,734.6023
"613",78.30198,734.6155
"614",78.03586,734.62866
"615",77.79172,734.64185
"616",77.5671,734.655
"617",77.3547,734.6682
"618",77.152054,734.6814
"619",76.95186,734.6946
"620",76.74677,734.70776
"621",76.53681,734.72095
"622",76.33662,734.73413
"623",76.14618,734.7473
"624",75.96796,734.7605
"625",75.80194,734.7737
"626",75.648125,734.78687
"627",75.49676,734.80005
"628",75.35027,734.81323
"629",75.21355,734.8264
"630",75.0988,734.8396
"631",75.01579,734.8528
"632",74.96208,734.86597
"633",74.92302,734.87915
"634",74.89372,734.89233
"635",74.87419,734.9055
"636",74.87419,734.9187
"637",74.96452,734.9319
"638",75.24773,734.94507
"639",75.843445,734.95825
"640",76.82979,734.97144
"641",78.21408,734.9846
"642",79.89624,734.9978
"643",81.70046,735.011
"644",83.40948,735.0242
"645",84.83528,735.03735
"646",85.86313,735.05054
"647",86.46616,735.0637
"648",86.678566,735.0769
"649",86.588234,735.0901
"650",86.30503,735.1033
"651",85.926605,735.11646
"652",85.53109,735.12964
"653",85.15755,735.1428
"654",84.81331,735.156
"655",84.48127,735.1692
"656",84.137024,735.1824
"657",83.76593,735.19556
"658",83.372856,735.20874
"659",82.9749,735.2219
"660",82.60136,735.2351
"661",82.27665,735.2483
"662",82.01053,735.2615
"663",81.795685,735.27466
"664",81.619896,735.28784
"665",81.461205,735.301
"666",81.29275,735.3142
"667",81.0901,735.3274
"668",80.848404,735.3406
"669",80.570076,735.35376
"670",80.257576,735.36694
"671",79.91821,735.3801
"672",79.5642,735.3933
"673",79.202866,735.4065
"674",78.84642,735.4197
"675",78.49729,735.43286
"676",78.17258,735.44604
"677",77.86984,735.4592
"678",77.593956,735.4724
"679",77.34249,735.4856
"680",77.11543,735.4988
"681",76.91524,735.51196
"682",76.73701,735.52515
"683",76.58076,735.5383
"684",76.4416,735.5515
"685",76.314644,735.5647
"686",76.19501,735.5779
"687",76.085144,735.59106
"688",75.98993,735.60425
"689",75.914246,735.61743
"690",75.85565,735.6306
"691",75.81171,735.6438
"692",75.7702,735.657
"693",75.72381,735.67017
"694",75.67498,735.68335
"695",75.62127,735.69653
"696",75.56756,735.7097
"697",75.52117,735.7229
"698",75.48455,735.7361
"699",75.45037,735.74927
"700",75.41375,735.76245
"701",75.37469,735.77563
"702",75.34295,735.7888
"703",75.36492,735.802
"704",75.52117,735.8152
"705",75.91913,735.82837
"706",76.65888,735.84155
"707",77.7673,735.85474
"708",79.202866,735.8679
"709",80.82399,735.8811
"710",82.44755,735.8943
"711",83.878235,735.9075
"712",84.981766,735.92065
"713",85.680016,735.93384
"714",85.98276,735.947
"715",85.94858,735.9602
"716",85.6556,735.9734
"717",85.2137,735.9866
"718",84.698555,735.99976
"719",84.173645,736.01294
"720",83.66827,736.0261
"721",83.194626,736.0393
"722",82.75273,736.0525
"723",82.34745,736.0657
"724",81.986115,736.07886
"725",81.685814,736.09204
"726",81.46609,736.1052
"727",81.32693,736.1184
"728",81.26589,736.1316
"729",81.25613,736.1448
"730",81.26589,736.15796
"731",81.26101,736.17114
"732",81.2195,736.1843
"733",81.12428,736.1975
"734",80.96559,736.2107
"735",80.75075,736.2239
"736",80.48707,736.23706
"737",80.184326,736.25024
"738",79.852295,736.2634
"739",79.51049,736.2766
"740",79.17601,736.2898
"741",78.856186,736.303
"742",78.56321,736.31616
"743",78.2971,736.32935
"744",78.05783,736.3425
"745",77.84299,736.3557
"746",77.65255,736.3689
"747",77.486534,736.3821
"748",77.34493,736.39526
"749",77.225296,736.40845
"750",77.120316,736.42163
"751",77.02998,736.4348
"752",76.9543,736.448
"753",76.89082,736.4612
"754",76.839554,736.47437
"755",76.79561,736.48755
"756",76.756546,736.50073
"757",76.715034,736.5139
"758",76.67109,736.5271
"759",76.62226,736.5403
"760",76.561226,736.55347
"761",76.49287,736.56665
"762",76.422066,736.57983
"763",76.36591,736.593
"764",76.368355,736.6062
"765",76.50996,736.6194
"766",76.87129,736.63257
"767",77.523155,736.64575
"768",78.4802,736.65894
"769",79.693596,736.6721
"770",81.05104,736.6853
"771",82.39628,736.6985
"772",83.57549,736.7117
"773",84.47883,736.72485
"774",85.050125,736.73804
"775",85.28207,736.7512
"776",85.21858,736.7644
"777",84.91341,736.7776
"778",84.44465,736.7908
"779",83.878235,736.80396
"780",83.27032,736.81714
"781",82.652626,736.8303
"782",82.06424,736.8435
"783",81.532005,736.8567
"784",81.08766,736.8699
"785",80.74586,736.88306
"786",80.52613,736.89624
"787",80.43824,736.9094
"788",80.46021,736.9226
"789",80.56519,736.9358
"790",80.71656,736.949
"791",80.88014,736.96216
"792",81.01686,736.97534
"793",81.10475,736.9885
"794",81.126724,737.0017
"795",81.077896,737.0149
"796",80.96071,737.0281
"797",80.78981,737.04126
"798",80.57252,737.05444
"799",80.31861,737.0676
"800",80.05493,737.0808
"801",79.7937,737.094
"802",79.54467,737.1072
"803",79.31518,737.12036
"804",79.11009,737.13354
"805",78.91966,737.1467
"806",78.73899,737.1599
"807",78.56077,737.1731
"808",78.38499,737.1863
"809",78.221405,737.19946
"810",78.07492,737.21265
"811",77.95041,737.2258
"812",77.84787,737.239
"813",77.76486,737.2522
"814",77.68917,737.2654
"815",77.60616,737.27856
"816",77.51583,737.29175
"817",77.41329,737.30493
"818",77.30831,737.3181
"819",77.2375,737.3313
"820",77.27169,737.3445
"821",77.4963,737.35767
"822",77.996796,737.37085
"823",78.81468,737.38403
"824",79.94263,737.3972
"825",81.29275,737.4104
"826",82.73075,737.4236
"827",84.09796,737.43677
"828",85.25765,737.44995
"829",86.117035,737.46313
"830",86.63218,737.4763
"831",86.80797,737.4895
"832",86.693214,737.5027
"833",86.3563,737.51587
"834",85.875336,737.52905
"835",85.30404,737.54224
"836",84.68635,737.5554
"837",84.05646,737.5686
"838",83.44366,737.5818
"839",82.86992,737.595
"840",82.3621,737.60815
"841",81.94949,737.62134
"842",81.64919,737.6345
"843",81.45876,737.6477
"844",81.36843,737.6609
"845",81.356224,737.6741
"846",81.39529,737.68726
"847",81.444115,737.70044
"848",81.48318,737.7136
"849",81.48562,737.7268
"850",81.43191,737.74
"851",81.30984,737.7532
"852",81.12184,737.76636
"853",80.86549,737.77954
"854",80.55787,737.7927
"855",80.21118,737.8059
"856",79.84497,737.8191
"857",79.483635,737.8323
"858",79.13939,737.84546
"859",78.82201,737.85864
"860",78.54368,737.8718
"861",78.30686,737.885
"862",78.101776,737.8982
"863",77.93088,737.9114
"864",77.77951,737.92456
"865",77.65255,737.93774
"866",77.5378,737.9509
"867",77.435265,737.9641
"868",77.34249,737.9773
"869",77.25704,737.9905
"870",77.171585,738.00366
"871",77.0959,738.01685
"872",77.06416,738.03
"873",77.152054,738.0432
"874",77.44991,738.0564
"875",78.05051,738.0696
"876",78.99779,738.08276
"877",80.272224,738.09595
"878",81.778595,738.10913
"879",83.36797,738.1223
"880",84.86214,738.1355
"881",86.12436,738.1487
"882",87.05943,738.16187
"883",87.61852,738.17505
"884",87.818726,738.18823
"885",87.71618,738.2014
"886",87.39147,738.2146
"887",86.9276,738.2278
"888",86.38804,738.24097
"889",85.81186,738.25415
"890",85.223465,738.26733
"891",84.63264,738.2805
"892",84.04913,738.2937
"893",83.49737,738.3069
"894",83.001755,738.32007
"895",82.58915,738.33325
"896",82.262,738.34644
"897",82.022736,738.3596
"898",81.85916,738.3728
"899",81.74685,738.386
"900",81.66628,738.3992
"901",81.59548,738.41235
"902",81.50759,738.42554
"903",81.38064,738.4387
"904",81.21217,738.4519
"905",80.99733,738.4651
"906",80.75807,738.4783
"907",80.516365,738.49146
"908",80.27955,738.50464
"909",80.059814,738.5178
"910",79.85962,738.531
"911",79.66674,738.5442
"912",79.48119,738.5574
"913",79.290764,738.57056
"914",79.097885,738.58374
"915",78.905014,738.5969
"916",78.70725,738.6101
"917",78.504616,738.6233
"918",78.28977,738.6365
"919",78.06271,738.64966
"920",77.81369,738.66284
"921",77.55001,738.676
"922",77.29122,738.6892
"923",77.08858,738.7024
"924",77.04219,738.7156
"925",77.261925,738.72876
"926",77.855194,738.74194
"927",78.870834,738.7551
"928",80.272224,738.7683
"929",81.92996,738.7815
"930",83.64385,738.7947
"931",85.2137,738.80786
"932",86.468605,738.82104
"933",87.32311,738.8342
"934",87.75769,738.8474
"935",87.82117,738.8606
"936",87.59167,738.8738
"937",87.17418,738.88696
"938",86.661476,738.90015
"939",86.13168,738.9133
"940",85.61898,738.9265
"941",85.135574,738.9397
"942",84.65949,738.9529
"943",84.159,738.96606
"944",83.62676,738.97925
"945",83.070114,738.99243
"946",82.51835,739.0056
"947",82.00809,739.0188
"948",81.5613,739.032
"949",81.18288,739.04517
"950",80.86549,739.05835
"951",80.59205,739.07153
"952",80.33326,739.0847
"953",80.06958,739.0979
"954",79.783936,739.1111
"955",79.466545,739.12427
"956",79.10521,739.13745
"957",78.69993,739.15063
"958",78.26536,739.1638
"959",77.806366,739.177
"960",77.34005,739.1902
"961",76.88106,739.20337
"962",76.44404,739.21655
"963",76.03876,739.22974
"964",75.665215,739.2429
"965",75.33074,739.2561
"966",75.03044,739.2693
"967",74.77165,739.2825
"968",74.547035,739.29565
"969",74.35905,739.30884
"970",74.20279,739.322
"971",74.073395,739.3352
"972",73.96109,739.3484
"973",73.85123,739.3616
"974",73.73647,739.37476
"975",73.619286,739.38794
"976",73.52895,739.4011
"977",73.52407,739.4143
"978",73.7145,739.4275
"979",74.2272,739.4407
"980",75.16716,739.45386
"981",76.57099,739.46704
"982",78.382545,739.4802
"983",80.4358,739.4934
"984",82.5037,739.5066
"985",84.351875,739.5198
"986",85.80698,739.53296
"987",86.77867,739.54614
"988",87.26208,739.5593
"989",87.33776,739.5725
"990",87.12047,739.5857
"991",86.73472,739.5989
"992",86.28794,739.61206
"993",85.858246,739.62524
"994",85.47494,739.6384
"995",85.120926,739.6516
"996",84.754715,739.6648
"997",84.33723,739.678
"998",83.844055,739.69116
"999",83.28985,739.70435
"1000",82.701454,739.7175
"1001",82.11795,739.7307
"1002",81.57839,739.7439
"1003",81.109634,739.7571
"1004",80.71656,739.77026
"1005",80.394295,739.78345
"1006",80.12329,739.79663
"1007",79.87915,739.8098
"1008",79.64233,739.823
"1009",79.38842,739.8362
"1010",79.10033,739.84937
"1011",78.77318,739.86255
"1012",78.40452,739.87573
"1013",78.00412,739.8889
"1014",77.574425,739.9021
"1015",77.13252,739.9153
"1016",76.6955,739.92847
"1017",76.2707,739.94165
"1018",75.8703,739.95483
"1019",75.49676,739.968
"1020",75.16228,739.9812
"1021",74.87175,739.9944
"1022",74.62516,740.00757
"1023",74.4152,740.02075
"1024",74.23941,740.03394
"1025",74.090485,740.0471
"1026",73.96109,740.0603
"1027",73.848785,740.0735
"1028",73.75601,740.0867
"1029",73.68032,740.09985
"1030",73.62173,740.11304
"1031",73.57046,740.1262
"1032",73.51675,740.1394
"1033",73.45327,740.1526
"1034",73.375145,740.1658
"1035",73.29214,740.17896
"1036",73.231094,740.19214
"1037",73.255516,740.2053
"1038",73.48501,740.2185
"1039",74.04166,740.2317
"1040",75.028,740.2449
"1041",76.48798,740.25806
"1042",78.35813,740.27124
"1043",80.46021,740.2844
"1044",82.55009,740.2976
"1045",84.39338,740.3108
"1046",85.80942,740.324
"1047",86.72251,740.33716
"1048",87.14732,740.35034
"1049",87.17174,740.3635
"1050",86.922714,740.3767
"1051",86.519875,740.3899
"1052",86.06821,740.4031
"1053",85.626305,740.41626
"1054",85.223465,740.42944
"1055",84.84993,740.4426
"1056",84.473946,740.4558
"1057",84.06378,740.469
"1058",83.60235,740.4822
"1059",83.09453,740.49536
"1060",82.562294,740.50854
"1061",82.039825,740.5217
"1062",81.5613,740.5349
"1063",81.15114,740.5481
"1064",80.814224,740.5613
"1065",80.54322,740.57446
"1066",80.31129,740.58765
"1067",80.096436,740.6008
"1068",79.871826,740.614
"1069",79.61791,740.6272
"1070",79.32494,740.6404
"1071",78.99046,740.65356
"1072",78.61692,740.66675
"1073",78.21408,740.67993
"1074",77.79904,740.6931
"1075",77.38155,740.7063
"1076",76.978714,740.7195
"1077",76.60273,740.73267
"1078",76.25849,740.74585
"1079",75.95331,740.75903
"1080",75.68963,740.7722
"1081",75.46502,740.7854
"1082",75.267265,740.7986
"1083",75.089035,740.81177
"1084",74.92302,740.82495
"1085",74.77165,740.83813
"1086",74.6276,740.8513
"1087",74.49821,740.8645
"1088",74.38346,740.8777
"1089",74.27604,740.89087
"1090",74.1857,740.90405
"1091",74.107574,740.91724
"1092",74.0441,740.9304
"1093",73.985504,740.9436
"1094",73.936676,740.9568
"1095",73.89761,740.97
"1096",73.87564,740.98315
"1097",73.865875,740.99634
"1098",73.863434,741.0095
"1099",73.86099,741.0227
"1100",73.846344,741.0359
"1101",73.831696,741.0491
"1102",73.865875,741.06226
"1103",74.04166,741.07544
"1104",74.48844,741.0886
"1105",75.33074,741.1018
"1106",76.63203,741.115
"1107",78.36057,741.1282
"1108",80.37965,741.14136
"1109",82.47196,741.15454
"1110",84.39826,741.1677
"1111",85.95346,741.1809
"1112",87.02525,741.1941
"1113",87.59899,741.2073
"1114",87.728386,741.22046
"1115",87.51598,741.23364
"1116",87.08873,741.2468
"1117",86.556496,741.26
"1118",86.00717,741.2732
"1119",85.487144,741.2864
"1120",85.01106,741.29956
"1121",84.56672,741.31274
"1122",84.137024,741.3259
"1123",83.702446,741.3391
"1124",83.26299,741.3523
"1125",82.84062,741.3655
"1126",82.45731,741.37866
"1127",82.127716,741.39185
"1128",81.85184,741.405
"1129",81.62478,741.4182
"1130",81.42947,741.4314
"1131",81.25124,741.4446
"1132",81.07057,741.45776
"1133",80.87038,741.47095
"1134",80.64332,741.48413
"1135",80.37476,741.4973
"1136",80.062256,741.5105
"1137",79.71313,741.5237
"1138",79.33959,741.53687
"1139",78.9514,741.55005
"1140",78.57053,741.56323
"1141",78.20676,741.5764
"1142",77.872284,741.5896
"1143",77.57198,741.6028
"1144",77.30831,741.61597
"1145",77.07637,741.62915
"1146",76.86885,741.64233
"1147",76.6833,741.6555
"1148",76.51728,741.6687
"1149",76.37568,741.6819
"1150",76.25117,741.69507
"1151",76.138855,741.70825
"1152",76.033875,741.72144
"1153",75.93622,741.7346
"1154",75.84589,741.7478
"1155",75.76776,741.761
"1156",75.69695,741.7742
"1157",75.63592,741.78735
"1158",75.577324,741.80054
"1159",75.51873,741.8137
"1160",75.45525,741.8269
"1161",75.39666,741.8401
"1162",75.34783,741.8533
"1163",75.30877,741.86646
"1164",75.27459,741.87964
"1165",75.24284,741.8928
"1166",75.22087,741.906
"1167",75.20134,741.9192
"1168",75.18425,741.9324
"1169",75.16716,741.94556
"1170",75.17204,741.95874
"1171",75.23064,741.9719
"1172",75.43328,741.9851
"1173",75.90448,741.9983
"1174",76.75899,742.0115
"1175",78.04562,742.02466
"1176",79.7351,742.03784
"1177",81.68337,742.051
"1178",83.66827,742.0642
"1179",85.46273,742.0774
"1180",86.87877,742.0906
"1181",87.816284,742.10376
"1182",88.25819,742.11694
"1183",88.26063,742.1301
"1184",87.92615,742.1433
"1185",87.37438,742.1565
"1186",86.72007,742.1697
"1187",86.04135,742.18286
"1188",85.384605,742.19604
"1189",84.77913,742.2092
"1190",84.21759,742.2224
"1191",83.71221,742.2356
"1192",83.2752,742.2488
"1193",82.91875,742.26196
"1194",82.66239,742.27515
"1195",82.50614,742.2883
"1196",82.4329,742.3015
"1197",82.41825,742.3147
"1198",82.423134,742.3279
"1199",82.406044,742.34106
"1200",82.340126,742.35425
"1201",82.20828,742.36743
"1202",82.003204,742.3806
"1203",81.739525,742.3938
"1204",81.42214,742.407
"1205",81.07057,742.42017
"1206",80.69459,742.43335
"1207",80.306404,742.44653
"1208",79.91577,742.4597
"1209",79.53979,742.4729
"1210",79.18822,742.4861
"1211",78.86107,742.49927
"1212",78.56809,742.51245
"1213",78.30198,742.52563
"1214",78.065155,742.5388
"1215",77.855194,742.552
"1216",77.679405,742.5652
"1217",77.5256,742.57837
"1218",77.38888,742.59155
"1219",77.26925,742.60474
"1220",77.15938,742.6179
"1221",77.05684,742.6311
"1222",76.96895,742.6443
"1223",76.88594,742.6575
"1224",76.81514,742.67065
"1225",76.75166,742.68384
"1226",76.697945,742.697
"1227",76.646675,742.7102
"1228",76.60273,742.7234
"1229",76.558784,742.7366
"1230",76.51484,742.74976
"1231",76.46845,742.76294
"1232",76.41474,742.7761
"1233",76.35615,742.7893
"1234",76.30976,742.8025
"1235",76.3122,742.8157
"1236",76.436714,742.82886
"1237",76.771194,742.84204
"1238",77.401085,742.8552
"1239",78.37034,742.8684
"1240",79.65453,742.8816
"1241",81.1487,742.8948
"1242",82.69413,742.90796
"1243",84.11017,742.92114
"1244",85.24544,742.9343
"1245",85.997406,742.9475
"1246",86.33677,742.9607
"1247",86.295265,742.9739
"1248",85.94125,742.98706
"1249",85.37484,743.00024
"1250",84.68391,743.0134
"1251",83.946594,743.0266
"1252",83.209274,743.0398
"1253",82.50126,743.053
"1254",81.849396,743.06616
"1255",81.28542,743.07935
"1256",80.84352,743.0925
"1257",80.54078,743.1057
"1258",80.38697,743.1189
"1259",80.36744,743.1321
"1260",80.445564,743.14526
"1261",80.57984,743.15845
"1262",80.726326,743.17163
"1263",80.85817,743.1848
"1264",80.938736,743.198
"1265",80.9485,743.2112
"1266",80.87282,743.22437
"1267",80.71168,743.23755
"1268",80.46998,743.25073
"1269",80.16968,743.2639
"1270",79.82788,743.2771
"1271",79.4641,743.2903
"1272",79.10033,743.30347
"1273",78.746315,743.31665
"1274",78.41184,743.32983
"1275",78.1091,743.343
"1276",77.84787,743.3562
"1277",77.63058,743.3694
"1278",77.454796,743.38257
"1279",77.32296,743.39575
"1280",77.22774,743.40894
"1281",77.1667,743.4221
"1282",77.134964,743.4353
"1283",77.134964,743.4485
"1284",77.16914,743.4617
"1285",77.21553,743.47485
"1286",77.261925,743.48804
"1287",77.296104,743.5012
"1288",77.315636,743.5144
"1289",77.31075,743.5276
"1290",77.28878,743.5408
"1291",77.25948,743.55396
"1292",77.2375,743.56714
"1293",77.279015,743.5803
"1294",77.469444,743.5935
"1295",77.925995,743.6067
"1296",78.71946,743.6199
"1297",79.8645,743.63306
"1298",81.28542,743.64624
"1299",82.85283,743.6594
"1300",84.3885,743.6726
"1301",85.72884,743.6858
"1302",86.7567,743.699
"1303",87.40612,743.71216
"1304",87.674675,743.72534
"1305",87.589226,743.7385
"1306",87.23033,743.7517
"1307",86.68345,743.7649
"1308",86.031586,743.7781
"1309",85.33578,743.79126
"1310",84.63508,743.80444
"1311",83.96124,743.8176
"1312",83.346,743.8308
"1313",82.804,743.844
"1314",82.354774,743.8572
"1315",82.01785,743.87036
"1316",81.79324,743.88354
"1317",81.67361,743.8967
"1318",81.634544,743.9099
"1319",81.651634,743.9231
"1320",81.6907,743.9363
"1321",81.71267,743.94946
"1322",81.6907,743.96265
"1323",81.60525,743.9758
"1324",81.446556,743.989
"1325",81.20973,744.0022
"1326",80.91188,744.0154
"1327",80.56275,744.02856
"1328",80.17944,744.04175
"1329",79.77661,744.05493
"1330",79.36645,744.0681
"1331",78.97337,744.0813
"1332",78.607155,744.0945
"1333",78.28001,744.10767
"1334",77.996796,744.12085
"1335",77.75754,744.13403
"1336",77.5671,744.1472
"1337",77.418175,744.1604
"1338",77.31075,744.1736
"1339",77.24483,744.18677
"1340",77.21309,744.19995
"1341",77.20088,744.21313
"1342",77.196,744.2263
"1343",77.18379,744.2395
"1344",77.15938,744.2527
"1345",77.13252,744.26587
"1346",77.137405,744.27905
"1347",77.261925,744.29224
"1348",77.611046,744.3054
"1349",78.28001,744.3186
"1350",79.31518,744.3318
"1351",80.689705,744.345
"1352",82.303505,744.35815
"1353",83.9881,744.37134
"1354",85.555504,744.3845
"1355",86.854355,744.3977
"1356",87.782104,744.4109
"1357",88.292366,744.4241
"1358",88.39735,744.43726
"1359",88.15564,744.45044
"1360",87.65026,744.4636
"1361",86.98131,744.4768
"1362",86.222015,744.49
"1363",85.44076,744.5032
"1364",84.6717,744.51636
"1365",83.93927,744.52954
"1366",83.265434,744.5427
"1367",82.66239,744.5559
"1368",82.15213,744.5691
"1369",81.74685,744.5823
"1370",81.45388,744.59546
"1371",81.25857,744.60864
"1372",81.15358,744.6218
"1373",81.109634,744.635
"1374",81.09743,744.6482
"1375",81.08034,744.6614
"1376",81.02907,744.67456
"1377",80.91676,744.68774
"1378",80.72877,744.7009
"1379",80.462654,744.7141
"1380",80.12573,744.7273
"1381",79.73266,744.7405
"1382",79.30297,744.75366
"1383",78.8513,744.76685
"1384",78.40208,744.78
"1385",77.97238,744.7932
"1386",77.574425,744.8064
"1387",77.21309,744.8196
"1388",76.895706,744.83276
"1389",76.61738,744.84595
"1390",76.38056,744.85913
"1391",76.17792,744.8723
"1392",76.00702,744.8855
"1393",75.860535,744.8987
"1394",75.733574,744.91187
"1395",75.61883,744.92505
"1396",75.51385,744.93823
"1397",75.43572,744.9514
"1398",75.43084,744.9646
"1399",75.58709,744.9778
"1400",76.016785,744.99097
"1401",76.805374,745.00415
"1402",77.98459,745.01733
"1403",79.52514,745.0305
"1404",81.29275,745.0437
"1405",83.11894,745.0569
"1406",84.81575,745.07007
"1407",86.239105,745.08325
"1408",87.28893,745.09644
"1409",87.92615,745.1096
"1410",88.16052,745.1228
"1411",88.04822,745.136
"1412",87.67712,745.1492
"1413",87.132675,745.16235
"1414",86.48814,745.17554
"1415",85.79477,745.1887
"1416",85.08919,745.2019
"1417",84.39338,745.2151
"1418",83.72686,745.2283
"1419",83.1165,745.24146
"1420",82.58671,745.25464
"1421",82.159454,745.2678
"1422",81.83719,745.281
"1423",81.61257,745.2942
"1424",81.46853,745.3074
"1425",81.38064,745.32056
"1426",81.31472,745.33374
"1427",81.24635,745.3469
"1428",81.146255,745.3601
"1429",80.990005,745.3733
"1430",80.77516,745.3865
"1431",80.49439,745.39966
"1432",80.15503,745.41284
"1433",79.76929,745.426
"1434",79.361565,745.4392
"1435",78.93675,745.4524
"1436",78.5095,745.4656
"1437",78.101776,745.47876
"1438",77.72579,745.49194
"1439",77.38155,745.5051
"1440",77.08125,745.5183
"1441",76.83223,745.5315
"1442",76.6247,745.5447
"1443",76.456245,745.55786
"1444",76.31953,745.57104
"1445",76.20233,745.5842
"1446",76.09491,745.5974
"1447",75.98993,745.6106
"1448",75.88251,745.6238
"1449",75.775085,745.63696
"1450",75.70672,745.65015
"1451",75.74822,745.6633
"1452",76.019226,745.6765
"1453",76.63447,745.6897
"1454",77.6672,745.7029
"1455",79.11742,745.71606
"1456",80.88991,745.72925
"1457",82.81621,745.74243
"1458",84.68635,745.7556
"1459",86.31968,745.7688
"1460",87.59167,745.782
"1461",88.43397,745.79517
"1462",88.849014,745.80835
"1463",88.88808,745.82153
"1464",88.64149,745.8347
"1465",88.1947,745.8479
"1466",87.64294,745.8611
"1467",87.047226,745.87427
"1468",86.44663,745.88745
"1469",85.85092,745.90063
"1470",85.25521,745.9138
"1471",84.65705,745.927
"1472",84.06378,745.9402
"1473",83.48516,745.95337
"1474",82.94316,745.96655
"1475",82.46708,745.97974
"1476",82.05936,745.9929
"1477",81.72732,746.0061
"1478",81.449,746.0193
"1479",81.214615,746.0325
"1480",80.987564,746.04565
"1481",80.74586,746.05884
"1482",80.46021,746.072
"1483",80.12085,746.0852
"1484",79.72289,746.0984
"1485",79.26879,746.1116
"1486",78.77806,746.12476
"1487",78.2678,746.13794
"1488",77.76486,746.1511
"1489",77.281456,746.1643
"1490",76.822464,746.1775
"1491",76.39521,746.1907
"1492",76.00214,746.20386
"1493",75.64568,746.21704
"1494",75.335625,746.2302
"1495",75.071945,746.2434
"1496",74.861984,746.2566
"1497",74.69352,746.2698
"1498",74.55924,746.28296
"1499",74.442055,746.29614
"1500",74.32731,746.3093
"1501",74.21011,746.3225
"1502",74.09537,746.3357
"1503",73.97818,746.3489
"1504",73.89029,746.36206
"1505",73.900055,746.37524
"1506",74.110016,746.3884
"1507",74.64225,746.4016
"1508",75.579765,746.4148
"1509",76.95186,746.428
"1510",78.68528,746.44116
"1511",80.618904,746.45435
"1512",82.547646,746.4675
"1513",84.27863,746.4807
"1514",85.67513,746.4939
"1515",86.65171,746.5071
"1516",87.20836,746.52026
"1517",87.38659,746.53345
"1518",87.27184,746.54663
"1519",86.94957,746.5598
"1520",86.50767,746.573
"1521",86.014496,746.5862
"1522",85.50179,746.59937
"1523",84.97688,746.61255
"1524",84.43244,746.62573
"1525",83.861145,746.6389
"1526",83.26055,746.6521
"1527",82.652626,746.6653
"1528",82.0618,746.67847
"1529",81.52224,746.69165
"1530",81.06325,746.70483
"1531",80.6775,746.718
"1532",80.36256,746.7312
"1533",80.09888,746.7444
"1534",79.85962,746.75757
"1535",79.61303,746.77075
"1536",79.34936,746.78394
"1537",79.0515,746.7971
"1538",78.70725,746.8103
"1539",78.3093,746.8235
"1540",77.872284,746.8367
"1541",77.40597,746.84985
"1542",76.93233,746.86304
"1543",76.470894,746.8762
"1544",76.03876,746.8894
"1545",75.6408,746.9026
"1546",75.27703,746.9158
"1547",74.95232,746.92896
"1548",74.66422,746.94214
"1549",74.4152,746.9553
"1550",74.19791,746.9685
"1551",74.00992,746.9817
"1552",73.848785,746.9949
"1553",73.70718,747.00806
"1554",73.582664,747.02124
"1555",73.48257,747.0344
"1556",73.40688,747.0476
"1557",73.34585,747.0608
"1558",73.29214,747.074
"1559",73.2433,747.08716
"1560",73.19203,747.10034
"1561",73.13588,747.1135
"1562",73.08217,747.1267
"1563",73.0309,747.1399
"1564",72.98695,747.1531
"1565",72.96498,747.16626
"1566",73.023575,747.17944
"1567",73.255516,747.1926
"1568",73.780426,747.2058
"1569",74.70573,747.219
"1570",76.05829,747.2322
"1571",77.789276,747.24536
"1572",79.742424,747.25854
"1573",81.71755,747.2717
"1574",83.50713,747.2849
"1575",84.964676,747.2981
"1576",86.00229,747.3113
"1577",86.598,747.32446
"1578",86.79576,747.33765
"1579",86.676125,747.3508
"1580",86.329445,747.364
"1581",85.84848,747.3772
"1582",85.3016,747.3904
"1583",84.72541,747.40356
"1584",84.13214,747.41675
"1585",83.53155,747.42993
"1586",82.94072,747.4431
"1587",82.37675,747.4563
"1588",81.866486,747.4695
"1589",81.42947,747.48267
"1590",81.08034,747.49585
"1591",80.816666,747.50903
"1592",80.62623,747.5222
"1593",80.49195,747.5354
"1594",80.394295,747.5486
"1595",80.29664,747.56177
"1596",80.16724,747.57495
"1597",79.98657,747.58813
"1598",79.744865,747.6013
"1599",79.44213,747.6145
"1600",79.08812,747.6277
"1601",78.692604,747.64087
"1602",78.28001,747.65405
"1603",77.8674,747.66724
"1604",77.471886,747.6804
"1605",77.11055,747.6936
"1606",76.78584,747.7068
"1607",76.50019,747.72
"1608",76.24872,747.73315
"1609",76.02167,747.74634
"1610",75.81659,747.7595
"1611",75.62615,747.7727
"1612",75.45525,747.7859
"1613",75.301445,747.7991
"1614",75.16716,747.81226
"1615",75.054855,747.82544
"1616",74.96208,747.8386
"1617",74.88396,747.8518
"1618",74.827805,747.865
"1619",74.793625,747.8782
"1620",74.76677,747.89136
"1621",74.75456,747.90454
"1622",74.74967,747.9177
"1623",74.74723,747.9309
"1624",74.73991,747.9441
"1625",74.7277,747.9573
"1626",74.71061,747.97046
"1627",74.67887,747.98364
"1628",74.64225,747.9968
"1629",74.60807,748.01
"1630",74.61051,748.0232
"1631",74.71793,748.0364
"1632",75.03044,748.04956
"1633",75.64568,748.06274
"1634",76.63691,748.0759
"1635",78.00412,748.0891
"1636",79.6643,748.1023
"1637",81.463646,748.1155
"1638",83.20683,748.12866
"1639",84.715645,748.14185
"1640",85.86313,748.155
"1641",86.58579,748.1682
"1642",86.88365,748.1814
"1643",86.81529,748.1946
"1644",86.46128,748.20776
"1645",85.909515,748.22095
"1646",85.24544,748.23413
"1647",84.52033,748.2473
"1648",83.78058,748.2605
"1649",83.06523,748.2737
"1650",82.41093,748.28687
"1651",81.84451,748.30005
"1652",81.39773,748.31323
"1653",81.08522,748.3264
"1654",80.90944,748.3396
"1655",80.850845,748.3528
"1656",80.88014,748.36597
"1657",80.95827,748.37915
"1658",81.03883,748.39233
"1659",81.08034,748.4055
"1660",81.058365,748.4187
"1661",80.95094,748.4319
"1662",80.76051,748.44507
"1663",80.49439,748.45825
"1664",80.17212,748.47144
"1665",79.81079,748.4846
"1666",79.42748,748.4978
"1667",79.046616,748.511
"1668",78.68528,748.5242
"1669",78.34348,748.53735
"1670",78.03586,748.55054
"1671",77.75998,748.5637
"1672",77.51339,748.5769
"1673",77.30343,748.5901
"1674",77.12764,748.6033
"1675",76.9836,748.61646
"1676",76.86641,748.62964
"1677",76.773636,748.6428
"1678",76.69306,748.656
"1679",76.61982,748.6692
"1680",76.558784,748.6824
"1681",76.5124,748.69556
"1682",76.47578,748.70874
"1683",76.45136,748.7219
"1684",76.439156,748.7351
"1685",76.43183,748.7483
"1686",76.422066,748.7615
"1687",76.41474,748.77466
"1688",76.40986,748.78784
"1689",76.402534,748.801
"1690",76.387886,748.8142
"1691",76.36591,748.8274
"1692",76.33906,748.8406
"1693",76.32197,748.85376
"1694",76.36103,748.86694
"1695",76.54658,748.8801
"1696",76.9836,748.8933
"1697",77.74288,748.9065
"1698",78.853745,748.9197
"1699",80.26734,748.93286
"1700",81.85916,748.94604
"1701",83.46319,748.9592
"1702",84.90608,748.9724
"1703",86.063324,748.9856
"1704",86.854355,748.9988
"1705",87.24742,749.01196
"1706",87.2694,749.02515
"1707",86.98131,749.0383
"1708",86.45884,749.0515
"1709",85.77524,749.0647
"1710",84.998856,749.0779
"1711",84.18829,749.09106
"1712",83.39727,749.10425
"1713",82.66483,749.11743
"1714",82.039825,749.1306
"1715",81.55154,749.1438
"1716",81.22194,749.157
"1717",81.05104,749.17017
"1718",81.024185,749.18335
"1719",81.10231,749.19653
"1720",81.24391,749.2097
"1721",81.40017,749.2229
"1722",81.52712,749.2361
"1723",81.59304,749.24927
"1724",81.583275,749.26245
"1725",81.4905,749.27563
"1726",81.31472,749.2888
"1727",81.06325,749.302
"1728",80.75563,749.3152
"1729",80.413826,749.32837
"1730",80.05249,749.34155
"1731",79.693596,749.35474
"1732",79.34692,749.3679
"1733",79.01976,749.3811
"1734",78.71458,749.3943
"1735",78.44358,749.4075
"1736",78.20676,749.42065
"1737",78.00656,749.43384
"1738",77.83566,749.447
"1739",77.696495,749.4602
"1740",77.576866,749.4734
"1741",77.47677,749.4866
"1742",77.39376,749.49976
"1743",77.32296,749.51294
"1744",77.264366,749.5261
"1745",77.21309,749.5393
"1746",77.16426,749.5525
"1747",77.11299,749.5657
"1748",77.06172,749.57886
"1749",77.00557,749.59204
"1750",76.93721,749.6052
"1751",76.86397,749.6184
"1752",76.80293,749.6316
"1753",76.77852,749.6448
"1754",76.87129,749.65796
"1755",77.16914,749.67114
"1756",77.7551,749.6843
"1757",78.66819,749.6975
"1758",79.888916,749.7107
"1759",81.32693,749.7239
"1760",82.84306,749.73706
"1761",84.27863,749.75024
"1762",85.49203,749.7634
"1763",86.38804,749.7766
"1764",86.91539,749.7898
"1765",87.07408,749.803
"1766",86.90074,749.81616
"1767",86.45396,749.82935
"1768",85.80698,749.8425
"1769",85.04036,749.8557
"1770",84.22003,749.8689
"1771",83.41436,749.8821
"1772",82.6746,749.89526
"1773",82.04959,749.90845
"1774",81.57107,749.92163
"1775",81.25613,749.9348
"1776",81.10231,749.948
"1777",81.094986,749.9612
"1778",81.19508,749.97437
"1779",81.35378,749.98755
"1780",81.532005,750.00073
"1781",81.68337,750.0139
"1782",81.77615,750.0271
"1783",81.78348,750.0403
"1784",81.70046,750.05347
"1785",81.52468,750.06665
"1786",81.27322,750.07983
"1787",80.96315,750.093
"1788",80.61646,750.1062
"1789",80.257576,750.1194
"1790",79.89624,750.13257
"1791",79.53979,750.14575
"1792",79.200424,750.15894
"1793",78.887924,750.1721
"1794",78.60227,750.1853
"1795",78.35081,750.1985
"1796",78.12863,750.2117
"1797",77.93332,750.22485
"1798",77.75998,750.23804
"1799",77.60616,750.2512
"1800",77.469444,750.2644
"1801",77.347374,750.2776
"1802",77.239944,750.2908
"1803",77.13985,750.30396
"1804",77.04707,750.31714
"1805",76.95918,750.3303
"1806",76.876175,750.3435
"1807",76.79317,750.3567
"1808",76.70527,750.3699
"1809",76.61982,750.38306
"1810",76.558784,750.39624
"1811",76.59052,750.4094
"1812",76.81758,750.4226
"1813",77.3547,750.4358
"1814",78.28977,750.449
"1815",79.635,750.46216
"1816",81.31716,750.47534
"1817",83.1873,750.4885
"1818",85.04524,750.5017
"1819",86.70054,750.5149
"1820",88.00427,750.5281
"1821",88.868546,750.54126
"1822",89.26894,750.55444
"1823",89.24208,750.5676
"1824",88.86366,750.5808
"1825",88.22644,750.594
"1826",87.430534,750.6072
"1827",86.556496,750.62036
"1828",85.662926,750.63354
"1829",84.79622,750.6467
"1830",83.9881,750.6599
"1831",83.27276,750.6731
"1832",82.6746,750.6863
"1833",82.20828,750.69946
"1834",81.883575,750.71265
"1835",81.685814,750.7258
"1836",81.58816,750.739
"1837",81.55398,750.7522
"1838",81.54665,750.7654
"1839",81.52468,750.77856
"1840",81.45632,750.79175
"1841",81.322044,750.80493
"1842",81.1194,750.8181
"1843",80.84596,750.8313
"1844",80.50416,750.8445
"1845",80.10864,750.85767
"1846",79.67162,750.87085
"1847",79.202866,750.88403
"1848",78.71702,750.8972
"1849",78.23605,750.9104
"1850",77.77219,750.9236
"1851",77.34493,750.93677
"1852",76.964066,750.94995
"1853",76.63203,750.96313
"1854",76.34638,750.9763
"1855",76.09979,750.9895
"1856",75.88251,751.0027
"1857",75.684746,751.01587
"1858",75.511406,751.02905
"1859",75.36004,751.04224
"1860",75.21843,751.0554
"1861",75.08171,751.0686
"1862",74.94255,751.0818
"1863",74.813156,751.095
"1864",74.69108,751.10815
"1865",74.57877,751.12134
"1866",74.48356,751.1345
"1867",74.4152,751.1477
"1868",74.39567,751.1609
"1869",74.510414,751.1741
"1870",74.86931,751.18726
"1871",75.58709,751.20044
"1872",76.71992,751.2136
"1873",78.260475,751.2268
"1874",80.09888,751.24
"1875",82.05936,751.2532
"1876",83.931946,751.26636
"1877",85.53109,751.27954
"1878",86.727394,751.2927
"1879",87.45495,751.3059
"1880",87.71862,751.3191
"1881",87.57702,751.3323
"1882",87.12291,751.34546
"1883",86.47105,751.35864
"1884",85.714195,751.3718
"1885",84.92561,751.385
"1886",84.159,751.3982
"1887",83.4461,751.4114
"1888",82.804,751.42456
"1889",82.2449,751.43774
"1890",81.78348,751.4509
"1891",81.42214,751.4641
"1892",81.17067,751.4773
"1893",81.02174,751.4905
"1894",80.96071,751.50366
"1895",80.95827,751.51685
"1896",80.97536,751.53
"1897",80.98024,751.5432
"1898",80.93385,751.5564
"1899",80.82155,751.5696
"1900",80.63355,751.58276
"1901",80.377205,751.59595
"1902",80.059814,751.60913
"1903",79.70092,751.6223
"1904",79.31518,751.6355
"1905",78.922104,751.6487
"1906",78.53147,751.66187
"1907",78.153046,751.67505
"1908",77.80148,751.68823
"1909",77.47677,751.7014
"1910",77.18135,751.7146
"1911",76.92256,751.7278
"1912",76.6955,751.74097
"1913",76.50019,751.75415
"1914",76.334175,751.76733
"1915",76.192566,751.7805
"1916",76.07294,751.7937
"1917",75.97284,751.8069
"1918",75.88739,751.82007
"1919",75.81903,751.83325
"1920",75.76044,751.84644
"1921",75.70672,751.8596
"1922",75.648125,751.8728
"1923",75.579765,751.886
"1924",75.4992,751.8992
"1925",75.423515,751.91235
"1926",75.386894,751.92554
"1927",75.47967,751.9387
"1928",75.81171,751.9519
"1929",76.49531,751.9651
"1930",77.60616,751.9783
"1931",79.13451,751.99146
"1932",80.97536,752.00464
"1933",82.9456,752.0178
"1934",84.823074,752.031
"1935",86.41245,752.0442
"1936",87.5819,752.0574
"1937",88.27039,752.07056
"1938",88.49256,752.08374
"1939",88.31434,752.0969
"1940",87.82605,752.1101
"1941",87.13512,752.1233
"1942",86.33433,752.1365
"1943",85.489586,752.14966
"1944",84.65217,752.16284
"1945",83.861145,752.176
"1946",83.13115,752.1892
"1947",82.48417,752.2024
"1948",81.94217,752.2156
"1949",81.52224,752.22876
"1950",81.22682,752.24194
"1951",81.05104,752.2551
"1952",80.970474,752.2683
"1953",80.95827,752.2815
"1954",80.96315,752.2947
"1955",80.95094,752.30786
"1956",80.89235,752.32104
"1957",80.765396,752.3342
"1958",80.56519,752.3474
"1959",80.2942,752.3606
"1960",79.974365,752.3738
"1961",79.61791,752.38696
"1962",79.23949,752.40015
"1963",78.853745,752.4133
"1964",78.470436,752.4265
"1965",78.10666,752.4397
"1966",77.76486,752.4529
"1967",77.45968,752.46606
"1968",77.188675,752.47925
"1969",76.95186,752.49243
"1970",76.74433,752.5056
"1971",76.56367,752.5188
"1972",76.402534,752.532
"1973",76.25849,752.54517
"1974",76.12909,752.55835
"1975",76.01434,752.57153
"1976",75.911804,752.5847
"1977",75.82147,752.5979
"1978",75.73113,752.6111
"1979",75.64324,752.62427
"1980",75.55291,752.63745
"1981",75.46258,752.65063
"1982",75.369804,752.6638
"1983",75.28191,752.677
"1984",75.20134,752.6902
"1985",75.15251,752.70337
"1986",75.18669,752.71655
"1987",75.3991,752.72974
"1988",75.90692,752.7429
"1989",76.79805,752.7561
"1990",78.09445,752.7693
"1991",79.73266,752.7825
"1992",81.56374,752.79565
"1993",83.38506,752.80884
"1994",84.996414,752.822
"1995",86.239105,752.8352
"1996",87.030136,752.8484
"1997",87.35729,752.8616
"1998",87.26208,752.87476
"1999",86.83238,752.88794
"2000",86.18051,752.9011
"2001",85.401695,752.9143
"2002",84.578926,752.9275
"2003",83.775696,752.9407
"2004",83.02861,752.95386
"2005",82.36454,752.96704
"2006",81.79813,752.9802
"2007",81.356224,752.9934
"2008",81.058365,753.0066
"2009",80.89723,753.0198
"2010",80.86061,753.03296
"2011",80.91188,753.04614
"2012",81.007095,753.0593
"2013",81.10475,753.0725
"2014",81.16823,753.0857
"2015",81.17555,753.0989
"2016",81.109634,753.11206
"2017",80.96315,753.12524
"2018",80.73609,753.1384
"2019",80.4358,753.1516
"2020",80.08179,753.1648
"2021",79.693596,753.178
"2022",79.29809,753.19116
"2023",78.91234,753.20435
"2024",78.54612,753.2175
"2025",78.2092,753.2307
"2026",77.89914,753.2439
"2027",77.61349,753.2571
"2028",77.35226,753.27026
"2029",77.120316,753.28345
"2030",76.91524,753.29663
"2031",76.73945,753.3098
"2032",76.59052,753.323
"2033",76.470894,753.3362
"2034",76.3708,753.34937
"2035",76.29023,753.36255
"2036",76.21942,753.37573
"2037",76.155945,753.3889
"2038",76.09979,753.4021
"2039",76.04608,753.4153
"2040",75.98749,753.42847
"2041",75.92645,753.44165
"2042",75.85321,753.45483
"2043",75.78729,753.468
"2044",75.772644,753.4812
"2045",75.90448,753.4944
"2046",76.28779,753.50757
"2047",77.01778,753.52075
"2048",78.118866,753.53394
"2049",79.54955,753.5471
"2050",81.17555,753.5603
"2051",82.81865,753.5735
"2052",84.29572,753.5867
"2053",85.46029,753.59985
"2054",86.2269,753.61304
"2055",86.5687,753.6262
"2056",86.51499,753.6394
"2057",86.134125,753.6526
"2058",85.521324,753.6658
"2059",84.76936,753.67896
"2060",83.95636,753.69214
"2061",83.140915,753.7053
"2062",82.36942,753.7185
"2063",81.671165,753.7317
"2064",81.08278,753.7449
"2065",80.63111,753.75806
"2066",80.343025,753.77124
"2067",80.218506,753.7844
"2068",80.23804,753.7976
"2069",80.365,753.8108
"2070",80.552986,753.824
"2071",80.75075,753.83716
"2072",80.90456,753.85034
"2073",80.98268,753.8635
"2074",80.96315,753.8767
"2075",80.84596,753.8899
"2076",80.63355,753.9031
"2077",80.35035,753.91626
"2078",80.01587,753.92944
"2079",79.656975,753.9426
"2080",79.28832,753.9558
"2081",78.922104,753.969
"2082",78.56809,753.9822
"2083",78.238495,753.99536
"2084",77.943085,754.00854
"2085",77.696495,754.0217
"2086",77.49386,754.0349
"2087",77.34005,754.0481
"2088",77.22041,754.0613
"2089",77.12276,754.07446
"2090",77.02998,754.08765
"2091",76.93965,754.1008
"2092",76.84688,754.114
"2093",76.749214,754.1272
"2094",76.646675,754.1404
"2095",76.53681,754.15356
"2096",76.422066,754.16675
"2097",76.32197,754.17993
"2098",76.28535,754.1931
"2099",76.39033,754.2063
"2100",76.732124,754.2195
"2101",77.383995,754.23267
"2102",78.37034,754.24585
"2103",79.65209,754.25903
"2104",81.11696,754.2722
"2105",82.60624,754.2854
"2106",83.95148,754.2986
"2107",85.015945,754.31177
"2108",85.71908,754.32495
"2109",86.03403,754.33813
"2110",85.98276,754.3513
"2111",85.628746,754.3645
"2112",85.05501,754.3777
"2113",84.34211,754.39087
"2114",83.55596,754.40405
"2115",82.74784,754.41724
"2116",81.969025,754.4304
"2117",81.26589,754.4436
"2118",80.67506,754.4568
"2119",80.233154,754.47
"2120",79.95972,754.48315
"2121",79.84985,754.49634
"2122",79.88159,754.5095
"2123",80.01587,754.5227
"2124",80.201416,754.5359
"2125",80.38941,754.5491
"2126",80.54078,754.56226
"2127",80.621346,754.57544
"2128",80.61402,754.5886
"2129",80.51392,754.6018
"2130",80.325935,754.615
"2131",80.062256,754.6282
"2132",79.742424,754.64136
"2133",79.39086,754.65454
"2134",79.029526,754.6677
"2135",78.67307,754.6809
"2136",78.33616,754.6941
"2137",78.028534,754.7073
"2138",77.7551,754.72046
"2139",77.52071,754.73364
"2140",77.32784,754.7468
"2141",77.17891,754.76
"2142",77.069046,754.7732
"2143",76.978714,754.7864
"2144",76.90547,754.79956
"2145",76.839554,754.81274
"2146",76.78096,754.8259
"2147",76.7248,754.8391
"2148",76.67597,754.8523
"2149",76.66621,754.8655
"2150",76.76875,754.87866
"2151",77.083694,754.89185
"2152",77.70626,754.905
"2153",78.69993,754.9182
"2154",80.05249,754.9314
"2155",81.6614,754.9446
"2156",83.370415,754.95776
"2157",84.996414,754.97095
"2158",86.37827,754.98413
"2159",87.40368,754.9973
"2160",88.01892,755.0105
"2161",88.22888,755.0237
"2162",88.07263,755.03687
"2163",87.63561,755.05005
"2164",87.00816,755.06323
"2165",86.278175,755.0764
"2166",85.49691,755.0896
"2167",84.71809,755.1028
"2168",83.97833,755.11597
"2169",83.29717,755.12915
"2170",82.69901,755.14233
"2171",82.21805,755.1555
"2172",81.86893,755.1687
"2173",81.65896,755.1819
"2174",81.566185,755.19507
"2175",81.56863,755.20825
"2176",81.62722,755.22144
"2177",81.69558,755.2346
"2178",81.72976,755.2478
"2179",81.69314,755.261
"2180",81.58083,755.2742
"2181",81.3782,755.28735
"2182",81.08766,755.30054
"2183",80.72877,755.3137
"2184",80.32105,755.3269
"2185",79.88159,755.3401
"2186",79.43481,755.3533
"2187",79.00511,755.36646
"2188",78.60471,755.37964
"2189",78.24582,755.3928
"2190",77.93088,755.406
"2191",77.662315,755.4192
"2192",77.43038,755.4324
"2193",77.23506,755.44556
"2194",77.06416,755.45874
"2195",76.91768,755.4719
"2196",76.78096,755.4851
"2197",76.65644,755.4983
"2198",76.541695,755.5115
"2199",76.4416,755.52466
"2200",76.39765,755.53784
"2201",76.49531,755.551
"2202",76.84444,755.5642
"2203",77.53536,755.5774
"2204",78.6218,755.5906
"2205",80.06958,755.60376
"2206",81.76639,755.61694
"2207",83.529106,755.6301
"2208",85.17464,755.6433
"2209",86.54429,755.6565
"2210",87.53063,755.6697
"2211",88.09216,755.68286
"2212",88.24597,755.69604
"2213",88.04822,755.7092
"2214",87.59655,755.7224
"2215",86.98619,755.7356
"2216",86.30015,755.7488
"2217",85.58724,755.76196
"2218",84.88167,755.77515
"2219",84.19806,755.7883
"2220",83.546196,755.8015
"2221",82.950485,755.8147
"2222",82.43046,755.8279
"2223",82.00809,755.84106
"2224",81.69314,755.85425
"2225",81.48806,755.86743
"2226",81.36599,755.8806
"2227",81.31228,755.8938
"2228",81.290306,755.907
"2229",81.270775,755.92017
"2230",81.21706,755.93335
"2231",81.10719,755.94653
"2232",80.91676,755.9597
"2233",80.64576,755.9729
"2234",80.306404,755.9861
"2235",79.90845,755.99927
"2236",79.47387,756.01245
"2237",79.027084,756.02563
"2238",78.58274,756.0388
"2239",78.15793,756.052
"2240",77.7673,756.0652
"2241",77.418175,756.07837
"2242",77.11299,756.09155
"2243",76.84932,756.10474
"2244",76.6247,756.1179
"2245",76.42939,756.1311
"2246",76.26093,756.1443
"2247",76.121765,756.1575
"2248",76.016785,756.17065
"2249",75.9411,756.18384
"2250",75.90936,756.197
"2251",75.97284,756.2102
"2252",76.224304,756.2234
"2253",76.771194,756.2366
"2254",77.70382,756.24976
"2255",79.04173,756.26294
"2256",80.719,756.2761
"2257",82.58427,756.2893
"2258",84.43244,756.3025
"2259",86.07065,756.3157
"2260",87.35241,756.32886
"2261",88.20691,756.34204
"2262",88.62684,756.3552
"2263",88.6659,756.3684
"2264",88.40467,756.3816
"2265",87.94568,756.3948
"2266",87.38415,756.40796
"2267",86.77867,756.42114
"2268",86.16342,756.4343
"2269",85.55306,756.4475
"2270",84.945145,756.4607
"2271",84.33967,756.4739
"2272",83.75128,756.48706
"2273",83.20195,756.50024
"2274",82.7161,756.5134
"2275",82.31327,756.5266
"2276",81.988556,756.5398
"2277",81.72732,756.553
"2278",81.50759,756.56616
"2279",81.30251,756.57935
"2280",81.08766,756.5925
"2281",80.83864,756.6057
"2282",80.54566,756.6189
"2283",80.198975,756.6321
"2284",79.798584,756.64526
"2285",79.35424,756.65845
"2286",78.87816,756.67163
"2287",78.38987,756.6848
"2288",77.89914,756.698
"2289",77.4255,756.7112
"2290",76.981155,756.72437
"2291",76.57099,756.73755
"2292",76.19745,756.75073
"2293",75.86786,756.7639
"2294",75.58221,756.7771
"2295",75.34051,756.7903
"2296",75.13542,756.80347
"2297",74.966965,756.81665
"2298",74.81804,756.82983
"2299",74.683754,756.843
"2300",74.55192,756.8562
"2301",74.42252,756.8694
"2302",74.288246,756.88257
"2303",74.14908,756.89575
"2304",74.019684,756.90894
"2305",73.94644,756.9221
"2306",74.01724,756.9353
"2307",74.35905,756.9485
"2308",75.10368,756.9617
"2309",76.334175,756.97485
"2310",78.04074,756.98804
"2311",80.1062,757.0012
"2312",82.320595,757.0144
"2313",84.43,757.0276
"2314",86.222015,757.0408
"2315",87.55016,757.05396
"2316",88.36561,757.06714
"2317",88.707405,757.0803
"2318",88.673225,757.0935
"2319",88.38514,757.1067
"2320",87.96277,757.1199
"2321",87.49645,757.13306
"2322",87.03746,757.14624
"2323",86.59312,757.1594
"2324",86.13901,757.1726
"2325",85.64095,757.1858
"2326",85.07454,757.199
"2327",84.43244,757.21216
"2328",83.73174,757.22534
"2329",83.01396,757.2385
"2330",82.33036,757.2517
"2331",81.71267,757.2649
"2332",81.18532,757.2781
"2333",80.75075,757.29126
"2334",80.38941,757.30444
"2335",80.07202,757.3176
"2336",79.76929,757.3308
"2337",79.45434,757.344
"2338",79.10277,757.3572
"2339",78.709694,757.37036
"2340",78.2678,757.38354
"2341",77.78439,757.3967
"2342",77.27169,757.4099
"2343",76.74433,757.4231
"2344",76.226746,757.4363
"2345",75.74822,757.44946
"2346",75.31121,757.46265
"2347",74.91814,757.4758
"2348",74.57145,757.489
"2349",74.25895,757.5022
"2350",73.968414,757.5154
"2351",73.69985,757.52856
"2352",73.460594,757.54175
"2353",73.248184,757.55493
"2354",73.06264,757.5681
"2355",72.89906,757.5813
"2356",72.75502,757.5945
"2357",72.62318,757.60767
"2358",72.50111,757.62085
"2359",72.3888,757.63403
"2360",72.288704,757.6472
"2361",72.200806,757.6604
"2362",72.12024,757.6736
"2363",72.044556,757.68677
"2364",71.98108,757.69995
"2365",71.92737,757.71313
"2366",71.888306,757.7263
"2367",71.85657,757.7395
"2368",71.834595,757.7527
"2369",71.8053,757.76587
"2370",71.783325,757.77905
"2371",71.79065,757.79224
"2372",71.89563,757.8054
"2373",72.217896,757.8186
"2374",72.89906,757.8318
"2375",74.056305,757.845
"2376",75.74578,757.85815
"2377",77.90158,757.87134
"2378",80.34547,757.8845
"2379",82.81621,757.8977
"2380",85.050125,757.9109
"2381",86.83971,757.9241
"2382",88.07019,757.93726
"2383",88.74647,757.95044
"2384",88.953995,757.9636
"2385",88.81972,757.9768
"2386",88.49256,757.99
"2387",88.094604,758.0032
"2388",87.69909,758.01636
"2389",87.33776,758.02954
"2390",86.99107,758.0427
"2391",86.61753,758.0559
"2392",86.170746,758.0691
"2393",85.62142,758.0823
"2394",84.972,758.09546
"2395",84.2591,758.10864
"2396",83.53887,758.1218
"2397",82.87236,758.135
"2398",82.29618,758.1482
"2399",81.82498,758.1614
"2400",81.45388,758.17456
"2401",81.15114,758.18774
"2402",80.8777,758.2009
"2403",80.601814,758.2141
"2404",80.289314,758.2273
"2405",79.920654,758.2405
"2406",79.49828,758.25366
"2407",79.03197,758.26685
"2408",78.53391,758.28
"2409",78.03342,758.2932
"2410",77.54269,758.3064
"2411",77.07881,758.3196
"2412",76.64179,758.33276
"2413",76.241394,758.34595
"2414",75.877625,758.35913
"2415",75.560234,758.3723
"2416",75.2868,758.3855
"2417",75.052414,758.3987
"2418",74.847336,758.41187
"2419",74.666664,758.42505
"2420",74.50553,758.43823
"2421",74.356606,758.4514
"2422",74.22232,758.4646
"2423",74.10513,758.4778
"2424",74.005035,758.49097
"2425",73.9147,758.50415
"2426",73.83414,758.51733
"2427",73.76578,758.5305
"2428",73.70962,758.5437
"2429",73.66079,758.5569
"2430",73.616844,758.57007
"2431",73.5729,758.58325
"2432",73.531395,758.59644
"2433",73.497215,758.6096
"2434",73.477684,758.6228
"2435",73.4728,758.636
"2436",73.4728,758.6492
"2437",73.477684,758.66235
"2438",73.5021,758.67554
"2439",73.53384,758.6887
"2440",73.531395,758.7019
"2441",73.40688,758.7151
"2442",73.08461,758.7283
"2443",72.515755,758.74146
"2444",71.73449,758.75464
"2445",70.887314,758.7678
"2446",70.21591,758.781
"2447",69.98886,758.7942
"2448",70.41123,758.8074
"2449",71.59289,758.82056
"2450",73.5021,758.83374
"2451",75.999695,758.8469
"2452",78.84642,758.8601
"2453",81.72976,758.8733
"2454",84.351875,758.8865
"2455",86.45396,758.89966
"2456",87.86511,758.91284
"2457",88.52186,758.926
"2458",88.49256,758.9392
"2459",87.93103,758.9524
"2460",87.064316,758.9656
"2461",86.16586,758.97876
"2462",85.435875,758.99194
"2463",84.945145,759.0051
"2464",84.65461,759.0183
"2465",84.491035,759.0315
"2466",84.3592,759.0447
"2467",84.1712,759.05786
"2468",83.92706,759.07104
"2469",83.70733,759.0842
"2470",83.60967,759.0974
"2471",83.67315,759.1106
"2472",83.90997,759.1238
"2473",84.24689,759.13696
"2474",84.576485,759.15015
"2475",84.76936,759.1633
"2476",84.735176,759.1765
"2477",84.46418,759.1897
"2478",84.01251,759.2029
"2479",83.46563,759.21606
"2480",82.88457,759.22925
"2481",82.29862,759.24243
"2482",81.71267,759.2556
"2483",81.14137,759.2688
"2484",80.60914,759.282
"2485",80.15259,759.29517
"2486",79.781494,759.30835
"2487",79.48608,759.32153
"2488",79.237045,759.3347
"2489",78.995346,759.3479
"2490",78.73167,759.3611
"2491",78.43137,759.37427
"2492",78.116425,759.38745
"2493",77.80881,759.40063
"2494",77.53536,759.4138
"2495",77.30099,759.427
"2496",77.10567,759.4402
"2497",76.94209,759.45337
"2498",76.805374,759.46655
"2499",76.6833,759.47974
"2500",76.56855,759.4929
"2501",76.470894,759.5061
"2502",76.39033,759.5193
"2503",76.33173,759.5325
"2504",76.27802,759.54565
"2505",76.22186,759.55884
"2506",76.15839,759.572
"2507",76.07782,759.5852
"2508",75.982605,759.5984
"2509",75.88983,759.6116
"2510",75.81903,759.62476
"2511",75.775085,759.63794
"2512",75.755554,759.6511
"2513",75.736015,759.6643
"2514",75.70428,759.6775
"2515",75.65545,759.6907
"2516",75.6115,759.70386
"2517",75.63348,759.71704
"2518",75.83612,759.7302
"2519",76.34638,759.7434
"2520",77.27169,759.7566
"2521",78.64622,759.7698
"2522",80.42115,759.78296
"2523",82.44511,759.79614
"2524",84.49592,759.8093
"2525",86.34409,759.8225
"2526",87.80896,759.8357
"2527",88.7831,759.8489
"2528",89.25674,759.86206
"2529",89.29092,759.87524
"2530",88.990616,759.8884
"2531",88.47791,759.9016
"2532",87.86023,759.9148
"2533",87.201035,759.928
"2534",86.54185,759.94116
"2535",85.90463,759.95435
"2536",85.30404,759.9675
"2537",84.74738,759.9807
"2538",84.2298,759.9939
"2539",83.76105,760.0071
"2540",83.346,760.02026
"2541",82.99199,760.03345
"2542",82.69901,760.04663
"2543",82.4744,760.0598
"2544",82.29862,760.073
"2545",82.15213,760.0862
"2546",81.99588,760.09937
"2547",81.81033,760.11255
"2548",81.57595,760.12573
"2549",81.290306,760.1389
"2550",80.955826,760.1521
"2551",80.587166,760.1653
"2552",80.20386,760.17847
"2553",79.82056,760.19165
"2554",79.44457,760.20483
"2555",79.078354,760.218
"2556",78.729225,760.2312
"2557",78.38987,760.2444
"2558",78.06271,760.25757
"2559",77.75021,760.27075
"2560",77.46212,760.28394
"2561",77.19112,760.2971
"2562",76.929886,760.3103
"2563",76.67353,760.3235
"2564",76.42695,760.3367
"2565",76.192566,760.34985
"2566",75.9704,760.36304
"2567",75.757996,760.3762
"2568",75.560234,760.3894
"2569",75.369804,760.4026
"2570",75.18913,760.4158
"2571",75.020676,760.42896
"2572",74.86931,760.44214
"2573",74.72526,760.4553
"2574",74.5861,760.4685
"2575",74.461586,760.4817
"2576",74.356606,760.4949
"2577",74.28092,760.50806
"2578",74.24429,760.52124
"2579",74.23941,760.5344
"2580",74.246735,760.5476
"2581",74.249176,760.5608
"2582",74.2272,760.574
"2583",74.1857,760.58716
"2584",74.14908,760.60034
"2585",74.16861,760.6135
"2586",74.31266,760.6267
"2587",74.69108,760.6399
"2588",75.403984,760.6531
"2589",76.52705,760.66626
"2590",78.065155,760.67944
"2591",79.95239,760.6926
"2592",82.0325,760.7058
"2593",84.09308,760.719
"2594",85.92172,760.7322
"2595",87.35485,760.74536
"2596",88.292366,760.75854
"2597",88.72694,760.7717
"2598",88.71717,760.7849
"2599",88.35584,760.7981
"2600",87.765015,760.8113
"2601",87.047226,760.82446
"2602",86.29038,760.83765
"2603",85.54574,760.8508
"2604",84.857254,760.864
"2605",84.242004,760.8772
"2606",83.70977,760.8904
"2607",83.25567,760.90356
"2608",82.88701,760.91675
"2609",82.60624,760.92993
"2610",82.41093,760.9431
"2611",82.2913,760.9563
"2612",82.230255,760.9695
"2613",82.196075,760.98267
"2614",82.15701,760.99585
"2615",82.08377,761.00903
"2616",81.94949,761.0222
"2617",81.74197,761.0354
"2618",81.463646,761.0486
"2619",81.11452,761.06177
"2620",80.71168,761.07495
"2621",80.27711,761.08813
"2622",79.835205,761.1013
"2623",79.41039,761.1145
"2624",79.0222,761.1277
"2625",78.675514,761.14087
"2626",78.3679,761.15405
"2627",78.09201,761.16724
"2628",77.83566,761.1804
"2629",77.60616,761.1936
"2630",77.40597,761.2068
"2631",77.242386,761.22
"2632",77.11055,761.23315
"2633",77.00313,761.24634
"2634",76.90547,761.2595
"2635",76.80293,761.2727
"2636",76.697945,761.2859
"2637",76.592964,761.2991
"2638",76.50263,761.31226
"2639",76.43183,761.32544
"2640",76.383,761.3386
"2641",76.351265,761.3518
"2642",76.32685,761.365
"2643",76.30976,761.3782
"2644",76.29511,761.39136
"2645",76.27314,761.40454
"2646",76.25605,761.4177
"2647",76.241394,761.4309
"2648",76.226746,761.4441
"2649",76.2121,761.4573
"2650",76.19501,761.47046
"2651",76.16083,761.48364
"2652",76.12421,761.4968
"2653",76.10712,761.51
"2654",76.17059,761.5232
"2655",76.41474,761.5364
"2656",76.95186,761.54956
"2657",77.86496,761.56274
"2658",79.17845,761.5759
"2659",80.831314,761.5891
"2660",82.6746,761.6023
"2661",84.52033,761.6155
"2662",86.16586,761.62866
"2663",87.45251,761.64185
"2664",88.28016,761.655
"2665",88.6244,761.6682
"2666",88.52918,761.6814
"2667",88.08972,761.6946
"2668",87.415886,761.70776
"2669",86.607765,761.72095
"2670",85.74349,761.73413
"2671",84.88899,761.7473
"2672",84.08331,761.7605
"2673",83.36309,761.7737
"2674",82.75517,761.78687
"2675",82.28153,761.80005
"2676",81.95438,761.81323
"2677",81.76395,761.8264
"2678",81.69314,761.8396
"2679",81.71267,761.8528
"2680",81.78836,761.86597
"2681",81.87869,761.87915
"2682",81.94461,761.89233
"2683",81.94949,761.9055
"2684",81.87137,761.9187
"2685",81.71023,761.9319
"2686",81.47097,761.94507
"2687",81.16579,761.95825
"2688",80.80934,761.97144
"2689",80.41627,761.9846
"2690",80.0061,761.9978
"2691",79.5935,762.011
"2692",79.19066,762.0242
"2693",78.81712,762.03735
"2694",78.47776,762.05054
"2695",78.1799,762.0637
"2696",77.92111,762.0769
"2697",77.70382,762.0901
"2698",77.51827,762.1033
"2699",77.36202,762.11646
"2700",77.225296,762.12964
"2701",77.100784,762.1428
"2702",76.99092,762.156
"2703",76.89815,762.1692
"2704",76.82002,762.1824
"2705",76.754105,762.19556
"2706",76.70283,762.20874
"2707",76.65644,762.2219
"2708",76.61738,762.2351
"2709",76.58564,762.2483
"2710",76.55634,762.2615
"2711",76.51972,762.27466
"2712",76.47822,762.28784
"2713",76.42695,762.301
"2714",76.35615,762.3142
"2715",76.280464,762.3274
"2716",76.22919,762.3406
"2717",76.25605,762.35376
"2718",76.453804,762.36694
"2719",76.91768,762.3801
"2720",77.733116,762.3933
"2721",78.91478,762.4065
"2722",80.40406,762.4197
"2723",82.07645,762.43286
"2724",83.758606,762.44604
"2725",85.262535,762.4592
"2726",86.43931,762.4724
"2727",87.20592,762.4856
"2728",87.5404,762.4988
"2729",87.47448,762.51196
"2730",87.09117,762.52515
"2731",86.49058,762.5383
"2732",85.75571,762.5515
"2733",84.95979,762.5647
"2734",84.15411,762.5779
"2735",83.3753,762.59106
"2736",82.65507,762.60425
"2737",82.02762,762.61743
"2738",81.52224,762.6306
"2739",81.163345,762.6438
"2740",80.96071,762.657
"2741",80.89723,762.67017
"2742",80.9485,762.68335
"2743",81.06569,762.69653
"2744",81.20729,762.7097
"2745",81.33425,762.7229
"2746",81.41482,762.7361
"2747",81.427025,762.74927
"2748",81.358665,762.76245
"2749",81.20729,762.77563
"2750",80.972916,762.7888
"2751",80.672615,762.802
"2752",80.31617,762.8152
"2753",79.93042,762.82837
"2754",79.537346,762.84155
"2755",79.15648,762.85474
"2756",78.79759,762.8679
"2757",78.47532,762.8811
"2758",78.19699,762.8943
"2759",77.95773,762.9075
"2760",77.7551,762.92065
"2761",77.58419,762.93384
"2762",77.44015,762.947
"2763",77.315636,762.9602
"2764",77.21309,762.9734
"2765",77.12764,762.9866
"2766",77.07393,762.99976
"2767",77.04219,763.01294
"2768",77.0251,763.0261
"2769",77.01289,763.0393
"2770",76.99336,763.0525
"2771",76.9543,763.0657
"2772",76.893265,763.07886
"2773",76.81514,763.09204
"2774",76.72968,763.1052
"2775",76.65644,763.1184
"2776",76.629585,763.1316
"2777",76.72724,763.1448
"2778",77.03975,763.15796
"2779",77.659874,763.17114
"2780",78.643776,763.1843
"2781",79.974365,763.1975
"2782",81.56374,763.2107
"2783",83.25811,763.2239
"2784",84.874344,763.23706
"2785",86.24887,763.25024
"2786",87.27184,763.2634
"2787",87.8822,763.2766
"2788",88.08728,763.2898
"2789",87.938354,763.303
"2790",87.52575,763.31616
"2791",86.93492,763.32935
"2792",86.25376,763.3425
"2793",85.52865,763.3557
"2794",84.8011,763.3689
"2795",84.1004,763.3821
"2796",83.45098,763.39526
"2797",82.87724,763.40845
"2798",82.408485,763.42163
"2799",82.0618,763.4348
"2800",81.84451,763.448
"2801",81.74197,763.4612
"2802",81.7322,763.47437
"2803",81.78104,763.48755
"2804",81.85184,763.50073
"2805",81.91287,763.5139
"2806",81.93729,763.5271
"2807",81.900665,763.5403
"2808",81.78592,763.55347
"2809",81.5906,763.56665
"2810",81.31716,763.57983
"2811",80.98268,763.593
"2812",80.60914,763.6062
"2813",80.218506,763.6194
"2814",79.82788,763.63257
"2815",79.449455,763.64575
"2816",79.10033,763.65894
"2817",78.77318,763.6721
"2818",78.48264,763.6853
"2819",78.22873,763.6985
"2820",78.01877,763.7117
"2821",77.84787,763.72485
"2822",77.72091,763.73804
"2823",77.62081,763.7512
"2824",77.540245,763.7644
"2825",77.471886,763.7776
"2826",77.40353,763.7908
"2827",77.32784,763.80396
"2828",77.239944,763.81714
"2829",77.137405,763.8303
"2830",77.032425,763.8435
"2831",76.93965,763.8567
"2832",76.90791,763.8699
"2833",77.02022,763.88306
"2834",77.37911,763.89624
"2835",78.07004,763.9094
"2836",79.12474,763.9226
"2837",80.5066,763.9358
"2838",82.108185,763.949
"2839",83.77081,763.96216
"2840",85.31869,763.97534
"2841",86.60532,763.9885
"2842",87.535515,764.0017
"2843",88.06531,764.0149
"2844",88.20935,764.0281
"2845",88.0238,764.04126
"2846",87.59411,764.05444
"2847",87.01549,764.0676
"2848",86.36851,764.0808
"2849",85.711754,764.094
"2850",85.06966,764.1072
"2851",84.46418,764.12036
"2852",83.895325,764.13354
"2853",83.37774,764.1467
"2854",82.91875,764.1599
"2855",82.545204,764.1731
"2856",82.26444,764.1863
"2857",82.07645,764.19946
"2858",81.971466,764.21265
"2859",81.92264,764.2258
"2860",81.900665,764.239
"2861",81.883575,764.2522
"2862",81.846954,764.2654
"2863",81.76883,764.27856
"2864",81.63943,764.29175
"2865",81.45876,764.30493
"2866",81.231705,764.3181
"2867",80.96071,764.3313
"2868",80.66529,764.3445
"2869",80.35767,764.35767
"2870",80.04761,764.37085
"2871",79.74731,764.38403
"2872",79.46166,764.3972
"2873",79.19554,764.4104
"2874",78.94408,764.4236
"2875",78.71458,764.43677
"2876",78.50706,764.44995
"2877",78.32395,764.46313
"2878",78.15793,764.4763
"2879",78.00412,764.4895
"2880",77.855194,764.5027
"2881",77.69405,764.51587
"2882",77.5256,764.52905
"2883",77.35958,764.54224
"2884",77.22774,764.5554
"2885",77.21309,764.5686
"2886",77.41329,764.5818
"2887",77.93576,764.595
"2888",78.84398,764.60815
"2889",80.14038,764.62134
"2890",81.73464,764.6345
"2891",83.46807,764.6477
"2892",85.14534,764.6609
"2893",86.59556,764.6741
"2894",87.682,764.68726
"2895",88.3534,764.70044
"2896",88.61463,764.7136
"2897",88.52918,764.7268
"2898",88.18494,764.74
"2899",87.69665,764.7532
"2900",87.14732,764.76636
"2901",86.60288,764.77954
"2902",86.080414,764.7927
"2903",85.57992,764.8059
"2904",85.08919,764.8191
"2905",84.58869,764.8323
"2906",84.07599,764.84546
"2907",83.56573,764.85864
"2908",83.07988,764.8718
"2909",82.64042,764.885
"2910",82.25712,764.8982
"2911",81.9324,764.9114
"2912",81.65896,764.92456
"2913",81.42458,764.93774
"2914",81.20485,764.9509
"2915",80.96803,764.9641
"2916",80.69459,764.9773
"2917",80.36988,764.9905
"2918",79.98901,765.00366
"2919",79.55932,765.01685
"2920",79.09056,765.03
"2921",78.607155,765.0432
"2922",78.12375,765.0564
"2923",77.65011,765.0696
"2924",77.196,765.08276
"2925",76.77608,765.09595
"2926",76.39277,765.10913
"2927",76.053406,765.1223
"2928",75.757996,765.1355
"2929",75.50408,765.1487
"2930",75.27703,765.16187
"2931",75.07683,765.17505
"2932",74.88884,765.18823
"2933",74.71305,765.2014
"2934",74.55436,765.2146
"2935",74.42008,765.2278
"2936",74.302895,765.24097
"2937",74.19791,765.25415
"2938",74.09781,765.26733
"2939",73.99771,765.2805
"2940",73.900055,765.2937
"2941",73.84146,765.3069
"2942",73.90494,765.32007
"2943",74.20035,765.33325
"2944",74.847336,765.34644
"2945",75.92401,765.3596
"2946",77.435265,765.3728
"2947",79.28832,765.386
"2948",81.30007,765.3992
"2949",83.24834,765.41235
"2950",84.93538,765.42554
"2951",86.21713,765.4387
"2952",87.0399,765.4519
"2953",87.432976,765.4651
"2954",87.47692,765.4783
"2955",87.27917,765.49146
"2956",86.95445,765.50464
"2957",86.59312,765.5178
"2958",86.25132,765.531
"2959",85.94858,765.5442
"2960",85.66537,765.5574
"2961",85.35775,765.57056
"2962",84.979324,765.58374
"2963",84.50324,765.5969
"2964",83.93683,765.6101
"2965",83.30694,765.6233
"2966",82.6746,765.6365
"2967",82.07889,765.64966
"2968",81.55398,765.66284
"2969",81.11452,765.676
"2970",80.75807,765.6892
"2971",80.46021,765.7024
"2972",80.19653,765.7156
"2973",79.937744,765.72876
"2974",79.65209,765.74194
"2975",79.32006,765.7551
"2976",78.93919,765.7683
"2977",78.51438,765.7815
"2978",78.0676,765.7947
"2979",77.611046,765.80786
"2980",77.16182,765.82104
"2981",76.72724,765.8342
"2982",76.31953,765.8474
"2983",75.93622,765.8606
"2984",75.59197,765.8738
"2985",75.28924,765.88696
"2986",75.028,765.90015
"2987",74.79607,765.9133
"2988",74.598305,765.9265
"2989",74.42252,765.9397
"2990",74.27116,765.9529
"2991",74.141754,765.96606
"2992",74.02945,765.97925
"2993",73.92935,765.99243
"2994",73.83902,766.0056
"2995",73.75357,766.0188
"2996",73.673,766.032
"2997",73.602196,766.04517
"2998",73.5436,766.05835
"2999",73.49966,766.07153
"3000",73.47036,766.0847
"3001",73.445946,766.0979
"3002",73.426414,766.1111
"3003",73.40688,766.12427
"3004",73.38979,766.13745
"3005",73.36782,766.15063
"3006",73.34585,766.1638
"3007",73.32876,766.177
"3008",73.33364,766.1902
"3009",73.402,766.20337
"3010",73.63149,766.21655
"3011",74.15152,766.22974
"3012",75.06462,766.2429
"3013",76.42939,766.2561
"3014",78.21164,766.2693
"3015",80.26978,766.2825
"3016",82.38651,766.29565
"3017",84.33723,766.30884
"3018",85.93149,766.322
"3019",87.07164,766.3352
"3020",87.74059,766.3484
"3021",87.99451,766.3616
"3022",87.95056,766.37476
"3023",87.725945,766.38794
"3024",87.42809,766.4011
"3025",87.13756,766.4143
"3026",86.88365,766.4275
"3027",86.65659,766.4407
"3028",86.417336,766.45386
"3029",86.117035,766.46704
"3030",85.71664,766.4802
"3031",85.21126,766.4934
"3032",84.62287,766.5066
"3033",84.00763,766.5198
"3034",83.41924,766.53296
"3035",82.899216,766.54614
"3036",82.46952,766.5593
"3037",82.125275,766.5725
"3038",81.846954,766.5857
"3039",81.60525,766.5989
"3040",81.36111,766.61206
"3041",81.094986,766.62524
"3042",80.79225,766.6384
"3043",80.445564,766.6516
"3044",80.05737,766.6648
"3045",79.635,766.678
"3046",79.19554,766.69116
"3047",78.74876,766.70435
"3048",78.314186,766.7175
"3049",77.90646,766.7307
"3050",77.5256,766.7439
"3051",77.18135,766.7571
"3052",76.86641,766.77026
"3053",76.58076,766.78345
"3054",76.32441,766.79663
"3055",76.09491,766.8098
"3056",75.89227,766.823
"3057",75.716484,766.8362
"3058",75.55291,766.84937
"3059",75.406425,766.86255
"3060",75.27459,766.87573
"3061",75.15495,766.8889
"3062",75.04753,766.9021
"3063",74.95232,766.9153
"3064",74.86687,766.92847
"3065",74.7863,766.94165
"3066",74.71793,766.95483
"3067",74.65446,766.968
"3068",74.59098,766.9812
"3069",74.53239,766.9944
"3070",74.478676,767.00757
"3071",74.43473,767.02075
"3072",74.39811,767.03394
"3073",74.37614,767.0471
"3074",74.36637,767.0603
"3075",74.36637,767.0735
"3076",74.36881,767.0867
"3077",74.36881,767.09985
"3078",74.36393,767.11304
"3079",74.354164,767.1262
"3080",74.34928,767.1394
"3081",74.37614,767.1526
"3082",74.50553,767.1658
"3083",74.83269,767.17896
"3084",75.47723,767.19214
"3085",76.52949,767.2053
"3086",78.00656,767.2185
"3087",79.82544,767.2317
"3088",81.82742,767.2449
"3089",83.792786,767.25806
"3090",85.504234,767.27124
"3091",86.81529,767.2844
"3092",87.66003,767.2976
"3093",88.05798,767.3108
"3094",88.09216,767.324
"3095",87.87976,767.33716
"3096",87.53307,767.35034
"3097",87.14732,767.3635
"3098",86.77623,767.3767
"3099",86.44175,767.3899
"3100",86.117035,767.4031
"3101",85.77524,767.41626
"3102",85.39193,767.42944
"3103",84.962234,767.4426
"3104",84.49348,767.4558
"3105",84.01984,767.469
"3106",83.57305,767.4822
"3107",83.18242,767.49536
"3108",82.847946,767.50854
"3109",82.57206,767.5217
"3110",82.34501,767.5349
"3111",82.14725,767.5481
"3112",81.94705,767.5613
"3113",81.71755,767.57446
"3114",81.444115,767.58765
"3115",81.1194,767.6008
"3116",80.74586,767.614
"3117",80.34547,767.6272
"3118",79.923096,767.6404
"3119",79.49584,767.65356
"3120",79.08324,767.66675
"3121",78.68528,767.67993
"3122",78.314186,767.6931
"3123",77.97238,767.7063
"3124",77.662315,767.7195
"3125",77.37911,767.73267
"3126",77.12276,767.74585
"3127",76.893265,767.75903
"3128",76.68818,767.7722
"3129",76.50019,767.7854
"3130",76.32929,767.7986
"3131",76.173035,767.81177
"3132",76.03143,767.82495
"3133",75.8996,767.83813
"3134",75.775085,767.8513
"3135",75.66277,767.8645
"3136",75.562675,767.8777
"3137",75.4699,767.89087
"3138",75.386894,767.90405
"3139",75.31121,767.91724
"3140",75.24284,767.9304
"3141",75.17937,767.9436
"3142",75.12077,767.9568
"3143",75.071945,767.97
"3144",75.03288,767.98315
"3145",74.9987,767.99634
"3146",74.96452,768.0095
"3147",74.92302,768.0227
"3148",74.87175,768.0359
"3149",74.8156,768.0491
"3150",74.78142,768.06226
"3151",74.810715,768.07544
"3152",74.98161,768.0886
"3153",75.3991,768.1018
"3154",76.1535,768.115
"3155",77.28634,768.1282
"3156",78.77074,768.14136
"3157",80.499275,768.15454
"3158",82.28886,768.1677
"3159",83.93927,768.1809
"3160",85.2723,768.1941
"3161",86.19028,768.2073
"3162",86.67124,768.22046
"3163",86.75914,768.23364
"3164",86.54185,768.2468
"3165",86.14145,768.26
"3166",85.6556,768.2732
"3167",85.14778,768.2864
"3168",84.65705,768.29956
"3169",84.19562,768.31274
"3170",83.75128,768.3259
"3171",83.3167,768.3391
"3172",82.89433,768.3523
"3173",82.5037,768.3655
"3174",82.17166,768.37866
"3175",81.91531,768.39185
"3176",81.739525,768.405
"3177",81.63943,768.4182
"3178",81.583275,768.4314
"3179",81.54421,768.4446
"3180",81.48806,768.45776
"3181",81.392845,768.47095
"3182",81.23659,768.48413
"3183",81.02174,768.4973
"3184",80.7483,768.5105
"3185",80.42359,768.5237
"3186",80.062256,768.53687
"3187",79.68383,768.55005
"3188",79.29565,768.56323
"3189",78.91478,768.5764
"3190",78.56077,768.5896
"3191",78.24338,768.6028
"3192",77.96506,768.61597
"3193",77.730675,768.62915
"3194",77.53048,768.64233
"3195",77.35714,768.6555
"3196",77.20088,768.6687
"3197",77.05928,768.6819
"3198",76.927444,768.69507
"3199",76.81514,768.70825
"3200",76.715034,768.72144
"3201",76.629585,768.7346
"3202",76.5539,768.7478
"3203",76.490425,768.761
"3204",76.42939,768.7742
"3205",76.37568,768.78735
"3206",76.32929,768.80054
"3207",76.28779,768.8137
"3208",76.24872,768.8269
"3209",76.209656,768.8401
"3210",76.16815,768.8533
"3211",76.11932,768.86646
"3212",76.05829,768.87964
"3213",75.98993,768.8928
"3214",75.914246,768.906
"3215",75.83612,768.9192
"3216",75.76044,768.9324
"3217",75.70428,768.94556
"3218",75.70916,768.95874
"3219",75.841,768.9719
"3220",76.18036,768.9851
"3221",76.805374,768.9983
"3222",77.752655,769.0115
"3223",79.00267,769.02466
"3224",80.45289,769.03784
"3225",81.9617,769.051
"3226",83.35088,769.0642
"3227",84.47639,769.0774
"3228",85.240555,769.0906
"3229",85.62142,769.10376
"3230",85.643394,769.11694
"3231",85.384605,769.1301
"3232",84.92073,769.1433
"3233",84.334785,769.1565
"3234",83.69024,769.1697
"3235",83.03349,769.18286
"3236",82.40116,769.19604
"3237",81.82254,769.2092
"3238",81.33181,769.2224
"3239",80.953384,769.2356
"3240",80.709236,769.2488
"3241",80.604256,769.26196
"3242",80.621346,769.27515
"3243",80.73121,769.2883
"3244",80.88747,769.3015
"3245",81.04372,769.3147
"3246",81.160904,769.3279
"3247",81.22194,769.34106
"3248",81.20241,769.35425
"3249",81.09987,769.36743
"3250",80.921646,769.3806
"3251",80.6775,769.3938
"3252",80.377205,769.407
"3253",80.04028,769.42017
"3254",79.68871,769.43335
"3255",79.33959,769.44653
"3256",79.00511,769.4597
"3257",78.69993,769.4729
"3258",78.42649,769.4861
"3259",78.19211,769.49927
"3260",77.994354,769.51245
"3261",77.83322,769.52563
"3262",77.70138,769.5388
"3263",77.593956,769.552
"3264",77.503624,769.5652
"3265",77.4255,769.57837
"3266",77.35714,769.59155
"3267",77.30099,769.60474
"3268",77.2546,769.6179
"3269",77.21309,769.6311
"3270",77.17647,769.6443
"3271",77.14473,769.6575
"3272",77.10811,769.67065
"3273",77.069046,769.68384
"3274",77.02266,769.697
"3275",76.96651,769.7102
"3276",76.90303,769.7234
"3277",76.82735,769.7366
"3278",76.74677,769.74976
"3279",76.66865,769.76294
"3280",76.629585,769.7761
"3281",76.68818,769.7893
"3282",76.944534,769.8025
"3283",77.486534,769.8157
"3284",78.37278,769.82886
"3285",79.59838,769.84204
"3286",81.08522,769.8552
"3287",82.68925,769.8684
"3288",84.242004,769.8816
"3289",85.57992,769.8948
"3290",86.59312,769.90796
"3291",87.21324,769.92114
"3292",87.447624,769.9343
"3293",87.33532,769.9475
"3294",86.95445,769.9607
"3295",86.400246,769.9739
"3296",85.753265,769.98706
"3297",85.06966,770.00024
"3298",84.3885,770.0134
"3299",83.74639,770.0266
"3300",83.16533,770.0398
"3301",82.67216,770.053
"3302",82.28397,770.06616
"3303",82.01541,770.07935
"3304",81.87137,770.0925
"3305",81.82742,770.1057
"3306",81.85672,770.1189
"3307",81.92996,770.1321
"3308",82.01541,770.14526
"3309",82.07156,770.15845
"3310",82.07156,770.17163
"3311",82.00076,770.1848
"3312",81.846954,770.198
"3313",81.619896,770.2112
"3314",81.322044,770.22437
"3315",80.970474,770.23755
"3316",80.58228,770.25073
"3317",80.17212,770.2639
"3318",79.764404,770.2771
"3319",79.37377,770.2903
"3320",79.01488,770.30347
"3321",78.69749,770.31665
"3322",78.41917,770.32983
"3323",78.1799,770.343
"3324",77.979706,770.3562
"3325",77.80881,770.3694
"3326",77.662315,770.38257
"3327",77.540245,770.39575
"3328",77.437706,770.40894
"3329",77.35226,770.4221
"3330",77.279015,770.4353
"3331",77.21553,770.4485
"3332",77.15694,770.4617
"3333",77.103226,770.47485
"3334",77.04463,770.48804
"3335",76.9836,770.5012
"3336",76.912796,770.5144
"3337",76.83223,770.5276
"3338",76.73945,770.5408
"3339",76.64912,770.55396
"3340",76.5832,770.56714
"3341",76.60029,770.5803
"3342",76.788284,770.5935
"3343",77.2546,770.6067
"3344",78.07736,770.6199
"3345",79.273674,770.63306
"3346",80.78981,770.64624
"3347",82.49882,770.6594
"3348",84.22003,770.6726
"3349",85.7728,770.6858
"3350",87.01549,770.699
"3351",87.85535,770.71216
"3352",88.272835,770.72534
"3353",88.29725,770.7385
"3354",88.009155,770.7517
"3355",87.50378,770.7649
"3356",86.87877,770.7781
"3357",86.204926,770.79126
"3358",85.52865,770.80444
"3359",84.8719,770.8176
"3360",84.25178,770.8308
"3361",83.68047,770.844
"3362",83.17021,770.8572
"3363",82.73319,770.87036
"3364",82.38407,770.88354
"3365",82.13504,770.8967
"3366",81.97879,770.9099
"3367",81.900665,770.9231
"3368",81.87625,770.9363
"3369",81.87137,770.94946
"3370",81.849396,770.96265
"3371",81.78104,770.9758
"3372",81.64919,770.989
"3373",81.446556,771.0022
"3374",81.18288,771.0154
"3375",80.85817,771.02856
"3376",80.48463,771.04175
"3377",80.08179,771.05493
"3378",79.6643,771.0681
"3379",79.24193,771.0813
"3380",78.83421,771.0945
"3381",78.44602,771.10767
"3382",78.08713,771.12085
"3383",77.76486,771.13403
"3384",77.48165,771.1472
"3385",77.24483,771.1604
"3386",77.04707,771.1736
"3387",76.88838,771.18677
"3388",76.756546,771.19995
"3389",76.64423,771.21313
"3390",76.54658,771.2263
"3391",76.456245,771.2395
"3392",76.3708,771.2527
"3393",76.282906,771.26587
"3394",76.19501,771.27905
"3395",76.102234,771.29224
"3396",76.00702,771.3054
"3397",75.90936,771.3186
"3398",75.81415,771.3318
"3399",75.74822,771.345
"3400",75.77753,771.35815
"3401",75.99725,771.37134
"3402",76.50996,771.3845
"3403",77.3962,771.3977
"3404",78.66575,771.4109
"3405",80.257576,771.4241
"3406",82.02518,771.43726
"3407",83.78302,771.45044
"3408",85.347984,771.4636
"3409",86.58091,771.4768
"3410",87.398796,771.49
"3411",87.78943,771.5032
"3412",87.799194,771.51636
"3413",87.5111,771.52954
"3414",87.02037,771.5427
"3415",86.417336,771.5559
"3416",85.77524,771.5691
"3417",85.13313,771.5823
"3418",84.51301,771.59546
"3419",83.929504,771.60864
"3420",83.387505,771.6218
"3421",82.88945,771.635
"3422",82.45487,771.6482
"3423",82.09842,771.6614
"3424",81.82254,771.67456
"3425",81.6321,771.68774
"3426",81.514915,771.7009
"3427",81.45144,771.7141
"3428",81.42214,771.7273
"3429",81.39529,771.7405
"3430",81.341576,771.75366
"3431",81.24391,771.76685
"3432",81.08766,771.78
"3433",80.87282,771.7932
"3434",80.6067,771.8064
"3435",80.29908,771.8196
"3436",79.9646,771.83276
"3437",79.62035,771.84595
"3438",79.281,771.85913
"3439",78.95384,771.8723
"3440",78.6511,771.8855
"3441",78.37522,771.8987
"3442",78.12863,771.91187
"3443",77.90402,771.92505
"3444",77.70138,771.93823
"3445",77.51827,771.9514
"3446",77.35958,771.9646
"3447",77.222855,771.9778
"3448",77.10811,771.99097
"3449",77.01289,772.00415
"3450",76.93721,772.01733
"3451",76.87129,772.0305
"3452",76.80049,772.0437
"3453",76.7248,772.0569
"3454",76.64179,772.07007
"3455",76.54902,772.08325
"3456",76.46601,772.09644
"3457",76.453804,772.1096
"3458",76.60517,772.1228
"3459",77.03975,772.136
"3460",77.85031,772.1492
"3461",79.080795,772.16235
"3462",80.69703,772.17554
"3463",82.564735,772.1887
"3464",84.488594,772.2019
"3465",86.26841,772.2151
"3466",87.73571,772.2283
"3467",88.780655,772.24146
"3468",89.37148,772.25464
"3469",89.54238,772.2678
"3470",89.373924,772.281
"3471",88.9662,772.2942
"3472",88.4242,772.3074
"3473",87.8407,772.32056
"3474",87.276726,772.33374
"3475",86.746925,772.3469
"3476",86.239105,772.3601
"3477",85.731285,772.3733
"3478",85.206375,772.3865
"3479",84.66682,772.39966
"3480",84.1297,772.41284
"3481",83.62432,772.426
"3482",83.175095,772.4392
"3483",82.78447,772.4524
"3484",82.45243,772.4656
"3485",82.16434,772.47876
"3486",81.900665,772.49194
"3487",81.63943,772.5051
"3488",81.358665,772.5183
"3489",81.04616,772.5315
"3490",80.689705,772.5447
"3491",80.291756,772.55786
"3492",79.86206,772.57104
"3493",79.41039,772.5842
"3494",78.95628,772.5974
"3495",78.502174,772.6106
"3496",78.05783,772.6238
"3497",77.63302,772.63696
"3498",77.23506,772.65015
"3499",76.86641,772.6633
"3500",76.53925,772.6765
"3501",76.25605,772.6897
"3502",76.01434,772.7029
"3503",75.7995,772.71606
"3504",75.60662,772.72925
"3505",75.4284,772.74243
"3506",75.264824,772.7556
"3507",75.10368,772.7688
"3508",74.95476,772.782
"3509",74.8156,772.79517
"3510",74.68131,772.80835
"3511",74.55192,772.82153
"3512",74.42985,772.8347
"3513",74.302895,772.8479
"3514",74.16373,772.8611
"3515",74.0148,772.87427
"3516",73.86832,772.88745
"3517",73.76578,772.90063
"3518",73.78531,772.9138
"3519",74.04166,772.927
"3520",74.66178,772.9402
"3521",75.73846,772.95337
"3522",77.28634,772.96655
"3523",79.23216,772.97974
"3524",81.39773,772.9929
"3525",83.55108,773.0061
"3526",85.46761,773.0193
"3527",86.9691,773.0325
"3528",87.97009,773.04565
"3529",88.47791,773.05884
"3530",88.5658,773.072
"3531",88.34608,773.0852
"3532",87.957886,773.0984
"3533",87.51354,773.1116
"3534",87.08873,773.12476
"3535",86.72007,773.13794
"3536",86.39292,773.1511
"3537",86.063324,773.1643
"3538",85.677574,773.1775
"3539",85.20393,773.1907
"3540",84.630196,773.20386
"3541",83.97589,773.21704
"3542",83.28741,773.2302
"3543",82.61845,773.2434
"3544",82.01053,773.2566
"3545",81.48806,773.2698
"3546",81.058365,773.28296
"3547",80.706795,773.29614
"3548",80.39918,773.3093
"3549",80.10132,773.3225
"3550",79.783936,773.3357
"3551",79.432365,773.3489
"3552",79.03685,773.36206
"3553",78.607155,773.37524
"3554",78.14572,773.3884
"3555",77.67452,773.4016
"3556",77.205765,773.4148
"3557",76.749214,773.428
"3558",76.314644,773.44116
"3559",75.914246,773.45435
"3560",75.55779,773.4675
"3561",75.2404,773.4807
"3562",74.96452,773.4939
"3563",74.720375,773.5071
"3564",74.50553,773.52026
"3565",74.31266,773.53345
"3566",74.141754,773.54663
"3567",73.987946,773.5598
"3568",73.85611,773.573
"3569",73.7438,773.5862
"3570",73.64614,773.59937
"3571",73.56313,773.61255
"3572",73.48501,773.62573
"3573",73.41665,773.6389
"3574",73.35317,773.6521
"3575",73.29702,773.6653
"3576",73.24574,773.67847
"3577",73.20424,773.69165
"3578",73.17494,773.70483
"3579",73.15541,773.718
"3580",73.14809,773.7312
"3581",73.145645,773.7444
"3582",73.13832,773.75757
"3583",73.12367,773.77075
"3584",73.10414,773.78394
"3585",73.10658,773.7971
"3586",73.19203,773.8103
"3587",73.46792,773.8235
"3588",74.06607,773.8367
"3589",75.09148,773.84985
"3590",76.58076,773.86304
"3591",78.48264,773.8762
"3592",80.63111,773.8894
"3593",82.78935,773.9026
"3594",84.72785,773.9158
"3595",86.25376,773.92896
"3596",87.276726,773.94214
"3597",87.799194,773.9553
"3598",87.90173,773.9685
"3599",87.70397,773.9817
"3600",87.34264,773.9949
"3601",86.93004,774.00806
"3602",86.54429,774.02124
"3603",86.20981,774.0344
"3604",85.91928,774.0476
"3605",85.63851,774.0608
"3606",85.313805,774.074
"3607",84.90852,774.08716
"3608",84.41047,774.10034
"3609",83.84161,774.1135
"3610",83.250786,774.1267
"3611",82.686806,774.1399
"3612",82.193634,774.1531
"3613",81.78592,774.16626
"3614",81.461205,774.17944
"3615",81.19264,774.1926
"3616",80.953384,774.2058
"3617",80.71168,774.219
"3618",80.445564,774.2322
"3619",80.14282,774.24536
"3620",79.801025,774.25854
"3621",79.42504,774.2717
"3622",79.01732,774.2849
"3623",78.59495,774.2981
"3624",78.170135,774.3113
"3625",77.75998,774.32446
"3626",77.37667,774.33765
"3627",77.02754,774.3508
"3628",76.717476,774.364
"3629",76.4416,774.3772
"3630",76.19989,774.3904
"3631",75.99237,774.40356
"3632",75.809265,774.41675
"3633",75.65301,774.42993
"3634",75.51629,774.4431
"3635",75.39666,774.4563
"3636",75.284355,774.4695
"3637",75.18181,774.48267
"3638",75.09148,774.49585
"3639",75.00847,774.50903
"3640",74.94011,774.5222
"3641",74.88396,774.5354
"3642",74.83757,774.5486
"3643",74.79607,774.56177
"3644",74.759445,774.57495
"3645",74.73258,774.58813
"3646",74.71549,774.6013
"3647",74.70817,774.6145
"3648",74.71061,774.6277
"3649",74.71793,774.64087
"3650",74.72282,774.65405
"3651",74.72526,774.66724
"3652",74.71793,774.6804
"3653",74.71061,774.6936
"3654",74.70573,774.7068
"3655",74.720375,774.72
"3656",74.793625,774.73315
"3657",75.003586,774.74634
"3658",75.45281,774.7595
"3659",76.24872,774.7727
"3660",77.44503,774.7859
"3661",79.01732,774.7991
"3662",80.83864,774.81226
"3663",82.718544,774.82544
"3664",84.437325,774.8386
"3665",85.8143,774.8518
"3666",86.74937,774.865
"3667",87.23277,774.8782
"3668",87.31335,774.89136
"3669",87.098495,774.90454
"3670",86.70298,774.9177
"3671",86.236664,774.9309
"3672",85.77768,774.9441
"3673",85.3724,774.9573
"3674",85.02083,774.97046
"3675",84.69123,774.98364
"3676",84.35676,774.9968
"3677",84.000305,775.01
"3678",83.60967,775.0232
"3679",83.21904,775.0364
"3680",82.85283,775.04956
"3681",82.54032,775.06274
"3682",82.29374,775.0759
"3683",82.108185,775.0891
"3684",81.9617,775.1023
"3685",81.829865,775.1155
"3686",81.688255,775.12866
"3687",81.512474,775.14185
"3688",81.290306,775.155
"3689",81.01442,775.1682
"3690",80.69215,775.1814
"3691",80.33814,775.1946
"3692",79.95972,775.20776
"3693",79.58129,775.22095
"3694",79.21019,775.23413
"3695",78.86107,775.2473
"3696",78.538795,775.2605
"3697",78.24582,775.2737
"3698",77.98459,775.28687
"3699",77.75754,775.30005
"3700",77.55978,775.31323
"3701",77.38644,775.3264
"3702",77.23506,775.3396
"3703",77.100784,775.3528
"3704",76.978714,775.36597
"3705",76.87129,775.37915
"3706",76.77608,775.39233
"3707",76.6955,775.4055
"3708",76.629585,775.4187
"3709",76.578316,775.4319
"3710",76.53193,775.44507
"3711",76.490425,775.45825
"3712",76.453804,775.47144
"3713",76.419624,775.4846
"3714",76.38056,775.4978
"3715",76.34882,775.511
"3716",76.314644,775.5242
"3717",76.282906,775.53735
"3718",76.241394,775.55054
"3719",76.19745,775.5637
"3720",76.14862,775.5769
"3721",76.09979,775.5901
"3722",76.07538,775.6033
"3723",76.12909,775.61646
"3724",76.34882,775.62964
"3725",76.83467,775.6428
"3726",77.662315,775.656
"3727",78.85863,775.6692
"3728",80.365,775.6824
"3729",82.04227,775.69556
"3730",83.702446,775.70874
"3731",85.15999,775.7219
"3732",86.26841,775.7351
"3733",86.96178,775.7483
"3734",87.237656,775.7615
"3735",87.16441,775.77466
"3736",86.84459,775.78784
"3737",86.383156,775.801
"3738",85.872894,775.8142
"3739",85.37972,775.8274
"3740",84.92317,775.8406
"3741",84.505684,775.85376
"3742",84.11261,775.86694
"3743",83.736626,775.8801
"3744",83.38018,775.8933
"3745",83.06035,775.9065
"3746",82.791794,775.9197
"3747",82.58427,775.93286
"3748",82.4329,775.94604
"3749",82.320595,775.9592
"3750",82.230255,775.9724
"3751",82.142365,775.9856
"3752",82.0325,775.9988
"3753",81.88602,776.01196
"3754",81.69558,776.02515
"3755",81.449,776.0383
"3756",81.15602,776.0515
"3757",80.82399,776.0647
"3758",80.46754,776.0779
"3759",80.10132,776.09106
"3760",79.742424,776.10425
"3761",79.398186,776.11743
"3762",79.080795,776.1306
"3763",78.79515,776.1438
"3764",78.538795,776.157
"3765",78.3093,776.17017
"3766",78.10666,776.18335
"3767",77.92355,776.19653
"3768",77.75754,776.2097
"3769",77.61349,776.2229
"3770",77.486534,776.2361
"3771",77.366905,776.24927
"3772",77.25704,776.26245
"3773",77.152054,776.27563
"3774",77.049515,776.2888
"3775",76.94942,776.302
"3776",76.85176,776.3152
"3777",76.754105,776.32837
"3778",76.66865,776.34155
"3779",76.60761,776.35474
"3780",76.63203,776.3679
"3781",76.81026,776.3811
"3782",77.23018,776.3943
"3783",77.94797,776.4075
"3784",78.975815,776.42065
"3785",80.25269,776.43384
"3786",81.63943,776.447
"3787",82.98222,776.4602
"3788",84.12726,776.4734
"3789",84.95735,776.4866
"3790",85.42367,776.49976
"3791",85.538414,776.51294
"3792",85.36263,776.5261
"3793",84.97688,776.5393
"3794",84.471504,776.5525
"3795",83.92218,776.5657
"3796",83.36797,776.57886
"3797",82.83574,776.59204
"3798",82.3328,776.6052
"3799",81.87625,776.6184
"3800",81.47585,776.6316
"3801",81.15358,776.6448
"3802",80.921646,776.65796
"3803",80.78493,776.67114
"3804",80.73365,776.6843
"3805",80.740974,776.6975
"3806",80.7776,776.7107
"3807",80.80934,776.7239
"3808",80.8069,776.73706
"3809",80.7483,776.75024
"3810",80.62867,776.7634
"3811",80.43824,776.7766
"3812",80.184326,776.7898
"3813",79.88403,776.803
"3814",79.554436,776.81616
"3815",79.21507,776.82935
"3816",78.8806,776.8425
"3817",78.56321,776.8557
"3818",78.28001,776.8689
"3819",78.02609,776.8821
"3820",77.806366,776.89526
"3821",77.62081,776.90845
"3822",77.471886,776.92163
"3823",77.349815,776.9348
"3824",77.24727,776.948
"3825",77.15938,776.9612
"3826",77.07393,776.97437
"3827",76.98848,776.98755
"3828",76.895706,777.00073
"3829",76.805374,777.0139
"3830",76.715034,777.0271
"3831",76.627144,777.0403
"3832",76.544136,777.05347
"3833",76.48066,777.06665
"3834",76.47822,777.07983
"3835",76.60029,777.093
"3836",76.94209,777.1062
"3837",77.574425,777.1194
"3838",78.52659,777.13257
"3839",79.76196,777.14575
"3840",81.17311,777.15894
"3841",82.598915,777.1721
"3842",83.87579,777.1853
"3843",84.86458,777.1985
"3844",85.489586,777.2117
"3845",85.73617,777.22485
"3846",85.64828,777.23804
"3847",85.30648,777.2512
"3848",84.79622,777.2644
"3849",84.20294,777.2776
"3850",83.58282,777.2908
"3851",82.967575,777.30396
"3852",82.38407,777.31714
"3853",81.85672,777.3303
"3854",81.40505,777.3435
"3855",81.04616,777.3567
"3856",80.797134,777.3699
"3857",80.66041,777.38306
"3858",80.62379,777.39624
"3859",80.65308,777.4094
"3860",80.71656,777.4226
"3861",80.780045,777.4358
"3862",80.81178,777.449
"3863",80.782486,777.46216
"3864",80.6775,777.47534
"3865",80.49195,777.4885
"3866",80.24048,777.5017
"3867",79.94263,777.5149
"3868",79.61791,777.5281
"3869",79.281,777.54126
"3870",78.9514,777.55444
"3871",78.63157,777.5676
"3872",78.328835,777.5808
"3873",78.04562,777.594
"3874",77.789276,777.6072
"3875",77.56222,777.62036
"3876",77.366905,777.63354
"3877",77.205765,777.6467
"3878",77.07393,777.6599
"3879",76.961624,777.6731
"3880",76.86885,777.6863
"3881",76.788284,777.69946
"3882",76.71259,777.71265
"3883",76.63935,777.7258
"3884",76.57099,777.739
"3885",76.507515,777.7522
"3886",76.44404,777.7654
"3887",76.37812,777.77856
"3888",76.30976,777.79175
"3889",76.24628,777.80493
"3890",76.19989,777.8181
"3891",76.209656,777.8313
"3892",76.34638,777.8445
"3893",76.700386,777.85767
"3894",77.34493,777.87085
"3895",78.31907,777.88403
"3896",79.59106,777.8972
"3897",81.04616,777.9104
"3898",82.528114,777.9236
"3899",83.85626,777.93677
"3900",84.893875,777.94995
"3901",85.55062,777.96313
"3902",85.8143,777.9763
"3903",85.72396,777.9895
"3904",85.36019,778.0027
"3905",84.81331,778.01587
"3906",84.173645,778.02905
"3907",83.50713,778.04224
"3908",82.85039,778.0554
"3909",82.23758,778.0686
"3910",81.6907,778.0818
"3911",81.234146,778.095
"3912",80.885025,778.10815
"3913",80.65797,778.12134
"3914",80.552986,778.1345
"3915",80.550545,778.1477
"3916",80.618904,778.1609
"3917",80.719,778.1741
"3918",80.81178,778.18726
"3919",80.86549,778.20044
"3920",80.850845,778.2136
"3921",80.75319,778.2268
"3922",80.57984,778.24
"3923",80.343025,778.2532
"3924",80.05005,778.26636
"3925",79.71557,778.27954
"3926",79.361565,778.2927
"3927",79.00267,778.3059
"3928",78.658424,778.3191
"3929",78.34104,778.3323
"3930",78.05295,778.34546
"3931",77.7966,778.35864
"3932",77.56466,778.3718
"3933",77.35958,778.385
"3934",77.17891,778.3982
"3935",77.02022,778.4114
"3936",76.88594,778.42456
"3937",76.77608,778.43774
"3938",76.680855,778.4509
"3939",76.60029,778.4641
"3940",76.53193,778.4773
"3941",76.47578,778.4905
"3942",76.42451,778.50366
"3943",76.3708,778.51685
"3944",76.30976,778.53
"3945",76.243835,778.5432
"3946",76.175476,778.5564
"3947",76.104675,778.5696
"3948",76.05829,778.58276
"3949",76.09735,778.59595
"3950",76.30732,778.60913
"3951",76.77852,778.6223
"3952",77.57931,778.6355
"3953",78.712135,778.6487
"3954",80.1062,778.66187
"3955",81.61257,778.67505
"3956",83.06767,778.68823
"3957",84.300606,778.7014
"3958",85.206375,778.7146
"3959",85.72396,778.7278
"3960",85.855804,778.74097
"3961",85.6556,778.75415
"3962",85.206375,778.76733
"3963",84.596016,778.7805
"3964",83.914856,778.7937
"3965",83.21416,778.8069
"3966",82.547646,778.82007
"3967",81.94705,778.83325
"3968",81.43679,778.84644
"3969",81.03151,778.8596
"3970",80.75075,778.8728
"3971",80.601814,778.886
"3972",80.57252,778.8992
"3973",80.64332,778.91235
"3974",80.78493,778.92554
"3975",80.955826,778.9387
"3976",81.112076,778.9519
"3977",81.214615,778.9651
"3978",81.234146,778.9783
"3979",81.15846,778.99146
"3980",80.99733,779.00464
"3981",80.76051,779.0178
"3982",80.46998,779.031
"3983",80.14282,779.0442
"3984",79.80347,779.0574
"3985",79.4641,779.07056
"3986",79.13451,779.08374
"3987",78.82445,779.0969
"3988",78.54368,779.1101
"3989",78.29221,779.1233
"3990",78.07492,779.1365
"3991",77.88937,779.14966
"3992",77.738,779.16284
"3993",77.61837,779.176
"3994",77.52071,779.1892
"3995",77.44015,779.2024
"3996",77.36446,779.2156
"3997",77.28878,779.22876
"3998",77.20332,779.24194
"3999",77.11543,779.2551
"4000",77.032425,779.2683
"4001",76.978714,779.2815
"4002",76.995804,779.2947
"4003",77.154495,779.30786
"4004",77.53048,779.32104
"4005",78.17746,779.3342
"4006",79.10277,779.3474
"4007",80.257576,779.3606
"4008",81.529564,779.3738
"4009",82.774704,779.38696
"4010",83.85626,779.40015
"4011",84.66926,779.4133
"4012",85.152664,779.4265
"4013",85.29427,779.4397
"4014",85.13313,779.4529
"4015",84.73029,779.46606
"4016",84.16144,779.47925
"4017",83.49493,779.49243
"4018",82.78691,779.5056
"4019",82.08865,779.5188
"4020",81.43923,779.532
"4021",80.88258,779.54517
"4022",80.45045,779.55835
"4023",80.16968,779.57153
"4024",80.04761,779.5847
"4025",80.06714,779.5979
"4026",80.19409,779.6111
"4027",80.38697,779.62427
"4028",80.604256,779.63745
"4029",80.80446,779.65063
"4030",80.94118,779.6638
"4031",80.99245,779.677
"4032",80.9485,779.6902
"4033",80.80934,779.70337
"4034",80.59205,779.71655
"4035",80.31861,779.72974
"4036",80.01343,779.7429
"4037",79.693596,779.7561
"4038",79.36889,779.7693
"4039",79.05394,779.7825
"4040",78.76097,779.79565
"4041",78.504616,779.80884
"4042",78.28489,779.822
"4043",78.10422,779.8352
"4044",77.95773,779.8484
"4045",77.84299,779.8616
"4046",77.74044,779.87476
"4047",77.65255,779.88794
"4048",77.57198,779.9011
"4049",77.4963,779.9143
"4050",77.4255,779.9275
"4051",77.37911,779.9407
"4052",77.41085,779.95386
"4053",77.593956,779.96704
"4054",78.011444,779.9802
"4055",78.729225,779.9934
"4056",79.764404,780.0066
"4057",81.058365,780.0198
"4058",82.49882,780.03296
"4059",83.929504,780.04614
"4060",85.189285,780.0593
"4061",86.153656,780.0725
"4062",86.74937,780.0857
"4063",86.96422,780.0989
"4064",86.83971,780.11206
"4065",86.44907,780.12524
"4066",85.88022,780.1384
"4067",85.20882,780.1516
"4068",84.5008,780.1648
"4069",83.790344,780.178
"4070",83.1165,780.19116
"4071",82.513466,780.20435
"4072",82.01297,780.2175
"4073",81.634544,780.2307
"4074",81.392845,780.2439
"4075",81.28298,780.2571
"4076",81.28054,780.27026
"4077",81.3489,780.28345
"4078",81.45876,780.29663
"4079",81.56374,780.3098
"4080",81.62722,780.323
"4081",81.619896,780.3362
"4082",81.532005,780.34937
"4083",81.35134,780.36255
"4084",81.092545,780.37573
"4085",80.77516,780.3889
"4086",80.41627,780.4021
"4087",80.03784,780.4153
"4088",79.65209,780.42847
"4089",79.281,780.44165
"4090",78.93431,780.45483
"4091",78.6218,780.468
"4092",78.348366,780.4812
"4093",78.11398,780.4944
"4094",77.91623,780.50757
"4095",77.74532,780.52075
"4096",77.591515,780.53394
"4097",77.452354,780.5471
"4098",77.32296,780.5603
"4099",77.21309,780.5735
"4100",77.14717,780.5867
"4101",77.19356,780.59985
"4102",77.43282,780.61304
"4103",77.95285,780.6262
"4104",78.80492,780.6394
"4105",79.98413,780.6526
"4106",81.41238,780.6658
"4107",82.948044,780.67896
"4108",84.41047,780.69214
"4109",85.64095,780.7053
"4110",86.5272,780.7185
"4111",87.01549,780.7317
"4112",87.12047,780.7449
"4113",86.90318,780.75806
"4114",86.46128,780.77124
"4115",85.87778,780.7844
"4116",85.23567,780.7976
"4117",84.58137,780.8108
"4118",83.946594,780.824
"4119",83.34356,780.83716
"4120",82.78203,780.85034
"4121",82.27421,780.8635
"4122",81.84207,780.8767
"4123",81.50515,780.8899
"4124",81.26345,780.9031
"4125",81.11452,780.91626
"4126",81.03639,780.92944
"4127",80.99733,780.9426
"4128",80.96803,780.9558
"4129",80.92409,780.969
"4130",80.84108,780.9822
"4131",80.70191,780.99536
"4132",80.50416,781.00854
"4133",80.24292,781.0217
"4134",79.93286,781.0349
"4135",79.588615,781.0481
"4136",79.22484,781.0613
"4137",78.853745,781.07446
"4138",78.49241,781.08765
"4139",78.150604,781.1008
"4140",77.840546,781.114
"4141",77.56466,781.1272
"4142",77.32052,781.1404
"4143",77.103226,781.15356
"4144",76.90547,781.16675
"4145",76.715034,781.17993
"4146",76.53437,781.1931
"4147",76.368355,781.2063
"4148",76.23407,781.2195
"4149",76.15839,781.23267
"4150",76.21454,781.24585
"4151",76.490425,781.25903
"4152",77.069046,781.2722
"4153",78.00168,781.2854
"4154",79.27123,781.2986
"4155",80.77516,781.31177
"4156",82.35966,781.32495
"4157",83.8465,781.33813
"4158",85.084305,781.3513
"4159",85.96323,781.3645
"4160",86.451515,781.3777
"4161",86.56382,781.39087
"4162",86.36851,781.40405
"4163",85.9559,781.41724
"4164",85.42611,781.4304
"4165",84.85481,781.4436
"4166",84.298164,781.4568
"4167",83.76837,781.47
"4168",83.25811,781.48315
"4169",82.75517,781.49634
"4170",82.262,781.5095
"4171",81.79324,781.5227
"4172",81.3782,781.5359
"4173",81.041275,781.5491
"4174",80.797134,781.56226
"4175",80.638435,781.57544
"4176",80.54078,781.5886
"4177",80.47242,781.6018
"4178",80.40894,781.615
"4179",80.323494,781.6282
"4180",80.20386,781.64136
"4181",80.045166,781.65454
"4182",79.84009,781.6677
"4183",79.59594,781.6809
"4184",79.3225,781.6941
"4185",79.03685,781.7073
"4186",78.746315,781.72046
"4187",78.46555,781.73364
"4188",78.19943,781.7468
"4189",77.95285,781.76
"4190",77.72579,781.7732
"4191",77.51827,781.7864
"4192",77.32784,781.79956
"4193",77.14961,781.81274
"4194",76.981155,781.8259
"4195",76.805374,781.8391
"4196",76.6247,781.8523
"4197",76.43427,781.8655
"4198",76.26093,781.87866
"4199",76.155945,781.89185
"4200",76.21942,781.905
"4201",76.5539,781.9182
"4202",77.242386,781.9314
"4203",78.30442,781.9446
"4204",79.68627,781.95776
"4205",81.248795,781.97095
"4206",82.811325,781.98413
"4207",84.19318,781.9973
"4208",85.26498,782.0105
"4209",85.96811,782.0237
"4210",86.29771,782.03687
"4211",86.312355,782.05005
"4212",86.09262,782.06323
"4213",85.73373,782.0764
"4214",85.316246,782.0896
"4215",84.88411,782.1028
"4216",84.46906,782.11597
"4217",84.054016,782.12915
"4218",83.62188,782.14233
"4219",83.158005,782.1555
"4220",82.66483,782.1687
"4221",82.16678,782.1819
"4222",81.69558,782.19507
"4223",81.28054,782.20825
"4224",80.93141,782.22144
"4225",80.655525,782.2346
"4226",80.4358,782.2478
"4227",80.24536,782.261
"4228",80.059814,782.2742
"4229",79.84985,782.28735
"4230",79.59838,782.30054
"4231",79.293205,782.3137
"4232",78.94408,782.3269
"4233",78.56809,782.3401
"4234",78.17746,782.3533
"4235",77.789276,782.36646
"4236",77.418175,782.37964
"4237",77.07149,782.3928
"4238",76.75166,782.406
"4239",76.46113,782.4192
"4240",76.19501,782.4324
"4241",75.95331,782.44556
"4242",75.736015,782.45874
"4243",75.543144,782.4719
"4244",75.38445,782.4851
"4245",75.25506,782.4983
"4246",75.15007,782.5115
"4247",75.06706,782.52466
"4248",74.9987,782.53784
"4249",74.93523,782.551
"4250",74.86931,782.5642
"4251",74.80095,782.5774
"4252",74.72282,782.5906
"4253",74.634926,782.60376
"4254",74.54215,782.61694
"4255",74.461586,782.6301
"4256",74.444496,782.6433
"4257",74.57389,782.6565
"4258",74.966965,782.6697
"4259",75.73113,782.68286
"4260",76.93965,782.69604
"4261",78.56565,782.7092
"4262",80.48707,782.7224
"4263",82.50614,782.7356
"4264",84.39582,782.7488
"4265",85.96323,782.76196
"4266",87.096054,782.77515
"4267",87.767456,782.7883
"4268",88.04089,782.8015
"4269",88.026245,782.8147
"4270",87.850464,782.8279
"4271",87.61608,782.84106
"4272",87.396355,782.85425
"4273",87.201035,782.86743
"4274",87.00816,782.8806
"4275",86.76158,782.8938
"4276",86.41245,782.907
"4277",85.926605,782.92017
"4278",85.31869,782.93335
"4279",84.61555,782.94653
"4280",83.88312,782.9597
"4281",83.18974,782.9729
"4282",82.57694,782.9861
"4283",82.06424,782.99927
"4284",81.654076,783.01245
"4285",81.31716,783.02563
"4286",81.02663,783.0388
"4287",80.73609,783.052
"4288",80.428474,783.0652
"4289",80.076904,783.07837
"4290",79.67895,783.09155
"4291",79.237045,783.10474
"4292",78.76341,783.1179
"4293",78.28245,783.1311
"4294",77.80881,783.1443
"4295",77.35226,783.1575
"4296",76.927444,783.17065
"4297",76.53193,783.18384
"4298",76.17059,783.197
"4299",75.841,783.2102
"4300",75.54803,783.2234
"4301",75.284355,783.2366
"4302",75.04997,783.24976
"4303",74.844894,783.26294
"4304",74.666664,783.2761
"4305",74.50797,783.2893
"4306",74.36637,783.3025
"4307",74.23453,783.3157
"4308",74.11734,783.32886
"4309",74.01236,783.34204
"4310",73.92447,783.3552
"4311",73.85367,783.3684
"4312",73.8024,783.3816
"4313",73.76822,783.3948
"4314",73.741356,783.40796
"4315",73.71938,783.42114
"4316",73.704735,783.4343
"4317",73.69985,783.4475
"4318",73.69741,783.4607
"4319",73.69741,783.4739
"4320",73.69253,783.48706
"4321",73.67788,783.50024
"4322",73.653465,783.5134
"4323",73.633934,783.5266
"4324",73.65591,783.5398
"4325",73.80484,783.553
"4326",74.20035,783.56616
"4327",74.96208,783.57935
"4328",76.173035,783.5925
"4329",77.83322,783.6057
"4330",79.835205,783.6189
"4331",81.97391,783.6321
"4332",84.01495,783.64526
"4333",85.748375,783.65845
"4334",87.047226,783.67163
"4335",87.87488,783.6848
"4336",88.27772,783.698
"4337",88.360725,783.7112
"4338",88.25086,783.72437
"4339",88.05798,783.73755
"4340",87.86267,783.75073
"4341",87.69665,783.7639
"4342",87.55749,783.7771
"4343",87.38903,783.7903
"4344",87.132675,783.80347
"4345",86.729836,783.81665
"4346",86.170746,783.82983
"4347",85.47494,783.843
"4348",84.701,783.8562
"4349",83.92462,783.8694
"4350",83.211716,783.88257
"4351",82.6038,783.89575
"4352",82.108185,783.90894
"4353",81.71511,783.9221
"4354",81.3904,783.9353
"4355",81.094986,783.9485
"4356",80.797134,783.9617
"4357",80.47242,783.97485
"4358",80.113525,783.98804
"4359",79.71801,784.0012
"4360",79.28832,784.0144
"4361",78.839096,784.0276
"4362",78.38499,784.0408
"4363",77.9382,784.05396
"4364",77.51583,784.06714
"4365",77.1252,784.0803
"4366",76.771194,784.0935
"4367",76.44892,784.1067
"4368",76.155945,784.1199
"4369",75.88251,784.13306
"4370",75.631035,784.14624
"4371",75.403984,784.1594
"4372",75.1989,784.1726
"4373",75.01335,784.1858
"4374",74.84001,784.199
"4375",74.683754,784.21216
"4376",74.53971,784.22534
"4377",74.41032,784.2385
"4378",74.29557,784.2517
"4379",74.195465,784.2649
"4380",74.11246,784.2781
"4381",74.039215,784.29126
"4382",73.97574,784.30444
"4383",73.92447,784.3176
"4384",73.89029,784.3308
"4385",73.865875,784.344
"4386",73.85123,784.3572
"4387",73.8439,784.37036
"4388",73.85611,784.38354
"4389",73.88052,784.3967
"4390",73.91226,784.4099
"4391",73.953766,784.4231
"4392",73.99527,784.4363
"4393",74.02945,784.44946
"4394",74.05386,784.46265
"4395",74.075836,784.4758
"4396",74.10269,784.489
"4397",74.16373,784.5022
"4398",74.32487,784.5154
"4399",74.683754,784.52856
"4400",75.34783,784.54175
"4401",76.40742,784.55493
"4402",77.88449,784.5681
"4403",79.70336,784.5813
"4404",81.69802,784.5945
"4405",83.64141,784.60767
"4406",85.32845,784.62085
"4407",86.60288,784.63403
"4408",87.40612,784.6472
"4409",87.75769,784.6604
"4410",87.75525,784.6736
"4411",87.51598,784.68677
"4412",87.15953,784.69995
"4413",86.785995,784.71313
"4414",86.44663,784.7263
"4415",86.14633,784.7395
"4416",85.86313,784.7527
"4417",85.55306,784.76587
"4418",85.18196,784.77905
"4419",84.732735,784.79224
"4420",84.23468,784.8054
"4421",83.72442,784.8186
"4422",83.25323,784.8318
"4423",82.85283,784.845
"4424",82.54276,784.85815
"4425",82.30839,784.87134
"4426",82.127716,784.8845
"4427",81.9617,784.8977
"4428",81.78348,784.9109
"4429",81.566185,784.9241
"4430",81.29519,784.93726
"4431",80.96803,784.95044
"4432",80.58961,784.9636
"4433",80.184326,784.9768
"4434",79.76196,784.99
"4435",79.344475,785.0032
"4436",78.94408,785.01636
"4437",78.56809,785.02954
"4438",78.22873,785.0427
"4439",77.92355,785.0559
"4440",77.65499,785.0691
"4441",77.418175,785.0823
"4442",77.205765,785.09546
"4443",77.01045,785.10864
"4444",76.82979,785.1218
"4445",76.66865,785.135
"4446",76.51972,785.1482
"4447",76.387886,785.1614
"4448",76.265816,785.17456
"4449",76.1535,785.18774
"4450",76.04364,785.2009
"4451",75.93622,785.2141
"4452",75.83124,785.2273
"4453",75.72869,785.2405
"4454",75.62859,785.25366
"4455",75.53582,785.26685
"4456",75.45281,785.28
"4457",75.372246,785.2932
"4458",75.2868,785.3064
"4459",75.19646,785.3196
"4460",75.09636,785.33276
"4461",74.9987,785.34595
"4462",74.91814,785.35913
"4463",74.879074,785.3723
"4464",74.92546,785.3855
"4465",75.13054,785.3987
"4466",75.58221,785.41187
"4467",76.3415,785.42505
"4468",77.435265,785.43823
"4469",78.8098,785.4514
"4470",80.34547,785.4646
"4471",81.866486,785.4778
"4472",83.19951,785.49097
"4473",84.210266,785.50415
"4474",84.83528,785.51733
"4475",85.06966,785.5305
"4476",84.972,785.5437
"4477",84.627754,785.5569
"4478",84.13458,785.57007
"4479",83.57549,785.58325
"4480",83.001755,785.59644
"4481",82.43778,785.6096
"4482",81.91287,785.6228
"4483",81.44167,785.636
"4484",81.041275,785.6492
"4485",80.73853,785.66235
"4486",80.54078,785.67554
"4487",80.448006,785.6887
"4488",80.445564,785.7019
"4489",80.50172,785.7151
"4490",80.58961,785.7283
"4491",80.67017,785.74146
"4492",80.71656,785.75464
"4493",80.70435,785.7678
"4494",80.62379,785.781
"4495",80.46754,785.7942
"4496",80.24536,785.8074
"4497",79.971924,785.82056
"4498",79.6643,785.83374
"4499",79.34203,785.8469
"4500",79.01732,785.8601
"4501",78.709694,785.8733
"4502",78.43137,785.8865
"4503",78.19455,785.89966
"4504",77.996796,785.91284
"4505",77.838104,785.926
"4506",77.713585,785.9392
"4507",77.611046,785.9524
"4508",77.5256,785.9656
"4509",77.44503,785.97876
"4510",77.37667,785.99194
"4511",77.32052,786.0051
"4512",77.279015,786.0183
"4513",77.24971,786.0315
"4514",77.23018,786.0447
"4515",77.21309,786.05786
"4516",77.188675,786.07104
"4517",77.15694,786.0842
"4518",77.117874,786.0974
"4519",77.07637,786.1106
"4520",77.03975,786.1238
"4521",77.00801,786.13696
"4522",76.9836,786.15015
"4523",76.94942,786.1633
"4524",76.910355,786.1765
"4525",76.87862,786.1897
"4526",76.893265,786.2029
"4527",77.02754,786.21606
"4528",77.37911,786.22925
"4529",78.04074,786.24243
"4530",79.05394,786.2556
"4531",80.394295,786.2688
"4532",81.9617,786.282
"4533",83.595024,786.29517
"4534",85.11116,786.30835
"4535",86.36118,786.32153
"4536",87.2401,786.3347
"4537",87.711296,786.3479
"4538",87.79675,786.3611
"4539",87.56725,786.37427
"4540",87.115585,786.38745
"4541",86.53452,786.40063
"4542",85.909515,786.4138
"4543",85.28451,786.427
"4544",84.68879,786.4402
"4545",84.122375,786.45337
"4546",83.58526,786.46655
"4547",83.08232,786.47974
"4548",82.63065,786.4929
"4549",82.252235,786.5061
"4550",81.96414,786.5193
"4551",81.77371,786.5325
"4552",81.66628,786.54565
"4553",81.62478,786.55884
"4554",81.61501,786.572
"4555",81.602806,786.5852
"4556",81.56374,786.5984
"4557",81.47585,786.6116
"4558",81.32937,786.62476
"4559",81.11696,786.63794
"4560",80.84108,786.6511
"4561",80.51881,786.6643
"4562",80.15503,786.6775
"4563",79.76929,786.6907
"4564",79.38598,786.70386
"4565",79.0222,786.71704
"4566",78.68284,786.7302
"4567",78.380104,786.7434
"4568",78.11398,786.7566
"4569",77.88205,786.7698
"4570",77.68185,786.78296
"4571",77.51339,786.79614
"4572",77.36935,786.8093
"4573",77.242386,786.8225
