"","ppg","time"
"1",84.95247,707.8379
"2",83.529106,707.8512
"3",82.213165,707.8645
"4",81.06081,707.8778
"5",80.12573,707.8911
"6",79.44213,707.9044
"7",79.00023,707.9177
"8",78.77074,707.931
"9",78.692604,707.94434
"10",78.70481,707.95764
"11",78.74143,707.97095
"12",78.751205,707.98425
"13",78.692604,707.99756
"14",78.54612,708.01086
"15",78.30442,708.0242
"16",77.96506,708.0375
"17",77.54269,708.0508
"18",77.06172,708.0641
"19",76.544136,708.0774
"20",76.00214,708.0907
"21",75.46258,708.104
"22",74.94011,708.1173
"23",74.44694,708.1306
"24",73.99283,708.1439
"25",73.58999,708.1572
"26",73.23598,708.17053
"27",72.94057,708.18384
"28",72.706184,708.19714
"29",72.52796,708.21045
"30",72.40833,708.22375
"31",72.34486,708.23706
"32",72.33021,708.25037
"33",72.3473,708.2637
"34",72.3888,708.277
"35",72.444954,708.2903
"36",72.498665,708.3036
"37",72.54749,708.3169
"38",72.59632,708.3302
"39",72.66224,708.3435
"40",72.80385,708.3568
"41",73.15297,708.3701
"42",73.88541,708.3834
"43",75.18425,708.3967
"44",77.14961,708.41003
"45",79.73266,708.42334
"46",82.73319,708.43665
"47",85.83139,708.44995
"48",88.67567,708.46326
"49",90.98039,708.47656
"50",92.577095,708.48987
"51",93.41451,708.5032
"52",93.539024,708.5165
"53",93.05806,708.5298
"54",92.11322,708.5431
"55",90.85344,708.5564
"56",89.40322,708.5697
"57",87.85779,708.583
"58",86.29282,708.5963
"59",84.754715,708.6096
"60",83.29717,708.6229
"61",81.97879,708.6362
"62",80.86061,708.64954
"63",79.9939,708.66284
"64",79.40307,708.67615
"65",79.080795,708.68945
"66",78.97826,708.70276
"67",79.03685,708.71606
"68",79.18089,708.7294
"69",79.33715,708.7427
"70",79.449455,708.756
"71",79.47387,708.7693
"72",79.38354,708.7826
"73",79.17357,708.7959
"74",78.84886,708.8092
"75",78.42649,708.8225
"76",77.925995,708.8358
"77",77.37667,708.8491
"78",76.8127,708.8624
"79",76.25361,708.87573
"80",75.718925,708.88904
"81",75.22331,708.90234
"82",74.78142,708.91565
"83",74.38834,708.92896
"84",74.056305,708.94226
"85",73.78287,708.95557
"86",73.57046,708.9689
"87",73.409325,708.9822
"88",73.29946,708.9955
"89",73.23598,709.0088
"90",73.216446,709.0221
"91",73.233536,709.0354
"92",73.28481,709.0487
"93",73.3605,709.062
"94",73.45571,709.0753
"95",73.55825,709.0886
"96",73.65591,709.1019
"97",73.74868,709.11523
"98",73.831696,709.12854
"99",73.900055,709.14185
"100",73.95865,709.15515
"101",74.03189,709.16846
"102",74.195465,709.18176
"103",74.59586,709.19507
"104",75.41375,709.2084
"105",76.81026,709.2217
"106",78.839096,709.235
"107",81.41482,709.2483
"108",84.30305,709.2616
"109",87.17174,709.2749
"110",89.688866,709.2882
"111",91.61028,709.3015
"112",92.81392,709.3148
"113",93.280235,709.3281
"114",93.08003,709.34143
"115",92.32807,709.35474
"116",91.16594,709.36804
"117",89.720604,709.38135
"118",88.09949,709.39465
"119",86.3856,709.40796
"120",84.66926,709.42126
"121",83.03105,709.4346
"122",81.566185,709.4479
"123",80.36744,709.4612
"124",79.51537,709.4745
"125",79.04173,709.4878
"126",78.924545,709.5011
"127",79.09056,709.5144
"128",79.43969,709.5277
"129",79.85962,709.541
"130",80.255135,709.5543
"131",80.55543,709.5676
"132",80.71168,709.58093
"133",80.70191,709.59424
"134",80.533455,709.60754
"135",80.22095,709.62085
"136",79.79126,709.63416
"137",79.281,709.64746
"138",78.7219,709.66077
"139",78.14084,709.6741
"140",77.56466,709.6874
"141",77.01289,709.7007
"142",76.49775,709.714
"143",76.03143,709.7273
"144",75.61639,709.7406
"145",75.25994,709.7539
"146",74.96208,709.7672
"147",74.72526,709.7805
"148",74.54459,709.7938
"149",74.4152,709.8071
"150",74.32731,709.82043
"151",74.28336,709.83374
"152",74.27116,709.84705
"153",74.285805,709.86035
"154",74.319984,709.87366
"155",74.37614,709.88696
"156",74.442055,709.90027
"157",74.510414,709.9136
"158",74.57877,709.9269
"159",74.649574,709.9402
"160",74.70573,709.9535
"161",74.74967,709.9668
"162",74.78142,709.9801
"163",74.8156,709.9934
"164",74.89128,710.0067
"165",75.123215,710.02
"166",75.68963,710.0333
"167",76.78584,710.04663
"168",78.538795,710.05994
"169",80.95094,710.07324
"170",83.8587,710.08655
"171",86.959335,710.09985
"172",89.89151,710.11316
"173",92.34516,710.12646
"174",94.115204,710.1398
"175",95.11864,710.1531
"176",95.37743,710.1664
"177",94.97948,710.1797
"178",94.06149,710.193
"179",92.77486,710.2063
"180",91.26116,710.2196
"181",89.62783,710.2329
"182",87.953,710.2462
"183",86.29771,710.2595
"184",84.715645,710.2728
"185",83.265434,710.28613
"186",82.01541,710.29944
"187",81.03395,710.31274
"188",80.36256,710.32605
"189",79.9939,710.33936
"190",79.88403,710.35266
"191",79.954834,710.36597
"192",80.113525,710.3793
"193",80.28199,710.3926
"194",80.38941,710.4059
"195",80.39185,710.4192
"196",80.26734,710.4325
"197",80.008545,710.4458
"198",79.62524,710.4591
"199",79.14183,710.4724
"200",78.590065,710.4857
"201",77.99924,710.499
"202",77.3962,710.5123
"203",76.79805,710.52563
"204",76.226746,710.53894
"205",75.69695,710.55225
"206",75.211105,710.56555
"207",74.78142,710.57886
"208",74.4152,710.59216
"209",74.107574,710.60547
"210",73.85367,710.6188
"211",73.64858,710.6321
"212",73.49966,710.6454
"213",73.392235,710.6587
"214",73.321434,710.672
"215",73.289696,710.6853
"216",73.28481,710.6986
"217",73.29946,710.7119
"218",73.33364,710.7252
"219",73.38491,710.7385
"220",73.45327,710.75183
"221",73.53384,710.76514
"222",73.62905,710.77844
"223",73.72671,710.79175
"224",73.81705,710.80505
"225",73.89761,710.81836
"226",73.96597,710.83167
"227",74.019684,710.845
"228",74.07095,710.8583
"229",74.16373,710.8716
"230",74.41276,710.8849
"231",74.9987,710.8982
"232",76.13397,710.9115
"233",77.96994,710.9248
"234",80.52125,710.9381
"235",83.63409,710.9514
"236",87.00328,710.9647
"237",90.252846,710.978
"238",93.03609,710.99133
"239",95.11864,711.00464
"240",96.4004,711.01794
"241",96.88869,711.03125
"242",96.67628,711.04456
"243",95.90723,711.05786
"244",94.73777,711.07117
"245",93.32174,711.0845
"246",91.78607,711.0978
"247",90.20889,711.1111
"248",88.64149,711.1244
"249",87.115585,711.1377
"250",85.6556,711.151
"251",84.30549,711.1643
"252",83.12138,711.1776
"253",82.15213,711.1909
"254",81.42947,711.2042
"255",80.94118,711.2175
"256",80.65308,711.23083
"257",80.51392,711.24414
"258",80.45289,711.25745
"259",80.411385,711.27075
"260",80.343025,711.28406
"261",80.2063,711.29736
"262",79.971924,711.31067
"263",79.63744,711.324
"264",79.20531,711.3373
"265",78.695045,711.3506
"266",78.13107,711.3639
"267",77.52804,711.3772
"268",76.90791,711.3905
"269",76.28535,711.4038
"270",75.682304,711.4171
"271",75.10857,711.4304
"272",74.58366,711.4437
"273",74.11246,711.45703
"274",73.69985,711.47034
"275",73.35317,711.48364
"276",73.06996,711.49695
"277",72.85512,711.51025
"278",72.7013,711.52356
"279",72.60609,711.53687
"280",72.552376,711.5502
"281",72.54017,711.5635
"282",72.55482,711.5768
"283",72.59388,711.5901
"284",72.65003,711.6034
"285",72.725716,711.6167
"286",72.8185,711.63
"287",72.918594,711.6433
"288",73.023575,711.6566
"289",73.131,711.6699
"290",73.23842,711.6832
"291",73.34341,711.69653
"292",73.43862,711.70984
"293",73.52163,711.72314
"294",73.58999,711.73645
"295",73.6437,711.74976
"296",73.70229,711.76306
"297",73.82681,711.77637
"298",74.14908,711.7897
"299",74.86931,711.803
"300",76.17792,711.8163
"301",78.17502,711.8296
"302",80.82155,711.8429
"303",83.90509,711.8562
"304",87.096054,711.8695
"305",90.02579,711.8828
"306",92.40131,711.8961
"307",94.05173,711.9094
"308",94.92821,711.9227
"309",95.07225,711.93604
"310",94.588844,711.94934
"311",93.626915,711.96265
"312",92.32075,711.97595
"313",90.79973,711.98926
"314",89.1664,712.00256
"315",87.49645,712.01587
"316",85.84848,712.0292
"317",84.2884,712.0425
"318",82.88701,712.0558
"319",81.71999,712.0691
"320",80.848404,712.0824
"321",80.30396,712.0957
"322",80.07202,712.109
"323",80.10132,712.1223
"324",80.308846,712.1356
"325",80.59693,712.1489
"326",80.88014,712.16223
"327",81.08522,712.17554
"328",81.16823,712.18884
"329",81.10231,712.20215
"330",80.885025,712.21545
"331",80.52613,712.22876
"332",80.05249,712.24207
"333",79.50317,712.2554
"334",78.90257,712.2687
"335",78.28245,712.282
"336",77.66964,712.2953
"337",77.08125,712.3086
"338",76.524605,712.3219
"339",76.01434,712.3352
"340",75.55779,712.3485
"341",75.159836,712.3618
"342",74.82048,712.3751
"343",74.54459,712.3884
"344",74.322426,712.40173
"345",74.14908,712.41504
"346",74.02701,712.42834
"347",73.953766,712.44165
"348",73.919586,712.45496
"349",73.92691,712.46826
"350",73.968414,712.48157
"351",74.03677,712.4949
"352",74.11978,712.5082
"353",74.215,712.5215
"354",74.31754,712.5348
"355",74.4152,712.5481
"356",74.49821,712.5614
"357",74.56168,712.5747
"358",74.60807,712.588
"359",74.63737,712.6013
"360",74.67643,712.6146
"361",74.80095,712.6279
"362",75.159836,712.64124
"363",75.948425,712.65454
"364",77.33517,712.66785
"365",79.37621,712.68115
"366",81.98123,712.69446
"367",84.90852,712.70776
"368",87.82117,712.72107
"369",90.38712,712.7344
"370",92.36225,712.7477
"371",93.62936,712.761
"372",94.17624,712.7743
"373",94.05905,712.7876
"374",93.3901,712.8009
"375",92.30366,712.8142
"376",90.934006,712.8275
"377",89.38613,712.8408
"378",87.745476,712.8541
"379",86.07797,712.86743
"380",84.454414,712.88074
"381",82.93584,712.89404
"382",81.600365,712.90735
"383",80.52857,712.92065
"384",79.77417,712.93396
"385",79.361565,712.94727
"386",79.259026,712.9606
"387",79.398186,712.9739
"388",79.68627,712.9872
"389",80.02075,713.0005
"390",80.31617,713.0138
"391",80.51148,713.0271
"392",80.570076,713.0404
"393",80.479744,713.0537
"394",80.23804,713.067
"395",79.86206,713.0803
"396",79.381096,713.0936
"397",78.82689,713.10693
"398",78.23605,713.12024
"399",77.64034,713.13354
"400",77.05928,713.14685
"401",76.51484,713.16016
"402",76.016785,713.17346
"403",75.579765,713.18677
"404",75.20622,713.2001
"405",74.88884,713.2134
"406",74.6276,713.2267
"407",74.41032,713.24
"408",74.23453,713.2533
"409",74.09781,713.2666
"410",73.99771,713.2799
"411",73.934235,713.2932
"412",73.900055,713.3065
"413",73.882965,713.3198
"414",73.88052,713.3331
"415",73.89761,713.34644
"416",73.92447,713.35974
"417",73.95865,713.37305
"418",74.005035,713.38635
"419",74.05386,713.39966
"420",74.09537,713.41296
"421",74.12222,713.4263
"422",74.144196,713.4396
"423",74.20035,713.4529
"424",74.39811,713.4662
"425",74.91081,713.4795
"426",75.96063,713.4928
"427",77.70382,713.5061
"428",80.15991,713.5194
"429",83.17021,713.5327
"430",86.451515,713.546
"431",89.62295,713.5593
"432",92.350044,713.57263
"433",94.40574,713.58594
"434",95.6997,713.59924
"435",96.23682,713.61255
"436",96.10254,713.62585
"437",95.42626,713.63916
"438",94.35935,713.65247
"439",93.050735,713.6658
"440",91.60296,713.6791
"441",90.108795,713.6924
"442",88.61219,713.7057
"443",87.14244,713.719
"444",85.731285,713.7323
"445",84.420235,713.7456
"446",83.25811,713.7589
"447",82.30106,713.7722
"448",81.58083,713.7855
"449",81.09987,713.7988
"450",80.831314,713.81213
"451",80.72144,713.82544
"452",80.706795,713.83875
"453",80.723885,713.85205
"454",80.71412,713.86536
"455",80.64332,713.87866
"456",80.479744,713.89197
"457",80.21118,713.9053
"458",79.835205,713.9186
"459",79.364006,713.9319
"460",78.81468,713.9452
"461",78.21652,713.9585
"462",77.591515,713.9718
"463",76.96895,713.9851
"464",76.3708,713.9984
"465",75.80682,714.0117
"466",75.28924,714.025
"467",74.82292,714.0383
"468",74.4152,714.05164
"469",74.06607,714.06494
"470",73.780426,714.07825
"471",73.56069,714.09155
"472",73.392235,714.10486
"473",73.27749,714.11816
"474",73.2018,714.1315
"475",73.16518,714.1448
"476",73.15785,714.1581
"477",73.18227,714.1714
"478",73.22621,714.1847
"479",73.287254,714.198
"480",73.3605,714.2113
"481",73.43862,714.2246
"482",73.51675,714.2379
"483",73.585106,714.2512
"484",73.64126,714.2645
"485",73.68032,714.27783
"486",73.71938,714.29114
"487",73.80972,714.30444
"488",74.0856,714.31775
"489",74.73258,714.33105
"490",75.95575,714.34436
"491",77.872284,714.35767
"492",80.45289,714.371
"493",83.50713,714.3843
"494",86.70542,714.3976
"495",89.68154,714.4109
"496",92.13275,714.4242
"497",93.87839,714.4375
"498",94.85252,714.4508
"499",95.09178,714.4641
"500",94.69871,714.4774
"501",93.81003,714.4907
"502",92.57465,714.504
"503",91.124435,714.51733
"504",89.57168,714.53064
"505",87.98474,714.54395
"506",86.414894,714.55725
"507",84.90364,714.57056
"508",83.50469,714.58386
"509",82.27909,714.59717
"510",81.28054,714.6105
"511",80.54566,714.6238
"512",80.08667,714.6371
"513",79.87671,714.6504
"514",79.85718,714.6637
"515",79.95972,714.677
"516",80.113525,714.6903
"517",80.2478,714.7036
"518",80.31617,714.7169
"519",80.28199,714.7302
"520",80.128174,714.7435
"521",79.85718,714.75684
"522",79.47387,714.77014
"523",78.99779,714.78345
"524",78.45579,714.79675
"525",77.87717,714.81006
"526",77.2839,714.82336
"527",76.697945,714.8367
"528",76.12909,714.85
"529",75.59441,714.8633
"530",75.10368,714.8766
"531",74.669106,714.8899
"532",74.29313,714.9032
"533",73.98062,714.9165
"534",73.73647,714.9298
"535",73.548485,714.9431
"536",73.41421,714.9564
"537",73.323875,714.9697
"538",73.27505,714.98303
"539",73.26528,714.99634
"540",73.28481,715.00964
"541",73.3312,715.02295
"542",73.39712,715.03625
"543",73.48257,715.04956
"544",73.5729,715.06287
"545",73.66567,715.0762
"546",73.75357,715.0895
"547",73.829254,715.1028
"548",73.89029,715.1161
"549",73.936676,715.1294
"550",73.99039,715.1427
"551",74.1149,715.156
"552",74.459145,715.1693
"553",75.21355,715.1826
"554",76.54658,715.1959
"555",78.53147,715.2092
"556",81.08034,715.22253
"557",83.95392,715.23584
"558",86.80553,715.24915
"559",89.305565,715.26245
"560",91.21477,715.27576
"561",92.41596,715.28906
"562",92.90181,715.30237
"563",92.74067,715.3157
"564",92.03754,715.329
"565",90.914474,715.3423
"566",89.498436,715.3556
"567",87.904175,715.3689
"568",86.21713,715.3822
"569",84.51545,715.3955
"570",82.86748,715.4088
"571",81.35378,715.4221
"572",80.0647,715.4354
"573",79.08568,715.4487
"574",78.4802,715.46204
"575",78.26292,715.47534
"576",78.38743,715.48865
"577",78.75609,715.50195
"578",79.256584,715.51526
"579",79.77417,715.52856
"580",80.216064,715.5419
"581",80.52369,715.5552
"582",80.66529,715.5685
"583",80.638435,715.5818
"584",80.448006,715.5951
"585",80.128174,715.6084
"586",79.70092,715.6217
"587",79.20531,715.635
"588",78.67063,715.6483
"589",78.12375,715.6616
"590",77.58663,715.6749
"591",77.07881,715.68823
"592",76.610054,715.70154
"593",76.18768,715.71484
"594",75.81659,715.72815
"595",75.494316,715.74146
"596",75.22331,715.75476
"597",74.99626,715.76807
"598",74.81804,715.7814
"599",74.686195,715.7947
"600",74.59586,715.808
"601",74.54459,715.8213
"602",74.53483,715.8346
"603",74.56168,715.8479
"604",74.62028,715.8612
"605",74.703285,715.8745
"606",74.80095,715.8878
"607",74.91081,715.9011
"608",75.01579,715.9144
"609",75.11101,715.92773
"610",75.194016,715.94104
"611",75.27947,715.95435
"612",75.44305,715.96765
"613",75.83368,715.98096
"614",76.63447,715.99426
"615",78.01633,716.00757
"616",80.042725,716.0209
"617",82.60868,716.0342
"618",85.472496,716.0475
"619",88.29725,716.0608
"620",90.75334,716.0741
"621",92.611275,716.0874
"622",93.7612,716.1007
"623",94.21042,716.114
"624",94.032196,716.1273
"625",93.34127,716.1406
"626",92.264595,716.15393
"627",90.931564,716.16724
"628",89.45205,716.18054
"629",87.90906,716.19385
"630",86.366066,716.20715
"631",84.86458,716.22046
"632",83.455864,716.23376
"633",82.196075,716.2471
"634",81.15358,716.2604
"635",80.38697,716.2737
"636",79.9353,716.287
"637",79.781494,716.3003
"638",79.8645,716.3136
"639",80.09155,716.3269
"640",80.37476,716.3402
"641",80.63355,716.3535
"642",80.816666,716.3668
"643",80.89235,716.3801
"644",80.84108,716.39343
"645",80.67017,716.40674
"646",80.37965,716.42004
"647",79.99878,716.43335
"648",79.55932,716.44666
"649",79.097885,716.45996
"650",78.63645,716.47327
"651",78.20676,716.4866
"652",77.823456,716.4999
"653",77.503624,716.5132
"654",77.25948,716.5265
"655",77.103226,716.5398
"656",77.032425,716.5531
"657",77.02754,716.5664
"658",77.06416,716.5797
"659",77.11055,716.593
"660",77.134964,716.6063
"661",77.10567,716.6196
"662",77.015335,716.63293
"663",76.86885,716.64624
"664",76.68574,716.65955
"665",76.48554,716.67285
"666",76.29511,716.68616
"667",76.12421,716.69946
"668",75.97284,716.71277
"669",75.83124,716.7261
"670",75.7116,716.7394
"671",75.60906,716.7527
"672",75.52361,716.766
"673",75.47234,716.7793
"674",75.51873,716.7926
"675",75.77753,716.8059
"676",76.419624,716.8192
"677",77.608604,716.8325
"678",79.41039,716.8458
"679",81.73464,716.85913
"680",84.35676,716.87244
"681",86.94713,716.88574
"682",89.18837,716.89905
"683",90.87053,716.91235
"684",91.91547,716.92566
"685",92.352486,716.93896
"686",92.27924,716.9523
"687",91.81537,716.9656
"688",91.08049,716.9789
"689",90.16739,716.9922
"690",89.15175,717.0055
"691",88.094604,717.0188
"692",87.027695,717.0321
"693",85.9559,717.0454
"694",84.8719,717.0587
"695",83.76593,717.072
"696",82.64042,717.0853
"697",81.50759,717.09863
"698",80.394295,717.11194
"699",79.32494,717.12524
"700",78.33372,717.13855
"701",77.4255,717.15186
"702",76.592964,717.16516
"703",75.81903,717.17847
"704",75.08415,717.1918
"705",74.373695,717.2051
"706",73.67788,717.2184
"707",73.0016,717.2317
"708",72.359505,717.245
"709",71.74914,717.2583
"710",71.168076,717.2716
"711",70.61143,717.2849
"712",70.07919,717.2982
"713",69.56893,717.3115
"714",69.09041,717.3248
"715",68.65339,717.33813
"716",68.26765,717.35144
"717",67.93317,717.36475
"718",67.64019,717.37805
"719",67.39117,717.39136
"720",67.1812,717.40466
"721",67.002975,717.41797
"722",66.85405,717.4313
"723",66.73197,717.4446
"724",66.63676,717.4579
"725",66.57084,717.4712
"726",66.54154,717.4845
"727",66.54887,717.4978
"728",66.600136,717.5111
"729",66.67826,717.5244
"730",66.78325,717.5377
"731",66.90044,717.551
"732",67.037155,717.56433
"733",67.19829,717.57764
"734",67.388725,717.59094
"735",67.61089,717.60425
"736",67.90631,717.61755
"737",68.43122,717.63086
"738",69.44686,717.64417
"739",71.20714,717.6575
"740",73.82681,717.6708
"741",77.205765,717.6841
"742",81.03883,717.6974
"743",84.89143,717.7107
"744",88.3534,717.724
"745",91.17082,717.7373
"746",93.28512,717.7506
"747",94.752426,717.7639
"748",95.67773,717.7772
"749",96.163574,717.7905
"750",96.3003,717.80383
"751",96.15869,717.81714
"752",95.7876,717.83044
"753",95.23094,717.84375
"754",94.540016,717.85706
"755",93.78073,717.87036
"756",93.02876,717.88367
"757",92.35493,717.897
"758",91.80316,717.9103
"759",91.393,717.9236
"760",91.11467,717.9369
"761",90.94621,717.9502
"762",90.851,717.9635
"763",90.78264,717.9768
"764",90.684975,717.9901
"765",90.50431,718.0034
"766",90.196686,718.0167
"767",89.73769,718.03
"768",89.13954,718.04333
"769",88.41932,718.05664
"770",87.6112,718.06995
"771",86.74204,718.08325
"772",85.824066,718.09656
"773",84.876785,718.10986
"774",83.90509,718.12317
"775",82.91875,718.1365
"776",81.92752,718.1498
"777",80.936295,718.1631
"778",79.954834,718.1764
"779",78.9807,718.1897
"780",78.00656,718.203
"781",77.02754,718.2163
"782",76.0412,718.2296
"783",75.052414,718.2429
"784",74.10025,718.2562
"785",73.255516,718.26953
"786",72.54505,718.28284
"787",71.95178,718.29614
"788",71.41955,718.30945
"789",70.91417,718.32275
"790",70.40879,718.33606
"791",69.91806,718.34937
"792",69.488365,718.3627
"793",69.16365,718.376
"794",68.95613,718.3893
"795",68.85359,718.4026
"796",68.9366,718.4159
"797",69.39071,718.4292
"798",70.44053,718.4425
"799",72.217896,718.4558
"800",74.669106,718.4691
"801",77.57198,718.4824
"802",80.56519,718.4957
"803",83.27764,718.50903
"804",85.45541,718.52234
"805",87.02281,718.53564
"806",88.009155,718.54895
"807",88.499886,718.56226
"808",88.59266,718.57556
"809",88.36805,718.58887
"810",87.89197,718.6022
"811",87.220566,718.6155
"812",86.397804,718.6288
"813",85.46029,718.6421
"814",84.45197,718.6554
"815",83.40948,718.6687
"816",82.35966,718.682
"817",81.32937,718.6953
"818",80.32838,718.7086
"819",79.36645,718.7219
"820",78.45579,718.7352
"821",77.611046,718.74854
"822",76.839554,718.76184
"823",76.155945,718.77515
"824",75.55291,718.78845
"825",75.02312,718.80176
"826",74.55436,718.81506
"827",74.13443,718.82837
"828",73.760895,718.8417
"829",73.42397,718.855
"830",73.10658,718.8683
"831",72.80385,718.8816
"832",72.50599,718.8949
"833",72.21301,718.9082
"834",71.93713,718.9215
"835",71.70031,718.9348
"836",71.51232,718.9481
"837",71.38537,718.9614
"838",71.329216,718.97473
"839",71.326775,718.98804
"840",71.36584,719.00134
"841",71.42687,719.01465
"842",71.502556,719.02795
"843",71.58068,719.04126
"844",71.66613,719.05457
"845",71.763794,719.0679
"846",71.885864,719.0812
"847",72.025024,719.0945
"848",72.1886,719.1078
"849",72.35462,719.1211
"850",72.50843,719.1344
"851",72.64515,719.1477
"852",72.75502,719.161
"853",72.84779,719.1743
"854",72.94057,719.1876
"855",73.05531,719.2009
"856",73.23598,719.21423
"857",73.60464,719.22754
"858",74.36393,719.24084
"859",75.72625,719.25415
"860",77.7673,719.26746
"861",80.40894,719.28076
"862",83.39239,719.29407
"863",86.33189,719.3074
"864",88.85634,719.3207
"865",90.7338,719.334
"866",91.91058,719.3473
"867",92.46723,719.3606
"868",92.52827,719.3739
"869",92.23773,719.3872
"870",91.700615,719.4005
"871",91.002365,719.4138
"872",90.18692,719.4271
"873",89.29336,719.4404
"874",88.343636,719.45374
"875",87.3695,719.46704
"876",86.39292,719.48035
"877",85.44076,719.49365
"878",84.53254,719.50696
"879",83.685356,719.52026
"880",82.913864,719.53357
"881",82.22781,719.5469
"882",81.63943,719.5602
"883",81.13893,719.5735
"884",80.719,719.5868
"885",80.36988,719.6001
"886",80.06958,719.6134
"887",79.798584,719.6267
"888",79.54711,719.64
"889",79.30541,719.6533
"890",79.07347,719.6666
"891",78.84642,719.67993
"892",78.61936,719.69324
"893",78.38499,719.70654
"894",78.14572,719.71985
"895",77.90646,719.73315
"896",77.679405,719.74646
"897",77.48165,719.75977
"898",77.31808,719.7731
"899",77.18623,719.7864
"900",77.07881,719.7997
"901",76.99336,719.813
"902",76.92012,719.8263
"903",76.86153,719.8396
"904",76.8127,719.8529
"905",76.77852,719.8662
"906",76.75899,719.8795
"907",76.749214,719.8928
"908",76.74189,719.9061
"909",76.732124,719.91943
"910",76.70771,719.93274
"911",76.66865,719.94604
"912",76.610054,719.95935
"913",76.54902,719.97266
"914",76.48554,719.98596
"915",76.45136,719.99927
"916",76.5124,720.0126
"917",76.83467,720.0259
"918",77.659874,720.0392
"919",79.234604,720.0525
"920",81.67361,720.0658
"921",84.91341,720.0791
"922",88.687874,720.0924
"923",92.577095,720.1057
"924",96.131836,720.119
"925",99.020065,720.1323
"926",101.08797,720.1456
"927",102.32334,720.15894
"928",102.83116,720.17224
"929",102.77989,720.18555
"930",102.33799,720.19885
"931",101.64217,720.21216
"932",100.78035,720.22546
"933",99.80133,720.2388
"934",98.72465,720.2521
"935",97.57229,720.2654
"936",96.39063,720.2787
"937",95.238266,720.292
"938",94.17868,720.3053
"939",93.25826,720.3186
"940",92.49897,720.3319
"941",91.895935,720.3452
"942",91.41741,720.3585
"943",91.01701,720.3718
"944",90.64591,720.38513
"945",90.247955,720.39844
"946",89.79141,720.41174
"947",89.249405,720.42505
"948",88.619514,720.43835
"949",87.90906,720.45166
"950",87.13512,720.46497
"951",86.31724,720.4783
"952",85.47494,720.4916
"953",84.62287,720.5049
"954",83.773254,720.5182
"955",82.93828,720.5315
"956",82.13016,720.5448
"957",81.35378,720.5581
"958",80.62623,720.5714
"959",79.96216,720.5847
"960",79.37133,720.598
"961",78.853745,720.6113
"962",78.399635,720.62463
"963",78.00168,720.63794
"964",77.64034,720.65125
"965",77.31808,720.66455
"966",77.02266,720.67786
"967",76.756546,720.69116
"968",76.51728,720.70447
"969",76.30244,720.7178
"970",76.10712,720.7311
"971",75.93866,720.7444
"972",75.792175,720.7577
"973",75.650566,720.771
"974",75.4992,720.7843
"975",75.3283,720.7976
"976",75.15007,720.8109
"977",75.01579,720.8242
"978",75.054855,720.8375
"979",75.44793,720.8508
"980",76.3708,720.86414
"981",77.91135,720.87744
"982",80.02319,720.89075
"983",82.511024,720.90405
"984",85.08186,720.91736
"985",87.41833,720.93066
"986",89.271385,720.944
"987",90.528725,720.9573
"988",91.17082,720.9706
"989",91.26116,720.9839
"990",90.899826,720.9972
"991",90.20157,721.0105
"992",89.27383,721.0238
"993",88.199585,721.0371
"994",87.044785,721.0504
"995",85.84848,721.0637
"996",84.63264,721.077
"997",83.42901,721.09033
"998",82.27665,721.10364
"999",81.231705,721.11694
"1000",80.34058,721.13025
"1001",79.64965,721.14355
"1002",79.17113,721.15686
"1003",78.890366,721.17017
"1004",78.75365,721.1835
"1005",78.70481,721.1968
"1006",78.6804,721.2101
"1007",78.63401,721.2234
"1008",78.53391,721.2367
"1009",78.35325,721.25
"1010",78.08957,721.2633
"1011",77.73556,721.2766
"1012",77.30587,721.2899
"1013",76.81026,721.3032
"1014",76.27802,721.3165
"1015",75.73113,721.32983
"1016",75.194016,721.34314
"1017",74.67643,721.35645
"1018",74.195465,721.36975
"1019",73.74624,721.38306
"1020",73.33364,721.39636
"1021",72.955215,721.40967
"1022",72.61585,721.423
"1023",72.31312,721.4363
"1024",72.05188,721.4496
"1025",71.83948,721.4629
"1026",71.675896,721.4762
"1027",71.56115,721.4895
"1028",71.48791,721.5028
"1029",71.448845,721.5161
"1030",71.431755,721.5294
"1031",71.44152,721.5427
"1032",71.47326,721.556
"1033",71.53185,721.56934
"1034",71.605095,721.58264
"1035",71.68566,721.59595
"1036",71.76135,721.60925
"1037",71.82239,721.62256
"1038",71.86633,721.63586
"1039",71.90051,721.6492
"1040",71.96643,721.6625
"1041",72.15442,721.6758
"1042",72.61585,721.6891
"1043",73.53384,721.7024
"1044",75.04021,721.7157
"1045",77.13985,721.729
"1046",79.68871,721.7423
"1047",82.41825,721.7556
"1048",85.0013,721.7689
"1049",87.15465,721.7822
"1050",88.707405,721.79553
"1051",89.600975,721.80884
"1052",89.87686,721.82214
"1053",89.62539,721.83545
"1054",88.96376,721.84875
"1055",88.02136,721.86206
"1056",86.91051,721.87537
"1057",85.72396,721.8887
"1058",84.51301,721.902
"1059",83.30694,721.9153
"1060",82.1326,721.9286
"1061",81.01686,721.9419
"1062",80.00366,721.9552
"1063",79.149155,721.9685
"1064",78.502174,721.9818
"1065",78.082245,721.9951
"1066",77.87717,722.0084
"1067",77.838104,722.0217
"1068",77.90158,722.03503
"1069",78.00412,722.04834
"1070",78.101776,722.06165
"1071",78.15549,722.07495
"1072",78.14328,722.08826
"1073",78.05539,722.10156
"1074",77.88205,722.11487
"1075",77.62081,722.1282
"1076",77.279015,722.1415
"1077",76.87862,722.1548
"1078",76.4416,722.1681
"1079",75.99481,722.1814
"1080",75.56512,722.1947
"1081",75.16228,722.208
"1082",74.80583,722.2213
"1083",74.495766,722.2346
"1084",74.229645,722.2479
"1085",74.005035,722.2612
"1086",73.814606,722.27454
"1087",73.64858,722.28784
"1088",73.50942,722.30115
"1089",73.39468,722.31445
"1090",73.304344,722.32776
"1091",73.23598,722.34106
"1092",73.18471,722.3544
"1093",73.15297,722.3677
"1094",73.14076,722.381
"1095",73.14809,722.3943
"1096",73.17494,722.4076
"1097",73.21889,722.4209
"1098",73.27505,722.4342
"1099",73.33608,722.4475
"1100",73.39712,722.4608
"1101",73.45083,722.4741
"1102",73.49233,722.4874
"1103",73.531395,722.50073
"1104",73.582664,722.51404
"1105",73.70229,722.52734
"1106",74.022125,722.54065
"1107",74.72282,722.55396
"1108",75.95819,722.56726
"1109",77.79172,722.58057
"1110",80.15015,722.5939
"1111",82.81621,722.6072
"1112",85.47494,722.6205
"1113",87.8114,722.6338
"1114",89.59853,722.6471
"1115",90.721596,722.6604
"1116",91.175705,722.6737
"1117",91.02678,722.687
"1118",90.37736,722.7003
"1119",89.356834,722.7136
"1120",88.08728,722.7269
"1121",86.676125,722.74023
"1122",85.19173,722.75354
"1123",83.70733,722.76685
"1124",82.266884,722.78015
"1125",80.93385,722.79346
"1126",79.77173,722.80676
"1127",78.8513,722.82007
"1128",78.23117,722.8334
"1129",77.93332,722.8467
"1130",77.93576,722.86
"1131",78.17746,722.8733
"1132",78.56565,722.8866
"1133",79.00023,722.8999
"1134",79.40307,722.9132
"1135",79.710686,722.9265
"1136",79.888916,722.9398
"1137",79.92554,722.9531
"1138",79.818115,722.96643
"1139",79.58129,722.97974
"1140",79.24193,722.99304
"1141",78.82933,723.00635
"1142",78.37278,723.01965
"1143",77.90402,723.03296
"1144",77.44015,723.04626
"1145",76.998245,723.0596
"1146",76.58076,723.0729
"1147",76.209656,723.0862
"1148",75.894714,723.0995
"1149",75.6408,723.1128
"1150",75.4284,723.1261
"1151",75.250175,723.1394
"1152",75.10857,723.1527
"1153",74.99626,723.166
"1154",74.91814,723.1793
"1155",74.879074,723.1926
"1156",74.87663,723.20593
"1157",74.898605,723.21924
"1158",74.94011,723.23254
"1159",75.00603,723.24585
"1160",75.10124,723.25916
"1161",75.21599,723.27246
"1162",75.34539,723.28577
"1163",75.48943,723.2991
"1164",75.67986,723.3124
"1165",75.928894,723.3257
"1166",76.25605,723.339
"1167",76.717476,723.3523
"1168",77.420616,723.3656
"1169",78.49485,723.3789
"1170",80.05493,723.3922
"1171",82.1326,723.4055
"1172",84.627754,723.4188
"1173",87.291374,723.4321
"1174",89.82315,723.44543
"1175",91.95453,723.45874
"1176",93.524376,723.47205
"1177",94.47654,723.48535
"1178",94.82567,723.49866
"1179",94.61326,723.51196
"1180",93.90524,723.52527
"1181",92.79439,723.5386
"1182",91.40032,723.5519
"1183",89.847565,723.5652
"1184",88.24353,723.5785
"1185",86.678566,723.5918
"1186",85.20882,723.6051
"1187",83.878235,723.6184
"1188",82.7161,723.6317
"1189",81.75418,723.645
"1190",81.0193,723.6583
"1191",80.52857,723.67163
"1192",80.2942,723.68494
"1193",80.2942,723.69824
"1194",80.48463,723.71155
"1195",80.78493,723.72485
"1196",81.08766,723.73816
"1197",81.29275,723.75146
"1198",81.36111,723.7648
"1199",81.29275,723.7781
"1200",81.126724,723.7914
"1201",80.902115,723.8047
"1202",80.65064,723.818
"1203",80.33814,723.8313
"1204",79.92554,723.8446
"1205",79.39086,723.8579
"1206",78.76341,723.8712
"1207",78.099335,723.8845
"1208",77.454796,723.8978
"1209",76.88106,723.91113
"1210",76.38056,723.92444
"1211",75.931335,723.93774
"1212",75.48943,723.95105
"1213",75.05974,723.96436
"1214",74.66178,723.97766
"1215",74.3444,723.99097
"1216",74.144196,724.0043
"1217",74.06851,724.0176
"1218",74.10025,724.0309
"1219",74.21988,724.0442
"1220",74.38834,724.0575
"1221",74.581215,724.0708
"1222",74.7863,724.0841
"1223",75.003586,724.0974
"1224",75.21843,724.1107
"1225",75.41619,724.124
"1226",75.58953,724.1373
"1227",75.74334,724.15063
"1228",75.91669,724.16394
"1229",76.21454,724.17725
"1230",76.807816,724.19055
"1231",77.872284,724.20386
"1232",79.49828,724.21716
"1233",81.65652,724.23047
"1234",84.17609,724.2438
"1235",86.783554,724.2571
"1236",89.178604,724.2704
"1237",91.11711,724.2837
"1238",92.46235,724.297
"1239",93.17769,724.3103
"1240",93.29244,724.3236
"1241",92.88472,724.3369
"1242",92.05463,724.3502
"1243",90.91936,724.3635
"1244",89.57412,724.37683
"1245",88.111694,724.39014
"1246",86.59556,724.40344
"1247",85.084305,724.41675
"1248",83.6292,724.43005
"1249",82.28153,724.44336
"1250",81.092545,724.45667
"1251",80.11597,724.47
"1252",79.3933,724.4833
"1253",78.94652,724.4966
"1254",78.765854,724.5099
"1255",78.81712,724.5232
"1256",79.03929,724.5365
"1257",79.36645,724.5498
"1258",79.71801,724.5631
"1259",80.025635,724.5764
"1260",80.25025,724.5897
"1261",80.36256,724.603
"1262",80.34547,724.61633
"1263",80.198975,724.62964
"1264",79.9353,724.64294
"1265",79.569084,724.65625
"1266",79.11986,724.66956
"1267",78.60227,724.68286
"1268",78.05295,724.69617
"1269",77.4963,724.7095
"1270",76.9543,724.7228
"1271",76.43427,724.7361
"1272",75.9411,724.7494
"1273",75.47967,724.7627
"1274",75.04997,724.776
"1275",74.65934,724.7893
"1276",74.32975,724.8026
"1277",74.073395,724.8159
"1278",73.9025,724.8292
"1279",73.812164,724.8425
"1280",73.79996,724.85583
"1281",73.85123,724.86914
"1282",73.93912,724.88245
"1283",74.03189,724.89575
"1284",74.11246,724.90906
"1285",74.15396,724.92236
"1286",74.17349,724.93567
"1287",74.215,724.949
"1288",74.36637,724.9623
"1289",74.74723,724.9756
"1290",75.511406,724.9889
"1291",76.77608,725.0022
"1292",78.58518,725.0155
"1293",80.867935,725.0288
"1294",83.43633,725.0421
"1295",86.01938,725.0554
"1296",88.33875,725.0687
"1297",90.17227,725.08203
"1298",91.393,725.09534
"1299",91.983826,725.10864
"1300",91.983826,725.12195
"1301",91.48333,725.13525
"1302",90.58976,725.14856
"1303",89.39834,725.16187
"1304",87.989624,725.1752
"1305",86.431984,725.1885
"1306",84.79866,725.2018
"1307",83.17265,725.2151
"1308",81.62234,725.2284
"1309",80.23804,725.2417
"1310",79.10033,725.255
"1311",78.2678,725.2683
"1312",77.74532,725.2816
"1313",77.53292,725.2949
"1314",77.5964,725.3082
"1315",77.86252,725.32153
"1316",78.25803,725.33484
"1317",78.695045,725.34814
"1318",79.10521,725.36145
"1319",79.42748,725.37476
"1320",79.61791,725.38806
"1321",79.656975,725.40137
"1322",79.54223,725.4147
"1323",79.273674,725.428
"1324",78.86839,725.4413
"1325",78.36057,725.4546
"1326",77.786835,725.4679
"1327",77.18623,725.4812
"1328",76.592964,725.4945
"1329",76.02655,725.5078
"1330",75.49676,725.5211
"1331",75.003586,725.5344
"1332",74.54459,725.5477
"1333",74.127106,725.56104
"1334",73.76578,725.57434
"1335",73.4728,725.58765
"1336",73.253075,725.60095
"1337",73.109024,725.61426
"1338",73.023575,725.62756
"1339",72.969864,725.64087
"1340",72.935684,725.6542
"1341",72.90639,725.6675
"1342",72.886856,725.6808
"1343",72.89906,725.6941
"1344",73.006485,725.7074
"1345",73.33608,725.7207
"1346",74.07095,725.734
"1347",75.37957,725.7473
"1348",77.330284,725.7606
"1349",79.86206,725.7739
"1350",82.7625,725.78723
"1351",85.714195,725.80054
"1352",88.38514,725.81384
"1353",90.53361,725.82715
"1354",92.02045,725.84045
"1355",92.823685,725.85376
"1356",92.99458,725.86707
"1357",92.63569,725.8804
"1358",91.87396,725.8937
"1359",90.83879,725.907
"1360",89.63271,725.9203
"1361",88.33143,725.9336
"1362",86.98131,725.9469
"1363",85.61654,725.9602
"1364",84.263985,725.9735
"1365",82.97002,725.9868
"1366",81.79813,726.0001
"1367",80.814224,726.0134
"1368",80.06958,726.02673
"1369",79.59838,726.04004
"1370",79.3933,726.05334
"1371",79.40307,726.06665
"1372",79.55932,726.07996
"1373",79.78638,726.09326
"1374",80.01587,726.10657
"1375",80.18921,726.1199
"1376",80.272224,726.1332
"1377",80.24048,726.1465
"1378",80.08423,726.1598
"1379",79.801025,726.1731
"1380",79.40795,726.1864
"1381",78.93675,726.1997
"1382",78.416725,726.213
"1383",77.874725,726.2263
"1384",77.33517,726.2396
"1385",76.807816,726.2529
"1386",76.30244,726.26624
"1387",75.826355,726.27954
"1388",75.39178,726.29285
"1389",74.9987,726.30615
"1390",74.6569,726.31946
"1391",74.36637,726.33276
"1392",74.124664,726.34607
"1393",73.92935,726.3594
"1394",73.78531,726.3727
"1395",73.69497,726.386
"1396",73.65591,726.3993
"1397",73.66811,726.4126
"1398",73.71694,726.4259
"1399",73.797516,726.4392
"1400",73.936676,726.4525
"1401",74.21744,726.4658
"1402",74.79118,726.4791
"1403",75.83124,726.49243
"1404",77.45968,726.50574
"1405",79.68139,726.51904
"1406",82.35966,726.53235
"1407",85.243,726.54565
"1408",88.0238,726.55896
"1409",90.426186,726.57227
"1410",92.24994,726.5856
"1411",93.402306,726.5989
"1412",93.86374,726.6122
"1413",93.68307,726.6255
"1414",92.97017,726.6388
"1415",91.85443,726.6521
"1416",90.47013,726.6654
"1417",88.91737,726.6787
"1418",87.28161,726.692
"1419",85.6141,726.7053
"1420",83.963684,726.7186
"1421",82.37675,726.73193
"1422",80.90944,726.74524
"1423",79.62035,726.75854
"1424",78.56321,726.77185
"1425",77.76486,726.78516
"1426",77.23262,726.79846
"1427",76.95674,726.81177
"1428",76.88838,726.8251
"1429",76.96651,726.8384
"1430",77.11543,726.8517
"1431",77.27169,726.865
"1432",77.37179,726.8783
"1433",77.383995,726.8916
"1434",77.279015,726.9049
"1435",77.03975,726.9182
"1436",76.64912,726.9315
"1437",76.12665,726.9448
"1438",75.50652,726.9581
"1439",74.844894,726.97144
"1440",74.21011,726.98474
"1441",73.65591,726.99805
"1442",73.18715,727.01135
"1443",72.78432,727.02466
"1444",72.42054,727.03796
"1445",72.07141,727.0513
"1446",71.73205,727.0646
"1447",71.42443,727.0779
"1448",71.17784,727.0912
"1449",71.02403,727.1045
"1450",70.958115,727.1178
"1451",70.960556,727.1311
"1452",71.01915,727.1444
"1453",71.11192,727.1577
"1454",71.22179,727.171
"1455",71.35363,727.1843
"1456",71.54406,727.19763
"1457",71.86145,727.21094
"1458",72.43763,727.22424
"1459",73.443504,727.23755
"1460",75.020676,727.25085
"1461",77.21553,727.26416
"1462",79.9353,727.27747
"1463",82.95781,727.2908
"1464",85.96811,727.3041
"1465",88.656136,727.3174
"1466",90.78508,727.3307
"1467",92.22797,727.344
"1468",92.9604,727.3573
"1469",93.033646,727.3706
"1470",92.5478,727.3839
"1471",91.62737,727.3972
"1472",90.40421,727.4105
"1473",88.9955,727.4238
"1474",87.48669,727.43713
"1475",85.94125,727.45044
"1476",84.40803,727.46375
"1477",82.933395,727.47705
"1478",81.5613,727.49036
"1479",80.343025,727.50366
"1480",79.32983,727.51697
"1481",78.56321,727.5303
"1482",78.05783,727.5436
"1483",77.79416,727.5569
"1484",77.72823,727.5702
"1485",77.803925,727.5835
"1486",77.95529,727.5968
"1487",78.12375,727.6101
"1488",78.25559,727.6234
"1489",78.32151,727.6367
"1490",78.29221,727.65
"1491",78.16281,727.6633
"1492",77.93332,727.67664
"1493",77.62081,727.68994
"1494",77.23506,727.70325
"1495",76.80049,727.71655
"1496",76.33173,727.72986
"1497",75.85077,727.74316
"1498",75.37713,727.7565
"1499",74.9279,727.7698
"1500",74.512856,727.7831
"1501",74.13931,727.7964
"1502",73.814606,727.8097
"1503",73.5436,727.823
"1504",73.32632,727.8363
"1505",73.16762,727.8496
"1506",73.0724,727.8629
"1507",73.02846,727.8762
"1508",73.03334,727.8895
"1509",73.0724,727.90283
"1510",73.13832,727.91614
"1511",73.21156,727.92944
"1512",73.29702,727.94275
"1513",73.40688,727.95605
"1514",73.599754,727.96936
"1515",74.00748,727.98267
"1516",74.81804,727.996
"1517",76.19989,728.0093
"1518",78.23117,728.0226
"1519",80.848404,728.0359
"1520",83.84161,728.0492
"1521",86.890976,728.0625
"1522",89.654686,728.0758
"1523",91.88373,728.0891
"1524",93.42916,728.1024
"1525",94.24948,728.1157
"1526",94.39353,728.129
"1527",93.961395,728.14233
"1528",93.07271,728.15564
"1529",91.859314,728.16895
"1530",90.42863,728.18225
"1531",88.866104,728.19556
"1532",87.2401,728.20886
"1533",85.61166,728.22217
"1534",84.03204,728.2355
"1535",82.56718,728.2488
"1536",81.29275,728.2621
"1537",80.27711,728.2754
"1538",79.55932,728.2887
"1539",79.15404,728.302
"1540",79.02464,728.3153
"1541",79.10033,728.3286
"1542",79.29809,728.3419
"1543",79.534904,728.3552
"1544",79.744865,728.3685
"1545",79.87915,728.38184
"1546",79.91089,728.39514
"1547",79.84253,728.40845
"1548",79.66918,728.42175
"1549",79.40063,728.43506
"1550",79.061264,728.44836
"1551",78.677956,728.4617
"1552",78.2678,728.475
"1553",77.84787,728.4883
"1554",77.43282,728.5016
"1555",77.03731,728.5149
"1556",76.66621,728.5282
"1557",76.32685,728.5415
"1558",76.02167,728.5548
"1559",75.75067,728.5681
"1560",75.50652,728.5814
"1561",75.28924,728.5947
"1562",75.09392,728.60803
"1563",74.92058,728.62134
"1564",74.76921,728.63464
"1565",74.64469,728.64795
"1566",74.54459,728.66125
"1567",74.46647,728.67456
"1568",74.41276,728.68787
"1569",74.41032,728.7012
"1570",74.54948,728.7145
"1571",74.97673,728.7278
"1572",75.877625,728.7411
"1573",77.38888,728.7544
"1574",79.53002,728.7677
"1575",82.18143,728.781
"1576",85.08186,728.7943
"1577",87.904175,728.8076
"1578",90.3505,728.8209
"1579",92.20355,728.8342
"1580",93.35348,728.84753
"1581",93.802704,728.86084
"1582",93.61471,728.87415
"1583",92.892044,728.88745
"1584",91.77142,728.90076
"1585",90.3798,728.91406
"1586",88.81972,728.92737
"1587",87.166855,728.9407
"1588",85.487144,728.954
"1589",83.8465,728.9673
"1590",82.30839,728.9806
"1591",80.938736,728.9939
"1592",79.81323,729.0072
"1593",78.9807,729.0205
"1594",78.46067,729.0338
"1595",78.23117,729.0471
"1596",78.24582,729.0604
"1597",78.433815,729.0737
"1598",78.71702,729.08704
"1599",79.01488,729.10034
"1600",79.26147,729.11365
"1601",79.4226,729.12695
"1602",79.4641,729.14026
"1603",79.381096,729.15356
"1604",79.17601,729.1669
"1605",78.86351,729.1802
"1606",78.46067,729.1935
"1607",77.99924,729.2068
"1608",77.4963,729.2201
"1609",76.9836,729.2334
"1610",76.47578,729.2467
"1611",75.98993,729.26
"1612",75.53338,729.2733
"1613",75.11345,729.2866
"1614",74.73991,729.2999
"1615",74.42252,729.31323
"1616",74.16617,729.32654
"1617",73.985504,729.33984
"1618",73.87564,729.35315
"1619",73.82437,729.36646
"1620",73.81949,729.37976
"1621",73.84146,729.39307
"1622",73.88541,729.4064
"1623",73.95865,729.4197
"1624",74.08804,729.433
"1625",74.31754,729.4463
"1626",74.75212,729.4596
"1627",75.53338,729.4729
"1628",76.841995,729.4862
"1629",78.81224,729.4995
"1630",81.45632,729.5128
"1631",84.63508,729.5261
"1632",88.07019,729.5394
"1633",91.388115,729.55273
"1634",94.23483,729.56604
"1635",96.35645,729.57935
"1636",97.62844,729.59265
"1637",98.05325,729.60596
"1638",97.71877,729.61926
"1639",96.778824,729.63257
"1640",95.414055,729.6459
"1641",93.79782,729.6592
"1642",92.07416,729.6725
"1643",90.34562,729.6858
"1644",88.66102,729.6991
"1645",87.044785,729.7124
"1646",85.514,729.7257
"1647",84.09064,729.739
"1648",82.81377,729.7523
"1649",81.74441,729.7656
"1650",80.94362,729.77893
"1651",80.448006,729.79224
"1652",80.257576,729.80554
"1653",80.33814,729.81885
"1654",80.61158,729.83215
"1655",80.98268,729.84546
"1656",81.339134,729.85876
"1657",81.58572,729.8721
"1658",81.64919,729.8854
"1659",81.47585,729.8987
"1660",81.05104,729.912
"1661",80.377205,729.9253
"1662",79.4934,729.9386
"1663",78.450905,729.9519
"1664",77.315636,729.9652
"1665",76.15106,729.9785
"1666",75.02556,729.9918
"1667",73.99283,730.0051
"1668",73.08461,730.01843
"1669",72.32777,730.03174
"1670",71.73937,730.04504
"1671",71.31701,730.05835
"1672",71.063095,730.07166
"1673",70.96544,730.08496
"1674",71.00694,730.09827
"1675",71.19005,730.1116
"1676",71.500114,730.1249
"1677",71.939575,730.1382
"1678",72.50111,730.1515
"1679",73.17738,730.1648
"1680",73.95621,730.1781
"1681",74.82048,730.1914
"1682",75.78485,730.2047
"1683",76.90547,730.218
"1684",78.26292,730.2313
"1685",79.93042,730.2446
"1686",81.9324,730.25793
"1687",84.20294,730.27124
"1688",86.58579,730.28455
"1689",88.85878,730.29785
"1690",90.78996,730.31116
"1691",92.19867,730.32446
"1692",92.98726,730.33777
"1693",93.15083,730.3511
"1694",92.74555,730.3644
"1695",91.87396,730.3777
"1696",90.65812,730.391
"1697",89.2079,730.4043
"1698",87.6112,730.4176
"1699",85.93149,730.4309
"1700",84.22003,730.4442
"1701",82.53788,730.4575
"1702",80.96315,730.4708
"1703",79.59594,730.48413
"1704",78.54856,730.49744
"1705",77.89914,730.51074
"1706",77.67208,730.52405
"1707",77.82834,730.53735
"1708",78.260475,730.55066
"1709",78.82933,730.56396
"1710",79.37621,730.5773
"1711",79.76929,730.5906
"1712",79.91577,730.6039
"1713",79.76929,730.6172
"1714",79.33227,730.6305
"1715",78.63889,730.6438
"1716",77.747765,730.6571
"1717",76.72236,730.6704
"1718",75.62859,730.6837
"1719",74.53483,730.697
"1720",73.494774,730.7103
"1721",72.55726,730.72363
"1722",71.7467,730.73694
"1723",71.080185,730.75024
"1724",70.555275,730.76355
"1725",70.16708,730.77686
"1726",69.90341,730.79016
"1727",69.76181,730.80347
"1728",69.72518,730.8168
"1729",69.78378,730.8301
"1730",69.925385,730.8434
"1731",70.13046,730.8567
"1732",70.38682,730.87
"1733",70.674904,730.8833
"1734",70.977646,730.8966
"1735",71.27306,730.9099
"1736",71.55871,730.9232
"1737",71.837036,730.9365
"1738",72.16174,730.9498
"1739",72.64515,730.96313
"1740",73.43618,730.97644
"1741",74.686195,730.98975
"1742",76.473335,731.00305
"1743",78.76341,731.01636
"1744",81.392845,731.02966
"1745",84.09796,731.04297
"1746",86.58335,731.0563
"1747",88.60731,731.0696
"1748",90.02579,731.0829
"1749",90.7802,731.0962
"1750",90.89494,731.1095
"1751",90.460365,731.1228
"1752",89.58633,731.1361
"1753",88.394905,731.1494
"1754",86.9984,731.1627
"1755",85.50179,731.176
"1756",83.97345,731.18933
"1757",82.48905,731.20264
"1758",81.1194,731.21594
"1759",79.92798,731.22925
"1760",78.96361,731.24255
"1761",78.24826,731.25586
"1762",77.79904,731.26917
"1763",77.61593,731.2825
"1764",77.66964,731.2958
"1765",77.90402,731.3091
"1766",78.2678,731.3224
"1767",78.6804,731.3357
"1768",79.05638,731.349
"1769",79.32494,731.3623
"1770",79.4519,731.3756
"1771",79.4226,731.3889
"1772",79.2517,731.4022
"1773",78.958725,731.4155
"1774",78.56321,731.42883
"1775",78.101776,731.44214
"1776",77.60128,731.45544
"1777",77.08125,731.46875
"1778",76.558784,731.48206
"1779",76.053406,731.49536
"1780",75.579765,731.50867
"1781",75.142746,731.522
"1782",74.76189,731.5353
"1783",74.43717,731.5486
"1784",74.17105,731.5619
"1785",73.95621,731.5752
"1786",73.795074,731.5885
"1787",73.67788,731.6018
"1788",73.59243,731.6151
"1789",73.5436,731.6284
"1790",73.53384,731.6417
"1791",73.60464,731.655
"1792",73.848785,731.66833
"1793",74.42741,731.68164
"1794",75.50652,731.69495
"1795",77.20332,731.70825
"1796",79.517815,731.72156
"1797",82.31571,731.73486
"1798",85.32113,731.74817
"1799",88.21423,731.7615
"1800",90.70695,731.7748
"1801",92.60395,731.7881
"1802",93.82468,731.8014
"1803",94.38865,731.8147
"1804",94.37888,731.828
"1805",93.91745,731.8413
"1806",93.13374,731.8546
"1807",92.13275,731.8679
"1808",91.002365,731.8812
"1809",89.80118,731.89453
"1810",88.57801,731.90784
"1811",87.379265,731.92114
"1812",86.24155,731.93445
"1813",85.20393,731.94775
"1814",84.29084,731.96106
"1815",83.509575,731.97437
"1816",82.85527,731.9877
"1817",82.320595,732.001
"1818",81.89334,732.0143
"1819",81.5613,732.0276
"1820",81.30984,732.0409
"1821",81.11696,732.0542
"1822",80.94118,732.0675
"1823",80.75563,732.0808
"1824",80.51881,732.0941
"1825",80.21118,732.1074
"1826",79.801025,732.1207
"1827",79.276115,732.13403
"1828",78.62913,732.14734
"1829",77.8674,732.16064
"1830",77.01289,732.17395
"1831",76.102234,732.18726
"1832",75.20378,732.20056
"1833",74.38102,732.21387
"1834",73.69009,732.2272
"1835",73.17494,732.2405
"1836",72.86488,732.2538
"1837",72.76967,732.2671
"1838",72.86977,732.2804
"1839",73.13588,732.2937
"1840",73.51675,732.307
"1841",73.94644,732.3203
"1842",74.35905,732.3336
"1843",74.71061,732.3469
"1844",75.03044,732.3602
"1845",75.41863,732.37354
"1846",76.04364,732.38684
"1847",77.07637,732.40015
"1848",78.63889,732.41345
"1849",80.73853,732.42676
"1850",83.23125,732.44006
"1851",85.855804,732.45337
"1852",88.309456,732.4667
"1853",90.321205,732.48
"1854",91.70794,732.4933
"1855",92.4062,732.5066
"1856",92.4477,732.5199
"1857",91.930115,732.5332
"1858",90.9633,732.5465
"1859",89.669334,732.5598
"1860",88.13855,732.5731
"1861",86.44663,732.5864
"1862",84.664375,732.59973
"1863",82.85771,732.61304
"1864",81.10231,732.62634
"1865",79.47875,732.63965
"1866",78.0676,732.65295
"1867",76.93721,732.66626
"1868",76.13153,732.67957
"1869",75.65545,732.6929
"1870",75.474785,732.7062
"1871",75.52117,732.7195
"1872",75.7116,732.7328
"1873",75.96796,732.7461
"1874",76.224304,732.7594
"1875",76.42939,732.7727
"1876",76.558784,732.786
"1877",76.595406,732.7993
"1878",76.541695,732.8126
"1879",76.402534,732.8259
"1880",76.18524,732.83923
"1881",75.8996,732.85254
"1882",75.55535,732.86584
"1883",75.159836,732.87915
"1884",74.7277,732.89246
"1885",74.2736,732.90576
"1886",73.82681,732.91907
"1887",73.402,732.9324
"1888",73.01869,732.9457
"1889",72.69886,732.959
"1890",72.45472,732.9723
"1891",72.27894,732.9856
"1892",72.16174,732.9989
"1893",72.09338,733.0122
"1894",72.059204,733.0255
"1895",72.06409,733.0388
"1896",72.13245,733.0521
"1897",72.32044,733.0654
"1898",72.74769,733.07874
"1899",73.57778,733.09204
"1900",74.95964,733.10535
"1901",76.964066,733.11865
"1902",79.534904,733.13196
"1903",82.47929,733.14526
"1904",85.49935,733.15857
"1905",88.26063,733.1719
"1906",90.50431,733.1852
"1907",92.06439,733.1985
"1908",92.89937,733.2118
"1909",93.04341,733.2251
"1910",92.594185,733.2384
"1911",91.67864,733.2517
"1912",90.426186,733.265
"1913",88.936905,733.2783
"1914",87.30358,733.2916
"1915",85.61166,733.30493
"1916",83.94415,733.31824
"1917",82.39872,733.33154
"1918",81.07057,733.34485
"1919",80.03296,733.35815
"1920",79.33227,733.37146
"1921",78.97337,733.38477
"1922",78.905014,733.3981
"1923",79.05638,733.4114
"1924",79.34203,733.4247
"1925",79.67162,733.438
"1926",79.95972,733.4513
"1927",80.14038,733.4646
"1928",80.17212,733.4779
"1929",80.01831,733.4912
"1930",79.68627,733.5045
"1931",79.19798,733.5178
"1932",78.60227,733.5311
"1933",77.94797,733.54443
"1934",77.28878,733.55774
"1935",76.66865,733.57104
"1936",76.11932,733.58435
"1937",75.63836,733.59766
"1938",75.22331,733.61096
"1939",74.87419,733.62427
"1940",74.56901,733.6376
"1941",74.29069,733.6509
"1942",74.03677,733.6642
"1943",73.80728,733.6775
"1944",73.59487,733.6908
"1945",73.402,733.7041
"1946",73.233536,733.7174
"1947",73.09682,733.7307
"1948",73.040665,733.744
"1949",73.16029,733.7573
"1950",73.62173,733.7706
"1951",74.615395,733.78394
"1952",76.26093,733.79724
"1953",78.56321,733.81055
"1954",81.375755,733.82385
"1955",84.420235,733.83716
"1956",87.3402,733.85046
"1957",89.82315,733.8638
"1958",91.63714,733.8771
"1959",92.67475,733.8904
"1960",92.928665,733.9037
"1961",92.48676,733.917
"1962",91.48333,733.9303
"1963",90.089264,733.9436
"1964",88.45838,733.9569
"1965",86.71763,733.9702
"1966",84.972,733.9835
"1967",83.29717,733.9968
"1968",81.75418,734.01013
"1969",80.40162,734.02344
"1970",79.31274,734.03674
"1971",78.52903,734.05005
"1972",78.07736,734.06335
"1973",77.93332,734.07666
"1974",78.05295,734.08997
"1975",78.35081,734.1033
"1976",78.74143,734.1166
"1977",79.14183,734.1299
"1978",79.48119,734.1432
"1979",79.7058,734.1565
"1980",79.781494,734.1698
"1981",79.69848,734.1831
"1982",79.466545,734.1964
"1983",79.114975,734.2097
"1984",78.68284,734.223
"1985",78.2092,734.2363
"1986",77.71603,734.24963
"1987",77.225296,734.26294
"1988",76.756546,734.27625
"1989",76.317085,734.28955
"1990",75.92401,734.30286
"1991",75.58709,734.31616
"1992",75.301445,734.32947
"1993",75.05974,734.3428
"1994",74.847336,734.3561
"1995",74.652016,734.3694
"1996",74.461586,734.3827
"1997",74.2736,734.396
"1998",74.10513,734.4093
"1999",73.987946,734.4226
"2000",73.96109,734.4359
"2001",74.090485,734.4492
"2002",74.48356,734.4625
"2003",75.299,734.4758
"2004",76.67597,734.48914
"2005",78.68772,734.50244
"2006",81.2781,734.51575
"2007",84.24689,734.52905
"2008",87.2694,734.54236
"2009",89.99161,734.55566
"2010",92.13519,734.569
"2011",93.53658,734.5823
"2012",94.16403,734.5956
"2013",94.081024,734.6089
"2014",93.40719,734.6222
"2015",92.30366,734.6355
"2016",90.914474,734.6488
"2017",89.36904,734.6621
"2018",87.75769,734.6754
"2019",86.14877,734.6887
"2020",84.6009,734.702
"2021",83.15312,734.71533
"2022",81.85916,734.72864
"2023",80.7776,734.74194
"2024",79.94507,734.75525
"2025",79.378654,734.76855
"2026",79.063705,734.78186
"2027",78.958725,734.79517
"2028",79.00023,734.8085
"2029",79.114975,734.8218
"2030",79.24193,734.8351
"2031",79.3225,734.8484
"2032",79.3225,734.8617
"2033",79.21507,734.875
"2034",78.99046,734.8883
"2035",78.6511,734.9016
"2036",78.21164,734.9149
"2037",77.70382,734.9282
"2038",77.16426,734.9415
"2039",76.63935,734.95483
"2040",76.1535,734.96814
"2041",75.72625,734.98145
"2042",75.36492,734.99475
"2043",75.06462,735.00806
"2044",74.813156,735.02136
"2045",74.600746,735.03467
"2046",74.424965,735.048
"2047",74.268715,735.0613
"2048",74.11978,735.0746
"2049",73.968414,735.0879
"2050",73.80972,735.1012
"2051",73.651024,735.1145
"2052",73.49966,735.1278
"2053",73.375145,735.1411
"2054",73.3019,735.1544
"2055",73.29458,735.1677
"2056",73.392235,735.181
"2057",73.69497,735.19434
"2058",74.36149,735.20764
"2059",75.55291,735.22095
"2060",77.366905,735.23425
"2061",79.78882,735.24756
"2062",82.65751,735.26086
"2063",85.68734,735.2742
"2064",88.534065,735.2875
"2065",90.91203,735.3008
"2066",92.64057,735.3141
"2067",93.661095,735.3274
"2068",94.01755,735.3407
"2069",93.82712,735.354
"2070",93.22896,735.3673
"2071",92.34516,735.3806
"2072",91.27825,735.3939
"2073",90.08682,735.4072
"2074",88.80507,735.42053
"2075",87.4696,735.43384
"2076",86.12436,735.44714
"2077",84.808426,735.46045
"2078",83.57549,735.47375
"2079",82.46708,735.48706
"2080",81.52224,735.50037
"2081",80.75807,735.5137
"2082",80.147705,735.527
"2083",79.639885,735.5403
"2084",79.1638,735.5536
"2085",78.63157,735.5669
"2086",77.96506,735.5802
"2087",77.117874,735.5935
"2088",76.07294,735.6068
"2089",74.84978,735.6201
"2090",73.51186,735.6334
"2091",72.15686,735.6467
"2092",70.89464,735.66003
"2093",69.79355,735.67334
"2094",68.88533,735.68665
"2095",68.14801,735.69995
"2096",67.53765,735.71326
"2097",66.983444,735.72656
"2098",66.458534,735.73987
"2099",65.96292,735.7532
"2100",65.50637,735.7665
"2101",65.07912,735.7798
"2102",64.690926,735.7931
"2103",64.35401,735.8064
"2104",64.078125,735.8197
"2105",63.86816,735.833
"2106",63.741207,735.8463
"2107",63.69726,735.8596
"2108",63.719234,735.8729
"2109",63.78027,735.8862
"2110",63.863277,735.89954
"2111",63.938965,735.91284
"2112",63.987793,735.92615
"2113",64.007324,735.93945
"2114",64.043945,735.95276
"2115",64.17578,735.96606
"2116",64.46632,735.9794
"2117",64.9424,735.9927
"2118",65.60403,736.006
"2119",66.42924,736.0193
"2120",67.38384,736.0326
"2121",68.40681,736.0459
"2122",69.46395,736.0592
"2123",70.50645,736.0725
"2124",71.48058,736.0858
"2125",72.31068,736.0991
"2126",72.9601,736.1124
"2127",73.43618,736.12573
"2128",73.75357,736.13904
"2129",73.93912,736.15234
"2130",74.03433,736.16565
"2131",74.10513,736.17896
"2132",74.20767,736.19226
"2133",74.373695,736.20557
"2134",74.617836,736.2189
"2135",74.93767,736.2322
"2136",75.29656,736.2455
"2137",75.650566,736.2588
"2138",75.96796,736.2721
"2139",76.22919,736.2854
"2140",76.42451,736.2987
"2141",76.558784,736.312
"2142",76.64912,736.3253
"2143",76.72724,736.3386
"2144",76.81758,736.3519
"2145",76.93721,736.36523
"2146",77.08858,736.37854
"2147",77.2546,736.39185
"2148",77.41085,736.40515
"2149",77.540245,736.41846
"2150",77.64034,736.43176
"2151",77.72579,736.44507
"2152",77.81369,736.4584
"2153",77.908905,736.4717
"2154",78.013885,736.485
"2155",78.11398,736.4983
"2156",78.2092,736.5116
"2157",78.29954,736.5249
"2158",78.39475,736.5382
"2159",78.502174,736.5515
"2160",78.61692,736.5648
"2161",78.729225,736.5781
"2162",78.82689,736.59143
"2163",78.91478,736.60474
"2164",79.00511,736.61804
"2165",79.10277,736.63135
"2166",79.20775,736.64465
"2167",79.31518,736.65796
"2168",79.4226,736.67126
"2169",79.53246,736.6846
"2170",79.65942,736.6979
"2171",79.81079,736.7112
"2172",79.97681,736.7245
"2173",80.147705,736.7378
"2174",80.308846,736.7511
"2175",80.448006,736.7644
"2176",80.5774,736.7777
"2177",80.72877,736.791
"2178",80.93385,736.8043
"2179",81.2195,736.8176
"2180",81.58816,736.83093
"2181",82.01541,736.84424
"2182",82.46708,736.85754
"2183",82.90166,736.87085
"2184",83.25811,736.88416
"2185",83.49493,736.89746
"2186",83.60479,736.91077
"2187",83.62432,736.9241
"2188",83.59991,736.9374
"2189",83.57061,736.9507
"2190",83.55596,736.964
"2191",83.543755,736.9773
"2192",83.50469,736.9906
"2193",83.407036,737.0039
"2194",83.25323,737.0172
"2195",83.06279,737.0305
"2196",82.862595,737.0438
"2197",82.65995,737.0571
"2198",82.4744,737.07043
"2199",82.33036,737.08374
"2200",82.25956,737.09705
"2201",82.286415,737.11035
"2202",82.43778,737.12366
"2203",82.720985,737.13696
"2204",83.12138,737.15027
"2205",83.64385,737.1636
"2206",84.31281,737.1769
"2207",85.152664,737.1902
"2208",86.19272,737.2035
"2209",87.450066,737.2168
"2210",88.93446,737.2301
"2211",90.64347,737.2434
"2212",92.525826,737.2567
"2213",94.48875,737.27
"2214",96.39796,737.2833
"2215",98.126495,737.29663
"2216",99.58404,737.30994
"2217",100.7364,737.32324
"2218",101.610435,737.33655
"2219",102.25498,737.34985
"2220",102.71397,737.36316
"2221",102.98497,737.37646
"2222",103.063095,737.3898
"2223",102.94347,737.4031
"2224",102.623634,737.4164
"2225",102.12314,737.4297
"2226",101.47616,737.443
"2227",100.71931,737.4563
"2228",99.88922,737.4696
"2229",99.04692,737.4829
"2230",98.287636,737.4962
"2231",97.760284,737.5095
"2232",97.64553,737.5228
"2233",98.10452,737.53613
"2234",99.22026,737.54944
"2235",100.9366,737.56274
"2236",103.05577,737.57605
"2237",105.287254,737.58936
"2238",107.31609,737.60266
"2239",108.90791,737.61597
"2240",109.91379,737.6293
"2241",110.28733,737.6426
"2242",110.06271,737.6559
"2243",109.34005,737.6692
"2244",108.23895,737.6825
"2245",106.864426,737.6958
"2246",105.29946,737.7091
"2247",103.59289,737.7224
"2248",101.76425,737.7357
"2249",99.83795,737.749
"2250",97.85306,737.7623
"2251",95.885254,737.77563
"2252",94.01755,737.78894
"2253",92.32807,737.80225
"2254",90.84367,737.81555
"2255",89.57412,737.82886
"2256",88.50477,737.84216
"2257",87.59411,737.85547
"2258",86.79576,737.8688
"2259",86.063324,737.8821
"2260",85.36019,737.8954
"2261",84.644844,737.9087
"2262",83.88068,737.922
"2263",83.0457,737.9353
"2264",82.142365,737.9486
"2265",81.17311,737.9619
"2266",80.14526,737.9752
"2267",79.07591,737.9885
"2268",77.98703,738.00183
"2269",76.90303,738.01514
"2270",75.843445,738.02844
"2271",74.82292,738.04175
"2272",73.86099,738.05505
"2273",72.96498,738.06836
"2274",72.15198,738.08167
"2275",71.42687,738.095
"2276",70.79454,738.1083
"2277",70.26231,738.1216
"2278",69.82529,738.1349
"2279",69.471275,738.1482
"2280",69.19295,738.1615
"2281",68.980545,738.1748
"2282",68.82918,738.1881
"2283",68.72663,738.2014
"2284",68.66071,738.2147
"2285",68.61433,738.228
"2286",68.57282,738.24133
"2287",68.526436,738.25464
"2288",68.46784,738.26794
"2289",68.40925,738.28125
"2290",68.40681,738.29456
"2291",68.56794,738.30786
"2292",69.0782,738.32117
"2293",70.132904,738.3345
"2294",71.85657,738.3478
"2295",74.251625,738.3611
"2296",77.152054,738.3744
"2297",80.26734,738.3877
"2298",83.24101,738.401
"2299",85.7728,738.4143
"2300",87.657585,738.4276
"2301",88.817276,738.4409
"2302",89.27383,738.4542
"2303",89.112686,738.4675
"2304",88.45594,738.48083
"2305",87.432976,738.49414
"2306",86.17807,738.50745
"2307",84.78157,738.52075
"2308",83.31426,738.53406
"2309",81.82498,738.54736
"2310",80.34791,738.56067
"2311",78.93187,738.574
"2312",77.63546,738.5873
"2313",76.52949,738.6006
"2314",75.665215,738.6139
"2315",75.071945,738.6272
"2316",74.73502,738.6405
"2317",74.61295,738.6538
"2318",74.64225,738.6671
"2319",74.74479,738.6804
"2320",74.85466,738.6937
"2321",74.92302,738.70703
"2322",74.91081,738.72034
"2323",74.793625,738.73364
"2324",74.56901,738.74695
"2325",74.251625,738.76025
"2326",73.85123,738.77356
"2327",73.38491,738.78687
"2328",72.884415,738.8002
"2329",72.36683,738.8135
"2330",71.854126,738.8268
"2331",71.363396,738.8401
"2332",70.91173,738.8534
"2333",70.50645,738.8667
"2334",70.1622,738.88
"2335",69.88144,738.8933
"2336",69.66415,738.9066
"2337",69.5079,738.9199
"2338",69.41268,738.9332
"2339",69.37606,738.94653
"2340",69.38827,738.95984
"2341",69.43954,738.97314
"2342",69.51766,738.98645
"2343",69.6202,738.99976
"2344",69.73983,739.01306
"2345",69.86923,739.02637
"2346",70.01083,739.0397
"2347",70.15732,739.053
"2348",70.30381,739.0663
"2349",70.44541,739.0796
"2350",70.57725,739.0929
"2351",70.70176,739.1062
"2352",70.84825,739.1195
"2353",71.10216,739.1328
"2354",71.61974,739.1461
"2355",72.603645,739.1594
"2356",74.22232,739.1727
"2357",76.52705,739.18604
"2358",79.41039,739.19934
"2359",82.61356,739.21265
"2360",85.78012,739.22595
"2361",88.57557,739.23926
"2362",90.74601,739.25256
"2363",92.16937,739.26587
"2364",92.83101,739.2792
"2365",92.80415,739.2925
"2366",92.20599,739.3058
"2367",91.18059,739.3191
"2368",89.867096,739.3324
"2369",88.3827,739.3457
"2370",86.81773,739.359
"2371",85.23323,739.3723
"2372",83.67559,739.3856
"2373",82.19852,739.3989
"2374",80.85817,739.41223
"2375",79.71801,739.42554
"2376",78.82445,739.43884
"2377",78.21164,739.45215
"2378",77.86252,739.46545
"2379",77.738,739.47876
"2380",77.77463,739.49207
"2381",77.90402,739.5054
"2382",78.05783,739.5187
"2383",78.17502,739.532
"2384",78.21164,739.5453
"2385",78.14328,739.5586
"2386",77.962616,739.5719
"2387",77.66964,739.5852
"2388",77.2839,739.5985
"2389",76.82002,739.6118
"2390",76.30488,739.6251
"2391",75.755554,739.6384
"2392",75.208664,739.65173
"2393",74.67399,739.66504
"2394",74.175934,739.67834
"2395",73.724266,739.69165
"2396",73.323875,739.70496
"2397",72.97475,739.71826
"2398",72.674446,739.73157
"2399",72.430305,739.7449
"2400",72.23987,739.7582
"2401",72.10559,739.7715
"2402",72.025024,739.7848
"2403",71.99573,739.7981
"2404",72.00061,739.8114
"2405",72.03235,739.8247
"2406",72.078735,739.838
"2407",72.14221,739.8513
"2408",72.217896,739.8646
"2409",72.31068,739.8779
"2410",72.410774,739.89124
"2411",72.518196,739.90454
"2412",72.62562,739.91785
"2413",72.72816,739.93115
"2414",72.82094,739.94446
"2415",72.90883,739.95776
"2416",72.989395,739.97107
"2417",73.074844,739.9844
"2418",73.17494,739.9977
"2419",73.340965,740.011
"2420",73.71694,740.0243
"2421",74.510414,740.0376
"2422",75.91669,740.0509
"2423",78.05539,740.0642
"2424",80.88747,740.0775
"2425",84.19318,740.0908
"2426",87.61608,740.1041
"2427",90.76799,740.11743
"2428",93.331505,740.13074
"2429",95.133286,740.14404
"2430",96.114746,740.15735
"2431",96.32227,740.17065
"2432",95.87305,740.18396
"2433",94.91844,740.19727
"2434",93.609825,740.2106
"2435",92.09125,740.2239
"2436",90.477455,740.2372
"2437",88.84657,740.2505
"2438",87.24986,740.2638
"2439",85.7264,740.2771
"2440",84.32258,740.2904
"2441",83.08232,740.3037
"2442",82.056915,740.317
"2443",81.27322,740.3303
"2444",80.73609,740.3436
"2445",80.428474,740.35693
"2446",80.2942,740.37024
"2447",80.28199,740.38354
"2448",80.33082,740.39685
"2449",80.39185,740.41016
"2450",80.413826,740.42346
"2451",80.35767,740.43677
"2452",80.201416,740.4501
"2453",79.92554,740.4634
"2454",79.52758,740.4767
"2455",79.01976,740.49
"2456",78.42649,740.5033
"2457",77.77951,740.5166
"2458",77.11299,740.5299
"2459",76.46113,740.5432
"2460",75.841,740.5565
"2461",75.264824,740.5698
"2462",74.74723,740.5831
"2463",74.30045,740.59644
"2464",73.92935,740.60974
"2465",73.63882,740.62305
"2466",73.43374,740.63635
"2467",73.287254,740.64966
"2468",73.179825,740.66296
"2469",73.08949,740.6763
"2470",73.01137,740.6896
"2471",72.94789,740.7029
"2472",72.90639,740.7162
"2473",72.89662,740.7295
"2474",72.91615,740.7428
"2475",72.9601,740.7561
"2476",73.01625,740.7694
"2477",73.074844,740.7827
"2478",73.13832,740.796
"2479",73.20668,740.8093
"2480",73.27993,740.82263
"2481",73.35073,740.83594
"2482",73.41421,740.84924
"2483",73.463036,740.86255
"2484",73.49966,740.87585
"2485",73.52895,740.88916
"2486",73.5729,740.90247
"2487",73.66567,740.9158
"2488",73.89761,740.9291
"2489",74.43229,740.9424
"2490",75.46502,740.9557
"2491",77.16182,740.969
"2492",79.57885,740.9823
"2493",82.60868,740.9956
"2494",85.99008,741.0089
"2495",89.359276,741.0222
"2496",92.35981,741.0355
"2497",94.730446,741.0488
"2498",96.3296,741.06213
"2499",97.12062,741.07544
"2500",97.1548,741.08875
"2501",96.54688,741.10205
"2502",95.42626,741.11536
"2503",93.941864,741.12866
"2504",92.22797,741.14197
"2505",90.406654,741.1553
"2506",88.56336,741.1686
"2507",86.77135,741.1819
"2508",85.07698,741.1952
"2509",83.53155,741.2085
"2510",82.18631,741.2218
"2511",81.09743,741.2351
"2512",80.31129,741.2484
"2513",79.83765,741.2617
"2514",79.64721,741.275
"2515",79.68139,741.2883
"2516",79.852295,741.30164
"2517",80.05737,741.31494
"2518",80.23071,741.32825
"2519",80.31861,741.34155
"2520",80.2942,741.35486
"2521",80.15259,741.36816
"2522",79.89624,741.3815
"2523",79.534904,741.3948
"2524",79.08812,741.4081
"2525",78.57542,741.4214
"2526",78.013885,741.4347
"2527",77.43038,741.448
"2528",76.83711,741.4613
"2529",76.25849,741.4746
"2530",75.70916,741.4879
"2531",75.208664,741.5012
"2532",74.76921,741.5145
"2533",74.39811,741.52783
"2534",74.090485,741.54114
"2535",73.83414,741.55444
"2536",73.62661,741.56775
"2537",73.463036,741.58105
"2538",73.34341,741.59436
"2539",73.26528,741.60767
"2540",73.22865,741.621
"2541",73.22865,741.6343
"2542",73.253075,741.6476
"2543",73.29946,741.6609
"2544",73.358055,741.6742
"2545",73.428856,741.6875
"2546",73.51186,741.7008
"2547",73.602196,741.7141
"2548",73.69985,741.7274
"2549",73.8024,741.7407
"2550",73.900055,741.754
"2551",73.99039,741.76733
"2552",74.07095,741.78064
"2553",74.13687,741.79395
"2554",74.19302,741.80725
"2555",74.268715,741.82056
"2556",74.43229,741.83386
"2557",74.827805,741.84717
"2558",75.65301,741.8605
"2559",77.09102,741.8738
"2560",79.22728,741.8871
"2561",82.003204,741.9004
"2562",85.19905,741.9137
"2563",88.47059,741.927
"2564",91.46136,741.9403
"2565",93.875946,741.9536
"2566",95.53857,741.9669
"2567",96.393074,741.9802
"2568",96.47608,741.9935
"2569",95.887695,742.00684
"2570",94.76219,742.02014
"2571",93.25094,742.03345
"2572",91.493095,742.04675
"2573",89.60586,742.06006
"2574",87.68444,742.07336
"2575",85.80698,742.0867
"2576",84.054016,742.1
"2577",82.493935,742.1133
"2578",81.20973,742.1266
"2579",80.26734,742.1399
"2580",79.70092,742.1532
"2581",79.4934,742.1665
"2582",79.586174,742.1798
"2583",79.88159,742.1931
"2584",80.27711,742.2064
"2585",80.6775,742.2197
"2586",80.99733,742.23303
"2587",81.18532,742.24634
"2588",81.214615,742.25964
"2589",81.08034,742.27295
"2590",80.78493,742.28625
"2591",80.360115,742.29956
"2592",79.83032,742.31287
"2593",79.22972,742.3262
"2594",78.59495,742.3395
"2595",77.95773,742.3528
"2596",77.34249,742.3661
"2597",76.76631,742.3794
"2598",76.23651,742.3927
"2599",75.75311,742.406
"2600",75.32098,742.4193
"2601",74.94011,742.4326
"2602",74.61295,742.4459
"2603",74.34196,742.4592
"2604",74.11978,742.47253
"2605",73.94888,742.48584
"2606",73.82437,742.49915
"2607",73.74868,742.51245
"2608",73.7145,742.52576
"2609",73.724266,742.53906
"2610",73.7731,742.55237
"2611",73.8439,742.5657
"2612",73.93912,742.579
"2613",74.04898,742.5923
"2614",74.15396,742.6056
"2615",74.249176,742.6189
"2616",74.32975,742.6322
"2617",74.39323,742.6455
"2618",74.43717,742.6588
"2619",74.46403,742.6721
"2620",74.495766,742.6854
"2621",74.598305,742.6987
"2622",74.90837,742.71204
"2623",75.61883,742.72534
"2624",76.912796,742.73865
"2625",78.90257,742.75195
"2626",81.54665,742.76526
"2627",84.63996,742.77856
"2628",87.85779,742.7919
"2629",90.84367,742.8052
"2630",93.30221,742.8185
"2631",95.03807,742.8318
"2632",95.990234,742.8451
"2633",96.180664,742.8584
"2634",95.70214,742.8717
"2635",94.67918,742.885
"2636",93.25826,742.8983
"2637",91.57122,742.9116
"2638",89.740135,742.9249
"2639",87.86023,742.93823
"2640",86.00229,742.95154
"2641",84.23468,742.96484
"2642",82.63554,742.97815
"2643",81.2781,742.99146
"2644",80.23071,743.00476
"2645",79.53246,743.01807
"2646",79.18822,743.0314
"2647",79.14671,743.0447
"2648",79.32983,743.058
"2649",79.639885,743.0713
"2650",79.97925,743.0846
"2651",80.26978,743.0979
"2652",80.45045,743.1112
"2653",80.48463,743.1245
"2654",80.36256,743.1378
"2655",80.093994,743.1511
"2656",79.69604,743.1644
"2657",79.19798,743.17773
"2658",78.62913,743.19104
"2659",78.01633,743.20435
"2660",77.39132,743.21765
"2661",76.78096,743.23096
"2662",76.19745,743.24426
"2663",75.65545,743.25757
"2664",75.15495,743.2709
"2665",74.70573,743.2842
"2666",74.31022,743.2975
"2667",73.96597,743.3108
"2668",73.673,743.3241
"2669",73.43618,743.3374
"2670",73.25063,743.3507
"2671",73.11879,743.364
"2672",73.04799,743.3773
"2673",73.040665,743.3906
"2674",73.08705,743.40393
"2675",73.179825,743.41724
"2676",73.31899,743.43054
"2677",73.49966,743.44385
"2678",73.70718,743.45715
"2679",73.92447,743.47046
"2680",74.12955,743.48376
"2681",74.29801,743.4971
"2682",74.42008,743.5104
"2683",74.495766,743.5237
"2684",74.54948,743.537
"2685",74.62028,743.5503
"2686",74.813156,743.5636
"2687",75.299,743.5769
"2688",76.28535,743.5902
"2689",77.93576,743.6035
"2690",80.29908,743.6168
"2691",83.26055,743.6301
"2692",86.54673,743.64343
"2693",89.796295,743.65674
"2694",92.662544,743.67004
"2695",94.89159,743.68335
"2696",96.34669,743.69666
"2697",97.008316,743.70996
"2698",96.93019,743.72327
"2699",96.23926,743.7366
"2700",95.079575,743.7499
"2701",93.59762,743.7632
"2702",91.92279,743.7765
"2703",90.15518,743.7898
"2704",88.36805,743.8031
"2705",86.61997,743.8164
"2706",84.972,743.8297
"2707",83.49004,743.843
"2708",82.23514,743.8563
"2709",81.25613,743.8696
"2710",80.56275,743.88293
"2711",80.1355,743.89624
"2712",79.9353,743.90955
"2713",79.906006,743.92285
"2714",79.971924,743.93616
"2715",80.06714,743.94946
"2716",80.128174,743.96277
"2717",80.111084,743.9761
"2718",79.991455,743.9894
"2719",79.75952,744.0027
"2720",79.42504,744.016
"2721",79.00267,744.0293
"2722",78.50706,744.0426
"2723",77.95529,744.0559
"2724",77.36935,744.0692
"2725",76.773636,744.0825
"2726",76.190125,744.0958
"2727",75.6408,744.10913
"2728",75.13786,744.12244
"2729",74.69352,744.13574
"2730",74.319984,744.14905
"2731",74.01724,744.16235
"2732",73.780426,744.17566
"2733",73.60708,744.18896
"2734",73.49233,744.2023
"2735",73.426414,744.2156
"2736",73.40444,744.2289
"2737",73.42153,744.2422
"2738",73.4728,744.2555
"2739",73.55825,744.2688
"2740",73.67544,744.2821
"2741",73.80972,744.2954
"2742",73.94888,744.3087
"2743",74.08072,744.322
"2744",74.195465,744.3353
"2745",74.285805,744.34863
"2746",74.35905,744.36194
"2747",74.4152,744.37524
"2748",74.459145,744.38855
"2749",74.495766,744.40186
"2750",74.56168,744.41516
"2751",74.74235,744.42847
"2752",75.20622,744.4418
"2753",76.13641,744.4551
"2754",77.69161,744.4684
"2755",79.91821,744.4817
"2756",82.69901,744.495
"2757",85.77524,744.5083
"2758",88.81239,744.5216
"2759",91.48577,744.5349
"2760",93.54635,744.5482
"2761",94.8745,744.5615
"2762",95.44335,744.5748
"2763",95.30175,744.58813
"2764",94.55955,744.60144
"2765",93.35592,744.61475
"2766",91.827576,744.62805
"2767",90.11124,744.64136
"2768",88.3119,744.65466
"2769",86.5272,744.66797
"2770",84.82796,744.6813
"2771",83.28741,744.6946
"2772",81.971466,744.7079
"2773",80.93385,744.7212
"2774",80.20386,744.7345
"2775",79.78638,744.7478
"2776",79.64233,744.7611
"2777",79.71313,744.7744
"2778",79.920654,744.7877
"2779",80.181885,744.801
"2780",80.41871,744.81433
"2781",80.57252,744.82764
"2782",80.6067,744.84094
"2783",80.499275,744.85425
"2784",80.2478,744.86755
"2785",79.871826,744.88086
"2786",79.395744,744.89417
"2787",78.84642,744.9075
"2788",78.25071,744.9208
"2789",77.645226,744.9341
"2790",77.0544,744.9474
"2791",76.50263,744.9607
"2792",75.999695,744.974
"2793",75.55535,744.9873
"2794",75.16228,745.0006
"2795",74.82048,745.0139
"2796",74.52506,745.0272
"2797",74.2736,745.0405
"2798",74.073395,745.05383
"2799",73.92935,745.06714
"2800",73.8439,745.08044
"2801",73.80972,745.09375
"2802",73.82681,745.10706
"2803",73.87564,745.12036
"2804",73.94156,745.13367
"2805",74.0148,745.147
"2806",74.090485,745.1603
"2807",74.17105,745.1736
"2808",74.249176,745.1869
"2809",74.32487,745.2002
"2810",74.390785,745.2135
"2811",74.442055,745.2268
"2812",74.48112,745.2401
"2813",74.52018,745.2534
"2814",74.63981,745.2667
"2815",74.984055,745.28
"2816",75.736015,745.29333
"2817",77.07149,745.30664
"2818",79.07347,745.31995
"2819",81.68093,745.33325
"2820",84.67414,745.34656
"2821",87.73571,745.35986
"2822",90.54093,745.37317
"2823",92.8188,745.3865
"2824",94.4033,745.3998
"2825",95.24315,745.4131
"2826",95.37011,745.4264
"2827",94.8745,745.4397
"2828",93.88815,745.453
"2829",92.56489,745.4663
"2830",91.02922,745.4796
"2831",89.373924,745.4929
"2832",87.67956,745.5062
"2833",86.00229,745.51953
"2834",84.4007,745.53284
"2835",82.94316,745.54614
"2836",81.69802,745.55945
"2837",80.72144,745.57275
"2838",80.05005,745.58606
"2839",79.67895,745.59937
"2840",79.569084,745.6127
"2841",79.64965,745.626
"2842",79.84497,745.6393
"2843",80.06714,745.6526
"2844",80.24048,745.6659
"2845",80.31129,745.6792
"2846",80.25025,745.6925
"2847",80.05249,745.7058
"2848",79.72045,745.7191
"2849",79.27856,745.7324
"2850",78.74876,745.7457
"2851",78.15549,745.75903
"2852",77.523155,745.77234
"2853",76.88594,745.78564
"2854",76.26826,745.79895
"2855",75.69451,745.81226
"2856",75.17937,745.82556
"2857",74.73258,745.83887
"2858",74.354164,745.8522
"2859",74.0441,745.8655
"2860",73.795074,745.8788
"2861",73.60708,745.8921
"2862",73.47036,745.9054
"2863",73.37759,745.9187
"2864",73.32632,745.932
"2865",73.306786,745.9453
"2866",73.31899,745.9586
"2867",73.35561,745.9719
"2868",73.41421,745.9852
"2869",73.494774,745.99854
"2870",73.59487,746.01184
"2871",73.70718,746.02515
"2872",73.82193,746.03845
"2873",73.92691,746.05176
"2874",74.0148,746.06506
"2875",74.073395,746.07837
"2876",74.11246,746.0917
"2877",74.1564,746.105
"2878",74.27116,746.1183
"2879",74.5861,746.1316
"2880",75.27947,746.1449
"2881",76.53681,746.1582
"2882",78.467995,746.1715
"2883",81.03639,746.1848
"2884",84.06134,746.1981
"2885",87.24498,746.2114
"2886",90.247955,746.22473
"2887",92.77486,746.23804
"2888",94.625465,746.25134
"2889",95.72167,746.26465
"2890",96.07324,746.27795
"2891",95.76318,746.29126
"2892",94.93065,746.30457
"2893",93.72457,746.3179
"2894",92.29633,746.3312
"2895",90.75578,746.3445
"2896",89.181046,746.3578
"2897",87.606316,746.3711
"2898",86.07065,746.3844
"2899",84.60822,746.3977
"2900",83.2752,746.411
"2901",82.1326,746.4243
"2902",81.234146,746.4376
"2903",80.601814,746.4509
"2904",80.22827,746.46423
"2905",80.06714,746.47754
"2906",80.05005,746.49084
"2907",80.096436,746.50415
"2908",80.147705,746.51746
"2909",80.15015,746.53076
"2910",80.062256,746.54407
"2911",79.8645,746.5574
"2912",79.55932,746.5707
"2913",79.149155,746.584
"2914",78.65598,746.5973
"2915",78.10422,746.6106
"2916",77.51827,746.6239
"2917",76.92256,746.6372
"2918",76.334175,746.6505
"2919",75.7702,746.6638
"2920",75.245285,746.6771
"2921",74.76677,746.6904
"2922",74.3444,746.70374
"2923",73.98062,746.71704
"2924",73.67788,746.73035
"2925",73.43862,746.74365
"2926",73.26284,746.75696
"2927",73.1432,746.77026
"2928",73.0724,746.78357
"2929",73.043106,746.7969
"2930",73.043106,746.8102
"2931",73.06264,746.8235
"2932",73.09926,746.8368
"2933",73.15541,746.8501
"2934",73.22865,746.8634
"2935",73.30923,746.8767
"2936",73.40444,746.89
"2937",73.50698,746.9033
"2938",73.6144,746.9166
"2939",73.71694,746.92993
"2940",73.81949,746.94324
"2941",73.90982,746.95654
"2942",73.98306,746.96985
"2943",74.03677,746.98315
"2944",74.073395,746.99646
"2945",74.11978,747.00977
"2946",74.24185,747.0231
"2947",74.58366,747.0364
"2948",75.34295,747.0497
"2949",76.71015,747.063
"2950",78.77806,747.0763
"2951",81.50271,747.0896
"2952",84.6717,747.1029
"2953",87.955444,747.1162
"2954",90.985275,747.1295
"2955",93.46334,747.1428
"2956",95.218735,747.1561
"2957",96.18799,747.16943
"2958",96.40772,747.18274
"2959",95.98291,747.19604
"2960",95.064926,747.20935
"2961",93.805145,747.22266
"2962",92.33784,747.23596
"2963",90.76799,747.24927
"2964",89.163956,747.2626
"2965",87.56481,747.2759
"2966",85.99985,747.2892
"2967",84.51545,747.3025
"2968",83.16533,747.3158
"2969",82.01297,747.3291
"2970",81.10231,747.3424
"2971",80.45777,747.3557
"2972",80.0647,747.369
"2973",79.87915,747.3823
"2974",79.83765,747.3956
"2975",79.869385,747.40894
"2976",79.906006,747.42224
"2977",79.89136,747.43555
"2978",79.77905,747.44885
"2979",79.55932,747.46216
"2980",79.22972,747.47546
"2981",78.80003,747.4888
"2982",78.28977,747.5021
"2983",77.72091,747.5154
"2984",77.1252,747.5287
"2985",76.52705,747.542
"2986",75.945984,747.5553
"2987",75.40154,747.5686
"2988",74.90349,747.5819
"2989",74.44938,747.5952
"2990",74.0441,747.6085
"2991",73.69253,747.6218
"2992",73.402,747.63513
"2993",73.17494,747.64844
"2994",73.01381,747.66174
"2995",72.90883,747.67505
"2996",72.85756,747.68835
"2997",72.85268,747.70166
"2998",72.88197,747.71497
"2999",72.9308,747.7283
"3000",72.99184,747.7416
"3001",73.06264,747.7549
"3002",73.131,747.7682
"3003",73.196915,747.7815
"3004",73.26284,747.7948
"3005",73.32632,747.8081
"3006",73.39468,747.8214
"3007",73.463036,747.8347
"3008",73.53628,747.848
"3009",73.6144,747.8613
"3010",73.69497,747.87463
"3011",73.777985,747.88794
"3012",73.85855,747.90125
"3013",73.92935,747.91455
"3014",73.99039,747.92786
"3015",74.03677,747.94116
"3016",74.07828,747.95447
"3017",74.14664,747.9678
"3018",74.33219,747.9811
"3019",74.80095,747.9944
"3020",75.76532,748.0077
"3021",77.38888,748.021
"3022",79.73754,748.0343
"3023",82.70634,748.0476
"3024",86.04135,748.0609
"3025",89.38613,748.0742
"3026",92.38178,748.0875
"3027",94.75975,748.1008
"3028",96.375984,748.11414
"3029",97.19142,748.12744
"3030",97.25979,748.14075
"3031",96.69825,748.15405
"3032",95.655754,748.16736
"3033",94.28611,748.18066
"3034",92.716255,748.194
"3035",91.04631,748.2073
"3036",89.34707,748.2206
"3037",87.66003,748.2339
"3038",86.03647,748.2472
"3039",84.5301,748.2605
"3040",83.20683,748.2738
"3041",82.13016,748.2871
"3042",81.339134,748.3004
"3043",80.83864,748.3137
"3044",80.59693,748.327
"3045",80.54566,748.34033
"3046",80.61402,748.35364
"3047",80.719,748.36694
"3048",80.79469,748.38025
"3049",80.78981,748.39355
"3050",80.67017,748.40686
"3051",80.42115,748.42017
"3052",80.05249,748.4335
"3053",79.57397,748.4468
"3054",79.009995,748.4601
"3055",78.39231,748.4734
"3056",77.747765,748.4867
"3057",77.103226,748.5
"3058",76.47822,748.5133
"3059",75.89227,748.5266
"3060",75.355156,748.5399
"3061",74.87663,748.5532
"3062",74.45426,748.5665
"3063",74.09781,748.57983
"3064",73.80728,748.59314
"3065",73.57778,748.60645
"3066",73.40688,748.61975
"3067",73.29214,748.63306
"3068",73.22133,748.64636
"3069",73.18715,748.65967
"3070",73.18471,748.673
"3071",73.2018,748.6863
"3072",73.23842,748.6996
"3073",73.29458,748.7129
"3074",73.36538,748.7262
"3075",73.443504,748.7395
"3076",73.51919,748.7528
"3077",73.58022,748.7661
"3078",73.62173,748.7794
"3079",73.64858,748.7927
"3080",73.66567,748.806
"3081",73.6852,748.81934
"3082",73.7145,748.83264
"3083",73.760895,748.84595
"3084",73.82681,748.85925
"3085",73.90738,748.87256
"3086",73.99283,748.88586
"3087",74.07828,748.8992
"3088",74.158844,748.9125
"3089",74.23941,748.9258
"3090",74.356606,748.9391
"3091",74.62516,748.9524
"3092",75.22087,748.9657
"3093",76.351265,748.979
"3094",78.167694,748.9923
"3095",80.69947,749.0056
"3096",83.792786,749.0189
"3097",87.15465,749.0322
"3098",90.4213,749.04553
"3099",93.24849,749.05884
"3100",95.40673,749.07214
"3101",96.78615,749.08545
"3102",97.38186,749.09875
"3103",97.25735,749.11206
"3104",96.52491,749.12537
"3105",95.328606,749.1387
"3106",93.802704,749.152
"3107",92.0766,749.1653
"3108",90.252846,749.1786
"3109",88.41444,749.1919
"3110",86.61997,749.2052
"3111",84.93782,749.2185
"3112",83.43633,749.2318
"3113",82.193634,749.2451
"3114",81.26589,749.2584
"3115",80.6775,749.2717
"3116",80.40894,749.28503
"3117",80.396736,749.29834
"3118",80.55543,749.31165
"3119",80.79225,749.32495
"3120",81.02663,749.33826
"3121",81.18532,749.35156
"3122",81.22438,749.36487
"3123",81.11696,749.3782
"3124",80.86305,749.3915
"3125",80.47242,749.4048
"3126",79.971924,749.4181
"3127",79.39086,749.4314
"3128",78.76097,749.4447
"3129",78.11154,749.458
"3130",77.467,749.4713
"3131",76.84932,749.4846
"3132",76.27314,749.4979
"3133",75.74822,749.5112
"3134",75.27459,749.52454
"3135",74.85222,749.53784
"3136",74.49088,749.55115
"3137",74.19058,749.56445
"3138",73.95621,749.57776
"3139",73.78531,749.59106
"3140",73.673,749.6044
"3141",73.60464,749.6177
"3142",73.568016,749.631
"3143",73.55581,749.6443
"3144",73.565575,749.6576
"3145",73.59731,749.6709
"3146",73.6437,749.6842
"3147",73.704735,749.6975
"3148",73.780426,749.7108
"3149",73.85611,749.7241
"3150",73.93912,749.7374
"3151",74.022125,749.75073
"3152",74.110016,749.76404
"3153",74.19791,749.77734
"3154",74.288246,749.79065
"3155",74.371254,749.80396
"3156",74.45182,749.81726
"3157",74.52506,749.83057
"3158",74.5861,749.8439
"3159",74.634926,749.8572
"3160",74.70817,749.8705
"3161",74.88884,749.8838
"3162",75.338066,749.8971
"3163",76.25117,749.9104
"3164",77.78195,749.9237
"3165",79.96948,749.937
"3166",82.70634,749.9503
"3167",85.74105,749.9636
"3168",88.7367,749.9769
"3169",91.38323,749.99023
"3170",93.44381,750.00354
"3171",94.79149,750.01685
"3172",95.396965,750.03015
"3173",95.30663,750.04346
"3174",94.608376,750.05676
"3175",93.42428,750.07007
"3176",91.878845,750.0834
"3177",90.089264,750.0967
"3178",88.17029,750.11
"3179",86.21713,750.1233
"3180",84.317696,750.1366
"3181",82.5745,750.1499
"3182",81.075455,750.1632
"3183",79.906006,750.1765
"3184",79.12474,750.1898
"3185",78.74876,750.2031
"3186",78.73411,750.21643
"3187",79.00023,750.22974
"3188",79.43481,750.24304
"3189",79.91821,750.25635
"3190",80.35767,750.26965
"3191",80.67506,750.28296
"3192",80.82887,750.29626
"3193",80.799576,750.3096
"3194",80.601814,750.3229
"3195",80.24292,750.3362
"3196",79.75952,750.3495
"3197",79.19066,750.3628
"3198",78.57542,750.3761
"3199",77.945526,750.3894
"3200",77.31808,750.4027
"3201",76.71992,750.416
"3202",76.16327,750.4293
"3203",75.65789,750.4426
"3204",75.208664,750.45593
"3205",74.827805,750.46924
"3206",74.51774,750.48254
"3207",74.27848,750.49585
"3208",74.092926,750.50916
"3209",73.96109,750.52246
"3210",73.882965,750.53577
"3211",73.846344,750.5491
"3212",73.846344,750.5624
"3213",73.882965,750.5757
"3214",73.944,750.589
"3215",74.0148,750.6023
"3216",74.08804,750.6156
"3217",74.161285,750.6289
"3218",74.229645,750.6422
"3219",74.30045,750.6555
"3220",74.37858,750.6688
"3221",74.46647,750.6821
"3222",74.564125,750.69543
"3223",74.669106,750.70874
"3224",74.776535,750.72205
"3225",74.88396,750.73535
"3226",75.003586,750.74866
"3227",75.20622,750.76196
"3228",75.6408,750.77527
"3229",76.51972,750.7886
"3230",78.030975,750.8019
"3231",80.257576,750.8152
"3232",83.13603,750.8285
"3233",86.431984,750.8418
"3234",89.79141,750.8551
"3235",92.86275,750.8684
"3236",95.362785,750.8817
"3237",97.13039,750.895
"3238",98.106964,750.9083
"3239",98.336464,750.92163
"3240",97.90921,750.93494
"3241",96.96193,750.94824
"3242",95.63622,750.96155
"3243",94.05661,750.97485
"3244",92.34028,750.98816
"3245",90.57267,751.00146
"3246",88.80995,751.0148
"3247",87.113144,751.0281
"3248",85.54818,751.0414
"3249",84.17853,751.0547
"3250",83.06035,751.068
"3251",82.2327,751.0813
"3252",81.70779,751.0946
"3253",81.45632,751.1079
"3254",81.41726,751.1212
"3255",81.50515,751.1345
"3256",81.64919,751.1478
"3257",81.77371,751.16113
"3258",81.8201,751.17444
"3259",81.75662,751.18774
"3260",81.57107,751.20105
"3261",81.25857,751.21436
"3262",80.831314,751.22766
"3263",80.31129,751.24097
"3264",79.725334,751.2543
"3265",79.09544,751.2676
"3266",78.44846,751.2809
"3267",77.80148,751.2942
"3268",77.17403,751.3075
"3269",76.575874,751.3208
"3270",76.016785,751.3341
"3271",75.508965,751.3474
"3272",75.05974,751.3607
"3273",74.67887,751.374
"3274",74.35905,751.3873
"3275",74.10025,751.40063
"3276",73.89517,751.41394
"3277",73.74624,751.42725
"3278",73.64614,751.44055
"3279",73.582664,751.45386
"3280",73.55337,751.46716
"3281",73.55337,751.48047
"3282",73.568016,751.4938
"3283",73.599754,751.5071
"3284",73.64614,751.5204
"3285",73.70718,751.5337
"3286",73.76822,751.547
"3287",73.831696,751.5603
"3288",73.88541,751.5736
"3289",73.92447,751.5869
"3290",73.944,751.6002
"3291",73.94888,751.6135
"3292",73.96109,751.62683
"3293",74.0441,751.64014
"3294",74.34196,751.65344
"3295",75.0573,751.66675
"3296",76.368355,751.68005
"3297",78.37766,751.69336
"3298",81.041275,751.70667
"3299",84.16388,751.72
"3300",87.42321,751.7333
"3301",90.47013,751.7466
"3302",93.019,751.7599
"3303",94.87694,751.7732
"3304",95.96826,751.7865
"3305",96.30518,751.7998
"3306",95.97803,751.8131
"3307",95.099106,751.8264
"3308",93.81491,751.8397
"3309",92.26704,751.853
"3310",90.57511,751.86633
"3311",88.831924,751.87964
"3312",87.10338,751.89294
"3313",85.45052,751.90625
"3314",83.92462,751.91956
"3315",82.58671,751.93286
"3316",81.49294,751.94617
"3317",80.689705,751.9595
"3318",80.19165,751.9728
"3319",79.96216,751.9861
"3320",79.94263,751.9994
"3321",80.05249,752.0127
"3322",80.22095,752.026
"3323",80.37232,752.0393
"3324",80.45289,752.0526
"3325",80.428474,752.0659
"3326",80.27711,752.0792
"3327",79.9939,752.0925
"3328",79.59106,752.10583
"3329",79.09544,752.11914
"3330",78.52903,752.13245
"3331",77.925995,752.14575
"3332",77.30099,752.15906
"3333",76.6833,752.17236
"3334",76.085144,752.18567
"3335",75.528496,752.199
"3336",75.018234,752.2123
"3337",74.56901,752.2256
"3338",74.18082,752.2389
"3339",73.86099,752.2522
"3340",73.60464,752.2655
"3341",73.411766,752.2788
"3342",73.272606,752.2921
"3343",73.18715,752.3054
"3344",73.145645,752.3187
"3345",73.13832,752.33203
"3346",73.16518,752.34534
"3347",73.21889,752.35864
"3348",73.29214,752.37195
"3349",73.38491,752.38525
"3350",73.48745,752.39856
"3351",73.59243,752.41187
"3352",73.69741,752.4252
"3353",73.79263,752.4385
"3354",73.8732,752.4518
"3355",73.936676,752.4651
"3356",73.97574,752.4784
"3357",74.002594,752.4917
"3358",74.03433,752.505
"3359",74.15152,752.5183
"3360",74.495766,752.5316
"3361",75.26238,752.5449
"3362",76.6247,752.5582
"3363",78.65598,752.57153
"3364",81.290306,752.58484
"3365",84.30793,752.59814
"3366",87.379265,752.61145
"3367",90.16983,752.62476
"3368",92.40131,752.63806
"3369",93.91989,752.65137
"3370",94.68162,752.6647
"3371",94.72068,752.678
"3372",94.12985,752.6913
"3373",93.04341,752.7046
"3374",91.6054,752.7179
"3375",89.94034,752.7312
"3376",88.15808,752.7445
"3377",86.348976,752.7578
"3378",84.58625,752.7711
"3379",82.948044,752.7844
"3380",81.50515,752.7977
"3381",80.33326,752.81104
"3382",79.49828,752.82434
"3383",79.03197,752.83765
"3384",78.907455,752.85095
"3385",79.063705,752.86426
"3386",79.415276,752.87756
"3387",79.85474,752.89087
"3388",80.27955,752.9042
"3389",80.618904,752.9175
"3390",80.816666,752.9308
"3391",80.84108,752.9441
"3392",80.69459,752.9574
"3393",80.38941,752.9707
"3394",79.954834,752.984
"3395",79.42748,752.9973
"3396",78.84642,753.0106
"3397",78.24094,753.0239
"3398",77.63058,753.03723
"3399",77.032425,753.05054
"3400",76.46113,753.06384
"3401",75.94354,753.07715
"3402",75.48943,753.09045
"3403",75.10124,753.10376
"3404",74.77898,753.11707
"3405",74.5153,753.1304
"3406",74.29557,753.1437
"3407",74.1149,753.157
"3408",73.97574,753.1703
"3409",73.88541,753.1836
"3410",73.84146,753.1969
"3411",73.83902,753.2102
"3412",73.86832,753.2235
"3413",73.92691,753.2368
"3414",74.005035,753.2501
"3415",74.090485,753.2634
"3416",74.175934,753.27673
"3417",74.25407,753.29004
"3418",74.31266,753.30334
"3419",74.354164,753.31665
"3420",74.38102,753.32996
"3421",74.41276,753.34326
"3422",74.5153,753.35657
"3423",74.830246,753.3699
"3424",75.545586,753.3832
"3425",76.839554,753.3965
"3426",78.79759,753.4098
"3427",81.36599,753.4231
"3428",84.32746,753.4364
"3429",87.37682,753.4497
"3430",90.16983,753.463
"3431",92.43549,753.4763
"3432",94.01999,753.4896
"3433",94.86961,753.5029
"3434",94.99901,753.51624
"3435",94.503395,753.52954
"3436",93.50973,753.54285
"3437",92.154724,753.55615
"3438",90.57023,753.56946
"3439",88.88075,753.58276
"3440",87.186386,753.59607
"3441",85.56527,753.6094
"3442",84.07355,753.6227
"3443",82.7625,753.636
"3444",81.69558,753.6493
"3445",80.91188,753.6626
"3446",80.428474,753.6759
"3447",80.235596,753.6892
"3448",80.289314,753.7025
"3449",80.516365,753.7158
"3450",80.82643,753.7291
"3451",81.13893,753.74243
"3452",81.3782,753.75574
"3453",81.497826,753.76904
"3454",81.45876,753.78235
"3455",81.25857,753.79565
"3456",80.902115,753.80896
"3457",80.41871,753.82227
"3458",79.84009,753.8356
"3459",79.19554,753.8489
"3460",78.521706,753.8622
"3461",77.85275,753.8755
"3462",77.21309,753.8888
"3463",76.627144,753.9021
"3464",76.09979,753.9154
"3465",75.63348,753.9287
"3466",75.22575,753.942
"3467",74.87663,753.9553
"3468",74.5861,753.9686
"3469",74.3444,753.98193
"3470",74.15396,753.99524
"3471",74.019684,754.00854
"3472",73.93179,754.02185
"3473",73.88052,754.03516
"3474",73.8732,754.04846
"3475",73.900055,754.06177
"3476",73.95621,754.0751
"3477",74.03433,754.0884
"3478",74.12222,754.1017
"3479",74.21744,754.115
"3480",74.30778,754.1283
"3481",74.38346,754.1416
"3482",74.43717,754.1549
"3483",74.46891,754.1682
"3484",74.476234,754.1815
"3485",74.47135,754.1948
"3486",74.486,754.2081
"3487",74.60563,754.22144
"3488",74.97917,754.23474
"3489",75.81415,754.24805
"3490",77.29122,754.26135
"3491",79.47387,754.27466
"3492",82.27665,754.28796
"3493",85.46273,754.3013
"3494",88.687874,754.3146
"3495",91.61028,754.3279
"3496",93.96628,754.3412
"3497",95.61425,754.3545
"3498",96.50294,754.3678
"3499",96.66895,754.3811
"3500",96.20508,754.3944
"3501",95.25292,754.4077
"3502",93.95651,754.421
"3503",92.45991,754.4343
"3504",90.880295,754.44763
"3505",89.29092,754.46094
"3506",87.73083,754.47424
"3507",86.236664,754.48755
"3508",84.84993,754.50085
"3509",83.617,754.51416
"3510",82.58915,754.52747
"3511",81.80057,754.5408
"3512",81.25613,754.5541
"3513",80.921646,754.5674
"3514",80.74586,754.5807
"3515",80.66773,754.594
"3516",80.62623,754.6073
"3517",80.56519,754.6206
"3518",80.45045,754.6339
"3519",80.255135,754.6472
"3520",79.96704,754.6605
"3521",79.58373,754.6738
"3522",79.114975,754.68713
"3523",78.58518,754.70044
"3524",78.011444,754.71375
"3525",77.41329,754.72705
"3526",76.81514,754.74036
"3527",76.23651,754.75366
"3528",75.682304,754.76697
"3529",75.16472,754.7803
"3530",74.68864,754.7936
"3531",74.268715,754.8069
"3532",73.90738,754.8202
"3533",73.60708,754.8335
"3534",73.36782,754.8468
"3535",73.18471,754.8601
"3536",73.060196,754.8734
"3537",72.98451,754.8867
"3538",72.94789,754.9
"3539",72.95033,754.9133
"3540",72.97719,754.92664
"3541",73.023575,754.93994
"3542",73.08461,754.95325
"3543",73.16029,754.96655
"3544",73.24574,754.97986
"3545",73.34341,754.99316
"3546",73.43862,755.0065
"3547",73.52895,755.0198
"3548",73.60464,755.0331
"3549",73.65835,755.0464
"3550",73.69741,755.0597
"3551",73.71938,755.073
"3552",73.73403,755.0863
"3553",73.763336,755.0996
"3554",73.86832,755.1129
"3555",74.16861,755.1262
"3556",74.847336,755.1395
"3557",76.09003,755.15283
"3558",78.009,755.16614
"3559",80.570076,755.17944
"3560",83.58526,755.19275
"3561",86.74204,755.20605
"3562",89.69375,755.21936
"3563",92.14252,755.23267
"3564",93.907684,755.246
"3565",94.923325,755.2593
"3566",95.21141,755.2726
"3567",94.86229,755.2859
"3568",94.00778,755.2992
"3569",92.80904,755.3125
"3570",91.41497,755.3258
"3571",89.94522,755.3391
"3572",88.47547,755.3524
"3573",87.047226,755.3657
"3574",85.68978,755.379
"3575",84.41291,755.39233
"3576",83.250786,755.40564
"3577",82.247345,755.41895
"3578",81.449,755.43225
"3579",80.8777,755.44556
"3580",80.54078,755.45886
"3581",80.42115,755.47217
"3582",80.45289,755.4855
"3583",80.54322,755.4988
"3584",80.61402,755.5121
"3585",80.60914,755.5254
"3586",80.48707,755.5387
"3587",80.24536,755.552
"3588",79.8938,755.5653
"3589",79.45922,755.5786
"3590",78.958725,755.5919
"3591",78.4094,755.6052
"3592",77.838104,755.6185
"3593",77.27169,755.63184
"3594",76.72724,755.64514
"3595",76.2121,755.65845
"3596",75.736015,755.67175
"3597",75.31365,755.68506
"3598",74.95232,755.69836
"3599",74.64713,755.7117
"3600",74.390785,755.725
"3601",74.17349,755.7383
"3602",73.987946,755.7516
"3603",73.83902,755.7649
"3604",73.73159,755.7782
"3605",73.673,755.7915
"3606",73.66811,755.8048
"3607",73.71206,755.8181
"3608",73.79263,755.8314
"3609",73.89517,755.8447
"3610",74.01236,755.85803
"3611",74.13199,755.87134
"3612",74.23941,755.88464
"3613",74.33219,755.89795
"3614",74.41032,755.91125
"3615",74.48112,755.92456
"3616",74.53971,755.93787
"3617",74.58366,755.9512
"3618",74.617836,755.9645
"3619",74.649574,755.9778
"3620",74.703285,755.9911
"3621",74.85222,756.0044
"3622",75.22331,756.0177
"3623",75.9704,756.031
"3624",77.23018,756.0443
"3625",79.04906,756.0576
"3626",81.356224,756.0709
"3627",83.95636,756.0842
"3628",86.5687,756.09753
"3629",88.90517,756.11084
"3630",90.74601,756.12415
"3631",91.96185,756.13745
"3632",92.51118,756.15076
"3633",92.43305,756.16406
"3634",91.83978,756.17737
"3635",90.851,756.1907
"3636",89.58877,756.204
"3637",88.15808,756.2173
"3638",86.64439,756.2306
"3639",85.10872,756.2439
"3640",83.62188,756.2572
"3641",82.27177,756.2705
"3642",81.1487,756.2838
"3643",80.325935,756.2971
"3644",79.84741,756.3104
"3645",79.7058,756.3237
"3646",79.84985,756.33704
"3647",80.18921,756.35034
"3648",80.621346,756.36365
"3649",81.05348,756.37695
"3650",81.40505,756.39026
"3651",81.617455,756.40356
"3652",81.65652,756.4169
"3653",81.5198,756.4302
"3654",81.214615,756.4435
"3655",80.77028,756.4568
"3656",80.216064,756.4701
"3657",79.59594,756.4834
"3658",78.94652,756.4967
"3659",78.29954,756.51
"3660",77.67208,756.5233
"3661",77.07637,756.5366
"3662",76.52949,756.5499
"3663",76.03143,756.56323
"3664",75.59441,756.57654
"3665",75.22575,756.58984
"3666",74.93523,756.60315
"3667",74.70817,756.61646
"3668",74.54459,756.62976
"3669",74.43717,756.64307
"3670",74.38102,756.6564
"3671",74.36881,756.6697
"3672",74.39323,756.683
"3673",74.444496,756.6963
"3674",74.50553,756.7096
"3675",74.55924,756.7229
"3676",74.59586,756.7362
"3677",74.60807,756.7495
"3678",74.600746,756.7628
"3679",74.57633,756.7761
"3680",74.547035,756.7894
"3681",74.53483,756.80273
"3682",74.60563,756.81604
"3683",74.87419,756.82935
"3684",75.50164,756.84265
"3685",76.63447,756.85596
"3686",78.35325,756.86926
"3687",80.62379,756.88257
"3688",83.2752,756.8959
"3689",86.02426,756.9092
"3690",88.56336,756.9225
"3691",90.62394,756.9358
"3692",92.04486,756.9491
"3693",92.76753,756.9624
"3694",92.840775,756.9757
"3695",92.367134,756.989
"3696",91.48577,757.0023
"3697",90.32853,757.0156
"3698",89.01991,757.02893
"3699",87.640495,757.04224
"3700",86.25132,757.05554
"3701",84.89143,757.06885
"3702",83.597466,757.08215
"3703",82.41337,757.09546
"3704",81.39529,757.10876
"3705",80.59937,757.1221
"3706",80.059814,757.1354
"3707",79.77905,757.1487
"3708",79.7058,757.162
"3709",79.77417,757.1753
"3710",79.90112,757.1886
"3711",80.01831,757.2019
"3712",80.076904,757.2152
"3713",80.03784,757.2285
"3714",79.888916,757.2418
"3715",79.61547,757.2551
"3716",79.22728,757.26843
"3717",78.74143,757.28174
"3718",78.184784,757.29504
"3719",77.591515,757.30835
"3720",77.00069,757.32166
"3721",76.43427,757.33496
"3722",75.90936,757.34827
"3723",75.43328,757.3616
"3724",75.01579,757.3749
"3725",74.65934,757.3882
"3726",74.371254,757.4015
"3727",74.15396,757.4148
"3728",74.002594,757.4281
"3729",73.90982,757.4414
"3730",73.85611,757.4547
"3731",73.829254,757.468
"3732",73.82193,757.4813
"3733",73.82681,757.4946
"3734",73.83658,757.50793
"3735",73.85611,757.52124
"3736",73.88052,757.53455
"3737",73.89517,757.54785
"3738",73.89517,757.56116
"3739",73.8732,757.57446
"3740",73.82437,757.58777
"3741",73.74868,757.6011
"3742",73.66811,757.6144
"3743",73.62417,757.6277
"3744",73.7145,757.641
"3745",74.08804,757.6543
"3746",74.932785,757.6676
"3747",76.404976,757.6809
"3748",78.55833,757.6942
"3749",81.29519,757.7075
"3750",84.37629,757.7208
"3751",87.4696,757.73413
"3752",90.23331,757.74744
"3753",92.40131,757.76074
"3754",93.83444,757.77405
"3755",94.50584,757.78735
"3756",94.47654,757.80066
"3757",93.873505,757.81396
"3758",92.84566,757.8273
"3759",91.54192,757.8406
"3760",90.091705,757.8539
"3761",88.59022,757.8672
"3762",87.096054,757.8805
"3763",85.645836,757.8938
"3764",84.27375,757.9071
"3765",83.01152,757.9204
"3766",81.91043,757.9337
"3767",81.01686,757.947
"3768",80.365,757.9603
"3769",79.9646,757.97363
"3770",79.783936,757.98694
"3771",79.77417,758.00024
"3772",79.8645,758.01355
"3773",79.98901,758.02686
"3774",80.09155,758.04016
"3775",80.12573,758.05347
"3776",80.07446,758.0668
"3777",79.91333,758.0801
"3778",79.639885,758.0934
"3779",79.26391,758.1067
"3780",78.79759,758.12
"3781",78.26292,758.1333
"3782",77.69161,758.1466
"3783",77.103226,758.1599
"3784",76.52216,758.1732
"3785",75.965515,758.1865
"3786",75.440605,758.1998
"3787",74.96452,758.21313
"3788",74.53483,758.22644
"3789",74.16617,758.23975
"3790",73.85611,758.25305
"3791",73.60464,758.26636
"3792",73.41421,758.27966
"3793",73.28481,758.29297
"3794",73.20424,758.3063
"3795",73.17494,758.3196
"3796",73.18471,758.3329
"3797",73.21889,758.3462
"3798",73.26772,758.3595
"3799",73.32632,758.3728
"3800",73.38735,758.3861
"3801",73.44106,758.3994
"3802",73.49233,758.4127
"3803",73.53628,758.426
"3804",73.57046,758.43933
"3805",73.599754,758.45264
"3806",73.68032,758.46594
"3807",73.92691,758.47925
"3808",74.51774,758.49255
"3809",75.64324,758.50586
"3810",77.43282,758.51917
"3811",79.88159,758.5325
"3812",82.828415,758.5458
"3813",85.977875,758.5591
"3814",88.97597,758.5724
"3815",91.50286,758.5857
"3816",93.34615,758.599
"3817",94.415504,758.6123
"3818",94.72312,758.6256
"3819",94.364235,758.6389
"3820",93.47555,758.6522
"3821",92.20599,758.6655
"3822",90.69962,758.67883
"3823",89.07362,758.69214
"3824",87.411,758.70544
"3825",85.76303,758.71875
"3826",84.17853,758.73206
"3827",82.71122,758.74536
"3828",81.409935,758.75867
"3829",80.34058,758.772
"3830",79.554436,758.7853
"3831",79.06615,758.7986
"3832",78.86351,758.8119
"3833",78.89525,758.8252
"3834",79.078354,758.8385
"3835",79.32983,758.8518
"3836",79.569084,758.8651
"3837",79.742424,758.8784
"3838",79.80591,758.8917
"3839",79.7522,758.905
"3840",79.57641,758.91833
"3841",79.28588,758.93164
"3842",78.90013,758.94495
"3843",78.44114,758.95825
"3844",77.925995,758.97156
"3845",77.37911,758.98486
"3846",76.82735,758.99817
"3847",76.297554,759.0115
"3848",75.79462,759.0248
"3849",75.33074,759.0381
"3850",74.915695,759.0514
"3851",74.55192,759.0647
"3852",74.24429,759.078
"3853",73.99771,759.0913
"3854",73.80972,759.1046
"3855",73.687645,759.1179
"3856",73.62173,759.1312
"3857",73.60952,759.14453
"3858",73.6437,759.15784
"3859",73.71694,759.17114
"3860",73.82681,759.18445
"3861",73.95621,759.19775
"3862",74.09537,759.21106
"3863",74.232086,759.22437
"3864",74.354164,759.2377
"3865",74.459145,759.251
"3866",74.54948,759.2643
"3867",74.65446,759.2776
"3868",74.861984,759.2909
"3869",75.318535,759.3042
"3870",76.21454,759.3175
"3871",77.713585,759.3308
"3872",79.86694,759.3441
"3873",82.58671,759.3574
"3874",85.64095,759.3707
"3875",88.70008,759.38403
"3876",91.4345,759.39734
"3877",93.58785,759.41064
"3878",95.011215,759.42395
"3879",95.66308,759.43726
"3880",95.589836,759.45056
"3881",94.89891,759.46387
"3882",93.73434,759.4772
"3883",92.25239,759.4905
"3884",90.58488,759.5038
"3885",88.82948,759.5171
"3886",87.061874,759.5304
"3887",85.34066,759.5437
"3888",83.717094,759.557
"3889",82.25468,759.5703
"3890",81.0193,759.5836
"3891",80.07202,759.5969
"3892",79.447014,759.6102
"3893",79.13695,759.62354
"3894",79.10765,759.63684
"3895",79.281,759.65015
"3896",79.571526,759.66345
"3897",79.87915,759.67676
"3898",80.13794,759.69006
"3899",80.28199,759.70337
"3900",80.27955,759.7167
"3901",80.12085,759.73
"3902",79.818115,759.7433
"3903",79.3933,759.7566
"3904",78.87572,759.7699
"3905",78.30442,759.7832
"3906",77.70626,759.7965
"3907",77.11055,759.8098
"3908",76.53437,759.8231
"3909",75.99237,759.8364
"3910",75.491875,759.84973
"3911",75.04021,759.86304
"3912",74.63981,759.87634
"3913",74.29801,759.88965
"3914",74.01724,759.90295
"3915",73.79996,759.91626
"3916",73.64614,759.92957
"3917",73.548485,759.9429
"3918",73.49966,759.9562
"3919",73.48989,759.9695
"3920",73.51186,759.9828
"3921",73.55093,759.9961
"3922",73.602196,760.0094
"3923",73.65835,760.0227
"3924",73.70962,760.036
"3925",73.760895,760.0493
"3926",73.81949,760.0626
"3927",73.936676,760.0759
"3928",74.229645,760.08923
"3929",74.879074,760.10254
"3930",76.07538,760.11584
"3931",77.943085,760.12915
"3932",80.46021,760.14246
"3933",83.455864,760.15576
"3934",86.62974,760.16907
"3935",89.62295,760.1824
"3936",92.13031,760.1957
"3937",93.95407,760.209
"3938",95.00145,760.2223
"3939",95.28466,760.2356
"3940",94.88426,760.2489
"3941",93.93942,760.2622
"3942",92.60151,760.2755
"3943",91.02434,760.2888
"3944",89.32754,760.3021
"3945",87.60143,760.3154
"3946",85.89975,760.32874
"3947",84.26887,760.34204
"3948",82.74784,760.35535
"3949",81.392845,760.36865
"3950",80.26002,760.38196
"3951",79.40307,760.39526
"3952",78.84398,760.40857
"3953",78.57786,760.4219
"3954",78.54856,760.4352
"3955",78.68528,760.4485
"3956",78.905014,760.4618
"3957",79.12718,760.4751
"3958",79.28832,760.4884
"3959",79.34692,760.5017
"3960",79.27856,760.515
"3961",79.078354,760.5283
"3962",78.746315,760.5416
"3963",78.311745,760.55493
"3964",77.79172,760.56824
"3965",77.225296,760.58154
"3966",76.63935,760.59485
"3967",76.05585,760.60815
"3968",75.494316,760.62146
"3969",74.97673,760.63477
"3970",74.50065,760.6481
"3971",74.07828,760.6614
"3972",73.71694,760.6747
"3973",73.41421,760.688
"3974",73.16762,760.7013
"3975",72.98207,760.7146
"3976",72.850235,760.7279
"3977",72.762344,760.7412
"3978",72.72083,760.7545
"3979",72.723274,760.7678
"3980",72.7599,760.7811
"3981",72.82826,760.79443
"3982",72.91371,760.80774
"3983",73.01137,760.82104
"3984",73.10658,760.83435
"3985",73.19447,760.84766
"3986",73.27993,760.86096
"3987",73.402,760.87427
"3988",73.64858,760.8876
"3989",74.20035,760.9009
"3990",75.25994,760.9142
"3991",76.998245,760.9275
"3992",79.4519,760.9408
"3993",82.50614,760.9541
"3994",85.88266,760.9674
"3995",89.21767,760.9807
"3996",92.14984,760.994
"3997",94.42283,761.0073
"3998",95.91211,761.0206
"3999",96.59327,761.03394
"4000",96.53956,761.04724
"4001",95.88281,761.06055
"4002",94.78172,761.07385
"4003",93.38766,761.08716
"4004",91.84711,761.10046
"4005",90.26017,761.1138
"4006",88.690315,761.1271
"4007",87.17174,761.1404
"4008",85.7264,761.1537
"4009",84.37629,761.167
"4010",83.15556,761.1803
"4011",82.108185,761.1936
"4012",81.2781,761.2069
"4013",80.68238,761.2202
"4014",80.308846,761.2335
"4015",80.12085,761.2468
"4016",80.0647,761.26013
"4017",80.07446,761.27344
"4018",80.093994,761.28674
"4019",80.06958,761.30005
"4020",79.9646,761.31335
"4021",79.75952,761.32666
"4022",79.449455,761.33997
"4023",79.03929,761.3533
"4024",78.54856,761.3666
"4025",77.994354,761.3799
"4026",77.40353,761.3932
"4027",76.79317,761.4065
"4028",76.18524,761.4198
"4029",75.60418,761.4331
"4030",75.06218,761.4464
"4031",74.57389,761.4597
"4032",74.14664,761.473
"4033",73.78287,761.4863
"4034",73.47036,761.49963
"4035",73.21156,761.51294
"4036",73.00404,761.52625
"4037",72.84779,761.53955
"4038",72.740364,761.55286
"4039",72.67689,761.56616
"4040",72.65003,761.57947
"4041",72.64759,761.5928
"4042",72.66956,761.6061
"4043",72.71839,761.6194
"4044",72.79408,761.6327
"4045",72.89174,761.646
"4046",73.00404,761.6593
"4047",73.126114,761.6726
"4048",73.248184,761.6859
"4049",73.3605,761.6992
"4050",73.45815,761.7125
"4051",73.54604,761.7258
"4052",73.633934,761.73914
"4053",73.79263,761.75244
"4054",74.16861,761.76575
"4055",74.984055,761.77905
"4056",76.43427,761.79236
"4057",78.63157,761.80566
"4058",81.51736,761.819
"4059",84.86702,761.8323
"4060",88.31678,761.8456
"4061",91.48333,761.8589
"4062",94.05661,761.8722
"4063",95.853516,761.8855
"4064",96.813,761.8988
"4065",96.98634,761.9121
"4066",96.48829,761.9254
"4067",95.47265,761.9387
"4068",94.10788,761.952
"4069",92.542915,761.96533
"4070",90.89494,761.97864
"4071",89.2372,761.99194
"4072",87.60876,762.00525
"4073",86.04135,762.01855
"4074",84.578926,762.03186
"4075",83.26299,762.04517
"4076",82.15213,762.0585
"4077",81.28298,762.0718
"4078",80.67506,762.0851
"4079",80.30396,762.0984
"4080",80.130615,762.1117
"4081",80.09155,762.125
"4082",80.12573,762.1383
"4083",80.16724,762.1516
"4084",80.16235,762.1649
"4085",80.06958,762.1782
"4086",79.87671,762.1915
"4087",79.569084,762.20483
"4088",79.166245,762.21814
"4089",78.68284,762.23145
"4090",78.14328,762.24475
"4091",77.574425,762.25806
"4092",76.995804,762.27136
"4093",76.42451,762.28467
"4094",75.87518,762.298
"4095",75.36004,762.3113
"4096",74.88884,762.3246
"4097",74.478676,762.3379
"4098",74.12222,762.3512
"4099",73.82681,762.3645
"4100",73.585106,762.3778
"4101",73.39468,762.3911
"4102",73.248184,762.4044
"4103",73.15053,762.4177
"4104",73.091934,762.431
"4105",73.074844,762.44434
"4106",73.08217,762.45764
"4107",73.109024,762.47095
"4108",73.14809,762.48425
"4109",73.20424,762.49756
"4110",73.272606,762.51086
"4111",73.35561,762.5242
"4112",73.45083,762.5375
"4113",73.55093,762.5508
"4114",73.6437,762.5641
"4115",73.72915,762.5774
"4116",73.797516,762.5907
"4117",73.85367,762.604
"4118",73.89517,762.6173
"4119",73.92935,762.6306
"4120",73.97574,762.6439
"4121",74.08316,762.6572
"4122",74.373695,762.67053
"4123",75.04265,762.68384
"4124",76.29267,762.69714
"4125",78.25803,762.71045
"4126",80.921646,762.72375
"4127",84.102844,762.73706
"4128",87.484245,762.75037
"4129",90.68253,762.7637
"4130",93.368126,762.777
"4131",95.32372,762.7903
"4132",96.45655,762.8036
"4133",96.781265,762.8169
"4134",96.395515,762.8302
"4135",95.44579,762.8435
"4136",94.09567,762.8568
"4137",92.508736,762.8701
"4138",90.811935,762.8834
"4139",89.08827,762.8967
"4140",87.39391,762.91003
"4141",85.770355,762.92334
"4142",84.266426,762.93665
"4143",82.930954,762.94995
"4144",81.82742,762.96326
"4145",80.99977,762.97656
"4146",80.465096,762.98987
"4147",80.19653,763.0032
"4148",80.14282,763.0165
"4149",80.23071,763.0298
"4150",80.38697,763.0431
"4151",80.52857,763.0564
"4152",80.6067,763.0697
"4153",80.57984,763.083
"4154",80.43336,763.0963
"4155",80.15503,763.1096
"4156",79.76196,763.1229
"4157",79.273674,763.1362
"4158",78.71702,763.14954
"4159",78.12375,763.16284
"4160",77.51583,763.17615
"4161",76.91524,763.18945
"4162",76.33906,763.20276
"4163",75.80438,763.21606
"4164",75.318535,763.2294
"4165",74.89128,763.2427
"4166",74.527504,763.256
"4167",74.22476,763.2693
"4168",73.985504,763.2826
"4169",73.80484,763.2959
"4170",73.67788,763.3092
"4171",73.602196,763.3225
"4172",73.568016,763.3358
"4173",73.56313,763.3491
"4174",73.58755,763.3624
"4175",73.62905,763.37573
"4176",73.687645,763.38904
"4177",73.76578,763.40234
"4178",73.863434,763.41565
"4179",73.970856,763.42896
"4180",74.08072,763.44226
"4181",74.18082,763.45557
"4182",74.2736,763.4689
"4183",74.34684,763.4822
"4184",74.40055,763.4955
"4185",74.42252,763.5088
"4186",74.42252,763.5221
"4187",74.40299,763.5354
"4188",74.38102,763.5487
"4189",74.40543,763.562
"4190",74.59342,763.5753
"4191",75.125656,763.5886
"4192",76.19501,763.6019
"4193",77.925995,763.61523
"4194",80.31861,763.62854
"4195",83.22148,763.64185
"4196",86.33921,763.65515
"4197",89.31533,763.66846
"4198",91.83246,763.68176
"4199",93.680626,763.69507
"4200",94.75975,763.7084
"4201",95.07469,763.7217
"4202",94.70603,763.735
"4203",93.788055,763.7483
"4204",92.46235,763.7616
"4205",90.87053,763.7749
"4206",89.13466,763.7882
"4207",87.345085,763.8015
"4208",85.575035,763.8148
"4209",83.89288,763.8281
"4210",82.37919,763.84143
"4211",81.112076,763.85474
"4212",80.164795,763.86804
"4213",79.57885,763.88135
"4214",79.3518,763.89465
"4215",79.42748,763.90796
"4216",79.71557,763.92126
"4217",80.10376,763.9346
"4218",80.49683,763.9479
"4219",80.81178,763.9612
"4220",80.99245,763.9745
"4221",81.01686,763.9878
"4222",80.87038,764.0011
"4223",80.570076,764.0144
"4224",80.14526,764.0277
"4225",79.62768,764.041
"4226",79.0515,764.0543
"4227",78.44846,764.0676
"4228",77.84543,764.08093
"4229",77.264366,764.09424
"4230",76.715034,764.10754
"4231",76.207214,764.12085
"4232",75.74822,764.13416
"4233",75.34295,764.14746
"4234",74.99382,764.16077
"4235",74.70573,764.1741
"4236",74.478676,764.1874
"4237",74.31022,764.2007
"4238",74.19791,764.214
"4239",74.12955,764.2273
"4240",74.10513,764.2406
"4241",74.1149,764.2539
"4242",74.1564,764.2672
"4243",74.212555,764.2805
"4244",74.28336,764.2938
"4245",74.35905,764.3071
"4246",74.43473,764.32043
"4247",74.50309,764.33374
"4248",74.57145,764.34705
"4249",74.62516,764.36035
"4250",74.666664,764.37366
"4251",74.6984,764.38696
"4252",74.73991,764.40027
"4253",74.847336,764.4136
"4254",75.15495,764.4269
"4255",75.85565,764.4402
"4256",77.13008,764.4535
"4257",79.078354,764.4668
"4258",81.65652,764.4801
"4259",84.664375,764.4934
"4260",87.782104,764.5067
"4261",90.65812,764.52
"4262",93.00923,764.5333
"4263",94.645,764.54663
"4264",95.51415,764.55994
"4265",95.638664,764.57324
"4266",95.1284,764.58655
"4267",94.11276,764.59985
"4268",92.752884,764.61316
"4269",91.17815,764.62646
"4270",89.498436,764.6398
"4271",87.78943,764.6531
"4272",86.117035,764.6664
"4273",84.53254,764.6797
"4274",83.09453,764.693
"4275",81.86893,764.7063
"4276",80.919205,764.7196
"4277",80.28199,764.7329
"4278",79.954834,764.7462
"4279",79.89624,764.7595
"4280",80.028076,764.7728
"4281",80.2649,764.78613
"4282",80.51392,764.79944
"4283",80.70435,764.81274
"4284",80.78493,764.82605
"4285",80.72877,764.83936
"4286",80.52857,764.85266
"4287",80.19409,764.86597
"4288",79.74731,764.8793
"4289",79.21019,764.8926
"4290",78.61936,764.9059
"4291",78.00656,764.9192
"4292",77.40597,764.9325
"4293",76.841995,764.9458
"4294",76.31953,764.9591
"4295",75.84833,764.9724
"4296",75.42596,764.9857
"4297",75.04753,764.999
"4298",74.71793,765.0123
"4299",74.444496,765.02563
"4300",74.22476,765.03894
"4301",74.05875,765.05225
"4302",73.94644,765.06555
"4303",73.87808,765.07886
"4304",73.85123,765.09216
"4305",73.85611,765.10547
"4306",73.89517,765.1188
"4307",73.95621,765.1321
"4308",74.03433,765.1454
"4309",74.11734,765.1587
"4310",74.20035,765.172
"4311",74.27116,765.1853
"4312",74.32487,765.1986
"4313",74.356606,765.2119
"4314",74.37858,765.2252
"4315",74.40543,765.2385
"4316",74.495766,765.25183
"4317",74.77409,765.26514
"4318",75.41619,765.27844
"4319",76.61738,765.29175
"4320",78.49729,765.30505
"4321",81.03639,765.31836
"4322",84.06134,765.33167
"4323",87.26696,765.345
"4324",90.28947,765.3583
"4325",92.81392,765.3716
"4326",94.63279,765.3849
"4327",95.66552,765.3982
"4328",95.93164,765.4115
"4329",95.5288,765.4248
"4330",94.60105,765.4381
"4331",93.3193,765.4514
"4332",91.83978,765.4647
"4333",90.2797,765.478
"4334",88.724495,765.49133
"4335",87.2108,765.50464
"4336",85.76059,765.51794
"4337",84.39338,765.53125
"4338",83.15068,765.54456
"4339",82.07889,765.55786
"4340",81.22438,765.57117
"4341",80.61646,765.5845
"4342",80.25269,765.5978
"4343",80.08667,765.6111
"4344",80.05737,765.6244
"4345",80.09155,765.6377
"4346",80.12329,765.651
"4347",80.10376,765.6643
"4348",79.99634,765.6776
"4349",79.79126,765.6909
"4350",79.48608,765.7042
"4351",79.09056,765.7175
"4352",78.6218,765.73083
"4353",78.09445,765.74414
"4354",77.5256,765.75745
"4355",76.944534,765.77075
"4356",76.36591,765.78406
"4357",75.81171,765.79736
"4358",75.30633,765.81067
"4359",74.85954,765.824
"4360",74.476234,765.8373
"4361",74.158844,765.8506
"4362",73.89761,765.8639
"4363",73.69009,765.8772
"4364",73.52895,765.8905
"4365",73.41421,765.9038
"4366",73.34585,765.9171
"4367",73.321434,765.9304
"4368",73.338524,765.9437
"4369",73.38735,765.95703
"4370",73.460594,765.97034
"4371",73.548485,765.98364
"4372",73.63882,765.99695
"4373",73.72915,766.01025
"4374",73.812164,766.02356
"4375",73.88785,766.03687
"4376",73.953766,766.0502
"4377",74.01236,766.0635
"4378",74.06363,766.0768
"4379",74.11734,766.0901
"4380",74.20767,766.1034
"4381",74.407875,766.1167
"4382",74.86687,766.13
"4383",75.772644,766.1433
"4384",77.2839,766.1566
"4385",79.45678,766.1699
"4386",82.20096,766.1832
"4387",85.27474,766.19653
"4388",88.33875,766.20984
"4389",91.05119,766.22314
"4390",93.15816,766.23645
"4391",94.5156,766.24976
"4392",95.099106,766.26306
"4393",94.974594,766.27637
"4394",94.278786,766.2897
"4395",93.155716,766.303
"4396",91.76898,766.3163
"4397",90.245514,766.3296
"4398",88.67811,766.3429
"4399",87.12291,766.3562
"4400",85.61654,766.3695
"4401",84.19318,766.3828
"4402",82.89433,766.3961
"4403",81.77615,766.4094
"4404",80.885025,766.4227
"4405",80.255135,766.43604
"4406",79.87671,766.44934
"4407",79.71557,766.46265
"4408",79.71313,766.47595
"4409",79.79614,766.48926
"4410",79.89136,766.50256
"4411",79.94751,766.51587
"4412",79.91333,766.5292
"4413",79.77417,766.5425
"4414",79.5227,766.5558
"4415",79.166245,766.5691
"4416",78.72434,766.5824
"4417",78.21896,766.5957
"4418",77.679405,766.609
"4419",77.12764,766.6223
"4420",76.58808,766.6356
"4421",76.070496,766.6489
"4422",75.59441,766.66223
"4423",75.16228,766.67554
"4424",74.78386,766.68884
"4425",74.45426,766.70215
"4426",74.175934,766.71545
"4427",73.94888,766.72876
"4428",73.77554,766.74207
"4429",73.6437,766.7554
"4430",73.56313,766.7687
"4431",73.52651,766.782
"4432",73.52651,766.7953
"4433",73.55581,766.8086
"4434",73.61196,766.8219
"4435",73.6852,766.8352
"4436",73.77066,766.8485
"4437",73.86832,766.8618
"4438",73.968414,766.8751
"4439",74.06607,766.8884
"4440",74.158844,766.90173
"4441",74.24185,766.91504
"4442",74.31022,766.92834
"4443",74.36149,766.94165
"4444",74.39323,766.95496
"4445",74.41032,766.96826
"4446",74.43473,766.98157
"4447",74.5153,766.9949
"4448",74.77165,767.0082
"4449",75.38445,767.0215
"4450",76.53681,767.0348
"4451",78.33372,767.0481
"4452",80.75319,767.0614
"4453",83.62676,767.0747
"4454",86.661476,767.088
"4455",89.5082,767.1013
"4456",91.86908,767.1146
"4457",93.54879,767.1279
"4458",94.46433,767.14124
"4459",94.625465,767.15454
"4460",94.12497,767.16785
"4461",93.10933,767.18115
"4462",91.72991,767.19446
"4463",90.142975,767.20776
"4464",88.465706,767.22107
"4465",86.77867,767.2344
"4466",85.15022,767.2477
"4467",83.63409,767.261
"4468",82.29374,767.2743
"4469",81.19264,767.2876
"4470",80.38453,767.3009
"4471",79.8938,767.3142
"4472",79.70092,767.3275
"4473",79.74731,767.3408
"4474",79.95239,767.3541
"4475",80.22583,767.36743
"4476",80.48463,767.38074
"4477",80.66285,767.39404
"4478",80.71412,767.40735
"4479",80.621346,767.42065
"4480",80.38941,767.43396
"4481",80.03296,767.44727
"4482",79.586174,767.4606
"4483",79.07347,767.4739
"4484",78.52903,767.4872
"4485",77.97482,767.5005
"4486",77.437706,767.5138
"4487",76.92256,767.5271
"4488",76.44404,767.5404
"4489",76.00214,767.5537
"4490",75.60906,767.567
"4491",75.267265,767.5803
"4492",74.97917,767.5936
"4493",74.75456,767.60693
"4494",74.59098,767.62024
"4495",74.47379,767.63354
"4496",74.40299,767.64685
"4497",74.36637,767.66016
"4498",74.36149,767.67346
"4499",74.38346,767.68677
"4500",74.42741,767.7001
"4501",74.48356,767.7134
"4502",74.54459,767.7267
"4503",74.61295,767.74
"4504",74.67887,767.7533
"4505",74.73991,767.7666
"4506",74.79851,767.7799
"4507",74.85466,767.7932
"4508",74.898605,767.8065
"4509",74.92546,767.8198
"4510",74.94499,767.8331
"4511",74.96452,767.84644
"4512",75.00847,767.85974
"4513",75.16472,767.87305
"4514",75.58709,767.88635
"4515",76.45136,767.89966
"4516",77.90158,767.91296
"4517",79.98169,767.9263
"4518",82.59159,767.9396
"4519",85.49203,767.9529
"4520",88.35584,767.9662
"4521",90.85344,767.9795
"4522",92.75044,767.9928
"4523",93.924774,768.0061
"4524",94.35691,768.0194
"4525",94.12009,768.0327
"4526",93.33395,768.046
"4527",92.154724,768.0593
"4528",90.72648,768.07263
"4529",89.163956,768.08594
"4530",87.56237,768.09924
"4531",85.977875,768.11255
"4532",84.4593,768.12585
"4533",83.05791,768.13916
"4534",81.832306,768.15247
"4535",80.850845,768.1658
"4536",80.15259,768.1791
"4537",79.7522,768.1924
"4538",79.61791,768.2057
"4539",79.691154,768.219
"4540",79.88159,768.2323
"4541",80.1062,768.2456
"4542",80.28687,768.2589
"4543",80.37476,768.2722
"4544",80.32838,768.2855
"4545",80.14038,768.2988
"4546",79.818115,768.31213
"4547",79.38598,768.32544
"4548",78.8806,768.33875
"4549",78.32639,768.35205
"4550",77.7551,768.36536
"4551",77.18379,768.37866
"4552",76.64179,768.39197
"4553",76.12909,768.4053
"4554",75.66033,768.4186
"4555",75.245285,768.4319
"4556",74.8864,768.4452
"4557",74.58366,768.4585
"4558",74.33463,768.4718
"4559",74.13931,768.4851
"4560",73.99771,768.4984
"4561",73.9025,768.5117
"4562",73.85123,768.525
"4563",73.83414,768.5383
"4564",73.85123,768.55164
"4565",73.88785,768.56494
"4566",73.93912,768.57825
"4567",74.002594,768.59155
"4568",74.073395,768.60486
"4569",74.14664,768.61816
"4570",74.229645,768.6315
"4571",74.31754,768.6448
"4572",74.40543,768.6581
"4573",74.486,768.6714
"4574",74.55436,768.6847
"4575",74.61295,768.698
