"","ppg","time"
"1",78.12131,117.36017
"2",78.013885,117.373474
"3",77.91867,117.38684
"4",77.82834,117.40015
"5",77.747765,117.41351
"6",77.67452,117.42682
"7",77.611046,117.440186
"8",77.55489,117.45349
"9",77.50851,117.46686
"10",77.469444,117.48016
"11",77.435265,117.49353
"12",77.401085,117.506836
"13",77.36202,117.5202
"14",77.330284,117.53351
"15",77.34005,117.546875
"16",77.46456,117.56018
"17",77.786835,117.57355
"18",78.37034,117.58685
"19",79.19798,117.60022
"20",80.2063,117.613525
"21",81.25857,117.62689
"22",82.20828,117.6402
"23",82.9456,117.653564
"24",83.438774,117.66687
"25",83.71465,117.68024
"26",83.82208,117.69354
"27",83.83185,117.70691
"28",83.790344,117.720215
"29",83.736626,117.73358
"30",83.67315,117.74689
"31",83.60235,117.760254
"32",83.51446,117.77356
"33",83.387505,117.78693
"34",83.20439,117.80023
"35",82.95781,117.8136
"36",82.65751,117.826904
"37",82.31815,117.84027
"38",81.96658,117.85358
"39",81.64431,117.86694
"40",81.36843,117.88025
"41",81.143814,117.893616
"42",80.970474,117.90692
"43",80.833755,117.92029
"44",80.71412,117.93359
"45",80.59449,117.94696
"46",80.479744,117.960266
"47",80.365,117.97363
"48",80.25025,117.98694
"49",80.14038,118.000305
"50",80.03052,118.01361
"51",79.91577,118.02698
"52",79.78882,118.04028
"53",79.64965,118.05365
"54",79.50561,118.066956
"55",79.35424,118.08032
"56",79.19798,118.09363
"57",79.03685,118.106995
"58",78.870834,118.1203
"59",78.70481,118.13367
"60",78.536354,118.14697
"61",78.37522,118.16034
"62",78.21408,118.173645
"63",78.05295,118.18701
"64",77.891815,118.20032
"65",77.73556,118.213684
"66",77.58175,118.22699
"67",77.44015,118.24036
"68",77.31075,118.25366
"69",77.196,118.26703
"70",77.08858,118.280334
"71",77.00069,118.2937
"72",76.92256,118.30701
"73",76.859085,118.32037
"74",76.807816,118.33368
"75",76.76875,118.347046
"76",76.74189,118.36035
"77",76.72724,118.37372
"78",76.71259,118.387024
"79",76.700386,118.40039
"80",76.697945,118.4137
"81",76.74677,118.42706
"82",76.93477,118.44037
"83",77.34493,118.453735
"84",78.028534,118.46704
"85",78.95628,118.48041
"86",80.03784,118.49371
"87",81.1194,118.50708
"88",82.06668,118.520386
"89",82.77959,118.53375
"90",83.250786,118.54706
"91",83.509575,118.560425
"92",83.617,118.57373
"93",83.631645,118.5871
"94",83.60723,118.6004
"95",83.57549,118.61377
"96",83.546196,118.627075
"97",83.5169,118.64044
"98",83.475395,118.65375
"99",83.39971,118.667114
"100",83.27032,118.68042
"101",83.089645,118.69379
"102",82.8748,118.70709
"103",82.64286,118.72046
"104",82.425575,118.733765
"105",82.247345,118.74713
"106",82.11307,118.76044
"107",82.01785,118.7738
"108",81.94217,118.78711
"109",81.87137,118.800476
"110",81.78104,118.81378
"111",81.65896,118.82715
"112",81.48318,118.840454
"113",81.25857,118.85382
"114",80.98512,118.86713
"115",80.67994,118.88049
"116",80.35767,118.8938
"117",80.04761,118.907166
"118",79.76196,118.92047
"119",79.50317,118.93384
"120",79.273674,118.94714
"121",79.07347,118.96051
"122",78.890366,118.973816
"123",78.72434,118.98718
"124",78.572975,119.00049
"125",78.42649,119.013855
"126",78.28489,119.02716
"127",78.150604,119.04053
"128",78.02365,119.05383
"129",77.908905,119.0672
"130",77.81125,119.080505
"131",77.72335,119.09387
"132",77.645226,119.10718
"133",77.574425,119.120544
"134",77.503624,119.13385
"135",77.43038,119.14722
"136",77.36202,119.16052
"137",77.30099,119.17389
"138",77.24727,119.187195
"139",77.21065,119.20056
"140",77.18135,119.21387
"141",77.16182,119.227234
"142",77.14961,119.24054
"143",77.134964,119.25391
"144",77.120316,119.26721
"145",77.1252,119.28058
"146",77.20332,119.293884
"147",77.437706,119.30725
"148",77.91135,119.32056
"149",78.6511,119.33392
"150",79.61303,119.34723
"151",80.689705,119.360596
"152",81.7322,119.3739
"153",82.60624,119.38727
"154",83.24101,119.40057
"155",83.6292,119.41394
"156",83.81476,119.427246
"157",83.85138,119.44061
"158",83.807434,119.45392
"159",83.72686,119.467285
"160",83.64141,119.48059
"161",83.560844,119.49396
"162",83.475395,119.50726
"163",83.36797,119.52063
"164",83.211716,119.533936
"165",82.99687,119.5473
"166",82.73319,119.56061
"167",82.44022,119.573975
"168",82.14725,119.58728
"169",81.881134,119.60065
"170",81.6614,119.61395
"171",81.48806,119.62732
"172",81.34402,119.640625
"173",81.2195,119.65399
"174",81.092545,119.6673
"175",80.955826,119.680664
"176",80.797134,119.69397
"177",80.618904,119.70734
"178",80.41627,119.72064
"179",80.19653,119.73401
"180",79.974365,119.747314
"181",79.75708,119.76068
"182",79.54955,119.77399
"183",79.35668,119.78735
"184",79.18089,119.80066
"185",79.027084,119.814026
"186",78.88548,119.82733
"187",78.751205,119.8407
"188",78.626686,119.854004
"189",78.50706,119.86737
"190",78.38987,119.88068
"191",78.277565,119.89404
"192",78.17258,119.90735
"193",78.07004,119.920715
"194",77.97482,119.93402
"195",77.87961,119.94739
"196",77.786835,119.96069
"197",77.70138,119.97406
"198",77.625694,119.987366
"199",77.55489,120.00073
"200",77.49142,120.01404
"201",77.43038,120.027405
"202",77.36935,120.04071
"203",77.332726,120.05408
"204",77.37667,120.06738
"205",77.58663,120.08075
"206",78.03586,120.094055
"207",78.751205,120.10742
"208",79.691154,120.12073
"209",80.740974,120.134094
"210",81.75418,120.1474
"211",82.6038,120.16077
"212",83.21904,120.17407
"213",83.60479,120.18744
"214",83.809875,120.200745
"215",83.89288,120.21411
"216",83.914856,120.22742
"217",83.914856,120.24078
"218",83.90753,120.25409
"219",83.88556,120.267456
"220",83.83673,120.28076
"221",83.74151,120.29413
"222",83.58282,120.307434
"223",83.35821,120.3208
"224",83.075,120.33411
"225",82.7625,120.34747
"226",82.45731,120.36078
"227",82.18143,120.374146
"228",81.95682,120.38745
"229",81.78104,120.40082
"230",81.634544,120.41412
"231",81.49294,120.42749
"232",81.34646,120.440796
"233",81.17799,120.45416
"234",80.987564,120.46747
"235",80.77272,120.480835
"236",80.5359,120.49414
"237",80.28443,120.50751
"238",80.03052,120.52081
"239",79.78882,120.53418
"240",79.56664,120.547485
"241",79.361565,120.56085
"242",79.168686,120.57416
"243",78.98558,120.587524
"244",78.802475,120.60083
"245",78.624245,120.6142
"246",78.45823,120.6275
"247",78.30686,120.64087
"248",78.170135,120.654175
"249",78.05051,120.66754
"250",77.94064,120.68085
"251",77.83566,120.694214
"252",77.74044,120.70752
"253",77.645226,120.72089
"254",77.55245,120.73419
"255",77.45724,120.74756
"256",77.366905,120.760864
"257",77.298546,120.77423
"258",77.315636,120.78754
"259",77.4963,120.8009
"260",77.92111,120.81421
"261",78.624245,120.827576
"262",79.569084,120.84088
"263",80.65064,120.85425
"264",81.72976,120.86755
"265",82.6746,120.88092
"266",83.41192,120.894226
"267",83.93683,120.90759
"268",84.283516,120.9209
"269",84.51545,120.934265
"270",84.68635,120.94757
"271",84.825516,120.96094
"272",84.95003,120.97424
"273",85.05745,120.98761
"274",85.12581,121.000916
"275",85.135574,121.01428
"276",85.05989,121.02759
"277",84.88655,121.040955
"278",84.613106,121.05426
"279",84.266426,121.06763
"280",83.88068,121.08093
"281",83.50225,121.0943
"282",83.15556,121.107605
"283",82.85527,121.12097
"284",82.59403,121.13428
"285",82.357216,121.147644
"286",82.12283,121.16095
"287",81.87625,121.17432
"288",81.60525,121.18762
"289",81.304955,121.20099
"290",80.98024,121.214294
"291",80.64332,121.22766
"292",80.30152,121.24097
"293",79.974365,121.25433
"294",79.66674,121.26764
"295",79.38354,121.281006
"296",79.11742,121.29431
"297",78.86351,121.30768
"298",78.6218,121.320984
"299",78.38743,121.33435
"300",78.16037,121.34766
"301",77.94797,121.36102
"302",77.74532,121.37433
"303",77.557335,121.387695
"304",77.37911,121.401
"305",77.21309,121.41437
"306",77.0544,121.42767
"307",76.90791,121.44104
"308",76.76875,121.454346
"309",76.63203,121.46771
"310",76.50019,121.48102
"311",76.37812,121.494385
"312",76.280464,121.50769
"313",76.26093,121.52106
"314",76.40742,121.53436
"315",76.807816,121.54773
"316",77.51583,121.561035
"317",78.51438,121.5744
"318",79.71557,121.58771
"319",80.9778,121.601074
"320",82.14969,121.61438
"321",83.140915,121.62775
"322",83.9173,121.64105
"323",84.51057,121.65442
"324",84.962234,121.667725
"325",85.32357,121.68109
"326",85.626305,121.6944
"327",85.88266,121.70776
"328",86.08774,121.72107
"329",86.22934,121.734436
"330",86.28306,121.74774
"331",86.22934,121.76111
"332",86.04379,121.774414
"333",85.7264,121.78778
"334",85.28695,121.80109
"335",84.771805,121.81445
"336",84.22247,121.82776
"337",83.69024,121.841125
"338",83.20439,121.85443
"339",82.77959,121.8678
"340",82.406044,121.8811
"341",82.0618,121.89447
"342",81.72732,121.907776
"343",81.38308,121.92114
"344",81.01442,121.93445
"345",80.62379,121.947815
"346",80.218506,121.96112
"347",79.80591,121.97449
"348",79.395744,121.98779
"349",78.99779,122.00116
"350",78.61692,122.014465
"351",78.25315,122.02783
"352",77.90646,122.04114
"353",77.58175,122.054504
"354",77.27169,122.06781
"355",76.981155,122.08118
"356",76.70527,122.09448
"357",76.453804,122.10785
"358",76.21698,122.121155
"359",75.99725,122.13452
"360",75.79706,122.14783
"361",75.60906,122.161194
"362",75.43572,122.1745
"363",75.26971,122.18787
"364",75.123215,122.20117
"365",74.99382,122.21454
"366",74.881516,122.227844
"367",74.78142,122.24121
"368",74.68864,122.25452
"369",74.60563,122.26788
"370",74.52262,122.28119
"371",74.44694,122.294556
"372",74.390785,122.30786
"373",74.41032,122.32123
"374",74.59342,122.33453
"375",75.03288,122.3479
"376",75.789734,122.361206
"377",76.86641,122.37457
"378",78.17258,122.38788
"379",79.5642,122.401245
"380",80.88258,122.41455
"381",82.01785,122.42792
"382",82.92851,122.44122
"383",83.62676,122.45459
"384",84.1712,122.467896
"385",84.61799,122.48126
"386",85.00862,122.49457
"387",85.35287,122.507935
"388",85.65316,122.52124
"389",85.889984,122.53461
"390",86.05356,122.54791
"391",86.11459,122.56128
"392",86.063324,122.574585
"393",85.88266,122.58795
"394",85.58724,122.60126
"395",85.19905,122.614624
"396",84.75227,122.62793
"397",84.2884,122.6413
"398",83.84161,122.6546
"399",83.43145,122.66797
"400",83.053024,122.681274
"401",82.69169,122.69464
"402",82.3328,122.70795
"403",81.95926,122.72131
"404",81.55886,122.73462
"405",81.126724,122.747986
"406",80.67017,122.76129
"407",80.20386,122.77466
"408",79.73266,122.787964
"409",79.26879,122.80133
"410",78.81468,122.81464
"411",78.37278,122.828
"412",77.9382,122.84131
"413",77.51095,122.854675
"414",77.103226,122.86798
"415",76.7248,122.88135
"416",76.39033,122.89465
"417",76.10956,122.90802
"418",75.88983,122.921326
"419",75.718925,122.93469
"420",75.58465,122.948
"421",75.47234,122.961365
"422",75.372246,122.97467
"423",75.26238,122.98804
"424",75.142746,123.00134
"425",75.00847,123.01471
"426",74.87175,123.028015
"427",74.74479,123.04138
"428",74.64469,123.05469
"429",74.58366,123.068054
"430",74.564125,123.08136
"431",74.55924,123.09473
"432",74.5568,123.10803
"433",74.53727,123.1214
"434",74.48356,123.134705
"435",74.39323,123.14807
"436",74.28092,123.16138
"437",74.15396,123.17474
"438",74.02945,123.18805
"439",73.92935,123.201416
"440",73.91226,123.21472
"441",74.05875,123.22809
"442",74.47135,123.241394
"443",75.21599,123.25476
"444",76.297554,123.26807
"445",77.63546,123.28143
"446",79.09544,123.29474
"447",80.50904,123.308105
"448",81.761505,123.32141
"449",82.78691,123.33478
"450",83.597466,123.34808
"451",84.2298,123.36145
"452",84.74006,123.374756
"453",85.16487,123.38812
"454",85.52621,123.40143
"455",86.063324,123.4281
"456",86.21469,123.44147
"457",86.25132,123.45477
"458",86.153656,123.46814
"459",85.909515,123.481445
"460",85.53353,123.49481
"461",85.05257,123.50812
"462",84.52033,123.521484
"463",83.98566,123.53479
"464",83.492485,123.54816
"465",83.05791,123.56146
"466",82.67704,123.57483
"467",82.337685,123.588135
"468",82.01297,123.6015
"469",81.68337,123.61481
"470",81.341576,123.628174
"471",80.9778,123.64148
"472",80.59205,123.65485
"473",80.198975,123.66815
"474",79.798584,123.68152
"475",79.40551,123.694824
"476",79.0222,123.70819
"477",78.660866,123.7215
"478",78.314186,123.73486
"479",77.979706,123.74817
"480",77.65499,123.761536
"481",77.34249,123.77484
"482",77.04463,123.78821
"483",76.771194,123.80151
"484",76.52216,123.81488
"485",76.30244,123.828186
"486",76.09979,123.84155
"487",75.914246,123.85486
"488",75.7409,123.868225
"489",75.58709,123.88153
"490",75.44549,123.8949
"491",75.32342,123.9082
"492",75.21599,123.92157
"493",75.123215,123.934875
"494",75.04021,123.94824
"495",74.97185,123.96155
"496",74.91325,123.974915
"497",74.864426,123.98822
"498",74.82536,124.00159
"499",74.79851,124.01489
"500",74.78874,124.02826
"501",74.78386,124.041565
"502",74.78874,124.05493
"503",74.79851,124.06824
"504",74.80583,124.081604
"505",74.810715,124.09491
"506",74.82292,124.10828
"507",74.88884,124.12158
"508",75.07683,124.13495
"509",75.48455,124.148254
"510",76.18768,124.16162
"511",77.196,124.17493
"512",78.44114,124.18829
"513",79.78882,124.2016
"514",81.077896,124.214966
"515",82.18387,124.22827
"516",83.05058,124.24164
"517",83.6878,124.254944
"518",84.15167,124.26831
"519",84.505684,124.28162
"520",84.79378,124.29498
"521",85.04768,124.30829
"522",85.26498,124.321655
"523",85.43343,124.33496
"524",85.523766,124.34833
"525",85.51888,124.36163
"526",85.39193,124.375
"527",85.14046,124.388306
"528",84.77425,124.40167
"529",84.32502,124.41498
"530",83.82941,124.428345
"531",83.33135,124.44165
"532",82.86992,124.45502
"533",82.4622,124.46832
"534",82.108185,124.48169
"535",81.795685,124.494995
"536",81.50759,124.50836
"537",81.2195,124.52167
"538",80.91676,124.535034
"539",80.59449,124.54834
"540",80.255135,124.56171
"541",79.89624,124.57501
"542",79.534904,124.58838
"543",79.17845,124.601685
"544",78.83421,124.61505
"545",78.5095,124.62836
"546",78.20187,124.64172
"547",77.908905,124.65503
"548",77.625694,124.668396
"549",77.3547,124.6817
"550",77.100784,124.69507
"551",76.86885,124.708374
"552",76.66132,124.72174
"553",76.47578,124.73505
"554",76.30488,124.74841
"555",76.14374,124.76172
"556",75.98993,124.775085
"557",75.843445,124.78839
"558",75.7116,124.80176
"559",75.59441,124.81506
"560",75.494316,124.82843
"561",75.40154,124.841736
"562",75.31365,124.8551
"563",75.23308,124.86841
"564",75.16228,124.881775
"565",75.10368,124.89508
"566",75.06218,124.90845
"567",75.035324,124.92175
"568",75.01579,124.93512
"569",75.00603,124.948425
"570",75.001144,124.96179
"571",75.001144,124.9751
"572",75.00603,124.988464
"573",75.02312,125.00177
"574",75.08659,125.01514
"575",75.264824,125.02844
"576",75.6408,125.04181
"577",76.28779,125.055115
"578",77.21797,125.06848
"579",78.363014,125.08179
"580",79.5935,125.09515
"581",80.75807,125.10846
"582",81.739525,125.121826
"583",82.476845,125.13513
"584",82.98955,125.1485
"585",83.33135,125.161804
"586",83.57061,125.17517
"587",83.75128,125.18848
"588",83.90753,125.20184
"589",84.04913,125.21515
"590",84.16388,125.228516
"591",84.23468,125.24182
"592",84.23712,125.25519
"593",84.14923,125.26849
"594",83.966125,125.28186
"595",83.69268,125.295166
"596",83.346,125.30853
"597",82.97246,125.32184
"598",82.61112,125.335205
"599",82.29374,125.34851
"600",82.03494,125.36188
"601",81.829865,125.37518
"602",81.65896,125.38855
"603",81.497826,125.401855
"604",81.322044,125.41522
"605",81.11696,125.42853
"606",80.885025,125.441895
"607",80.62379,125.4552
"608",80.34791,125.46857
"609",80.06958,125.48187
"610",79.7937,125.49524
"611",79.5227,125.508545
"612",79.26879,125.52191
"613",79.029526,125.53522
"614",78.8098,125.548584
"615",78.61204,125.56189
"616",78.42893,125.57526
"617",78.260475,125.58856
"618",78.101776,125.60193
"619",77.943085,125.615234
"620",77.786835,125.6286
"621",77.64034,125.64191
"622",77.503624,125.65527
"623",77.383995,125.66858
"624",77.27657,125.681946
"625",77.18623,125.69525
"626",77.11055,125.70862
"627",77.04707,125.721924
"628",76.99336,125.73529
"629",76.944534,125.7486
"630",76.90303,125.76196
"631",76.859085,125.77527
"632",76.81758,125.788635
"633",76.77852,125.80194
"634",76.74189,125.81531
"635",76.73701,125.82861
"636",76.82002,125.84198
"637",77.07393,125.855286
"638",77.574425,125.86865
"639",78.34104,125.88196
"640",79.327385,125.895325
"641",80.42115,125.90863
"642",81.47097,125.922
"643",82.35966,125.9353
"644",83.0164,125.94867
"645",83.45098,125.961975
"646",83.70733,125.97534
"647",83.8465,125.98865
"648",83.92706,126.002014
"649",83.98566,126.01532
"650",84.034485,126.02869
"651",84.06622,126.04199
"652",84.06622,126.05536
"653",84.00763,126.068665
"654",83.87091,126.08203
"655",83.648735,126.09534
"656",83.35577,126.1087
"657",83.02617,126.12201
"658",82.701454,126.135376
"659",82.41093,126.14868
"660",82.176544,126.16205
"661",82.00076,126.175354
"662",81.866486,126.18872
"663",81.74441,126.20203
"664",81.61501,126.21539
"665",81.45876,126.2287
"666",81.26589,126.242065
"667",81.03639,126.25537
"668",80.782486,126.26874
"669",80.51392,126.28204
"670",80.24536,126.29541
"671",79.991455,126.308716
"672",79.75464,126.32208
"673",79.53246,126.33539
"674",79.3225,126.348755
"675",79.12474,126.36206
"676",78.93675,126.37543
"677",78.76341,126.38873
"678",78.60227,126.4021
"679",78.45335,126.415405
"680",78.32151,126.42877
"681",78.19943,126.44208
"682",78.08469,126.455444
"683",77.977264,126.46875
"684",77.88205,126.48212
"685",77.79416,126.49542
"686",77.71603,126.50879
"687",77.645226,126.522095
"688",77.57931,126.53546
"689",77.51827,126.54877
"690",77.45968,126.56213
"691",77.401085,126.57544
"692",77.347374,126.588806
"693",77.298546,126.60211
"694",77.279015,126.61548
"695",77.34493,126.628784
"696",77.58663,126.64215
"697",78.082245,126.65546
"698",78.86107,126.66882
"699",79.87671,126.68213
"700",81.01442,126.695496
"701",82.12283,126.7088
"702",83.070114,126.72217
"703",83.78302,126.73547
"704",84.26154,126.74884
"705",84.55695,126.762146
"706",84.73029,126.77551
"707",84.83528,126.78882
"708",84.91341,126.802185
"709",84.98665,126.81549
"710",85.050125,126.82886
"711",85.09163,126.84216
"712",85.08675,126.85553
"713",85.00618,126.868835
"714",84.83528,126.8822
"715",84.56672,126.89551
"716",84.22247,126.908875
"717",83.826965,126.92218
"718",83.42657,126.93555
"719",83.053024,126.94885
"720",82.735634,126.96222
"721",82.46952,126.975525
"722",82.247345,126.98889
"723",82.04715,127.0022
"724",81.84451,127.015564
"725",81.62478,127.02887
"726",81.375755,127.04224
"727",81.09743,127.05554
"728",80.799576,127.06891
"729",80.48463,127.082214
"730",80.164795,127.09558
"731",79.85474,127.10889
"732",79.56176,127.12225
"733",79.28344,127.13556
"734",79.0222,127.148926
"735",78.7805,127.16223
"736",78.551,127.1756
"737",78.328835,127.1889
"738",78.12131,127.20227
"739",77.93576,127.215576
"740",77.7673,127.22894
"741",77.60616,127.24225
"742",77.45724,127.255615
"743",77.31808,127.26892
"744",77.18623,127.28229
"745",77.06416,127.29559
"746",76.9543,127.30896
"747",76.8542,127.322266
"748",76.76387,127.33563
"749",76.6833,127.34894
"750",76.61738,127.362305
"751",76.561226,127.37561
"752",76.5124,127.38898
"753",76.470894,127.40228
"754",76.43427,127.41565
"755",76.402534,127.428955
"756",76.37812,127.44232
"757",76.35859,127.45563
"758",76.37324,127.468994
"759",76.47822,127.4823
"760",76.76631,127.49567
"761",77.32296,127.50897
"762",78.187225,127.52234
"763",79.30541,127.535645
"764",80.56275,127.54901
"765",81.80057,127.56232
"766",82.879684,127.57568
"767",83.72198,127.58899
"768",84.32258,127.602356
"769",84.72541,127.61566
"770",84.99153,127.62903
"771",85.18196,127.642334
"772",85.32845,127.6557
"773",85.45052,127.66901
"774",85.55062,127.68237
"775",85.61654,127.69568
"776",85.626305,127.709045
"777",85.56527,127.72235
"778",85.4139,127.73572
"779",85.16731,127.74902
"780",84.82796,127.76239
"781",84.42756,127.775696
"782",83.99298,127.78906
"783",83.57061,127.80237
"784",83.1873,127.815735
"785",82.85771,127.82904
"786",82.57694,127.84241
"787",82.32792,127.85571
"788",82.08621,127.86908
"789",81.832306,127.882385
"790",81.55642,127.89575
"791",81.25124,127.90906
"792",80.921646,127.922424
"793",80.57984,127.93573
"794",80.233154,127.9491
"795",79.8938,127.9624
"796",79.56664,127.97577
"797",79.259026,127.989075
"798",78.96849,128.00244
"799",78.70481,128.01575
"800",78.46311,128.02911
"801",78.24094,128.04242
"802",78.030975,128.05579
"803",77.83322,128.06909
"804",77.645226,128.08246
"805",77.467,128.09576
"806",77.30343,128.10913
"807",77.152054,128.12244
"808",77.01045,128.1358
"809",76.87373,128.14911
"810",76.74433,128.16248
"811",76.61738,128.17578
"812",76.49775,128.18915
"813",76.39033,128.20245
"814",76.29267,128.21582
"815",76.20233,128.22913
"816",76.12421,128.2425
"817",76.05829,128.2558
"818",76.00702,128.26917
"819",75.965515,128.28247
"820",75.93866,128.29584
"821",75.91913,128.30914
"822",75.8996,128.32251
"823",75.877625,128.33582
"824",75.86542,128.34918
"825",75.8996,128.36249
"826",76.06317,128.37585
"827",76.456245,128.38916
"828",77.152054,128.40253
"829",78.16037,128.41583
"830",79.40063,128.4292
"831",80.740974,128.4425
"832",82.01297,128.45587
"833",83.09209,128.46918
"834",83.912415,128.48254
"835",84.49348,128.49585
"836",84.88411,128.50922
"837",85.1429,128.52252
"838",85.32601,128.53589
"839",85.470055,128.5492
"840",85.5848,128.56256
"841",85.67025,128.57587
"842",85.711754,128.58923
"843",85.6849,128.60254
"844",85.57259,128.6159
"845",85.36263,128.62921
"846",85.050125,128.64258
"847",84.65461,128.65588
"848",84.21515,128.66925
"849",83.76105,128.68256
"850",83.33135,128.69592
"851",82.94316,128.70923
"852",82.60136,128.7226
"853",82.29862,128.7359
"854",82.020294,128.74927
"855",81.74441,128.76257
"856",81.45388,128.77594
"857",81.13893,128.78925
"858",80.799576,128.80261
"859",80.44068,128.81592
"860",80.06958,128.82928
"861",79.70336,128.84259
"862",79.34692,128.85596
"863",79.01488,128.86926
"864",78.70237,128.88263
"865",78.41428,128.89594
"866",78.14572,128.9093
"867",77.8967,128.9226
"868",77.66476,128.93597
"869",77.44747,128.94928
"870",77.24483,128.96265
"871",77.06416,128.97595
"872",76.90059,128.98932
"873",76.75166,129.00262
"874",76.61982,129.01599
"875",76.49775,129.0293
"876",76.385445,129.04266
"877",76.27558,129.05597
"878",76.17792,129.06934
"879",76.085144,129.08264
"880",76.00702,129.09601
"881",75.93866,129.10931
"882",75.88495,129.12268
"883",75.843445,129.13599
"884",75.82391,129.14935
"885",75.81415,129.16266
"886",75.81659,129.17603
"887",75.82391,129.18933
"888",75.83612,129.2027
"889",75.841,129.216
"890",75.843445,129.22937
"891",75.84833,129.24268
"892",75.89227,129.25604
"893",76.053406,129.26935
"894",76.43427,129.28271
"895",77.11055,129.29602
"896",78.10666,129.30939
"897",79.35912,129.3227
"898",80.73609,129.33606
"899",82.05936,129.34937
"900",83.20439,129.36273
"901",84.102844,129.37604
"902",84.749825,129.3894
"903",85.19173,129.40271
"904",85.49447,129.41608
"905",85.70687,129.42938
"906",85.86557,129.44275
"907",85.99252,129.45605
"908",86.09018,129.46942
"909",86.153656,129.48273
"910",86.16098,129.4961
"911",86.09262,129.5094
"912",85.92905,129.52277
"913",85.662926,129.53607
"914",85.30648,129.54944
"915",84.88655,129.56274
"916",84.44465,129.57611
"917",84.02228,129.58942
"918",83.63897,129.60278
"919",83.30694,129.61609
"920",83.021286,129.62946
"921",82.75273,129.64276
"922",82.48661,129.65613
"923",82.2034,129.66943
"924",81.8909,129.6828
"925",81.54665,129.6961
"926",81.180435,129.70947
"927",80.80202,129.72278
"928",80.42359,129.73615
"929",80.05249,129.74945
"930",79.69848,129.76282
"931",79.35668,129.77612
"932",79.03197,129.78949
"933",78.72678,129.8028
"934",78.44358,129.81616
"935",78.1799,129.82947
"936",77.94064,129.84283
"937",77.71847,129.85614
"938",77.51339,129.8695
"939",77.32052,129.88281
"940",77.13985,129.89618
"941",76.96895,129.90948
"942",76.807816,129.92285
"943",76.654,129.93616
"944",76.507515,129.94952
"945",76.3708,129.96283
"946",76.24628,129.9762
"947",76.13397,129.9895
"948",76.03143,130.00287
"949",75.94354,130.01617
"950",75.86542,130.02954
"951",75.79706,130.04285
"952",75.7409,130.05621
"953",75.69451,130.06952
"954",75.65789,130.08289
"955",75.63592,130.09619
"956",75.62371,130.10956
"957",75.61883,130.12286
"958",75.62371,130.13623
"959",75.63592,130.14954
"960",75.650566,130.1629
"961",75.667656,130.17621
"962",75.72137,130.18958
"963",75.877625,130.20288
"964",76.23895,130.21625
"965",76.893265,130.22955
"966",77.8674,130.24292
"967",79.10033,130.25623
"968",80.462654,130.26959
"969",81.78104,130.2829
"970",82.913864,130.29626
"971",83.78058,130.30957
"972",84.37629,130.32294
"973",84.75227,130.33624
"974",84.972,130.34961
"975",85.103836,130.36292
"976",85.19905,130.37628
"977",85.28207,130.38959
"978",85.35531,130.40295
"979",85.40414,130.41626
"980",85.40658,130.42963
"981",85.33578,130.44293
"982",85.16731,130.4563
"983",84.90364,130.4696
"984",84.559395,130.48297
"985",84.16144,130.49628
"986",83.75128,130.50964
"987",83.36553,130.52295
"988",83.03105,130.53632
"989",82.75029,130.54962
"990",82.51835,130.56299
"991",82.31083,130.5763
"992",82.1033,130.58966
"993",81.87625,130.60297
"994",81.61501,130.61633
"995",81.31472,130.62964
"996",80.98512,130.643
"997",80.64088,130.65631
"998",80.291756,130.66968
"999",79.94995,130.68298
"1000",79.62768,130.69635
"1001",79.32494,130.70966
"1002",79.046616,130.72302
"1003",78.78783,130.73633
"1004",78.54856,130.7497
"1005",78.32151,130.763
"1006",78.10422,130.77637
"1007",77.89426,130.78967
"1008",77.69405,130.80304
"1009",77.503624,130.81635
"1010",77.32784,130.82971
"1011",77.171585,130.84302
"1012",77.02754,130.85638
"1013",76.89815,130.86969
"1014",76.77852,130.88306
"1015",76.663765,130.89636
"1016",76.558784,130.90973
"1017",76.46113,130.92303
"1018",76.37324,130.9364
"1019",76.299995,130.9497
"1020",76.24872,130.96307
"1021",76.209656,130.97638
"1022",76.17792,130.98975
"1023",76.14862,131.00305
"1024",76.11444,131.01642
"1025",76.07782,131.02972
"1026",76.06073,131.04309
"1027",76.138855,131.0564
"1028",76.40986,131.06976
"1029",76.96895,131.08307
"1030",77.84543,131.09644
"1031",78.992905,131.10974
"1032",80.28687,131.12311
"1033",81.5613,131.13641
"1034",82.65995,131.14978
"1035",83.49004,131.16309
"1036",84.02716,131.17645
"1037",84.31281,131.18976
"1038",84.437325,131.20312
"1039",84.51789,131.21643
"1040",84.6717,131.2298
"1041",84.95003,131.2431
"1042",85.33578,131.25647
"1043",85.750824,131.26978
"1044",86.080414,131.28314
"1045",86.23178,131.29645
"1046",86.16342,131.30981
"1047",85.90463,131.32312
"1048",85.514,131.33649
"1049",85.06233,131.3498
"1050",84.596016,131.36316
"1051",84.159,131.37646
"1052",83.76349,131.38983
"1053",83.404594,131.40314
"1054",83.06279,131.4165
"1055",82.7161,131.42981
"1056",82.340126,131.44318
"1057",81.92264,131.45648
"1058",81.45876,131.46985
"1059",80.94118,131.48315
"1060",80.365,131.49652
"1061",79.725334,131.50983
"1062",79.029526,131.5232
"1063",78.28733,131.5365
"1064",77.523155,131.54987
"1065",76.77608,131.56317
"1066",76.085144,131.57654
"1067",75.491875,131.58984
"1068",75.018234,131.60321
"1069",74.67399,131.61652
"1070",74.45182,131.62988
"1071",74.337074,131.64319
"1072",74.30045,131.65656
"1073",74.32487,131.66986
"1074",74.390785,131.68323
"1075",74.48356,131.69653
"1076",74.59098,131.7099
"1077",74.70573,131.7232
"1078",74.8156,131.73657
"1079",74.92302,131.74988
"1080",75.02312,131.76324
"1081",75.11101,131.77655
"1082",75.20134,131.78992
"1083",75.28924,131.80322
"1084",75.38445,131.81659
"1085",75.48211,131.8299
"1086",75.58709,131.84326
"1087",75.69207,131.85657
"1088",75.79706,131.86993
"1089",75.90448,131.88324
"1090",76.04608,131.8966
"1091",76.299995,131.90991
"1092",76.76143,131.92328
"1093",77.51827,131.93658
"1094",78.58518,131.94995
"1095",79.89868,131.96326
"1096",81.3196,131.97662
"1097",82.684364,131.98993
"1098",83.85138,132.0033
"1099",84.75227,132.0166
"1100",85.39681,132.02997
"1101",85.838715,132.04327
"1102",86.14389,132.05664
"1103",86.37583,132.06995
"1104",86.57603,132.08331
"1105",86.751816,132.09662
"1106",86.90318,132.10999
"1107",87.010605,132.12329
"1108",87.04967,132.13666
"1109",87.00084,132.14996
"1110",86.84703,132.16333
"1111",86.57847,132.17664
"1112",86.21225,132.19
"1113",85.77768,132.20331
"1114",85.313805,132.21667
"1115",84.86214,132.22998
"1116",84.454414,132.24335
"1117",84.1004,132.25665
"1118",83.79523,132.27002
"1119",83.51446,132.28333
"1120",83.23857,132.29669
"1121",82.9456,132.31
"1122",82.62577,132.32336
"1123",82.27909,132.33667
"1124",81.90555,132.35004
"1125",81.52468,132.36334
"1126",81.146255,132.37671
"1127",80.77516,132.39001
"1128",80.42115,132.40338
"1129",80.08667,132.41669
"1130",79.766846,132.43005
"1131",79.466545,132.44336
"1132",79.183334,132.45673
"1133",78.91478,132.47003
"1134",78.660866,132.4834
"1135",78.41917,132.4967
"1136",78.19211,132.51007
"1137",77.979706,132.52338
"1138",77.78195,132.53674
"1139",77.591515,132.55005
"1140",77.41573,132.56342
"1141",77.25704,132.57672
"1142",77.11299,132.59009
"1143",76.978714,132.6034
"1144",76.85664,132.61676
"1145",76.73945,132.63007
"1146",76.63203,132.64343
"1147",76.53193,132.65674
"1148",76.44892,132.6701
"1149",76.385445,132.68341
"1150",76.33906,132.69678
"1151",76.299995,132.71008
"1152",76.265816,132.72345
"1153",76.226746,132.73676
"1154",76.1828,132.75012
"1155",76.14862,132.76343
"1156",76.17792,132.7768
"1157",76.34882,132.7901
"1158",76.773636,132.80347
"1159",77.51827,132.81677
"1160",78.58518,132.83014
"1161",79.89136,132.84344
"1162",81.29519,132.85681
"1163",82.62333,132.87012
"1164",83.75372,132.88348
"1165",84.627754,132.89679
"1166",85.25765,132.91016
"1167",85.69955,132.92346
"1168",86.01938,132.93683
"1169",86.26841,132.95013
"1170",86.48081,132.9635
"1171",86.661476,132.9768
"1172",86.803085,132.99017
"1173",86.88365,133.00348
"1174",86.88609,133.01685
"1175",86.783554,133.03015
"1176",86.556496,133.04352
"1177",86.204926,133.05682
"1178",85.74105,133.07019
"1179",85.19905,133.0835
"1180",84.630196,133.09686
"1181",84.07843,133.11017
"1182",83.57549,133.12354
"1183",83.13847,133.13684
"1184",82.75517,133.1502
"1185",82.408485,133.16351
"1186",82.07645,133.17688
"1187",81.73464,133.19019
"1188",81.373314,133.20355
"1189",80.98512,133.21686
"1190",80.57496,133.23022
"1191",80.15503,133.24353
"1192",79.7351,133.2569
"1193",79.327385,133.2702
"1194",78.941635,133.28357
"1195",78.57542,133.29688
"1196",78.22873,133.31024
"1197",77.908905,133.32355
"1198",77.608604,133.33691
"1199",77.330284,133.35022
"1200",77.069046,133.36359
"1201",76.83223,133.37689
"1202",76.612495,133.39026
"1203",76.40742,133.40356
"1204",76.2121,133.41693
"1205",76.03143,133.43024
"1206",75.86542,133.4436
"1207",75.70916,133.45691
"1208",75.56512,133.47028
"1209",75.43084,133.48358
"1210",75.31121,133.49695
"1211",75.20134,133.51025
"1212",75.10368,133.52362
"1213",75.018234,133.53693
"1214",74.94499,133.5503
"1215",74.881516,133.5636
"1216",74.83269,133.57697
"1217",74.793625,133.59027
"1218",74.77165,133.60364
"1219",74.757,133.61694
"1220",74.74723,133.63031
"1221",74.737465,133.64362
"1222",74.72526,133.65698
"1223",74.71793,133.67029
"1224",74.759445,133.68365
"1225",74.932785,133.69696
"1226",75.335625,133.71033
"1227",76.04608,133.72363
"1228",77.07393,133.737
"1229",78.33616,133.7503
"1230",79.691154,133.76367
"1231",80.96315,133.77698
"1232",82.02518,133.79034
"1233",82.81865,133.80365
"1234",83.36065,133.81702
"1235",83.70977,133.83032
"1236",83.94171,133.84369
"1237",84.11261,133.857
"1238",84.25422,133.87036
"1239",84.38117,133.88367
"1240",84.48127,133.89703
"1241",84.542305,133.91034
"1242",84.53498,133.9237
"1243",84.44709,133.93701
"1244",84.2591,133.95038
"1245",83.97345,133.96368
"1246",83.59991,133.97705
"1247",83.17265,133.99036
"1248",82.73319,134.00372
"1249",82.32304,134.01703
"1250",81.96414,134.0304
"1251",81.65652,134.0437
"1252",81.39773,134.05707
"1253",81.15846,134.07037
"1254",80.92409,134.08374
"1255",80.67506,134.09705
"1256",80.40406,134.11041
"1257",80.111084,134.12372
"1258",79.80347,134.13708
"1259",79.49096,134.15039
"1260",79.17845,134.16376
"1261",78.873276,134.17706
"1262",78.5803,134.19043
"1263",78.30686,134.20374
"1264",78.048065,134.2171
"1265",77.80881,134.23041
"1266",77.58907,134.24377
"1267",77.38644,134.25708
"1268",77.20088,134.27045
"1269",77.0251,134.28375
"1270",76.86397,134.29712
"1271",76.717476,134.31042
"1272",76.578316,134.32379
"1273",76.44892,134.3371
"1274",76.334175,134.35046
"1275",76.23163,134.36377
"1276",76.1413,134.37714
"1277",76.06073,134.39044
"1278",75.98993,134.40381
"1279",75.92401,134.41711
"1280",75.860535,134.43048
"1281",75.7995,134.44379
"1282",75.74334,134.45715
"1283",75.68963,134.47046
"1284",75.63836,134.48383
"1285",75.60174,134.49713
"1286",75.579765,134.5105
"1287",75.56756,134.5238
"1288",75.56756,134.53717
"1289",75.579765,134.55048
"1290",75.58953,134.56384
"1291",75.5993,134.57715
"1292",75.60662,134.59052
"1293",75.61639,134.60382
"1294",75.64568,134.61719
"1295",75.74822,134.6305
"1296",76.019226,134.64386
"1297",76.541695,134.65717
"1298",77.35714,134.67053
"1299",78.43626,134.68384
"1300",79.66674,134.6972
"1301",80.89235,134.71051
"1302",81.95682,134.72388
"1303",82.76494,134.73718
"1304",83.29473,134.75055
"1305",83.595024,134.76385
"1306",83.734184,134.77722
"1307",83.790344,134.79053
"1308",83.81476,134.8039
"1309",83.83917,134.8172
"1310",83.87091,134.83057
"1311",83.897766,134.84387
"1312",83.90265,134.85724
"1313",83.86603,134.87054
"1314",83.76349,134.88391
"1315",83.580376,134.89722
"1316",83.3167,134.91058
"1317",82.98711,134.92389
"1318",82.63065,134.93726
"1319",82.28153,134.95056
"1320",81.97391,134.96393
"1321",81.722435,134.97723
"1322",81.52712,134.9906
"1323",81.36599,135.0039
"1324",81.2195,135.01727
"1325",81.058365,135.03058
"1326",80.87526,135.04395
"1327",80.66529,135.05725
"1328",80.428474,135.07062
"1329",80.17456,135.08392
"1330",79.91089,135.09729
"1331",79.64965,135.1106
"1332",79.398186,135.12396
"1333",79.16136,135.13727
"1334",78.94652,135.15063
"1335",78.75365,135.16394
"1336",78.41184,135.19061
"1337",78.25559,135.20398
"1338",78.1091,135.21729
"1339",77.97482,135.23065
"1340",77.855194,135.24396
"1341",77.75021,135.25732
"1342",77.65743,135.27063
"1343",77.574425,135.284
"1344",77.4963,135.2973
"1345",77.418175,135.31067
"1346",77.33517,135.32397
"1347",77.2546,135.33734
"1348",77.17647,135.35065
"1349",77.103226,135.36401
"1350",77.04219,135.37732
"1351",76.99092,135.39069
"1352",76.95186,135.40399
"1353",76.91768,135.41736
"1354",76.893265,135.43066
"1355",76.87373,135.44403
"1356",76.8542,135.45734
"1357",76.82979,135.4707
"1358",76.79317,135.48401
"1359",76.732124,135.49738
"1360",76.67841,135.51068
"1361",76.70283,135.52405
"1362",76.92256,135.53735
"1363",77.418175,135.55072
"1364",78.22385,135.56403
"1365",79.27856,135.5774
"1366",80.44068,135.5907
"1367",81.529564,135.60406
"1368",82.406044,135.61737
"1369",83.001755,135.63074
"1370",83.33135,135.64404
"1371",83.45342,135.65741
"1372",83.44854,135.67072
"1373",83.387505,135.68408
"1374",83.3167,135.69739
"1375",83.267876,135.71075
"1376",83.23125,135.72406
"1377",83.194626,135.73743
"1378",83.12627,135.75073
"1379",82.99687,135.7641
"1380",82.794235,135.7774
"1381",82.53788,135.79077
"1382",82.247345,135.80408
"1383",81.9617,135.81744
"1384",81.71755,135.83075
"1385",81.529564,135.84412
"1386",81.39529,135.85742
"1387",81.29763,135.87079
"1388",81.21706,135.8841
"1389",81.13161,135.89746
"1390",81.0193,135.91077
"1391",80.88258,135.92413
"1392",80.719,135.93744
"1393",80.52857,135.9508
"1394",80.32105,135.96411
"1395",80.111084,135.97748
"1396",79.906006,135.99078
"1397",79.71313,136.00415
"1398",79.53979,136.01746
"1399",79.38354,136.03082
"1400",79.24193,136.04413
"1401",79.10765,136.0575
"1402",78.97826,136.0708
"1403",78.856186,136.08417
"1404",78.746315,136.09747
"1405",78.643776,136.11084
"1406",78.54856,136.12415
"1407",78.46067,136.13751
"1408",78.37278,136.15082
"1409",78.28977,136.16418
"1410",78.2092,136.17749
"1411",78.133514,136.19086
"1412",78.06271,136.20416
"1413",78.00168,136.21753
"1414",77.94797,136.23083
"1415",77.90646,136.2442
"1416",77.8674,136.2575
"1417",77.83078,136.27087
"1418",77.78439,136.28418
"1419",77.733116,136.29755
"1420",77.696495,136.31085
"1421",77.738,136.32422
"1422",77.95529,136.33752
"1423",78.43137,136.35089
"1424",79.19798,136.3642
"1425",80.21362,136.37756
"1426",81.3489,136.39087
"1427",82.44755,136.40424
"1428",83.35821,136.41754
"1429",84.00763,136.43091
"1430",84.39582,136.44421
"1431",84.5716,136.45758
"1432",84.60578,136.47089
"1433",84.5716,136.48425
"1434",84.51789,136.49756
"1435",84.46418,136.51093
"1436",84.420235,136.52423
"1437",84.37141,136.5376
"1438",84.298164,136.5509
"1439",84.1712,136.56427
"1440",83.97101,136.57758
"1441",83.69756,136.59094
"1442",83.370415,136.60425
"1443",83.021286,136.61761
"1444",82.68925,136.63092
"1445",82.406044,136.64429
"1446",82.176544,136.6576
"1447",81.99588,136.67096
"1448",81.84451,136.68427
"1449",81.705345,136.69763
"1450",81.55642,136.71094
"1451",81.38796,136.7243
"1452",81.19508,136.73761
"1453",80.97536,136.75098
"1454",80.72877,136.76428
"1455",80.46998,136.77765
"1456",80.2063,136.79095
"1457",79.95239,136.80432
"1458",79.72045,136.81763
"1459",79.51293,136.831
"1460",79.3225,136.8443
"1461",79.149155,136.85767
"1462",78.99046,136.87097
"1463",78.839096,136.88434
"1464",78.692604,136.89764
"1465",78.55833,136.91101
"1466",78.433815,136.92432
"1467",78.314186,136.93768
"1468",78.204315,136.95099
"1469",78.099335,136.96436
"1470",77.996796,136.97766
"1471",77.89914,136.99103
"1472",77.81125,137.00433
"1473",77.730675,137.0177
"1474",77.659874,137.031
"1475",77.59884,137.04437
"1476",77.54513,137.05768
"1477",77.49142,137.07104
"1478",77.44259,137.08435
"1479",77.3962,137.09772
"1480",77.34493,137.11102
"1481",77.30099,137.12439
"1482",77.296104,137.1377
"1483",77.3962,137.15106
"1484",77.70138,137.16437
"1485",78.27268,137.17773
"1486",79.11986,137.19104
"1487",80.16968,137.2044
"1488",81.290306,137.21771
"1489",82.31815,137.23108
"1490",83.12871,137.24438
"1491",83.67803,137.25775
"1492",83.99298,137.27106
"1493",84.13214,137.28442
"1494",84.16876,137.29773
"1495",84.16144,137.3111
"1496",84.137024,137.3244
"1497",84.11505,137.33777
"1498",84.09552,137.35107
"1499",84.06134,137.36444
"1500",84.000305,137.37775
"1501",83.89044,137.39111
"1502",83.71465,137.40442
"1503",83.46319,137.41779
"1504",83.13847,137.43109
"1505",82.76738,137.44446
"1506",82.388954,137.45776
"1507",82.037384,137.47113
"1508",81.74441,137.48444
"1509",81.51003,137.4978
"1510",81.32937,137.51111
"1511",81.18288,137.52448
"1512",81.04372,137.53778
"1513",80.88991,137.55115
"1514",80.71412,137.56445
"1515",80.51392,137.57782
"1516",80.289314,137.59113
"1517",80.042725,137.60449
"1518",79.79126,137.6178
"1519",79.54467,137.63116
"1520",79.30785,137.64447
"1521",79.09056,137.65784
"1522",78.89281,137.67114
"1523",78.712135,137.68451
"1524",78.54124,137.69781
"1525",78.382545,137.71118
"1526",78.22873,137.72449
"1527",78.08713,137.73785
"1528",77.95773,137.75116
"1529",77.838104,137.76453
"1530",77.72823,137.77783
"1531",77.628136,137.7912
"1532",77.5256,137.8045
"1533",77.43038,137.81787
"1534",77.33761,137.83118
"1535",77.25216,137.84454
"1536",77.17403,137.85785
"1537",77.10811,137.87122
"1538",77.049515,137.88452
"1539",77.00069,137.89789
"1540",76.964066,137.9112
"1541",76.93721,137.92456
"1542",76.912796,137.93787
"1543",76.89082,137.95123
"1544",76.86153,137.96454
"1545",76.83467,137.9779
"1546",76.824905,137.99121
"1547",76.90059,138.00458
"1548",77.13985,138.01788
"1549",77.628136,138.03125
"1550",78.38743,138.04456
"1551",79.37133,138.05792
"1552",80.45533,138.07123
"1553",81.4905,138.0846
"1554",82.340126,138.0979
"1555",82.92851,138.11127
"1556",83.265434,138.12457
"1557",83.407036,138.13794
"1558",83.43145,138.15125
"1559",83.407036,138.16461
"1560",83.37774,138.17792
"1561",83.35821,138.19128
"1562",83.35088,138.20459
"1563",83.33868,138.21796
"1564",83.29717,138.23126
"1565",83.21416,138.24463
"1566",83.072556,138.25793
"1567",82.86015,138.2713
"1568",82.58671,138.2846
"1569",82.266884,138.29797
"1570",81.92752,138.31128
"1571",81.60769,138.32465
"1572",81.32937,138.33795
"1573",81.10475,138.35132
"1574",80.93141,138.36462
"1575",80.78981,138.37799
"1576",80.66041,138.3913
"1577",80.52369,138.40466
"1578",80.36744,138.41797
"1579",80.18921,138.43134
"1580",79.9939,138.44464
"1581",79.783936,138.45801
"1582",79.569084,138.47131
"1583",79.3518,138.48468
"1584",79.14183,138.49799
"1585",78.94896,138.51135
"1586",78.77806,138.52466
"1587",78.6218,138.53802
"1588",78.485085,138.55133
"1589",78.35569,138.5647
"1590",78.23605,138.578
"1591",78.11398,138.59137
"1592",77.99924,138.60468
"1593",77.8967,138.61804
"1594",77.806366,138.63135
"1595",77.72091,138.64471
"1596",77.6379,138.65802
"1597",77.55978,138.67139
"1598",77.488976,138.6847
"1599",77.42306,138.69806
"1600",77.36202,138.71136
"1601",77.31075,138.72473
"1602",77.26925,138.73804
"1603",77.23018,138.7514
"1604",77.196,138.76471
"1605",77.16914,138.77808
"1606",77.14473,138.79138
"1607",77.13008,138.80475
"1608",77.117874,138.81805
"1609",77.10811,138.83142
"1610",77.103226,138.84473
"1611",77.100784,138.8581
"1612",77.0959,138.8714
"1613",77.11543,138.88477
"1614",77.21797,138.89807
"1615",77.48409,138.91144
"1616",77.994354,138.92474
"1617",78.75609,138.93811
"1618",79.72045,138.95142
"1619",80.762955,138.96478
"1620",81.7322,138.97809
"1621",82.50126,138.99146
"1622",83.01396,139.00476
"1623",83.28741,139.01813
"1624",83.389946,139.03143
"1625",83.39239,139.0448
"1626",83.35577,139.0581
"1627",83.32159,139.07147
"1628",83.30694,139.08478
"1629",83.29717,139.09814
"1630",83.28008,139.11145
"1631",83.24101,139.12482
"1632",83.160446,139.13812
"1633",83.01152,139.15149
"1634",82.79912,139.1648
"1635",82.52323,139.17816
"1636",82.210724,139.19147
"1637",81.8909,139.20483
"1638",81.600365,139.21814
"1639",81.36111,139.2315
"1640",81.17799,139.24481
"1641",81.04372,139.25818
"1642",80.93385,139.27148
"1643",80.831314,139.28485
"1644",80.71656,139.29816
"1645",80.58228,139.31152
"1646",80.42603,139.32483
"1647",80.24536,139.3382
"1648",80.04761,139.3515
"1649",79.84009,139.36487
"1650",79.635,139.37817
"1651",79.44213,139.39154
"1652",79.26635,139.40485
"1653",79.114975,139.41821
"1654",78.97826,139.43152
"1655",78.853745,139.44489
"1656",78.73655,139.45819
"1657",78.624245,139.47156
"1658",78.51194,139.48486
"1659",78.41184,139.49823
"1660",78.31907,139.51154
"1661",78.23361,139.5249
"1662",78.15549,139.53821
"1663",78.08713,139.55157
"1664",78.02365,139.56488
"1665",77.96506,139.57825
"1666",77.91135,139.59155
"1667",77.86252,139.60492
"1668",77.81369,139.61823
"1669",77.76486,139.63159
"1670",77.71603,139.6449
"1671",77.6672,139.65826
"1672",77.62325,139.67157
"1673",77.58907,139.68494
"1674",77.55978,139.69824
"1675",77.54513,139.71161
"1676",77.53536,139.72491
"1677",77.5378,139.73828
"1678",77.53048,139.75159
"1679",77.506065,139.76495
"1680",77.45724,139.77826
"1681",77.39376,139.79163
"1682",77.347374,139.80493
"1683",77.38644,139.8183
"1684",77.60616,139.8316
"1685",78.0798,139.84497
"1686",78.81712,139.85828
"1687",79.75708,139.87164
"1688",80.77516,139.88495
"1689",81.71999,139.89832
"1690",82.46464,139.91162
"1691",82.950485,139.92499
"1692",83.19951,139.9383
"1693",83.2752,139.95166
"1694",83.25811,139.96497
"1695",83.21416,139.97833
"1696",83.177536,139.99164
"1697",83.16777,140.005
"1698",83.175095,140.01831
"1699",83.18242,140.03168
"1700",83.160446,140.04498
"1701",83.09209,140.05835
"1702",82.96269,140.07166
"1703",82.760056,140.08502
"1704",82.49882,140.09833
"1705",82.20584,140.1117
"1706",81.90799,140.125
"1707",81.64431,140.13837
"1708",81.42947,140.15167
"1709",81.270775,140.16504
"1710",81.146255,140.17834
"1711",81.04616,140.19171
"1712",80.94606,140.20502
"1713",80.833755,140.21838
"1714",80.69459,140.23169
"1715",80.5359,140.24506
"1716",80.35523,140.25836
"1717",80.15991,140.27173
"1718",79.9646,140.28503
"1719",79.77661,140.2984
"1720",79.5935,140.3117
"1721",79.42748,140.32507
"1722",79.26879,140.33838
"1723",79.11986,140.35175
"1724",78.98314,140.36505
"1725",78.856186,140.37842
"1726",78.73655,140.39172
"1727",78.626686,140.40509
"1728",78.52659,140.4184
"1729",78.43626,140.43176
"1730",78.35325,140.44507
"1731",78.27268,140.45844
"1732",78.19211,140.47174
"1733",78.11154,140.4851
"1734",78.03342,140.49841
"1735",77.962616,140.51178
"1736",77.89426,140.52509
"1737",77.83566,140.53845
"1738",77.78195,140.55176
"1739",77.73556,140.56512
"1740",77.69161,140.57843
"1741",77.65499,140.5918
"1742",77.625694,140.6051
"1743",77.60616,140.61847
"1744",77.58907,140.63177
"1745",77.574425,140.64514
"1746",77.55245,140.65845
"1747",77.52071,140.67181
"1748",77.48165,140.68512
"1749",77.437706,140.69849
"1750",77.41329,140.71179
"1751",77.45968,140.72516
"1752",77.662315,140.73846
"1753",78.09201,140.75183
"1754",78.77074,140.76514
"1755",79.66186,140.7785
"1756",80.65308,140.79181
"1757",81.600365,140.80518
"1758",82.36454,140.81848
"1759",82.879684,140.83185
"1760",83.14824,140.84515
"1761",83.23613,140.85852
"1762",83.2166,140.87183
"1763",83.15312,140.8852
"1764",83.09941,140.8985
"1765",83.070114,140.91187
"1766",83.06523,140.92517
"1767",83.06523,140.93854
"1768",83.0457,140.95184
"1769",82.98222,140.96521
"1770",82.85283,140.97852
"1771",82.65507,140.99188
"1772",82.4036,141.00519
"1773",82.13016,141.01855
"1774",81.86893,141.03186
"1775",81.64919,141.04523
"1776",81.48318,141.05853
"1777",81.36843,141.0719
"1778",81.287865,141.0852
"1779",81.2195,141.09857
"1780",81.13405,141.11188
"1781",81.03151,141.12524
"1782",80.902115,141.13855
"1783",80.74586,141.15192
"1784",80.5774,141.16522
"1785",80.40894,141.17859
"1786",80.24048,141.1919
"1787",80.07446,141.20526
"1788",79.91821,141.21857
"1789",79.77173,141.23193
"1790",79.63744,141.24524
"1791",79.51293,141.2586
"1792",79.40063,141.27191
"1793",79.290764,141.28528
"1794",79.19066,141.29858
"1795",79.09544,141.31195
"1796",79.00023,141.32526
"1797",78.91234,141.33862
"1798",78.82933,141.35193
"1799",78.746315,141.3653
"1800",78.66819,141.3786
"1801",78.59495,141.39197
"1802",78.52659,141.40527
"1803",78.46311,141.41864
"1804",78.40696,141.43195
"1805",78.35325,141.44531
"1806",78.30686,141.45862
"1807",78.2678,141.47198
"1808",78.23117,141.48529
"1809",78.19699,141.49866
"1810",78.15793,141.51196
"1811",78.11398,141.52533
"1812",78.082245,141.53864
"1813",78.101776,141.552
"1814",78.24582,141.5653
"1815",78.59983,141.57867
"1816",79.200424,141.59198
"1817",80.02075,141.60535
"1818",80.972916,141.61865
"1819",81.917755,141.63202
"1820",82.72831,141.64532
"1821",83.3167,141.65869
"1822",83.67559,141.672
"1823",83.85138,141.68536
"1824",83.90997,141.69867
"1825",83.912415,141.71204
"1826",83.90509,141.72534
"1827",83.90997,141.73871
"1828",83.931946,141.75201
"1829",83.95148,141.76538
"1830",83.95148,141.77869
"1831",83.90265,141.79205
"1832",83.78302,141.80536
"1833",83.5877,141.81873
"1834",83.32647,141.83203
"1835",83.02861,141.8454
"1836",82.73075,141.8587
"1837",82.46464,141.87207
"1838",82.2449,141.88538
"1839",82.07645,141.89874
"1840",81.94949,141.91205
"1841",81.83963,141.92542
"1842",81.722435,141.93872
"1843",81.58572,141.95209
"1844",81.42214,141.9654
"1845",81.22438,141.97876
"1846",80.99733,141.99207
"1847",80.75563,142.00543
"1848",80.51392,142.01874
"1849",80.27711,142.0321
"1850",80.05493,142.04541
"1851",79.852295,142.05878
"1852",79.66674,142.07208
"1853",79.49828,142.08545
"1854",79.33959,142.09875
"1855",79.19066,142.11212
"1856",79.04906,142.12543
"1857",78.91722,142.1388
"1858",78.79271,142.1521
"1859",78.677956,142.16547
"1860",78.56809,142.17877
"1861",78.46067,142.19214
"1862",78.35569,142.20544
"1863",78.25315,142.21881
"1864",78.153046,142.23212
"1865",78.06027,142.24548
"1866",77.97238,142.25879
"1867",77.89426,142.27216
"1868",77.8259,142.28546
"1869",77.76242,142.29883
"1870",77.7087,142.31213
"1871",77.659874,142.3255
"1872",77.61593,142.3388
"1873",77.56954,142.35217
"1874",77.52071,142.36548
"1875",77.47433,142.37885
"1876",77.46212,142.39215
"1877",77.540245,142.40552
"1878",77.80148,142.41882
"1879",78.311745,142.43219
"1880",79.08568,142.4455
"1881",80.07446,142.45886
"1882",81.15846,142.47217
"1883",82.18875,142.48553
"1884",83.04082,142.49884
"1885",83.65606,142.5122
"1886",84.04181,142.52551
"1887",84.24933,142.53888
"1888",84.34699,142.55219
"1889",84.403145,142.56555
"1890",84.45197,142.57886
"1891",84.51545,142.59222
"1892",84.58625,142.60553
"1893",84.64973,142.6189
"1894",84.68391,142.6322
"1895",84.65949,142.64557
"1896",84.55451,142.65887
"1897",84.36164,142.67224
"1898",84.08087,142.68555
"1899",83.734184,142.69891
"1900",83.36553,142.71222
"1901",83.00908,142.72559
"1902",82.686806,142.73889
"1903",82.41581,142.75226
"1904",82.18875,142.76556
"1905",81.988556,142.77893
"1906",81.79324,142.79224
"1907",81.5906,142.8056
"1908",81.373314,142.81891
"1909",81.13161,142.83228
"1910",80.87038,142.84558
"1911",80.59205,142.85895
"1912",80.306404,142.87225
"1913",80.02075,142.88562
"1914",79.74731,142.89893
"1915",79.48852,142.9123
"1916",79.24925,142.9256
"1917",79.0222,142.93896
"1918",78.8098,142.95227
"1919",78.60471,142.96564
"1920",78.41184,142.97894
"1921",78.23117,142.99231
"1922",78.065155,143.00562
"1923",77.91135,143.01898
"1924",77.7673,143.03229
"1925",77.63546,143.04565
"1926",77.506065,143.05896
"1927",77.383995,143.07233
"1928",77.27169,143.08563
"1929",77.16426,143.099
"1930",77.06172,143.1123
"1931",76.96651,143.12567
"1932",76.87862,143.13898
"1933",76.79561,143.15234
"1934",76.717476,143.16565
"1935",76.64912,143.17902
"1936",76.59052,143.19232
"1937",76.541695,143.20569
"1938",76.50019,143.219
"1939",76.470894,143.23236
"1940",76.44648,143.24567
"1941",76.422066,143.25903
"1942",76.402534,143.27234
"1943",76.40742,143.2857
"1944",76.49287,143.29901
"1945",76.74189,143.31238
"1946",77.239944,143.32568
"1947",78.01877,143.33905
"1948",79.03685,143.35236
"1949",80.17944,143.36572
"1950",81.29763,143.37903
"1951",82.24979,143.3924
"1952",82.95781,143.4057
"1953",83.421684,143.41907
"1954",83.69268,143.43237
"1955",83.83673,143.44574
"1956",83.91974,143.45905
"1957",83.98566,143.47241
"1958",84.054016,143.48572
"1959",84.119934,143.49908
"1960",84.1712,143.51239
"1961",84.19318,143.52576
"1962",84.16388,143.53906
"1963",84.06622,143.55243
"1964",83.888,143.56573
"1965",83.62676,143.5791
"1966",83.302055,143.5924
"1967",82.93584,143.60577
"1968",82.57206,143.61908
"1969",82.23758,143.63245
"1970",81.951935,143.64575
"1971",81.71511,143.65912
"1972",81.512474,143.67242
"1973",81.324486,143.68579
"1974",81.13405,143.6991
"1975",80.93141,143.71246
"1976",80.71168,143.72577
"1977",80.462654,143.73914
"1978",80.198975,143.75244
"1979",79.920654,143.76581
"1980",79.635,143.77911
"1981",79.35912,143.79248
"1982",79.10277,143.80579
"1983",78.870834,143.81915
"1984",78.658424,143.83246
"1985",78.45823,143.84583
"1986",78.2678,143.85913
"1987",78.08713,143.8725
"1988",77.91379,143.8858
"1989",77.752655,143.89917
"1990",77.60372,143.91248
"1991",77.467,143.92584
"1992",77.33761,143.93915
"1993",77.21797,143.95251
"1994",77.10811,143.96582
"1995",77.00801,143.97919
"1996",76.91524,143.9925
"1997",76.824905,144.00586
"1998",76.734566,144.01917
"1999",76.64912,144.03253
"2000",76.57099,144.04584
"2001",76.43427,144.07251
"2002",76.383,144.08588
"2003",76.33662,144.09918
"2004",76.297554,144.11255
"2005",76.265816,144.12585
"2006",76.241394,144.13922
"2007",76.22919,144.15253
"2008",76.226746,144.1659
"2009",76.23163,144.1792
"2010",76.243835,144.19257
"2011",76.25361,144.20587
"2012",76.265816,144.21924
"2013",76.27314,144.23254
"2014",76.299995,144.24591
"2015",76.39277,144.25922
"2016",76.646675,144.27258
"2017",77.14473,144.28589
"2018",77.92844,144.29926
"2019",78.958725,144.31256
"2020",80.13794,144.32593
"2021",81.31228,144.33923
"2022",82.3328,144.3526
"2023",83.106735,144.3659
"2024",83.617,144.37927
"2025",83.90509,144.39258
"2026",84.034485,144.40594
"2027",84.07599,144.41925
"2028",84.09064,144.43262
"2029",84.10773,144.44592
"2030",84.139465,144.45929
"2031",84.17609,144.4726
"2032",84.19806,144.48596
"2033",84.17609,144.49927
"2034",84.09308,144.51263
"2035",83.929504,144.52594
"2036",83.69268,144.5393
"2037",83.39239,144.55261
"2038",83.05791,144.56598
"2039",82.72343,144.57928
"2040",82.41337,144.59265
"2041",82.142365,144.60596
"2042",81.91287,144.61932
"2043",81.71023,144.63263
"2044",81.52712,144.646
"2045",81.339134,144.6593
"2046",81.13649,144.67267
"2047",80.91188,144.68597
"2048",80.67017,144.69934
"2049",80.4065,144.71265
"2050",80.13306,144.72601
"2051",79.85962,144.73932
"2052",79.59594,144.75269
"2053",79.344475,144.76599
"2054",79.11253,144.77936
"2055",78.89525,144.79266
"2056",78.695045,144.80603
"2057",78.5095,144.81934
"2058",78.331276,144.8327
"2059",78.16281,144.84601
"2060",78.009,144.85938
"2061",77.86252,144.87268
"2062",77.72579,144.88605
"2063",77.593956,144.89935
"2064",77.46456,144.91272
"2065",77.34005,144.92603
"2066",77.22041,144.93939
"2067",77.11055,144.9527
"2068",77.01045,144.96606
"2069",76.91768,144.97937
"2070",76.83467,144.99274
"2071",76.75899,145.00604
"2072",76.69062,145.01941
"2073",76.629585,145.03271
"2074",76.575874,145.04608
"2075",76.52949,145.05939
"2076",76.48798,145.07275
"2077",76.453804,145.08606
"2078",76.42939,145.09943
"2079",76.41718,145.11273
"2080",76.40986,145.1261
"2081",76.402534,145.1394
"2082",76.387886,145.15277
"2083",76.37812,145.16608
"2084",76.419624,145.17944
"2085",76.60517,145.19275
"2086",77.0251,145.20612
"2087",77.733116,145.21942
"2088",78.71458,145.23279
"2089",79.87427,145.2461
"2090",81.06081,145.25946
"2091",82.11063,145.27277
"2092",82.92119,145.28613
"2093",83.46075,145.29944
"2094",83.758606,145.3128
"2095",83.87579,145.32611
"2096",83.888,145.33948
"2097",83.8587,145.35278
"2098",83.824524,145.36615
"2099",83.80255,145.37946
"2100",83.792786,145.39282
"2101",83.78546,145.40613
"2102",83.74395,145.4195
"2103",83.648735,145.4328
"2104",83.475395,145.44617
"2105",83.23369,145.45947
"2106",82.93584,145.47284
"2107",82.616005,145.48615
"2108",82.31571,145.49951
"2109",82.05936,145.51282
"2110",81.85672,145.52618
"2111",81.70046,145.53949
"2112",81.57351,145.55286
"2113",81.45388,145.56616
"2114",81.3196,145.57953
"2115",81.15846,145.59283
"2116",80.96559,145.6062
"2117",80.73853,145.6195
"2118",80.48951,145.63287
"2119",80.22583,145.64618
"2120",79.96948,145.65955
"2121",79.725334,145.67285
"2122",79.49584,145.68622
"2123",79.28832,145.69952
"2124",79.10033,145.71289
"2125",78.92943,145.7262
"2126",78.768295,145.73956
"2127",78.624245,145.75287
"2128",78.48997,145.76624
"2129",78.35813,145.77954
"2130",78.23117,145.79291
"2131",78.1091,145.80621
"2132",77.99191,145.81958
"2133",77.88693,145.83289
"2134",77.79172,145.84625
"2135",77.70382,145.85956
"2136",77.62325,145.87292
"2137",77.55245,145.88623
"2138",77.486534,145.8996
"2139",77.43038,145.9129
"2140",77.383995,145.92627
"2141",77.34493,145.93958
"2142",77.30831,145.95294
"2143",77.27413,145.96625
"2144",77.2375,145.97961
"2145",77.19844,145.99292
"2146",77.15938,146.00629
"2147",77.14717,146.01959
"2148",77.222855,146.03296
"2149",77.48165,146.04626
"2150",77.99924,146.05963
"2151",78.8098,146.07294
"2152",79.86694,146.0863
"2153",81.04616,146.09961
"2154",82.193634,146.11298
"2155",83.16777,146.12628
"2156",83.89044,146.13965
"2157",84.3592,146.15295
"2158",84.62043,146.16632
"2159",84.73762,146.17963
"2160",84.77425,146.193
"2161",84.78401,146.2063
"2162",84.788895,146.21967
"2163",84.79378,146.23297
"2164",84.79378,146.24634
"2165",84.76692,146.25964
"2166",84.681465,146.27301
"2167",84.52033,146.28632
"2168",84.27863,146.29968
"2169",83.97345,146.31299
"2170",83.63409,146.32635
"2171",83.299614,146.33966
"2172",82.99687,146.35303
"2173",82.75029,146.36633
"2174",82.547646,146.3797
"2175",82.374306,146.393
"2176",82.213165,146.40637
"2177",82.039825,146.41968
"2178",81.84451,146.43304
"2179",81.617455,146.44635
"2180",81.356224,146.45972
"2181",81.07301,146.47302
"2182",80.7776,146.48639
"2183",80.482185,146.4997
"2184",80.20386,146.51306
"2185",79.94507,146.52637
"2186",79.7058,146.53973
"2187",79.48119,146.55304
"2188",79.27123,146.5664
"2189",79.07347,146.57971
"2190",78.88304,146.59308
"2191",78.70481,146.60638
"2192",78.54124,146.61975
"2193",78.38743,146.63306
"2194",78.24582,146.64642
"2195",78.11154,146.65973
"2196",77.98703,146.6731
"2197",77.8674,146.6864
"2198",77.752655,146.69977
"2199",77.642784,146.71307
"2200",77.53536,146.72644
"2201",77.43038,146.73975
"2202",77.332726,146.75311
"2203",77.24727,146.76642
"2204",77.17647,146.77979
"2205",77.117874,146.79309
"2206",77.07393,146.80646
"2207",77.03731,146.81976
"2208",76.995804,146.83313
"2209",76.944534,146.84644
"2210",76.90059,146.8598
"2211",76.90303,146.87311
"2212",77.02998,146.88647
"2213",77.383995,146.89978
"2214",78.0383,146.91315
"2215",78.992905,146.92645
"2216",80.181885,146.93982
"2217",81.46853,146.95312
"2218",82.68925,146.96649
"2219",83.70977,146.9798
"2220",84.47883,146.99316
"2221",84.998856,147.00647
"2222",85.32113,147.01984
"2223",85.51156,147.03314
"2224",85.64095,147.04651
"2225",85.74593,147.05981
"2226",85.841156,147.07318
"2227",85.92905,147.08649
"2228",85.994965,147.09985
"2229",86.01938,147.11316
"2230",85.96811,147.12653
"2231",85.821625,147.13983
"2232",85.56771,147.1532
"2233",85.2137,147.1665
"2234",84.78645,147.17987
"2235",84.334785,147.19318
"2236",83.895325,147.20654
"2237",83.50225,147.21985
"2238",83.16289,147.23322
"2239",82.86992,147.24652
"2240",82.60136,147.25989
"2241",82.337685,147.2732
"2242",82.056915,147.28656
"2243",81.75418,147.29987
"2244",81.4197,147.31323
"2245",81.058365,147.32654
"2246",80.6775,147.3399
"2247",80.2942,147.35321
"2248",79.91577,147.36658
"2249",79.55688,147.37988
"2250",79.2224,147.39325
"2251",78.9099,147.40656
"2252",78.6218,147.41992
"2253",78.345924,147.43323
"2254",78.08713,147.4466
"2255",77.84543,147.4599
"2256",77.62081,147.47327
"2257",77.418175,147.48657
"2258",77.23262,147.49994
"2259",77.06172,147.51324
"2260",76.90791,147.52661
"2261",76.76143,147.53992
"2262",76.61982,147.55328
"2263",76.48798,147.56659
"2264",76.36347,147.57996
"2265",76.24628,147.59326
"2266",76.13641,147.60663
"2267",76.033875,147.61993
"2268",75.94354,147.6333
"2269",75.86786,147.6466
"2270",75.80438,147.65997
"2271",75.75311,147.67328
"2272",75.7116,147.68665
"2273",75.67498,147.69995
"2274",75.63592,147.71332
"2275",75.596855,147.72662
"2276",75.562675,147.73999
"2277",75.562675,147.7533
"2278",75.665215,147.76666
"2279",75.95819,147.77997
"2280",76.52949,147.79333
"2281",77.40353,147.80664
"2282",78.52659,147.82
"2283",79.77905,147.83331
"2284",81.004654,147.84668
"2285",82.056915,147.85999
"2286",82.85283,147.87335
"2287",83.39239,147.88666
"2288",83.719536,147.90002
"2289",83.912415,147.91333
"2290",84.034485,147.9267
"2291",84.139465,147.94
"2292",84.24933,147.95337
"2293",84.36408,147.96667
"2294",84.46418,147.98004
"2295",84.52766,147.99335
"2296",84.52277,148.00671
"2297",84.42756,148.02002
"2298",84.2298,148.03339
"2299",83.93439,148.04669
"2300",83.5584,148.06006
"2301",83.13603,148.07336
"2302",82.718544,148.08673
"2303",82.337685,148.10004
"2304",82.00809,148.1134
"2305",81.7322,148.12671
"2306",81.4905,148.14008
"2307",81.26345,148.15338
"2308",81.02907,148.16675
"2309",80.77516,148.18005
"2310",80.49439,148.19342
"2311",80.18921,148.20673
"2312",79.86206,148.2201
"2313",79.52758,148.2334
"2314",79.19554,148.24677
"2315",78.8806,148.26007
"2316",78.59251,148.27344
"2317",78.328835,148.28674
"2318",78.08713,148.30011
"2319",77.8674,148.31342
"2320",77.65743,148.32678
"2321",77.45968,148.34009
"2322",77.27413,148.35345
"2323",77.100784,148.36676
"2324",76.93965,148.38013
"2325",76.79561,148.39343
"2326",76.663765,148.4068
"2327",76.53925,148.4201
"2328",76.43183,148.43347
"2329",76.32929,148.44678
"2330",76.23407,148.46014
"2331",76.1413,148.47345
"2332",76.05585,148.48682
"2333",75.97528,148.50012
"2334",75.90692,148.51349
"2335",75.85077,148.5268
"2336",75.80682,148.54016
"2337",75.77753,148.55347
"2338",75.757996,148.56683
"2339",75.74578,148.58014
"2340",75.73846,148.5935
"2341",75.733574,148.60681
"2342",75.73113,148.62018
"2343",75.72381,148.63348
"2344",75.72625,148.64685
"2345",75.789734,148.66016
"2346",75.99237,148.67352
"2347",76.419624,148.68683
"2348",77.13008,148.7002
"2349",78.10422,148.7135
"2350",79.24925,148.72687
"2351",80.42115,148.74017
"2352",81.463646,148.75354
"2353",82.27665,148.76685
"2354",82.8333,148.78021
"2355",83.17021,148.79352
"2356",83.35088,148.80688
"2357",83.45342,148.82019
"2358",83.51934,148.83356
"2359",83.5877,148.84686
"2360",83.66338,148.86023
"2361",83.74151,148.87354
"2362",83.80011,148.8869
"2363",83.81476,148.9002
"2364",83.758606,148.91357
"2365",83.60967,148.92688
"2366",83.36065,148.94025
"2367",83.03105,148.95355
"2368",82.650185,148.96692
"2369",82.25956,148.98022
"2370",81.90311,148.99359
"2371",81.602806,149.0069
"2372",81.358665,149.02026
"2373",81.15846,149.03357
"2374",80.9778,149.04694
"2375",80.79469,149.06024
"2376",80.58961,149.07361
"2377",80.365,149.08691
"2378",80.11597,149.10028
"2379",79.852295,149.11359
"2380",79.57641,149.12695
"2381",79.30053,149.14026
"2382",79.03197,149.15363
"2383",78.77806,149.16693
"2384",78.54612,149.1803
"2385",78.33616,149.1936
"2386",78.14328,149.20697
"2387",77.9675,149.22028
"2388",77.803925,149.23364
"2389",77.65011,149.24695
"2390",77.506065,149.26031
"2391",77.36935,149.27362
"2392",77.242386,149.28699
"2393",77.13008,149.3003
"2394",77.0251,149.31366
"2395",76.929886,149.32697
"2396",76.841995,149.34033
"2397",76.75899,149.35364
"2398",76.680855,149.367
"2399",76.60029,149.38031
"2400",76.52949,149.39368
"2401",76.46357,149.40698
"2402",76.404976,149.42035
"2403",76.35859,149.43365
"2404",76.32685,149.44702
"2405",76.30732,149.46033
"2406",76.29023,149.4737
"2407",76.282906,149.487
"2408",76.27558,149.50037
"2409",76.27314,149.51367
"2410",76.265816,149.52704
"2411",76.26093,149.54034
"2412",76.2707,149.55371
"2413",76.351265,149.56702
"2414",76.58076,149.58038
"2415",77.04707,149.59369
"2416",77.78439,149.60706
"2417",78.76341,149.62036
"2418",79.87427,149.63373
"2419",80.96559,149.64703
"2420",81.8909,149.6604
"2421",82.562294,149.6737
"2422",82.97002,149.68707
"2423",83.16777,149.70038
"2424",83.228806,149.71375
"2425",83.23369,149.72705
"2426",83.23369,149.74042
"2427",83.25323,149.75372
"2428",83.29717,149.76709
"2429",83.34112,149.7804
"2430",83.36309,149.79376
"2431",83.32403,149.80707
"2432",83.20195,149.82043
"2433",82.99443,149.83374
"2434",82.718544,149.8471
"2435",82.39872,149.86041
"2436",82.07645,149.87378
"2437",81.78836,149.88708
"2438",81.549095,149.90045
"2439",81.36599,149.91376
"2440",81.22926,149.92712
"2441",81.1194,149.94043
"2442",81.007095,149.9538
"2443",80.88014,149.9671
"2444",80.726326,149.98047
"2445",80.53834,149.99377
"2446",80.323494,150.00714
"2447",80.09155,150.02045
"2448",79.85718,150.03381
"2449",79.62768,150.04712
"2450",79.41772,150.06049
"2451",79.22728,150.07379
"2452",79.05394,150.08716
"2453",78.89525,150.10046
"2454",78.746315,150.11383
"2455",78.60471,150.12714
"2456",78.470436,150.1405
"2457",78.348366,150.15381
"2458",78.238495,150.16718
"2459",78.1384,150.18048
"2460",78.04318,150.19385
"2461",77.95285,150.20715
"2462",77.8674,150.22052
"2463",77.78439,150.23383
"2464",77.70626,150.2472
"2465",77.63302,150.2605
"2466",77.56954,150.27386
"2467",77.51339,150.28717
"2468",77.471886,150.30054
"2469",77.44259,150.31384
"2470",77.418175,150.32721
"2471",77.3962,150.34052
"2472",77.37179,150.35388
"2473",77.33517,150.36719
"2474",77.298546,150.38055
"2475",77.26681,150.39386
"2476",77.27413,150.40723
"2477",77.38888,150.42053
"2478",77.69894,150.4339
"2479",78.26536,150.4472
"2480",79.08812,150.46057
"2481",80.096436,150.47388
"2482",81.15846,150.48724
"2483",82.125275,150.50055
"2484",82.86992,150.51392
"2485",83.35821,150.52722
"2486",83.617,150.54059
"2487",83.71221,150.5539
"2488",83.719536,150.56726
"2489",83.69756,150.58057
"2490",83.685356,150.59393
"2491",83.6878,150.60724
"2492",83.69512,150.6206
"2493",83.69024,150.63391
"2494",83.64629,150.64728
"2495",83.53643,150.66058
"2496",83.34844,150.67395
"2497",83.089645,150.68726
"2498",82.78203,150.70062
"2499",82.4622,150.71393
"2500",82.17166,150.7273
"2501",81.9324,150.7406
"2502",81.74929,150.75397
"2503",81.61257,150.76727
"2504",81.495384,150.78064
"2505",81.38064,150.79395
"2506",81.248795,150.80731
"2507",81.0901,150.82062
"2508",80.90456,150.83398
"2509",80.69459,150.84729
"2510",80.462654,150.86066
"2511",80.22339,150.87396
"2512",79.98657,150.88733
"2513",79.75708,150.90063
"2514",79.54711,150.914
"2515",79.35912,150.9273
"2516",79.18822,150.94067
"2517",79.03441,150.95398
"2518",78.89281,150.96735
"2519",78.76341,150.98065
"2520",78.64622,150.99402
"2521",78.536354,151.00732
"2522",78.43626,151.02069
"2523",78.3386,151.034
"2524",78.24094,151.04736
"2525",78.14328,151.06067
"2526",78.05051,151.07404
"2527",77.962616,151.08734
"2528",77.88449,151.10071
"2529",77.81857,151.11401
"2530",77.76242,151.12738
"2531",77.7087,151.14069
"2532",77.662315,151.15405
"2533",77.61593,151.16736
"2534",77.56466,151.18073
"2535",77.50851,151.19403
"2536",77.454796,151.2074
"2537",77.4255,151.2207
"2538",77.47433,151.23407
"2539",77.68673,151.24738
"2540",78.14328,151.26074
"2541",78.85863,151.27405
"2542",79.78882,151.28741
"2543",80.816666,151.30072
"2544",81.7908,151.31409
"2545",82.58671,151.3274
"2546",83.13847,151.34076
"2547",83.455864,151.35406
"2548",83.597466,151.36743
"2549",83.631645,151.38074
"2550",83.62432,151.3941
"2551",83.61944,151.40741
"2552",83.631645,151.42078
"2553",83.65362,151.43408
"2554",83.67559,151.44745
"2555",83.67071,151.46075
"2556",83.614555,151.47412
"2557",83.48516,151.48743
"2558",83.27276,151.5008
"2559",82.98955,151.5141
"2560",82.65751,151.52747
"2561",82.31083,151.54077
"2562",81.991,151.55414
"2563",81.722435,151.56744
"2564",81.514915,151.58081
"2565",81.358665,151.59412
"2566",81.22682,151.60748
"2567",81.10475,151.62079
"2568",80.96315,151.63416
"2569",80.80202,151.64746
"2570",80.61158,151.66083
"2571",80.396736,151.67413
"2572",80.164795,151.6875
"2573",79.923096,151.7008
"2574",79.67895,151.71417
"2575",79.449455,151.72748
"2576",79.24193,151.74084
"2577",79.05638,151.75415
"2578",78.89281,151.76752
"2579",78.74387,151.78082
"2580",78.60227,151.79419
"2581",78.46555,151.8075
"2582",78.33372,151.82086
"2583",78.204315,151.83417
"2584",78.082245,151.84753
"2585",77.96506,151.86084
"2586",77.857635,151.8742
"2587",77.76242,151.88751
"2588",77.67452,151.90088
"2589",77.593956,151.91418
"2590",77.51827,151.92755
"2591",77.44747,151.94086
"2592",77.38155,151.95422
"2593",77.3254,151.96753
"2594",77.27657,151.9809
"2595",77.23506,151.9942
"2596",77.196,152.00757
"2597",77.15694,152.02087
"2598",77.117874,152.03424
"2599",77.08125,152.04755
"2600",77.05928,152.06091
"2601",77.09102,152.07422
"2602",77.242386,152.08759
"2603",77.593956,152.10089
"2604",78.19455,152.11426
"2605",79.02464,152.12756
"2606",79.99634,152.14093
"2607",80.972916,152.15424
"2608",81.812775,152.1676
"2609",82.425575,152.18091
"2610",82.794235,152.19427
"2611",82.97002,152.20758
"2612",83.02617,152.22095
"2613",83.02373,152.23425
"2614",83.01396,152.24762
"2615",83.018845,152.26093
"2616",83.04082,152.27429
"2617",83.06279,152.2876
"2618",83.06767,152.30096
"2619",83.038376,152.31427
"2620",82.948044,152.32764
"2621",82.78203,152.34094
"2622",82.54276,152.35431
"2623",82.2449,152.36761
"2624",81.917755,152.38098
"2625",81.59792,152.39429
"2626",81.30984,152.40765
"2627",81.077896,152.42096
"2628",80.89723,152.43433
"2629",80.75807,152.44763
"2630",80.64332,152.461
"2631",80.52613,152.4743
"2632",80.39918,152.48767
"2633",80.24292,152.50098
"2634",80.05493,152.51434
"2635",79.84741,152.52765
"2636",79.63012,152.54102
"2637",79.412834,152.55432
"2638",79.21263,152.56769
"2639",79.027084,152.581
"2640",78.86595,152.59436
"2641",78.71458,152.60767
"2642",78.572975,152.62103
"2643",78.44114,152.63434
"2644",78.31663,152.6477
"2645",78.19699,152.66101
"2646",78.08713,152.67438
"2647",77.98703,152.68768
"2648",77.89426,152.70105
"2649",77.803925,152.71436
"2650",77.71603,152.72772
"2651",77.63058,152.74103
"2652",77.54757,152.7544
"2653",77.47433,152.7677
"2654",77.40597,152.78107
"2655",77.34493,152.79437
"2656",77.296104,152.80774
"2657",77.25948,152.82104
"2658",77.22774,152.83441
"2659",77.20088,152.84772
"2660",77.18135,152.86108
"2661",77.16426,152.87439
"2662",77.14961,152.88776
"2663",77.137405,152.90106
"2664",77.12764,152.91443
"2665",77.13985,152.92773
"2666",77.2375,152.9411
"2667",77.49142,152.9544
"2668",77.97238,152.96777
"2669",78.69016,152.98108
"2670",79.58373,152.99445
"2671",80.52857,153.00775
"2672",81.3904,153.02112
"2673",82.04715,153.03442
"2674",82.459755,153.04779
"2675",82.650185,153.0611
"2676",82.69169,153.07446
"2677",82.65751,153.08777
"2678",82.60868,153.10114
"2679",82.579384,153.11444
"2680",82.581825,153.1278
"2681",82.598915,153.14111
"2682",82.61356,153.15448
"2683",82.60136,153.16779
"2684",82.53544,153.18115
"2685",82.408485,153.19446
"2686",82.21805,153.20782
"2687",81.971466,153.22113
"2688",81.685814,153.2345
"2689",81.40261,153.2478
"2690",81.146255,153.26117
"2691",80.936295,153.27448
"2692",80.782486,153.28784
"2693",80.67506,153.30115
"2694",80.58961,153.31451
"2695",80.50416,153.32782
"2696",80.40894,153.34119
"2697",80.291756,153.35449
"2698",80.15015,153.36786
"2699",79.98657,153.38116
"2700",79.81079,153.39453
"2701",79.63012,153.40784
"2702",79.4519,153.4212
"2703",79.28588,153.43451
"2704",79.13451,153.44788
"2705",78.99779,153.46118
"2706",78.86839,153.47455
"2707",78.74876,153.48785
"2708",78.63645,153.50122
"2709",78.53391,153.51453
"2710",78.4387,153.5279
"2711",78.35813,153.5412
"2712",78.28489,153.55457
"2713",78.21896,153.56787
"2714",78.15549,153.58124
"2715",78.09689,153.59454
"2716",78.04318,153.60791
"2717",77.994354,153.62122
"2718",77.943085,153.63458
"2719",77.891815,153.64789
"2720",77.823456,153.66125
"2721",77.73556,153.67456
"2722",77.63546,153.68793
"2723",77.53536,153.70123
"2724",77.44503,153.7146
"2725",77.38155,153.7279
"2726",77.34493,153.74127
"2727",77.330284,153.75458
"2728",77.3254,153.76794
"2729",77.315636,153.78125
"2730",77.30587,153.79462
"2731",77.30099,153.80792
"2732",77.330284,153.82129
"2733",77.46212,153.8346
"2734",77.78195,153.84796
"2735",78.33372,153.86127
"2736",79.11742,153.87463
"2737",80.05005,153.88794
"2738",81.00954,153.9013
"2739",81.846954,153.91461
"2740",82.46464,153.92798
"2741",82.8333,153.94128
"2742",82.99199,153.95465
"2743",83.004196,153.96796
"2744",82.9456,153.98132
"2745",82.8748,153.99463
"2746",82.82353,154.008
"2747",82.79912,154.0213
"2748",82.80156,154.03467
"2749",82.79912,154.04797
"2750",82.76738,154.06134
"2751",82.686806,154.07465
"2752",82.53788,154.08801
"2753",82.3328,154.10132
"2754",82.07889,154.11469
"2755",81.80301,154.12799
"2756",81.53689,154.14136
"2757",81.30251,154.15466
"2758",81.11452,154.16803
"2759",80.972916,154.18134
"2760",80.87526,154.1947
"2761",80.799576,154.20801
"2762",80.726326,154.22137
"2763",80.63355,154.23468
"2764",80.516365,154.24805
"2765",80.36988,154.26135
"2766",80.198975,154.27472
"2767",80.01343,154.28802
"2768",79.82788,154.30139
"2769",79.64965,154.3147
"2770",79.48608,154.32806
"2771",79.33227,154.34137
"2772",79.19554,154.35474
"2773",79.07103,154.36804
"2774",78.95628,154.38141
"2775",78.84886,154.39471
"2776",78.751205,154.40808
"2777",78.660866,154.42139
"2778",78.57542,154.43475
"2779",78.49729,154.44806
"2780",78.43137,154.46143
"2781",78.363014,154.47473
"2782",78.294655,154.4881
"2783",78.23117,154.5014
"2784",78.167694,154.51477
"2785",78.10666,154.52808
"2786",78.04318,154.54144
"2787",77.97482,154.55475
"2788",77.8967,154.56812
"2789",77.81613,154.58142
"2790",77.74044,154.59479
"2791",77.679405,154.6081
"2792",77.63546,154.62146
"2793",77.61593,154.63477
"2794",77.60128,154.64813
"2795",77.58663,154.66144
"2796",77.56466,154.6748
"2797",77.54269,154.68811
"2798",77.54269,154.70148
"2799",77.62325,154.71478
"2800",77.86496,154.72815
"2801",78.345924,154.74146
"2802",79.07103,154.75482
"2803",79.97925,154.76813
"2804",80.9485,154.7815
"2805",81.82498,154.7948
"2806",82.47929,154.80817
"2807",82.865036,154.82147
"2808",83.00664,154.83484
"2809",82.98222,154.84814
"2810",82.86992,154.86151
"2811",82.74296,154.87482
"2812",82.63798,154.88818
"2813",82.56962,154.90149
"2814",82.53544,154.91486
"2815",82.513466,154.92816
"2816",82.476845,154.94153
"2817",82.39628,154.95483
"2818",82.24979,154.9682
"2819",82.039825,154.9815
"2820",81.7908,154.99487
"2821",81.53445,155.00818
"2822",81.30984,155.02155
"2823",81.14137,155.03485
"2824",81.03151,155.04822
"2825",80.972916,155.06152
"2826",80.938736,155.07489
"2827",80.907,155.0882
"2828",80.86061,155.10156
"2829",80.782486,155.11487
"2830",80.67017,155.12823
"2831",80.52857,155.14154
"2832",80.36744,155.1549
"2833",80.201416,155.16821
"2834",80.0354,155.18158
"2835",79.87915,155.19489
"2836",79.73266,155.20825
"2837",79.60082,155.22156
"2838",79.48119,155.23492
"2839",79.37133,155.24823
"2840",79.276115,155.2616
"2841",79.19798,155.2749
"2842",79.12962,155.28827
"2843",79.06615,155.30157
"2844",79.00755,155.31494
"2845",78.94896,155.32825
"2846",78.88548,155.34161
"2847",78.819565,155.35492
"2848",78.75853,155.36829
"2849",78.695045,155.38159
"2850",78.63157,155.39496
"2851",78.56321,155.40826
"2852",78.49241,155.42163
"2853",78.42161,155.43494
"2854",78.348366,155.4483
"2855",78.26536,155.46161
"2856",78.1799,155.47498
"2857",78.116425,155.48828
"2858",78.1384,155.50165
"2859",78.331276,155.51495
"2860",78.75853,155.52832
"2861",79.429924,155.54163
"2862",80.27955,155.555
"2863",81.17311,155.5683
"2864",81.96658,155.58167
"2865",82.54276,155.59497
"2866",82.86015,155.60834
"2867",82.948044,155.62164
"2868",82.86748,155.63501
"2869",82.69901,155.64832
"2870",82.51591,155.66168
"2871",82.35233,155.67499
"2872",82.22781,155.68835
"2873",82.127716,155.70166
"2874",82.022736,155.71503
"2875",81.88602,155.72833
"2876",81.70779,155.7417
"2877",81.49294,155.755
"2878",81.270775,155.76837
"2879",81.06813,155.78168
"2880",80.91432,155.79504
"2881",80.81178,155.80835
"2882",80.76051,155.82172
"2883",80.73609,155.83502
"2884",80.72144,155.84839
"2885",80.70191,155.8617
"2886",80.65797,155.87506
"2887",80.58228,155.88837
"2888",80.47242,155.90173
"2889",80.3357,155.91504
"2890",80.181885,155.9284
"2891",80.01831,155.94171
"2892",79.852295,155.95508
"2893",79.69848,155.96838
"2894",79.56176,155.98175
"2895",79.44457,155.99506
"2896",79.34936,156.00842
"2897",79.27123,156.02173
"2898",79.20775,156.0351
"2899",79.14671,156.0484
"2900",79.08568,156.06177
"2901",79.0222,156.07507
"2902",78.96361,156.08844
"2903",78.905014,156.10175
"2904",78.853745,156.11511
"2905",78.80492,156.12842
"2906",78.751205,156.14178
"2907",78.695045,156.15509
"2908",78.63889,156.16846
"2909",78.57786,156.18176
"2910",78.52659,156.19513
"2911",78.51438,156.20844
"2912",78.60227,156.2218
"2913",78.86351,156.2351
"2914",79.34936,156.24847
"2915",80.05249,156.26178
"2916",80.907,156.27515
"2917",81.79324,156.28845
"2918",82.562294,156.30182
"2919",83.11406,156.31512
"2920",83.41436,156.32849
"2921",83.49493,156.3418
"2922",83.421684,156.35516
"2923",83.27032,156.36847
"2924",83.09941,156.38184
"2925",82.950485,156.39514
"2926",82.84062,156.40851
"2927",82.75273,156.42181
"2928",82.66483,156.43518
"2929",82.55253,156.44849
"2930",82.39384,156.46185
"2931",82.18631,156.47516
"2932",81.93973,156.48853
"2933",81.685814,156.50183
"2934",81.45632,156.5152
"2935",81.27566,156.5285
"2936",81.13893,156.54187
"2937",81.04616,156.55518
"2938",80.972916,156.56854
"2939",80.902115,156.58185
"2940",80.81178,156.59521
"2941",80.69703,156.60852
"2942",80.54566,156.62189
"2943",80.365,156.6352
"2944",80.164795,156.64856
"2945",79.957275,156.66187
"2946",79.75464,156.67523
"2947",79.56664,156.68854
"2948",79.398186,156.7019
"2949",79.2517,156.71521
"2950",79.1223,156.72858
"2951",79.00511,156.74188
"2952",78.90013,156.75525
"2953",78.802475,156.76855
"2954",78.709694,156.78192
"2955",78.626686,156.79523
"2956",78.54612,156.8086
"2957",78.470436,156.8219
"2958",78.39231,156.83527
"2959",78.31663,156.84857
"2960",78.23361,156.86194
"2961",78.15549,156.87524
"2962",78.099335,156.88861
"2963",78.10666,156.90192
"2964",78.25559,156.91528
"2965",78.61936,156.92859
"2966",79.219955,156.94196
"2967",80.02319,156.95526
"2968",80.92897,156.96863
"2969",81.7908,156.98193
"2970",82.48661,156.9953
"2971",82.948044,157.0086
"2972",83.18486,157.02197
"2973",83.243454,157.03528
"2974",83.19951,157.04865
"2975",83.11894,157.06195
"2976",83.04326,157.07532
"2977",82.98955,157.08862
"2978",82.95781,157.10199
"2979",82.930954,157.1153
"2980",82.88945,157.12866
"2981",82.80888,157.14197
"2982",82.67216,157.15533
"2983",82.47196,157.16864
"2984",82.210724,157.182
"2985",81.91287,157.19531
"2986",81.60525,157.20868
"2987",81.322044,157.22198
"2988",81.08278,157.23535
"2989",80.90456,157.24866
"2990",80.77516,157.26202
"2991",80.6775,157.27533
"2992",80.584724,157.2887
"2993",80.4773,157.302
"2994",80.343025,157.31537
"2995",80.17944,157.32867
"2996",79.98657,157.34204
"2997",79.78638,157.35535
"2998",79.57885,157.36871
"2999",79.378654,157.38202
"3000",79.19066,157.39539
"3001",79.01488,157.40869
"3002",78.856186,157.42206
"3003",78.712135,157.43536
"3004",78.58518,157.44873
"3005",78.46311,157.46204
"3006",78.348366,157.4754
"3007",78.238495,157.48871
"3008",78.135956,157.50208
"3009",78.04562,157.51538
"3010",77.96506,157.52875
"3011",77.89426,157.54205
"3012",77.82834,157.55542
"3013",77.75754,157.56873
"3014",77.68673,157.58209
"3015",77.61837,157.5954
"3016",77.58175,157.60876
"3017",77.63546,157.62207
"3018",77.86496,157.63544
"3019",78.32395,157.64874
"3020",79.01976,157.66211
"3021",79.88159,157.67542
"3022",80.79469,157.68878
"3023",81.61257,157.70209
"3024",82.230255,157.71545
"3025",82.61356,157.72876
"3026",82.794235,157.74213
"3027",82.8333,157.75543
"3028",82.80156,157.7688
"3029",82.74784,157.7821
"3030",82.703896,157.79547
"3031",82.67948,157.80878
"3032",82.667274,157.82214
"3033",82.64774,157.83545
"3034",82.60136,157.84882
"3035",82.511024,157.86212
"3036",82.354774,157.87549
"3037",82.13016,157.8888
"3038",81.84207,157.90216
"3039",81.51003,157.91547
"3040",81.17311,157.92883
"3041",80.85817,157.94214
"3042",80.59205,157.9555
"3043",80.38697,157.96881
"3044",80.23071,157.98218
"3045",80.10376,157.99548
"3046",79.98901,158.00885
"3047",79.86694,158.02216
"3048",79.72289,158.03552
"3049",79.55688,158.04883
"3050",79.364006,158.0622
"3051",79.15892,158.0755
"3052",78.94652,158.08887
"3053",78.746315,158.10217
"3054",78.555885,158.11554
"3055",78.380104,158.12885
"3056",78.22629,158.14221
"3057",78.08713,158.15552
"3058",77.95773,158.16888
"3059",77.838104,158.18219
"3060",77.730675,158.19556
"3061",77.625694,158.20886
"3062",77.523155,158.22223
"3063",77.4255,158.23553
"3064",77.33517,158.2489
"3065",77.24971,158.2622
"3066",77.1667,158.27557
"3067",77.09834,158.28888
"3068",77.03975,158.30225
"3069",76.99092,158.31555
"3070",76.946976,158.32892
"3071",76.912796,158.34222
"3072",76.87862,158.35559
"3073",76.83711,158.3689
"3074",76.788284,158.38226
"3075",76.749214,158.39557
"3076",76.76631,158.40894
"3077",76.910355,158.42224
"3078",77.25704,158.43561
"3079",77.83322,158.44891
"3080",78.607155,158.46228
"3081",79.47387,158.47559
"3082",80.29664,158.48895
"3083",80.96071,158.50226
"3084",81.40017,158.51562
"3085",81.62234,158.52893
"3086",81.68337,158.5423
"3087",81.65896,158.5556
"3088",81.60769,158.56897
"3089",81.56374,158.58228
"3090",81.54421,158.59564
"3091",81.53933,158.60895
"3092",81.53445,158.62231
"3093",81.50515,158.63562
"3094",81.43923,158.64899
"3095",81.31716,158.6623
"3096",81.14137,158.67566
"3097",80.91432,158.68896
"3098",80.64332,158.70233
"3099",80.36256,158.71564
"3100",80.096436,158.729
"3101",79.871826,158.74231
"3102",79.70092,158.75568
"3103",79.57885,158.76898
"3104",79.49828,158.78235
"3105",79.432365,158.79565
"3106",79.36645,158.80902
"3107",79.28588,158.82233
"3108",79.18089,158.8357
"3109",79.05394,158.849
"3110",78.91234,158.86237
"3111",78.76097,158.87567
"3112",78.61204,158.88904
"3113",78.467995,158.90234
"3114",78.328835,158.91571
"3115",78.204315,158.92902
"3116",78.09201,158.94238
"3117",77.99191,158.95569
"3118",77.908905,158.96906
"3119",77.83566,158.98236
"3120",77.769745,158.99573
"3121",77.71114,159.00903
"3122",77.65499,159.0224
"3123",77.60372,159.0357
"3124",77.557335,159.04907
"3125",77.50851,159.06238
"3126",77.46212,159.07574
"3127",77.418175,159.08905
"3128",77.37423,159.10242
"3129",77.332726,159.11572
"3130",77.30099,159.12909
"3131",77.279015,159.1424
"3132",77.264366,159.15576
"3133",77.25216,159.16907
"3134",77.242386,159.18243
"3135",77.23506,159.19574
"3136",77.23262,159.2091
"3137",77.23018,159.22241
"3138",77.225296,159.23578
"3139",77.21553,159.24908
"3140",77.19356,159.26245
"3141",77.16914,159.27576
"3142",77.17647,159.28912
"3143",77.28634,159.30243
"3144",77.576866,159.3158
"3145",78.09445,159.3291
"3146",78.81468,159.34247
"3147",79.64965,159.35577
"3148",80.47486,159.36914
"3149",81.15358,159.38245
"3150",81.60525,159.39581
"3151",81.82254,159.40912
"3152",81.8616,159.42249
"3153",81.78836,159.43579
"3154",81.67605,159.44916
"3155",81.57351,159.46246
"3156",81.50271,159.47583
"3157",81.463646,159.48914
"3158",81.449,159.5025
"3159",81.43679,159.51581
"3160",81.409935,159.52917
"3161",81.34646,159.54248
"3162",81.23659,159.55585
"3163",81.077896,159.56915
"3164",80.8777,159.58252
"3165",80.65797,159.59583
"3166",80.448006,159.60919
"3167",80.272224,159.6225
"3168",80.14038,159.63586
"3169",80.05249,159.64917
"3170",79.99878,159.66254
"3171",79.957275,159.67584
"3172",79.91089,159.68921
"3173",79.84985,159.70251
"3174",79.77661,159.71588
"3175",79.68871,159.72919
"3176",79.58373,159.74255
"3177",79.46899,159.75586
"3178",79.35424,159.76923
"3179",79.23949,159.78253
"3180",79.132065,159.7959
"3181",79.03441,159.8092
"3182",78.95384,159.82257
"3183",78.8806,159.83588
"3184",78.819565,159.84924
"3185",78.768295,159.86255
"3186",78.72678,159.87592
"3187",78.68772,159.88922
"3188",78.6511,159.90259
"3189",78.61204,159.9159
"3190",78.572975,159.92926
"3191",78.53147,159.94257
"3192",78.487526,159.95593
"3193",78.44602,159.96924
"3194",78.40208,159.9826
"3195",78.36057,159.99591
"3196",78.32639,160.00928
"3197",78.2971,160.02258
"3198",78.27512,160.03595
"3199",78.25559,160.04926
"3200",78.238495,160.06262
"3201",78.21896,160.07593
"3202",78.20187,160.0893
"3203",78.187225,160.1026
"3204",78.18234,160.11597
"3205",78.18234,160.12927
"3206",78.187225,160.14264
"3207",78.18967,160.15594
"3208",78.18967,160.16931
"3209",78.18234,160.18262
"3210",78.17502,160.19598
"3211",78.17502,160.20929
"3212",78.2092,160.22266
"3213",78.34348,160.23596
"3214",78.64622,160.24933
"3215",79.15404,160.26263
"3216",79.84497,160.276
"3217",80.6482,160.2893
"3218",81.43191,160.30267
"3219",82.06912,160.31598
"3220",82.47929,160.32935
"3221",82.65751,160.34265
"3222",82.64042,160.35602
"3223",82.50614,160.36932
"3224",82.32548,160.38269
"3225",82.15213,160.396
"3226",82.01297,160.40936
"3227",81.92752,160.42267
"3228",81.87869,160.43604
"3229",81.846954,160.44934
"3230",81.80545,160.4627
"3231",81.73464,160.47601
"3232",81.617455,160.48938
"3233",81.45144,160.50269
"3234",81.25613,160.51605
"3235",81.04616,160.52936
"3236",80.85329,160.54272
"3237",80.69947,160.55603
"3238",80.59205,160.5694
"3239",80.52613,160.5827
"3240",80.48707,160.59607
"3241",80.45533,160.60938
"3242",80.41627,160.62274
"3243",80.36256,160.63605
"3244",80.289314,160.64941
"3245",80.198975,160.66272
"3246",80.096436,160.67609
"3247",79.98413,160.68939
"3248",79.87915,160.70276
"3249",79.781494,160.71606
"3250",79.69604,160.72943
"3251",79.622795,160.74274
"3252",79.554436,160.7561
"3253",79.48852,160.76941
"3254",79.429924,160.78278
"3255",79.37621,160.79608
"3256",79.327385,160.80945
"3257",79.281,160.82275
"3258",79.22484,160.83612
"3259",79.16136,160.84943
"3260",79.09544,160.8628
"3261",79.029526,160.8761
"3262",78.975815,160.88947
"3263",78.93431,160.90277
"3264",78.90013,160.91614
"3265",78.87816,160.92944
"3266",78.85863,160.94281
"3267",78.839096,160.95612
"3268",78.82201,160.96948
"3269",78.80736,160.98279
"3270",78.79515,160.99615
"3271",78.78294,161.00946
"3272",78.77806,161.02283
"3273",78.77318,161.03613
"3274",78.768295,161.0495
"3275",78.76097,161.0628
"3276",78.75365,161.07617
"3277",78.74876,161.08948
"3278",78.74876,161.10284
"3279",78.75609,161.11615
"3280",78.76097,161.12952
"3281",78.75609,161.14282
"3282",78.75365,161.15619
"3283",78.78294,161.1695
"3284",78.90013,161.18286
"3285",79.17601,161.19617
"3286",79.656975,161.20953
"3287",80.32105,161.22284
"3288",81.08278,161.2362
"3289",81.82498,161.24951
"3290",82.42802,161.26288
"3291",82.80644,161.27618
"3292",82.96269,161.28955
"3293",82.93584,161.30286
"3294",82.79668,161.31622
"3295",82.61356,161.32953
"3296",82.43778,161.3429
"3297",82.29618,161.3562
"3298",82.19119,161.36957
"3299",82.12283,161.38287
"3300",82.07156,161.39624
"3301",82.01053,161.40955
"3302",81.92996,161.42291
"3303",81.812775,161.43622
"3304",81.65652,161.44958
"3305",81.47097,161.46289
"3306",81.28054,161.47626
"3307",81.10231,161.48956
"3308",80.955826,161.50293
"3309",80.848404,161.51624
"3310",80.782486,161.5296
"3311",80.740974,161.54291
"3312",80.71412,161.55627
"3313",80.68482,161.56958
"3314",80.64088,161.58295
"3315",80.57496,161.59625
"3316",80.48951,161.60962
"3317",80.38697,161.62292
"3318",80.274666,161.63629
"3319",80.15991,161.6496
"3320",80.05249,161.66296
"3321",79.957275,161.67627
"3322",79.869385,161.68964
"3323",79.79614,161.70294
"3324",79.7351,161.71631
"3325",79.67895,161.72961
"3326",79.62524,161.74298
"3327",79.57641,161.75629
"3328",79.53246,161.76965
"3329",79.4934,161.78296
"3330",79.46166,161.79633
"3331",79.432365,161.80963
"3332",79.40551,161.823
"3333",79.37621,161.8363
"3334",79.34692,161.84967
"3335",79.31274,161.86298
"3336",79.276115,161.87634
"3337",79.22728,161.88965
"3338",79.17357,161.90302
"3339",79.114975,161.91632
"3340",79.061264,161.92969
"3341",79.009995,161.943
"3342",78.96849,161.95636
"3343",78.941635,161.96967
"3344",78.91966,161.98303
"3345",78.907455,161.99634
"3346",78.905014,162.0097
"3347",78.91234,162.02301
"3348",78.922104,162.03638
"3349",78.92943,162.04968
"3350",78.92943,162.06305
"3351",78.924545,162.07635
"3352",78.91478,162.08972
"3353",78.91966,162.10303
"3354",78.98314,162.1164
"3355",79.17357,162.1297
"3356",79.54467,162.14307
"3357",80.1062,162.15637
"3358",80.8069,162.16974
"3359",81.549095,162.18304
"3360",82.210724,162.19641
"3361",82.684364,162.20972
"3362",82.94072,162.22308
"3363",82.99931,162.23639
"3364",82.91875,162.24976
"3365",82.7625,162.26306
"3366",82.59159,162.27643
"3367",82.44022,162.28973
"3368",82.32548,162.3031
"3369",82.24979,162.3164
"3370",82.19852,162.32977
"3371",82.15457,162.34308
"3372",82.09354,162.35645
"3373",82.00076,162.36975
"3374",81.8616,162.38312
"3375",81.688255,162.39642
"3376",81.50271,162.40979
"3377",81.322044,162.4231
"3378",81.17555,162.43646
"3379",81.07301,162.44977
"3380",81.00954,162.46313
"3381",80.96803,162.47644
"3382",80.93385,162.4898
"3383",80.89479,162.50311
"3384",80.84108,162.51648
"3385",80.77028,162.52979
"3386",80.67994,162.54315
"3387",80.57496,162.55646
"3388",80.45533,162.56982
"3389",80.33082,162.58313
"3390",80.21118,162.5965
"3391",80.10376,162.6098
"3392",80.01587,162.62317
"3393",79.940186,162.63647
"3394",79.87427,162.64984
"3395",79.81079,162.66315
"3396",79.7522,162.67651
"3397",79.691154,162.68982
"3398",79.63744,162.70319
"3399",79.58373,162.71649
"3400",79.537346,162.72986
"3401",79.48852,162.74316
"3402",79.43725,162.75653
"3403",79.38354,162.76984
"3404",79.33471,162.7832
"3405",79.290764,162.79651
"3406",79.2517,162.80988
"3407",79.217514,162.82318
"3408",79.18822,162.83655
"3409",79.16136,162.84985
"3410",79.13451,162.86322
"3411",79.11009,162.87653
"3412",79.08812,162.8899
"3413",79.07103,162.9032
"3414",79.05638,162.91656
"3415",79.04173,162.92987
"3416",79.027084,162.94324
"3417",79.012436,162.95654
"3418",79.00023,162.96991
"3419",78.97826,162.98322
"3420",78.94408,162.99658
"3421",78.90013,163.00989
"3422",78.873276,163.02325
"3423",78.905014,163.03656
"3424",79.07103,163.04993
"3425",79.4226,163.06323
"3426",79.96704,163.0766
"3427",80.65308,163.0899
"3428",81.38064,163.10327
"3429",82.039825,163.11658
"3430",82.528114,163.12994
"3431",82.79912,163.14325
"3432",82.87724,163.15662
"3433",82.81377,163.16992
"3434",82.667274,163.18329
"3435",82.50614,163.1966
"3436",82.36942,163.20996
"3437",82.27665,163.22327
"3438",82.22781,163.23663
"3439",82.2034,163.24994
"3440",82.178986,163.2633
"3441",82.13016,163.27661
"3442",82.037384,163.28998
"3443",81.89334,163.30328
"3444",81.71267,163.31665
"3445",81.52468,163.32996
"3446",81.35134,163.34332
"3447",81.21706,163.35663
"3448",81.12428,163.37
"3449",81.07301,163.3833
"3450",81.03883,163.39667
"3451",81.007095,163.40997
"3452",80.96559,163.42334
"3453",80.90944,163.43665
"3454",80.831314,163.45001
"3455",80.73121,163.46332
"3456",80.621346,163.47668
"3457",80.5066,163.48999
"3458",80.394295,163.50336
"3459",80.27955,163.51666
"3460",80.17944,163.53003
"3461",80.08911,163.54333
"3462",80.00366,163.5567
"3463",79.93042,163.57
"3464",79.869385,163.58337
"3465",79.815674,163.59668
"3466",79.76196,163.61005
"3467",79.710686,163.62335
"3468",79.65942,163.63672
"3469",79.605705,163.65002
"3470",79.554436,163.66339
"3471",79.50805,163.6767
"3472",79.46166,163.69006
"3473",79.42016,163.70337
"3474",79.381096,163.71674
"3475",79.344475,163.73004
"3476",79.310295,163.74341
"3477",79.27856,163.75671
"3478",79.24193,163.77008
"3479",79.21019,163.78339
"3480",79.17601,163.79675
"3481",79.13939,163.81006
"3482",79.10033,163.82343
"3483",79.06859,163.83673
"3484",79.06615,163.8501
"3485",79.14427,163.8634
"3486",79.35912,163.87677
"3487",79.74731,163.89008
"3488",80.30152,163.90344
"3489",80.96071,163.91675
"3490",81.62966,163.93011
"3491",82.19852,163.94342
"3492",82.598915,163.95679
"3493",82.811325,163.9701
"3494",82.865036,163.98346
"3495",82.811325,163.99677
"3496",82.71366,164.01013
"3497",82.61845,164.02344
"3498",82.55497,164.0368
"3499",82.52079,164.05011
"3500",82.511024,164.06348
"3501",82.50126,164.07678
"3502",82.46464,164.09015
"3503",82.38163,164.10345
"3504",82.252235,164.11682
"3505",82.08133,164.13013
"3506",81.89334,164.1435
"3507",81.71511,164.1568
"3508",81.56374,164.17017
"3509",81.45144,164.18347
"3510",81.37087,164.19684
"3511",81.31472,164.21014
"3512",81.26101,164.22351
"3513",81.20241,164.23682
"3514",81.12428,164.25018
"3515",81.024185,164.26349
"3516",80.90456,164.27686
"3517",80.77272,164.29016
"3518",80.63355,164.30353
"3519",80.48951,164.31683
"3520",80.35767,164.3302
"3521",80.23804,164.3435
"3522",80.128174,164.35687
"3523",80.03052,164.37018
"3524",79.94263,164.38354
"3525",79.852295,164.39685
"3526",79.764404,164.41022
"3527",79.68139,164.42352
"3528",79.60082,164.43689
"3529",79.52758,164.4502
"3530",79.45922,164.46356
"3531",79.395744,164.47687
"3532",79.32983,164.49023
"3533",79.26635,164.50354
"3534",79.202866,164.5169
"3535",79.14183,164.53021
"3536",79.08568,164.54358
"3537",79.03441,164.55688
"3538",78.9807,164.57025
"3539",78.922104,164.58356
"3540",78.86351,164.59692
"3541",78.802475,164.61023
"3542",78.74876,164.6236
"3543",78.73899,164.6369
"3544",78.82445,164.65027
"3545",79.06615,164.66357
"3546",79.49828,164.67694
"3547",80.10376,164.69025
"3548",80.816666,164.70361
"3549",81.53445,164.71692
"3550",82.144806,164.73029
"3551",82.58427,164.74359
"3552",82.84062,164.75696
"3553",82.948044,164.77026
"3554",82.967575,164.78363
"3555",82.95537,164.79694
"3556",82.948044,164.8103
"3557",82.96025,164.82361
"3558",82.99931,164.83698
"3559",83.05058,164.85028
"3560",83.09453,164.86365
"3561",83.11162,164.87695
"3562",83.07744,164.89032
"3563",82.97734,164.90363
"3564",82.81377,164.91699
"3565",82.598915,164.9303
"3566",82.354774,164.94366
"3567",82.11795,164.95697
"3568",81.91287,164.97034
"3569",81.75418,164.98364
"3570",81.62966,164.99701
"3571",81.53445,165.01031
"3572",81.449,165.02368
"3573",81.35378,165.03699
"3574",81.234146,165.05035
"3575",81.0901,165.06366
"3576",80.92653,165.07703
"3577",80.75319,165.09033
"3578",80.57252,165.1037
"3579",80.38941,165.117
"3580",80.216064,165.13037
"3581",80.05493,165.14368
"3582",79.906006,165.15704
"3583",79.75952,165.17035
"3584",79.62035,165.18372
"3585",79.48852,165.19702
"3586",79.35668,165.21039
"3587",79.23216,165.2237
"3588",79.114975,165.23706
"3589",79.012436,165.25037
"3590",78.91234,165.26373
"3591",78.81468,165.27704
"3592",78.71702,165.2904
"3593",78.6218,165.30371
"3594",78.52903,165.31708
"3595",78.43626,165.33038
"3596",78.35325,165.34375
"3597",78.28001,165.35706
"3598",78.21652,165.37042
"3599",78.15793,165.38373
"3600",78.101776,165.3971
"3601",78.04562,165.4104
"3602",77.98703,165.42377
"3603",77.92844,165.43707
"3604",77.874725,165.45044
"3605",77.86008,165.46375
"3606",77.93088,165.47711
"3607",78.153046,165.49042
"3608",78.572975,165.50378
"3609",79.18822,165.51709
"3610",79.94751,165.53046
"3611",80.743416,165.54376
"3612",81.47097,165.55713
"3613",82.04227,165.57043
"3614",82.42802,165.5838
"3615",82.65507,165.5971
"3616",82.774704,165.61047
"3617",82.845505,165.62378
"3618",82.913864,165.63715
"3619",82.99687,165.65045
"3620",83.089645,165.66382
"3621",83.1873,165.67712
"3622",83.267876,165.69049
"3623",83.31182,165.7038
"3624",83.302055,165.71716
"3625",83.21904,165.73047
"3626",83.06523,165.74384
"3627",82.84306,165.75714
"3628",82.5745,165.77051
"3629",82.29618,165.78381
"3630",82.037384,165.79718
"3631",81.8201,165.81049
"3632",81.64919,165.82385
"3633",81.51736,165.83716
"3634",81.40261,165.85052
"3635",81.287865,165.86383
"3636",81.15358,165.8772
"3637",80.990005,165.8905
"3638",80.797134,165.90387
"3639",80.58228,165.91718
"3640",80.35767,165.93054
"3641",80.130615,165.94385
"3642",79.91333,165.95721
"3643",79.7058,165.97052
"3644",79.51049,165.98389
"3645",79.32983,165.9972
"3646",79.15892,166.01056
"3647",79.00267,166.02386
"3648",78.856186,166.03723
"3649",78.712135,166.05054
"3650",78.57542,166.0639
"3651",78.44358,166.07721
"3652",78.31663,166.09058
"3653",78.19455,166.10388
"3654",78.07736,166.11725
"3655",77.962616,166.13055
"3656",77.85275,166.14392
"3657",77.747765,166.15723
"3658",77.64767,166.1706
"3659",77.55245,166.1839
"3660",77.467,166.19727
"3661",77.38888,166.21057
"3662",77.313194,166.22394
"3663",77.239944,166.23724
"3664",77.17403,166.25061
"3665",77.11299,166.26392
"3666",77.06172,166.27728
"3667",77.01778,166.29059
"3668",76.9836,166.30396
"3669",76.9543,166.31726
"3670",76.927444,166.33063
"3671",76.90303,166.34393
"3672",76.876175,166.3573
"3673",76.85176,166.3706
"3674",76.82979,166.38397
"3675",76.83711,166.39728
"3676",76.92256,166.41064
"3677",77.15938,166.42395
"3678",77.59884,166.43732
"3679",78.25803,166.45062
"3680",79.08812,166.46399
"3681",79.991455,166.4773
"3682",80.83864,166.49066
"3683",81.529564,166.50397
"3684",82.020294,166.51733
"3685",82.32304,166.53064
"3686",82.493935,166.544
"3687",82.598915,166.55731
"3688",82.68925,166.57068
"3689",82.791794,166.58398
"3690",82.916306,166.59735
"3691",83.038376,166.61066
"3692",83.1458,166.62402
"3693",83.2166,166.63733
"3694",83.23125,166.6507
"3695",83.175095,166.664
"3696",83.04082,166.67737
"3697",82.8333,166.69067
"3698",82.579384,166.70404
"3699",82.30595,166.71735
"3700",82.04227,166.73071
"3701",81.812775,166.74402
"3702",81.62966,166.75739
"3703",81.48318,166.77069
"3704",81.356224,166.78406
"3705",81.22926,166.79736
"3706",81.0901,166.81073
"3707",80.93141,166.82404
"3708",80.74586,166.8374
"3709",80.54078,166.85071
"3710",80.323494,166.86407
"3711",80.10132,166.87738
"3712",79.87671,166.89075
"3713",79.66186,166.90405
"3714",79.4519,166.91742
"3715",79.2517,166.93073
"3716",79.063705,166.94409
"3717",78.887924,166.9574
"3718",78.72678,166.97076
"3719",78.57786,166.98407
"3720",78.4387,166.99744
"3721",78.3093,167.01074
"3722",78.187225,167.02411
"3723",78.065155,167.03741
"3724",77.94797,167.05078
"3725",77.83322,167.06409
"3726",77.72335,167.07745
"3727",77.61837,167.09076
"3728",77.5256,167.10413
"3729",77.435265,167.11743
"3730",77.35226,167.1308
"3731",77.27413,167.1441
"3732",77.19844,167.15747
"3733",77.12764,167.17078
"3734",77.06416,167.18414
"3735",77.01045,167.19745
"3736",76.964066,167.21082
"3737",76.925,167.22412
"3738",76.89082,167.23749
"3739",76.86153,167.2508
"3740",76.841995,167.26416
"3741",76.822464,167.27747
"3742",76.807816,167.29083
"3743",76.79317,167.30414
"3744",76.78096,167.3175
"3745",76.79805,167.33081
"3746",76.910355,167.34418
"3747",77.18623,167.35748
"3748",77.68185,167.37085
"3749",78.397194,167.38416
"3750",79.27123,167.39752
"3751",80.19409,167.41083
"3752",81.03639,167.4242
"3753",81.705345,167.4375
"3754",82.16922,167.45087
"3755",82.45243,167.46417
"3756",82.61112,167.47754
"3757",82.70634,167.49084
"3758",82.78203,167.50421
"3759",82.86992,167.51752
"3760",82.9749,167.53088
"3761",83.08476,167.54419
"3762",83.17998,167.55756
"3763",83.243454,167.57086
"3764",83.25323,167.58423
"3765",83.1873,167.59753
"3766",83.0457,167.6109
"3767",82.83818,167.6242
"3768",82.58915,167.63757
"3769",82.32304,167.65088
"3770",82.074005,167.66425
"3771",81.864044,167.67755
"3772",81.6907,167.69092
"3773",81.54665,167.70422
"3774",81.4197,167.71759
"3775",81.29275,167.7309
"3776",81.1487,167.74426
"3777",80.98268,167.75757
"3778",80.79469,167.77094
"3779",80.587166,167.78424
"3780",80.36256,167.7976
"3781",80.13306,167.81091
"3782",79.906006,167.82428
"3783",79.68627,167.83759
"3784",79.48119,167.85095
"3785",79.29565,167.86426
"3786",79.1223,167.87762
"3787",78.958725,167.89093
"3788",78.80736,167.9043
"3789",78.660866,167.9176
"3790",78.519264,167.93097
"3791",78.382545,167.94427
"3792",78.25315,167.95764
"3793",78.12863,167.97095
"3794",78.013885,167.98431
"3795",77.90158,167.99762
"3796",77.79416,168.01099
"3797",77.69405,168.02429
"3798",77.5964,168.03766
"3799",77.50118,168.05096
"3800",77.41329,168.06433
"3801",77.332726,168.07764
"3802",77.25704,168.091
"3803",77.188675,168.10431
"3804",77.12764,168.11768
"3805",77.07637,168.13098
"3806",77.032425,168.14435
"3807",76.995804,168.15765
"3808",76.964066,168.17102
"3809",76.93965,168.18433
"3810",76.91768,168.1977
"3811",76.893265,168.211
"3812",76.86641,168.22437
"3813",76.839554,168.23767
"3814",76.822464,168.25104
"3815",76.84444,168.26434
"3816",76.978714,168.27771
"3817",77.296104,168.29102
"3818",77.840546,168.30438
"3819",78.60227,168.31769
"3820",79.50561,168.33105
"3821",80.445564,168.34436
"3822",81.28542,168.35773
"3823",81.94461,168.37103
"3824",82.391396,168.3844
"3825",82.652626,168.3977
"3826",82.77959,168.41107
"3827",82.83574,168.42438
"3828",82.86748,168.43774
"3829",82.91142,168.45105
"3830",82.97246,168.46442
"3831",83.05058,168.47772
"3832",83.12871,168.49109
"3833",83.18242,168.5044
"3834",83.18242,168.51776
"3835",83.11162,168.53107
"3836",82.96025,168.54443
"3837",82.74296,168.55774
"3838",82.48173,168.5711
"3839",82.213165,168.58441
"3840",81.97391,168.59778
"3841",81.77615,168.61108
"3842",81.62234,168.62445
"3843",81.495384,168.63776
"3844",81.3782,168.65112
"3845",81.253685,168.66443
"3846",81.112076,168.6778
"3847",80.94606,168.6911
"3848",80.75319,168.70447
"3849",80.54078,168.71777
"3850",80.31373,168.73114
"3851",80.08423,168.74445
"3852",79.85718,168.75781
"3853",79.64233,168.77112
"3854",79.44457,168.78448
"3855",79.259026,168.79779
"3856",79.08324,168.81116
"3857",78.91966,168.82446
"3858",78.76341,168.83783
"3859",78.61204,168.85114
"3860",78.470436,168.8645
"3861",78.34348,168.8778
"3862",78.22629,168.89117
"3863",78.118866,168.90448
"3864",78.01633,168.91785
"3865",77.91135,168.93115
"3866",77.806366,168.94452
"3867",77.70382,168.95782
"3868",77.611046,168.97119
"3869",77.52804,168.9845
"3870",77.45968,168.99786
"3871",77.39864,169.01117
"3872",77.34493,169.02454
"3873",77.298546,169.03784
"3874",77.261925,169.05121
"3875",77.23018,169.06451
"3876",77.20332,169.07788
"3877",77.18379,169.09119
"3878",77.16182,169.10455
"3879",77.137405,169.11786
"3880",77.10567,169.13123
"3881",77.09102,169.14453
"3882",77.137405,169.1579
"3883",77.30343,169.1712
"3884",77.66476,169.18457
"3885",78.25559,169.19788
"3886",79.05394,169.21124
"3887",79.974365,169.22455
"3888",80.89479,169.23792
"3889",81.69314,169.25122
"3890",82.286415,169.26459
"3891",82.65995,169.2779
"3892",82.84306,169.29126
"3893",82.90166,169.30457
"3894",82.896774,169.31793
"3895",82.879684,169.33124
"3896",82.87724,169.3446
"3897",82.90166,169.35791
"3898",82.93584,169.37128
"3899",82.96513,169.38458
"3900",82.96025,169.39795
"3901",82.89189,169.41125
"3902",82.75273,169.42462
"3903",82.55009,169.43793
"3904",82.30839,169.4513
"3905",82.06668,169.4646
"3906",81.85184,169.47797
"3907",81.688255,169.49127
"3908",81.57107,169.50464
"3909",81.480736,169.51794
"3910",81.3904,169.53131
"3911",81.290306,169.54462
"3912",81.16579,169.55798
"3913",81.01686,169.57129
"3914",80.84108,169.58466
"3915",80.6482,169.59796
"3916",80.43336,169.61133
"3917",80.21362,169.62463
"3918",79.9939,169.638
"3919",79.78882,169.6513
"3920",79.605705,169.66467
"3921",79.44213,169.67798
"3922",79.290764,169.69135
"3923",79.149155,169.70465
"3924",79.012436,169.71802
"3925",78.87572,169.73132
"3926",78.73899,169.74469
"3927",78.6096,169.758
"3928",78.487526,169.77136
"3929",78.37278,169.78467
"3930",78.27024,169.79803
"3931",78.17746,169.81134
"3932",78.09201,169.8247
"3933",78.00656,169.83801
"3934",77.92844,169.85138
"3935",77.855194,169.86469
"3936",77.79172,169.87805
"3937",77.73556,169.89136
"3938",77.68917,169.90472
"3939",77.64767,169.91803
"3940",77.611046,169.9314
"3941",77.57931,169.9447
"3942",77.54757,169.95807
"3943",77.51339,169.97137
"3944",77.48165,169.98474
"3945",77.467,169.99805
"3946",77.5256,170.01141
"3947",77.730675,170.02472
"3948",78.153046,170.03809
"3949",78.82201,170.05139
"3950",79.708244,170.06476
"3951",80.71412,170.07806
"3952",81.71267,170.09143
"3953",82.58671,170.10474
"3954",83.26055,170.1181
"3955",83.72198,170.13141
"3956",84.00519,170.14478
"3957",84.16632,170.15808
"3958",84.26154,170.17145
"3959",84.332344,170.18475
"3960",84.41047,170.19812
"3961",84.49836,170.21143
"3962",84.593575,170.2248
"3963",84.6717,170.2381
"3964",84.70832,170.25146
"3965",84.67902,170.26477
"3966",84.56184,170.27814
"3967",84.35676,170.29144
"3968",84.07843,170.30481
"3969",83.76593,170.31812
"3970",83.45342,170.33148
"3971",83.177536,170.34479
"3972",82.950485,170.35815
"3973",82.7625,170.37146
"3974",82.598915,170.38483
"3975",82.44022,170.39813
"3976",82.269325,170.4115
"3977",82.07156,170.4248
"3978",81.84451,170.43817
"3979",81.59548,170.45148
"3980",81.324486,170.46484
"3981",81.041275,170.47815
"3982",80.75807,170.49152
"3983",80.479744,170.50482
"3984",80.21362,170.51819
"3985",79.9646,170.5315
"3986",79.73754,170.54486
"3987",79.5227,170.55817
"3988",79.32006,170.57153
"3989",79.12962,170.58484
"3990",78.941635,170.5982
"3991",78.75853,170.61151
"3992",78.58518,170.62488
"3993",78.41917,170.63818
"3994",78.25803,170.65155
"3995",78.101776,170.66486
"3996",77.95529,170.67822
"3997",77.80881,170.69153
"3998",77.67208,170.7049
"3999",77.54513,170.7182
"4000",77.43282,170.73157
"4001",77.332726,170.74487
"4002",77.242386,170.75824
"4003",77.15938,170.77155
"4004",77.086136,170.78491
"4005",77.01045,170.79822
"4006",76.93721,170.81158
"4007",76.86397,170.82489
"4008",76.79317,170.83826
"4009",76.74189,170.85156
"4010",76.76875,170.86493
"4011",76.9543,170.87823
"4012",77.36935,170.8916
"4013",78.048065,170.9049
"4014",78.96361,170.91827
"4015",80.02075,170.93158
"4016",81.077896,170.94495
"4017",82.01785,170.95825
"4018",82.75029,170.97162
"4019",83.265434,170.98492
"4020",83.595024,170.99829
"4021",83.80011,171.0116
"4022",83.93683,171.02496
"4023",84.06134,171.03827
"4024",84.18829,171.05164
"4025",84.317696,171.06494
"4026",84.439766,171.07831
"4027",84.5301,171.09161
"4028",84.56428,171.10498
"4029",84.52277,171.11829
"4030",84.386055,171.13165
"4031",84.159,171.14496
"4032",83.85382,171.15833
"4033",83.50469,171.17163
"4034",83.14336,171.185
"4035",82.80888,171.1983
"4036",82.51835,171.21167
"4037",82.27665,171.22498
"4038",82.06668,171.23834
"4039",81.87381,171.25165
"4040",81.67849,171.26501
"4041",81.463646,171.27832
"4042",81.214615,171.29169
"4043",80.938736,171.305
"4044",80.64332,171.31836
"4045",80.3357,171.33167
"4046",80.028076,171.34503
"4047",79.73022,171.35834
"4048",79.4519,171.3717
"4049",79.19066,171.38501
"4050",78.9514,171.39838
"4051",78.729225,171.41168
"4052",78.519264,171.42505
"4053",78.31663,171.43835
"4054",78.118866,171.45172
"4055",77.925995,171.46503
"4056",77.74044,171.4784
"4057",77.5671,171.4917
"4058",77.40841,171.50507
"4059",77.25704,171.51837
"4060",77.11543,171.53174
"4061",76.978714,171.54504
"4062",76.84688,171.55841
"4063",76.72236,171.57172
"4064",76.612495,171.58508
"4065",76.51728,171.59839
"4066",76.43183,171.61176
"4067",76.35859,171.62506
"4068",76.28779,171.63843
"4069",76.22186,171.65173
"4070",76.155945,171.6651
"4071",76.09491,171.6784
"4072",76.036316,171.69177
"4073",76.00458,171.70508
"4074",76.05585,171.71844
"4075",76.27314,171.73175
"4076",76.71992,171.74512
"4077",77.42306,171.75842
"4078",78.3386,171.77179
"4079",79.364006,171.7851
"4080",80.360115,171.79846
"4081",81.20973,171.81177
"4082",81.85184,171.82513
"4083",82.28153,171.83844
"4084",82.55009,171.8518
"4085",82.7161,171.86511
"4086",82.84306,171.87848
"4087",82.95781,171.89178
"4088",83.08476,171.90515
"4089",83.21904,171.91846
"4090",83.34112,171.93182
"4091",83.42657,171.94513
"4092",83.45098,171.9585
"4093",83.39483,171.9718
"4094",83.243454,171.98517
"4095",83.00908,171.99847
"4096",82.70634,172.01184
"4097",82.38163,172.02515
"4098",82.06424,172.03851
"4099",81.7908,172.05182
"4100",81.566185,172.06519
"4101",81.38552,172.07849
"4102",81.22438,172.09186
"4103",81.06813,172.10516
"4104",80.89967,172.11853
"4105",80.706795,172.13184
"4106",80.48951,172.1452
"4107",80.25269,172.15851
"4108",79.99878,172.17188
"4109",79.73266,172.18518
"4110",79.4641,172.19855
"4111",79.20775,172.21185
"4112",78.96849,172.22522
"4113",78.746315,172.23853
"4114",78.54124,172.25189
"4115",78.35325,172.2652
"4116",78.17502,172.27856
"4117",78.00168,172.29187
"4118",77.838104,172.30524
"4119",77.68429,172.31854
"4120",77.53292,172.33191
"4121",77.38888,172.34521
"4122",77.24971,172.35858
"4123",77.11543,172.37189
"4124",76.98848,172.38525
"4125",76.87129,172.39856
"4126",76.76631,172.41193
"4127",76.67353,172.42523
"4128",76.59785,172.4386
"4129",76.53193,172.4519
"4130",76.47822,172.46527
"4131",76.42939,172.47858
"4132",76.385445,172.49194
"4133",76.33906,172.50525
"4134",76.29267,172.51862
"4135",76.241394,172.53192
"4136",76.18768,172.54529
"4137",76.15106,172.5586
"4138",76.17792,172.57196
"4139",76.3415,172.58527
"4140",76.71259,172.59863
"4141",77.32784,172.61194
"4142",78.15793,172.6253
"4143",79.10521,172.63861
"4144",80.03784,172.65198
"4145",80.8362,172.66528
"4146",81.42214,172.67865
"4147",81.7908,172.69196
"4148",81.99344,172.70532
"4149",82.09598,172.71863
"4150",82.161896,172.732
"4151",82.22781,172.7453
"4152",82.31571,172.75867
"4153",82.41337,172.77197
"4154",82.50858,172.78534
"4155",82.5745,172.79865
"4156",82.58427,172.81201
"4157",82.51591,172.82532
"4158",82.36454,172.83868
"4159",82.1326,172.85199
"4160",81.85184,172.86536
"4161",81.55642,172.87866
"4162",81.28542,172.89203
"4163",81.06081,172.90533
"4164",80.88991,172.9187
"4165",80.76051,172.932
"4166",80.65064,172.94537
"4167",80.54322,172.95868
"4168",80.42359,172.97205
"4169",80.27955,172.98535
"4170",80.1062,172.99872
"4171",79.90845,173.01202
"4172",79.691154,173.02539
"4173",79.466545,173.0387
"4174",79.24681,173.05206
"4175",79.04173,173.06537
"4176",78.86107,173.07874
"4177",78.69749,173.09204
"4178",78.54856,173.10541
"4179",78.40452,173.11871
"4180",78.2678,173.13208
"4181",78.1384,173.14539
"4182",78.02121,173.15875
"4183",77.91379,173.17206
"4184",77.81369,173.18542
"4185",77.71603,173.19873
"4186",77.61837,173.2121
"4187",77.5256,173.2254
"4188",77.437706,173.23877
"4189",77.35958,173.25208
"4190",77.28878,173.26544
"4191",77.225296,173.27875
"4192",77.171585,173.29211
"4193",77.1252,173.30542
"4194",77.08858,173.31879
"4195",77.05684,173.33209
"4196",77.02754,173.34546
"4197",76.98848,173.35876
"4198",76.944534,173.37213
"4199",76.90791,173.38544
"4200",76.895706,173.3988
"4201",76.96651,173.41211
"4202",77.19356,173.42548
"4203",77.63058,173.43878
"4204",78.28001,173.45215
"4205",79.097885,173.46545
"4206",79.97681,173.47882
"4207",80.782486,173.49213
"4208",81.409935,173.5055
"4209",81.82254,173.5188
"4210",82.039825,173.53217
"4211",82.12283,173.54547
"4212",82.13992,173.55884
"4213",82.14969,173.57214
"4214",82.178986,173.58551
"4215",82.2327,173.59882
"4216",82.30106,173.61218
"4217",82.35233,173.62549
"4218",82.36454,173.63885
"4219",82.303505,173.65216
"4220",82.161896,173.66553
"4221",81.951935,173.67883
"4222",81.70046,173.6922
"4223",81.444115,173.7055
"4224",81.22438,173.71887
"4225",81.05348,173.73218
"4226",80.93385,173.74554
"4227",80.85329,173.75885
"4228",80.78493,173.77222
"4229",80.709236,173.78552
"4230",80.61158,173.79889
"4231",80.48707,173.8122
"4232",80.3357,173.82556
"4233",80.16724,173.83887
"4234",79.98657,173.85223
"4235",79.80347,173.86554
"4236",79.62768,173.8789
"4237",79.466545,173.89221
"4238",79.31762,173.90558
"4239",79.18089,173.91888
"4240",79.05394,173.93225
"4241",78.93187,173.94556
"4242",78.81468,173.95892
"4243",78.69749,173.97223
"4244",78.58762,173.9856
"4245",78.485085,173.9989
"4246",78.39231,174.01227
"4247",78.3093,174.02557
"4248",78.23117,174.03894
"4249",78.153046,174.05225
"4250",78.0798,174.06561
"4251",78.00412,174.07892
"4252",77.93088,174.09229
"4253",77.86008,174.10559
"4254",77.80148,174.11896
"4255",77.747765,174.13226
"4256",77.7087,174.14563
"4257",77.679405,174.15894
"4258",77.659874,174.1723
"4259",77.64034,174.18561
"4260",77.61837,174.19897
"4261",77.58663,174.21228
"4262",77.55001,174.22565
"4263",77.51827,174.23895
"4264",77.51583,174.25232
"4265",77.60616,174.26562
"4266",77.86008,174.27899
"4267",78.331276,174.2923
"4268",79.0222,174.30566
"4269",79.86694,174.31897
"4270",80.75563,174.33234
"4271",81.55886,174.34564
"4272",82.178986,174.35901
"4273",82.58915,174.37231
"4274",82.81621,174.38568
"4275",82.92119,174.39899
"4276",82.97002,174.41235
"4277",83.0164,174.42566
"4278",83.07988,174.43903
"4279",83.17021,174.45233
"4280",83.27276,174.4657
"4281",83.370415,174.479
"4282",83.42901,174.49237
"4283",83.42657,174.50568
"4284",83.34356,174.51904
"4285",83.175095,174.53235
"4286",82.933395,174.54572
"4287",82.6453,174.55902
"4288",82.35233,174.57239
"4289",82.08621,174.5857
"4290",81.86893,174.59906
"4291",81.70046,174.61237
"4292",81.57107,174.62573
"4293",81.463646,174.63904
"4294",81.356224,174.6524
"4295",81.23659,174.66571
"4296",81.092545,174.67908
"4297",80.92409,174.69238
"4298",80.73121,174.70575
"4299",80.52369,174.71906
"4300",80.308846,174.73242
"4301",80.09888,174.74573
"4302",79.903564,174.7591
"4303",79.725334,174.7724
"4304",79.571526,174.78577
"4305",79.42748,174.79907
"4306",79.29565,174.81244
"4307",79.168686,174.82574
"4308",79.04173,174.83911
"4309",78.91234,174.85242
"4310",78.79027,174.86578
"4311",78.675514,174.87909
"4312",78.56565,174.89246
"4313",78.46067,174.90576
"4314",78.363014,174.91913
"4315",78.2678,174.93243
"4316",78.17746,174.9458
"4317",78.08957,174.9591
"4318",78.011444,174.97247
"4319",77.93576,174.98578
"4320",77.8674,174.99915
"4321",77.806366,175.01245
"4322",77.752655,175.02582
"4323",77.7087,175.03912
"4324",77.66964,175.05249
"4325",77.63302,175.0658
"4326",77.593956,175.07916
"4327",77.55489,175.09247
"4328",77.51583,175.10583
"4329",77.49386,175.11914
"4330",77.53048,175.1325
"4331",77.69161,175.14581
"4332",78.04318,175.15918
"4333",78.61936,175.17249
"4334",79.3933,175.18585
"4335",80.27955,175.19916
"4336",81.15358,175.21252
"4337",81.89578,175.22583
"4338",82.43778,175.2392
"4339",82.777145,175.2525
"4340",82.95781,175.26587
"4341",83.05058,175.27917
"4342",83.11406,175.29254
"4343",83.18974,175.30585
"4344",83.29229,175.31921
"4345",83.407036,175.33252
"4346",83.5169,175.34589
"4347",83.60235,175.35919
"4348",83.63653,175.37256
"4349",83.597466,175.38586
"4350",83.48028,175.39923
"4351",83.28008,175.41254
"4352",83.01152,175.4259
"4353",82.703896,175.43921
"4354",82.39872,175.45258
"4355",82.125275,175.46588
"4356",81.90555,175.47925
"4357",81.73464,175.49255
"4358",81.600365,175.50592
"4359",81.48562,175.51923
"4360",81.36355,175.5326
"4361",81.22194,175.5459
"4362",81.05592,175.55927
"4363",80.87038,175.57257
"4364",80.66285,175.58594
"4365",80.43824,175.59924
"4366",80.21362,175.61261
"4367",79.991455,175.62592
"4368",79.77905,175.63928
"4369",79.58129,175.65259
"4370",79.398186,175.66595
"4371",79.22972,175.67926
"4372",79.07103,175.69263
"4373",78.922104,175.70593
"4374",78.7805,175.7193
"4375",78.65354,175.7326
"4376",78.53391,175.74597
"4377",78.42649,175.75928
"4378",78.32151,175.77264
"4379",78.221405,175.78595
"4380",78.118866,175.79932
"4381",78.02121,175.81262
"4382",77.92111,175.82599
"4383",77.8259,175.8393
"4384",77.73556,175.85266
"4385",77.645226,175.86597
"4386",77.55489,175.87933
"4387",77.46456,175.89264
"4388",77.37423,175.906
"4389",77.29366,175.91931
"4390",77.222855,175.93268
"4391",77.1667,175.94598
"4392",77.120316,175.95935
"4393",77.08125,175.97266
"4394",77.03975,175.98602
"4395",76.998245,175.99933
"4396",76.961624,176.0127
"4397",76.95186,176.026
"4398",77.02022,176.03937
"4399",77.23506,176.05267
"4400",77.65499,176.06604
"4401",78.30198,176.07935
"4402",79.132065,176.09271
"4403",80.042725,176.10602
"4404",80.90944,176.11938
"4405",81.62722,176.13269
"4406",82.13748,176.14606
"4407",82.44999,176.15936
"4408",82.616005,176.17273
"4409",82.71366,176.18604
"4410",82.78935,176.1994
"4411",82.87724,176.2127
"4412",82.98711,176.22607
"4413",83.10918,176.23938
"4414",83.2166,176.25275
"4415",83.29229,176.26605
"4416",83.31426,176.27942
"4417",83.27032,176.29272
"4418",83.1458,176.30609
"4419",82.948044,176.3194
"4420",82.69169,176.33276
"4421",82.406044,176.34607
"4422",82.125275,176.35944
"4423",81.87381,176.37274
"4424",81.671165,176.38611
"4425",81.51736,176.39941
"4426",81.40017,176.41278
"4427",81.30007,176.42609
"4428",81.197525,176.43945
"4429",81.08278,176.45276
"4430",80.94362,176.46613
"4431",80.780045,176.47943
"4432",80.59449,176.4928
"4433",80.396736,176.5061
"4434",80.19653,176.51947
"4435",80.00366,176.53278
"4436",79.823,176.54614
"4437",79.65942,176.55945
"4438",79.517815,176.57281
"4439",79.398186,176.58612
"4440",79.29809,176.59949
"4441",79.21019,176.6128
"4442",79.132065,176.62616
"4443",79.05394,176.63947
"4444",78.97826,176.65283
"4445",78.905014,176.66614
"4446",78.83421,176.6795
"4447",78.76341,176.69281
"4448",78.692604,176.70618
"4449",78.61448,176.71948
"4450",78.53147,176.73285
"4451",78.43626,176.74615
"4452",78.34104,176.75952
"4453",78.24582,176.77283
"4454",78.14572,176.7862
"4455",78.04562,176.7995
"4456",77.94797,176.81287
"4457",77.85275,176.82617
"4458",77.76486,176.83954
"4459",77.68185,176.85284
"4460",77.60372,176.86621
"4461",77.53048,176.87952
"4462",77.46212,176.89288
"4463",77.41329,176.90619
"4464",77.40841,176.91956
"4465",77.50851,176.93286
"4466",77.77951,176.94623
"4467",78.25803,176.95953
"4468",78.93919,176.9729
"4469",79.74975,176.9862
"4470",80.57496,176.99957
"4471",81.287865,177.01288
"4472",81.80301,177.02625
"4473",82.1033,177.03955
"4474",82.22293,177.05292
"4475",82.230255,177.06622
"4476",82.19119,177.07959
"4477",82.161896,177.0929
