"","ppg","time"
"1",79.168686,21.342285
"2",79.12718,21.355469
"3",79.08812,21.368652
"4",79.05638,21.38208
"5",79.029526,21.395508
"6",79.012436,21.408691
"7",79.00511,21.421875
"8",79.00267,21.435303
"9",79.00755,21.44873
"10",79.01732,21.461914
"11",79.02464,21.475098
"12",79.029526,21.488525
"13",79.027084,21.501953
"14",79.01488,21.515137
"15",78.992905,21.52832
"16",78.97093,21.541748
"17",78.94896,21.555176
"18",78.922104,21.56836
"19",78.90257,21.581543
"20",78.89525,21.59497
"21",78.93431,21.608398
"22",79.08324,21.621582
"23",79.398186,21.634766
"24",79.91089,21.648193
"25",80.59449,21.661621
"26",81.375755,21.674805
"27",82.1326,21.687988
"28",82.757614,21.701416
"29",83.175095,21.714844
"30",83.370415,21.728027
"31",83.35821,21.74121
"32",83.18974,21.754639
"33",82.92363,21.768066
"34",82.61356,21.78125
"35",82.31327,21.794434
"36",82.05203,21.807861
"37",81.85428,21.82129
"38",81.71999,21.834473
"39",81.6321,21.847656
"40",81.5613,21.861084
"41",81.48318,21.874512
"42",81.3782,21.887695
"43",81.24147,21.900879
"44",81.08278,21.914307
"45",80.921646,21.927734
"46",80.780045,21.940918
"47",80.67017,21.954102
"48",80.59449,21.96753
"49",80.54078,21.980957
"50",80.50172,21.99414
"51",80.46754,22.007324
"52",80.42603,22.020752
"53",80.36988,22.03418
"54",80.29908,22.047363
"55",80.216064,22.060547
"56",80.113525,22.073975
"57",79.99878,22.087402
"58",79.87671,22.100586
"59",79.7522,22.11377
"60",79.62524,22.127197
"61",79.50805,22.140625
"62",79.40063,22.153809
"63",79.30785,22.166992
"64",79.22728,22.18042
"65",79.15892,22.193848
"66",79.097885,22.207031
"67",79.046616,22.220215
"68",79.00267,22.233643
"69",78.96849,22.24707
"70",78.94408,22.260254
"71",78.92699,22.273438
"72",78.907455,22.286865
"73",78.88548,22.300293
"74",78.86107,22.313477
"75",78.82933,22.32666
"76",78.79759,22.340088
"77",78.77074,22.353516
"78",78.74387,22.3667
"79",78.72434,22.379883
"80",78.712135,22.39331
"81",78.69993,22.406738
"82",78.68772,22.419922
"83",78.675514,22.433105
"84",78.660866,22.446533
"85",78.64622,22.45996
"86",78.63157,22.473145
"87",78.61692,22.486328
"88",78.59983,22.499756
"89",78.58274,22.513184
"90",78.56321,22.526367
"91",78.553444,22.53955
"92",78.57542,22.552979
"93",78.6804,22.566406
"94",78.93187,22.57959
"95",79.37621,22.592773
"96",80.0061,22.606201
"97",80.77272,22.619629
"98",81.57595,22.632812
"99",82.29862,22.645996
"100",82.8333,22.659424
"101",83.14336,22.672852
"102",83.228806,22.686035
"103",83.12627,22.699219
"104",82.89433,22.712646
"105",82.60136,22.726074
"106",82.29862,22.739258
"107",82.037384,22.752441
"108",81.83963,22.76587
"109",81.71267,22.779297
"110",81.64431,22.79248
"111",81.60769,22.805664
"112",81.56863,22.819092
"113",81.497826,22.83252
"114",81.3782,22.845703
"115",81.22194,22.858887
"116",81.03639,22.872314
"117",80.850845,22.885742
"118",80.68238,22.898926
"119",80.5481,22.91211
"120",80.45045,22.925537
"121",80.38697,22.938965
"122",80.343025,22.952148
"123",80.31129,22.965332
"124",80.274666,22.97876
"125",80.22827,22.992188
"126",80.15747,23.005371
"127",80.06714,23.018555
"128",79.96216,23.031982
"129",79.84497,23.04541
"130",79.725334,23.058594
"131",79.61059,23.071777
"132",79.500725,23.085205
"133",79.395744,23.098633
"134",79.30297,23.111816
"135",79.21507,23.125
"136",79.13695,23.138428
"137",79.06615,23.151855
"138",79.00267,23.16504
"139",78.94896,23.178223
"140",78.905014,23.19165
"141",78.86839,23.205078
"142",78.84154,23.218262
"143",78.819565,23.231445
"144",78.802475,23.244873
"145",78.785385,23.2583
"146",78.76341,23.271484
"147",78.74387,23.284668
"148",78.7219,23.298096
"149",78.69993,23.311523
"150",78.677956,23.324707
"151",78.660866,23.33789
"152",78.643776,23.351318
"153",78.626686,23.364746
"154",78.607155,23.37793
"155",78.58518,23.391113
"156",78.56321,23.404541
"157",78.54612,23.417969
"158",78.53391,23.431152
"159",78.52903,23.444336
"160",78.52903,23.457764
"161",78.52903,23.471191
"162",78.521706,23.484375
"163",78.51194,23.497559
"164",78.49485,23.510986
"165",78.47532,23.524414
"166",78.45579,23.537598
"167",78.45823,23.550781
"168",78.521706,23.564209
"169",78.70725,23.577637
"170",79.07103,23.59082
"171",79.63256,23.604004
"172",80.360115,23.617432
"173",81.160904,23.63086
"174",81.917755,23.644043
"175",82.51835,23.657227
"176",82.88945,23.670654
"177",83.02861,23.684082
"178",82.97002,23.697266
"179",82.76982,23.71045
"180",82.493935,23.723877
"181",82.20584,23.737305
"182",81.94705,23.750488
"183",81.74197,23.763672
"184",81.602806,23.7771
"185",81.52224,23.790527
"186",81.48318,23.80371
"187",81.449,23.816895
"188",81.3904,23.830322
"189",81.290306,23.84375
"190",81.14137,23.856934
"191",80.955826,23.870117
"192",80.762955,23.883545
"193",80.587166,23.896973
"194",80.448006,23.910156
"195",80.35035,23.92334
"196",80.289314,23.936768
"197",80.25025,23.950195
"198",80.22095,23.963379
"199",80.18677,23.976562
"200",80.14038,23.98999
"201",80.08423,24.003418
"202",80.0061,24.016602
"203",79.91089,24.029785
"204",79.80591,24.043213
"205",79.693596,24.05664
"206",79.58373,24.069824
"207",79.47875,24.083008
"208",79.381096,24.096436
"209",79.28588,24.109863
"210",79.19554,24.123047
"211",79.11009,24.13623
"212",79.03685,24.149658
"213",78.975815,24.163086
"214",78.93187,24.17627
"215",78.90257,24.189453
"216",78.8806,24.20288
"217",78.86107,24.216309
"218",78.84398,24.229492
"219",78.82689,24.242676
"220",78.8098,24.256104
"221",78.79027,24.269531
"222",78.77074,24.282715
"223",78.75365,24.295898
"224",78.73167,24.309326
"225",78.70725,24.322754
"226",78.68528,24.335938
"227",78.66331,24.349121
"228",78.641335,24.362549
"229",78.6218,24.375977
"230",78.60471,24.38916
"231",78.58762,24.402344
"232",78.57053,24.415771
"233",78.553444,24.4292
"234",78.54124,24.442383
"235",78.53147,24.455566
"236",78.52659,24.468994
"237",78.52903,24.482422
"238",78.538795,24.495605
"239",78.551,24.50879
"240",78.56809,24.522217
"241",78.58762,24.535645
"242",78.59983,24.548828
"243",78.60471,24.562012
"244",78.60471,24.57544
"245",78.59983,24.588867
"246",78.590065,24.60205
"247",78.58274,24.615234
"248",78.58274,24.628662
"249",78.59739,24.64209
"250",78.66575,24.655273
"251",78.84886,24.668457
"252",79.20531,24.681885
"253",79.7522,24.695312
"254",80.46021,24.708496
"255",81.248795,24.72168
"256",81.99588,24.735107
"257",82.59159,24.748535
"258",82.96513,24.761719
"259",83.106735,24.774902
"260",83.0457,24.78833
"261",82.84306,24.801758
"262",82.55985,24.814941
"263",82.25468,24.828125
"264",81.97879,24.841553
"265",81.75906,24.85498
"266",81.60525,24.868164
"267",81.5198,24.881348
"268",81.47341,24.894775
"269",81.43923,24.908203
"270",81.3904,24.921387
"271",81.30251,24.93457
"272",81.17067,24.947998
"273",81.00954,24.961426
"274",80.84108,24.97461
"275",80.689705,24.987793
"276",80.567635,25.00122
"277",80.48463,25.014648
"278",80.428474,25.027832
"279",80.394295,25.041016
"280",80.365,25.054443
"281",80.33082,25.067871
"282",80.28199,25.081055
"283",80.216064,25.094238
"284",80.13794,25.107666
"285",80.045166,25.121094
"286",79.94507,25.134277
"287",79.84497,25.14746
"288",79.744865,25.160889
"289",79.64233,25.174316
"290",79.54467,25.1875
"291",79.449455,25.200684
"292",79.35912,25.214111
"293",79.27856,25.22754
"294",79.21263,25.240723
"295",79.16136,25.253906
"296",79.1223,25.267334
"297",79.09544,25.280762
"298",79.08324,25.293945
"299",79.07591,25.307129
"300",79.07103,25.320557
"301",79.06615,25.333984
"302",79.05638,25.347168
"303",79.04173,25.360352
"304",79.0222,25.37378
"305",79.00755,25.387207
"306",78.995346,25.40039
"307",78.98314,25.413574
"308",78.97093,25.427002
"309",78.96117,25.44043
"310",78.94652,25.453613
"311",78.93187,25.466797
"312",78.91966,25.480225
"313",78.905014,25.493652
"314",78.887924,25.506836
"315",78.870834,25.52002
"316",78.853745,25.533447
"317",78.83177,25.546875
"318",78.81468,25.560059
"319",78.802475,25.573242
"320",78.79515,25.58667
"321",78.79271,25.600098
"322",78.83177,25.613281
"323",78.958725,25.626465
"324",79.22484,25.639893
"325",79.6643,25.65332
"326",80.2649,25.666504
"327",80.96559,25.679688
"328",81.6614,25.693115
"329",82.2449,25.706543
"330",82.63798,25.719727
"331",82.81621,25.73291
"332",82.794235,25.746338
"333",82.616005,25.759766
"334",82.34745,25.77295
"335",82.04471,25.786133
"336",81.75662,25.79956
"337",81.514915,25.812988
"338",81.33425,25.826172
"339",81.21706,25.839355
"340",81.146255,25.852783
"341",81.08766,25.86621
"342",81.0193,25.879395
"343",80.92409,25.892578
"344",80.799576,25.906006
"345",80.66041,25.919434
"346",80.52857,25.932617
"347",80.42603,25.9458
"348",80.35767,25.959229
"349",80.323494,25.972656
"350",80.308846,25.98584
"351",80.30396,25.999023
"352",80.29664,26.012451
"353",80.26734,26.025879
"354",80.218506,26.039062
"355",80.15015,26.052246
"356",80.05737,26.065674
"357",79.94751,26.079102
"358",79.83032,26.092285
"359",79.710686,26.105469
"360",79.59594,26.118896
"361",79.49584,26.132324
"362",79.40307,26.145508
"363",79.3225,26.158691
"364",79.24681,26.17212
"365",79.183334,26.185547
"366",79.12718,26.19873
"367",79.08568,26.211914
"368",79.0515,26.225342
"369",79.027084,26.23877
"370",79.009995,26.251953
"371",78.995346,26.265137
"372",78.9807,26.278564
"373",78.97093,26.291992
"374",78.96605,26.305176
"375",78.96117,26.31836
"376",78.96117,26.331787
"377",78.96361,26.345215
"378",78.96605,26.358398
"379",78.96361,26.371582
"380",78.95384,26.38501
"381",78.941635,26.398438
"382",78.91966,26.411621
"383",78.89769,26.424805
"384",78.870834,26.438232
"385",78.84398,26.45166
"386",78.81224,26.464844
"387",78.78783,26.478027
"388",78.77562,26.491455
"389",78.81224,26.504883
"390",78.94652,26.518066
"391",79.22972,26.53125
"392",79.691154,26.544678
"393",80.308846,26.558105
"394",81.01686,26.57129
"395",81.70779,26.584473
"396",82.27177,26.5979
"397",82.633095,26.611328
"398",82.777145,26.624512
"399",82.72343,26.637695
"400",82.528114,26.651123
"401",82.25712,26.66455
"402",81.969025,26.677734
"403",81.7029,26.690918
"404",81.48562,26.704346
"405",81.33425,26.717773
"406",81.23903,26.730957
"407",81.17799,26.74414
"408",81.126724,26.757568
"409",81.06081,26.770996
"410",80.96559,26.78418
"411",80.8362,26.797363
"412",80.68482,26.810791
"413",80.53101,26.824219
"414",80.394295,26.837402
"415",80.289314,26.850586
"416",80.218506,26.864014
"417",80.17944,26.877441
"418",80.15991,26.890625
"419",80.14282,26.903809
"420",80.111084,26.917236
"421",80.062256,26.930664
"422",79.98901,26.943848
"423",79.89624,26.957031
"424",79.7937,26.970459
"425",79.68871,26.983887
"426",79.588615,26.99707
"427",79.49828,27.010254
"428",79.40795,27.023682
"429",79.32494,27.03711
"430",79.24437,27.050293
"431",79.17113,27.063477
"432",79.10521,27.076904
"433",79.046616,27.090332
"434",79.00023,27.103516
"435",78.96361,27.1167
"436",78.93431,27.130127
"437",78.91478,27.143555
"438",78.907455,27.156738
"439",78.905014,27.169922
"440",78.905014,27.18335
"441",78.905014,27.196777
"442",78.90013,27.20996
"443",78.88548,27.223145
"444",78.86839,27.236572
"445",78.8513,27.25
"446",78.83421,27.263184
"447",78.82201,27.276367
"448",78.81224,27.289795
"449",78.80736,27.303223
"450",78.80003,27.316406
"451",78.78783,27.32959
"452",78.77074,27.343018
"453",78.746315,27.356445
"454",78.7219,27.369629
"455",78.69993,27.382812
"456",78.675514,27.39624
"457",78.66331,27.409668
"458",78.66819,27.422852
"459",78.71702,27.436035
"460",78.86351,27.449463
"461",79.1638,27.46289
"462",79.64477,27.476074
"463",80.28687,27.489258
"464",81.01442,27.502686
"465",81.72488,27.516113
"466",82.30595,27.529297
"467",82.68192,27.54248
"468",82.83818,27.555908
"469",82.79912,27.569336
"470",82.61356,27.58252
"471",82.34745,27.595703
"472",82.06424,27.60913
"473",81.80545,27.622559
"474",81.60525,27.635742
"475",81.47585,27.648926
"476",81.40749,27.662354
"477",81.3782,27.675781
"478",81.36111,27.688965
"479",81.31716,27.702148
"480",81.22682,27.715576
"481",81.0901,27.729004
"482",80.91432,27.742188
"483",80.71656,27.755371
"484",80.52613,27.768799
"485",80.36256,27.782227
"486",80.24048,27.79541
"487",80.15259,27.808594
"488",80.10132,27.822021
"489",80.07202,27.83545
"490",80.05005,27.848633
"491",80.02319,27.861816
"492",79.98413,27.875244
"493",79.93042,27.888672
"494",79.86206,27.901855
"495",79.781494,27.91504
"496",79.693596,27.928467
"497",79.59838,27.941895
"498",79.500725,27.955078
"499",79.40307,27.968262
"500",79.30785,27.98169
"501",79.219955,27.995117
"502",79.14183,28.0083
"503",79.078354,28.021484
"504",79.027084,28.034912
"505",78.98802,28.04834
"506",78.96117,28.061523
"507",78.93919,28.074707
"508",78.922104,28.088135
"509",78.907455,28.101562
"510",78.89525,28.114746
"511",78.88304,28.12793
"512",78.870834,28.141357
"513",78.86107,28.154785
"514",78.84398,28.167969
"515",78.82445,28.181152
"516",78.79759,28.19458
"517",78.765854,28.208008
"518",78.73411,28.221191
"519",78.709694,28.234375
"520",78.69749,28.247803
"521",78.692604,28.26123
"522",78.692604,28.274414
"523",78.69993,28.287598
"524",78.70725,28.301025
"525",78.70725,28.314453
"526",78.709694,28.327637
"527",78.70725,28.34082
"528",78.70725,28.354248
"529",78.70237,28.367676
"530",78.69993,28.38086
"531",78.692604,28.394043
"532",78.6804,28.40747
"533",78.66819,28.420898
"534",78.66819,28.434082
"535",78.70725,28.447266
"536",78.84154,28.460693
"537",79.1223,28.474121
"538",79.58373,28.487305
"539",80.2063,28.500488
"540",80.92653,28.513916
"541",81.636986,28.527344
"542",82.230255,28.540527
"543",82.62089,28.55371
"544",82.78935,28.567139
"545",82.760056,28.580566
"546",82.58427,28.59375
"547",82.32304,28.606934
"548",82.039825,28.620361
"549",81.78348,28.63379
"550",81.58083,28.646973
"551",81.449,28.660156
"552",81.38064,28.673584
"553",81.35378,28.687012
"554",81.339134,28.700195
"555",81.30007,28.713379
"556",81.21217,28.726807
"557",81.075455,28.740234
"558",80.89723,28.753418
"559",80.70435,28.766602
"560",80.52369,28.78003
"561",80.37232,28.793457
"562",80.26002,28.80664
"563",80.184326,28.819824
"564",80.1355,28.833252
"565",80.1062,28.84668
"566",80.079346,28.859863
"567",80.05005,28.873047
"568",80.01587,28.886475
"569",79.96704,28.899902
"570",79.906006,28.913086
"571",79.83276,28.92627
"572",79.74731,28.939697
"573",79.65209,28.953125
"574",79.55688,28.966309
"575",79.466545,28.979492
"576",79.378654,28.99292
"577",79.30297,29.006348
"578",79.237045,29.019531
"579",79.18089,29.032715
"580",79.12962,29.046143
"581",79.08812,29.05957
"582",79.0515,29.072754
"583",79.027084,29.085938
"584",79.009995,29.099365
"585",78.99779,29.112793
"586",78.98802,29.125977
"587",78.98558,29.13916
"588",78.98558,29.152588
"589",78.98314,29.166016
"590",78.975815,29.1792
"591",78.96117,29.192383
"592",78.94408,29.20581
"593",78.91722,29.219238
"594",78.89281,29.232422
"595",78.873276,29.245605
"596",78.86351,29.259033
"597",78.853745,29.27246
"598",78.84642,29.285645
"599",78.839096,29.298828
"600",78.82689,29.312256
"601",78.81468,29.325684
"602",78.802475,29.338867
"603",78.79027,29.35205
"604",78.77806,29.365479
"605",78.768295,29.378906
"606",78.76097,29.39209
"607",78.75853,29.405273
"608",78.76341,29.418701
"609",78.77074,29.432129
"610",78.785385,29.445312
"611",78.802475,29.458496
"612",78.81468,29.471924
"613",78.82445,29.485352
"614",78.83177,29.498535
"615",78.839096,29.511719
"616",78.84398,29.525146
"617",78.8513,29.538574
"618",78.873276,29.551758
"619",78.94896,29.564941
"620",79.13939,29.57837
"621",79.500725,29.591797
"622",80.045166,29.60498
"623",80.73365,29.618164
"624",81.48562,29.631592
"625",82.18387,29.64502
"626",82.720985,29.658203
"627",83.038376,29.671387
"628",83.13359,29.684814
"629",83.0457,29.698242
"630",82.82353,29.711426
"631",82.530556,29.72461
"632",82.22537,29.738037
"633",81.951935,29.751465
"634",81.72976,29.764648
"635",81.57595,29.777832
"636",81.48806,29.79126
"637",81.444115,29.804688
"638",81.41726,29.817871
"639",81.3782,29.831055
"640",81.30251,29.844482
"641",81.18532,29.85791
"642",81.03151,29.871094
"643",80.85817,29.884277
"644",80.69703,29.897705
"645",80.56031,29.911133
"646",80.45777,29.924316
"647",80.39185,29.9375
"648",80.35523,29.950928
"649",80.33326,29.964355
"650",80.31373,29.97754
"651",80.28687,29.990723
"652",80.23804,30.00415
"653",80.16724,30.017578
"654",80.079346,30.030762
"655",79.98169,30.043945
"656",79.88159,30.057373
"657",79.7937,30.0708
"658",79.71801,30.083984
"659",79.64965,30.097168
"660",79.58373,30.110596
"661",79.52514,30.124023
"662",79.47387,30.137207
"663",79.429924,30.15039
"664",79.40307,30.163818
"665",79.381096,30.177246
"666",79.364006,30.19043
"667",79.34936,30.203613
"668",79.33959,30.217041
"669",79.32494,30.230469
"670",79.31274,30.243652
"671",79.30053,30.256836
"672",79.293205,30.270264
"673",79.281,30.283691
"674",79.26879,30.296875
"675",79.2517,30.310059
"676",79.237045,30.323486
"677",79.21019,30.336914
"678",79.17845,30.350098
"679",79.149155,30.363281
"680",79.1223,30.376709
"681",79.093,30.390137
"682",79.06859,30.40332
"683",79.0515,30.416504
"684",79.03685,30.429932
"685",79.02464,30.44336
"686",79.01732,30.456543
"687",79.00755,30.469727
"688",78.99779,30.483154
"689",78.98802,30.496582
"690",78.9807,30.509766
"691",78.97093,30.52295
"692",78.958725,30.536377
"693",78.94896,30.549805
"694",78.9514,30.562988
"695",78.992905,30.576172
"696",79.132065,30.5896
"697",79.42016,30.603027
"698",79.88403,30.61621
"699",80.50416,30.629395
"700",81.21706,30.642822
"701",81.91531,30.65625
"702",82.49882,30.669434
"703",82.90166,30.682617
"704",83.09941,30.696045
"705",83.106735,30.709473
"706",82.97002,30.722656
"707",82.7454,30.73584
"708",82.47929,30.749268
"709",82.20584,30.762695
"710",81.95682,30.775879
"711",81.74441,30.789062
"712",81.57107,30.80249
"713",81.43191,30.815918
"714",81.3196,30.829102
"715",81.21706,30.842285
"716",81.109634,30.855713
"717",80.99733,30.86914
"718",80.87526,30.882324
"719",80.75075,30.895508
"720",80.638435,30.908936
"721",80.54566,30.922363
"722",80.4773,30.935547
"723",80.4358,30.94873
"724",80.41627,30.962158
"725",80.40406,30.975586
"726",80.39185,30.98877
"727",80.36744,31.001953
"728",80.32105,31.01538
"729",80.24292,31.028809
"730",80.14282,31.041992
"731",80.02319,31.055176
"732",79.89868,31.068604
"733",79.781494,31.082031
"734",79.67895,31.095215
"735",79.5935,31.108398
"736",79.52514,31.121826
"737",79.47387,31.135254
"738",79.42504,31.148438
"739",79.38842,31.161621
"740",79.35424,31.175049
"741",79.32983,31.188477
"742",79.30785,31.20166
"743",79.293205,31.214844
"744",79.28344,31.228271
"745",79.276115,31.2417
"746",79.281,31.254883
"747",79.290764,31.268066
"748",79.30785,31.281494
"749",79.32983,31.294922
"750",79.34936,31.308105
"751",79.361565,31.32129
"752",79.35912,31.334717
"753",79.34203,31.348145
"754",79.31274,31.361328
"755",79.27856,31.374512
"756",79.24193,31.38794
"757",79.21019,31.401367
"758",79.18822,31.41455
"759",79.18089,31.427734
"760",79.200424,31.441162
"761",79.290764,31.45459
"762",79.50317,31.467773
"763",79.87671,31.480957
"764",80.411385,31.494385
"765",81.07057,31.507812
"766",81.761505,31.520996
"767",82.37675,31.53418
"768",82.83086,31.547607
"769",83.08232,31.561035
"770",83.13603,31.574219
"771",83.02617,31.587402
"772",82.80888,31.60083
"773",82.53544,31.614258
"774",82.25468,31.627441
"775",82.005646,31.640625
"776",81.80545,31.654053
"777",81.671165,31.66748
"778",81.58816,31.680664
"779",81.53689,31.693848
"780",81.48806,31.707275
"781",81.42214,31.720703
"782",81.32693,31.733887
"783",81.19997,31.74707
"784",81.05348,31.760498
"785",80.90456,31.773926
"786",80.7776,31.78711
"787",80.67506,31.800293
"788",80.601814,31.81372
"789",80.55543,31.827148
"790",80.52857,31.840332
"791",80.50416,31.853516
"792",80.46998,31.866943
"793",80.41627,31.880371
"794",80.34547,31.893555
"795",80.255135,31.906738
"796",80.15015,31.920166
"797",80.0354,31.933594
"798",79.923096,31.946777
"799",79.818115,31.95996
"800",79.72045,31.973389
"801",79.63256,31.986816
"802",79.54711,32
"803",79.47143,32.013184
"804",79.40063,32.02661
"805",79.327385,32.04004
"806",79.26147,32.053223
"807",79.20531,32.066406
"808",79.15404,32.079834
"809",79.10765,32.09326
"810",79.06615,32.106445
"811",79.03197,32.11963
"812",79.00511,32.133057
"813",78.98802,32.146484
"814",78.975815,32.159668
"815",78.97093,32.17285
"816",78.975815,32.18628
"817",78.98314,32.199707
"818",78.99046,32.21289
"819",78.99779,32.226074
"820",79.00023,32.239502
"821",78.99046,32.25293
"822",78.96605,32.266113
"823",78.92943,32.279297
"824",78.88548,32.292725
"825",78.839096,32.306152
"826",78.80003,32.319336
"827",78.77806,32.33252
"828",78.80736,32.345947
"829",78.941635,32.359375
"830",79.23216,32.37256
"831",79.70336,32.385742
"832",80.3357,32.39917
"833",81.06081,32.412598
"834",81.761505,32.42578
"835",82.340126,32.438965
"836",82.72343,32.452393
"837",82.88945,32.46582
"838",82.862595,32.479004
"839",82.69169,32.492188
"840",82.4329,32.505615
"841",82.13748,32.519043
"842",81.85184,32.532227
"843",81.61257,32.54541
"844",81.43435,32.558838
"845",81.3196,32.572266
"846",81.25124,32.58545
"847",81.20485,32.598633
"848",81.15114,32.61206
"849",81.07301,32.62549
"850",80.96071,32.63867
"851",80.816666,32.651855
"852",80.66285,32.665283
"853",80.52857,32.67871
"854",80.430916,32.691895
"855",80.38453,32.70508
"856",80.40406,32.718506
"857",80.46754,32.731934
"858",80.550545,32.745117
"859",80.61646,32.7583
"860",80.635994,32.77173
"861",80.59937,32.785156
"862",80.51392,32.79834
"863",80.396736,32.811523
"864",80.27711,32.82495
"865",80.16235,32.83838
"866",80.059814,32.851562
"867",79.95972,32.864746
"868",79.86206,32.878174
"869",79.75952,32.8916
"870",79.66674,32.904785
"871",79.586174,32.91797
"872",79.517815,32.931396
"873",79.46166,32.944824
"874",79.412834,32.958008
"875",79.37377,32.97119
"876",79.33715,32.98462
"877",79.30541,32.998047
"878",79.281,33.01123
"879",79.26391,33.024414
"880",79.24193,33.03784
"881",79.217514,33.05127
"882",79.18822,33.064453
"883",79.15892,33.077637
"884",79.12962,33.091064
"885",79.10033,33.104492
"886",79.07347,33.117676
"887",79.04173,33.13086
"888",79.009995,33.144287
"889",78.96849,33.157715
"890",78.92699,33.1709
"891",78.87816,33.184082
"892",78.83177,33.19751
"893",78.79515,33.210938
"894",78.802475,33.22412
"895",78.90257,33.237305
"896",79.14427,33.250732
"897",79.551994,33.26416
"898",80.111084,33.277344
"899",80.76051,33.290527
"900",81.40261,33.303955
"901",81.94217,33.317383
"902",82.30839,33.330566
"903",82.4744,33.34375
"904",82.45243,33.357178
"905",82.28886,33.370605
"906",82.04227,33.38379
"907",81.76883,33.396973
"908",81.514915,33.4104
"909",81.30984,33.42383
"910",81.163345,33.43701
"911",81.06569,33.450195
"912",80.99489,33.463623
"913",80.921646,33.47705
"914",80.82887,33.490234
"915",80.706795,33.503418
"916",80.552986,33.516846
"917",80.38453,33.530273
"918",80.218506,33.543457
"919",80.07202,33.55664
"920",79.94995,33.57007
"921",79.85962,33.583496
"922",79.801025,33.59668
"923",79.76196,33.609863
"924",79.73022,33.62329
"925",79.69604,33.63672
"926",79.65209,33.649902
"927",79.59838,33.663086
"928",79.52758,33.676514
"929",79.44213,33.68994
"930",79.34692,33.703125
"931",79.24681,33.71631
"932",79.14427,33.729736
"933",79.044174,33.743164
"934",78.9514,33.756348
"935",78.86595,33.76953
"936",78.79271,33.78296
"937",78.729225,33.796387
"938",78.6804,33.80957
"939",78.63889,33.822754
"940",78.60471,33.83618
"941",78.58274,33.84961
"942",78.56809,33.862793
"943",78.55833,33.875977
"944",78.55833,33.889404
"945",78.56077,33.902832
"946",78.56809,33.916016
"947",78.572975,33.9292
"948",78.57542,33.942627
"949",78.572975,33.956055
"950",78.56565,33.96924
"951",78.54856,33.98242
"952",78.52903,33.99585
"953",78.502174,34.009277
"954",78.467995,34.02246
"955",78.42893,34.035645
"956",78.38743,34.049072
"957",78.35569,34.0625
"958",78.363014,34.075684
"959",78.45823,34.088867
"960",78.69016,34.102295
"961",79.08812,34.115723
"962",79.635,34.128906
"963",80.274666,34.14209
"964",80.907,34.155518
"965",81.44167,34.168945
"966",81.79324,34.18213
"967",81.94461,34.195312
"968",81.91287,34.20874
"969",81.74685,34.222168
"970",81.50027,34.23535
"971",81.234146,34.248535
"972",80.99489,34.261963
"973",80.80446,34.27539
"974",80.67506,34.288574
"975",80.59449,34.301758
"976",80.54322,34.315186
"977",80.49439,34.328613
"978",80.428474,34.341797
"979",80.33326,34.35498
"980",80.20874,34.36841
"981",80.07202,34.381836
"982",79.937744,34.39502
"983",79.818115,34.408203
"984",79.73022,34.42163
"985",79.66674,34.43506
"986",79.63256,34.448242
"987",79.61059,34.461426
"988",79.59838,34.474854
"989",79.58373,34.48828
"990",79.56176,34.501465
"991",79.520256,34.51465
"992",79.466545,34.528076
"993",79.398186,34.541504
"994",79.3225,34.554688
"995",79.24437,34.56787
"996",79.1638,34.5813
"997",79.08568,34.594727
"998",79.012436,34.60791
"999",78.93919,34.621094
"1000",78.873276,34.63452
"1001",78.81468,34.64795
"1002",78.765854,34.661133
"1003",78.729225,34.674316
"1004",78.70481,34.687744
"1005",78.695045,34.70117
"1006",78.692604,34.714355
"1007",78.695045,34.72754
"1008",78.70725,34.740967
"1009",78.71946,34.754395
"1010",78.73167,34.76758
"1011",78.746315,34.78076
"1012",78.76097,34.79419
"1013",78.768295,34.807617
"1014",78.77074,34.8208
"1015",78.76341,34.833984
"1016",78.74387,34.847412
"1017",78.71458,34.86084
"1018",78.68528,34.874023
"1019",78.660866,34.887207
"1020",78.643776,34.900635
"1021",78.65598,34.914062
"1022",78.74387,34.927246
"1023",78.9514,34.94043
"1024",79.31762,34.953857
"1025",79.84497,34.967285
"1026",80.482185,34.98047
"1027",81.14137,34.993652
"1028",81.71755,35.00708
"1029",82.127716,35.020508
"1030",82.3328,35.03369
"1031",82.34257,35.046875
"1032",82.2034,35.060303
"1033",81.971466,35.07373
"1034",81.70779,35.086914
"1035",81.45632,35.100098
"1036",81.24391,35.113525
"1037",81.08766,35.126953
"1038",80.98024,35.140137
"1039",80.90456,35.15332
"1040",80.831314,35.166748
"1041",80.743416,35.180176
"1042",80.62867,35.19336
"1043",80.49195,35.206543
"1044",80.343025,35.21997
"1045",80.201416,35.2334
"1046",80.08911,35.246582
"1047",80.008545,35.259766
"1048",79.95972,35.273193
"1049",79.9353,35.28662
"1050",79.923096,35.299805
"1051",79.91089,35.31299
"1052",79.888916,35.326416
"1053",79.852295,35.339844
"1054",79.80347,35.353027
"1055",79.742424,35.36621
"1056",79.67162,35.37964
"1057",79.59106,35.393066
"1058",79.50317,35.40625
"1059",79.415276,35.419434
"1060",79.327385,35.43286
"1061",79.24681,35.44629
"1062",79.17113,35.459473
"1063",79.10765,35.472656
"1064",79.04906,35.486084
"1065",78.99779,35.49951
"1066",78.9514,35.512695
"1067",78.922104,35.52588
"1068",78.90257,35.539307
"1069",78.887924,35.552734
"1070",78.88304,35.565918
"1071",78.88304,35.5791
"1072",78.887924,35.59253
"1073",78.89281,35.605957
"1074",78.90013,35.61914
"1075",78.905014,35.632324
"1076",78.907455,35.645752
"1077",78.9099,35.65918
"1078",78.91234,35.672363
"1079",78.91722,35.685547
"1080",78.922104,35.698975
"1081",78.92699,35.712402
"1082",78.924545,35.725586
"1083",78.91722,35.73877
"1084",78.905014,35.752197
"1085",78.890366,35.765625
"1086",78.873276,35.77881
"1087",78.85863,35.791992
"1088",78.84398,35.80542
"1089",78.836655,35.818848
"1090",78.83177,35.83203
"1091",78.83421,35.845215
"1092",78.84642,35.858643
"1093",78.89281,35.87207
"1094",79.012436,35.885254
"1095",79.26391,35.898438
"1096",79.68627,35.911865
"1097",80.26978,35.925293
"1098",80.95094,35.938477
"1099",81.636986,35.95166
"1100",82.210724,35.965088
"1101",82.59159,35.978516
"1102",82.74784,35.9917
"1103",82.70634,36.004883
"1104",82.51835,36.01831
"1105",82.25468,36.03174
"1106",81.969025,36.04492
"1107",81.71267,36.058105
"1108",81.514915,36.071533
"1109",81.38552,36.08496
"1110",81.31716,36.098145
"1111",81.28298,36.11133
"1112",81.25857,36.124756
"1113",81.21706,36.138184
"1114",81.13649,36.151367
"1115",81.007095,36.16455
"1116",80.84352,36.17798
"1117",80.66773,36.191406
"1118",80.50172,36.20459
"1119",80.35767,36.217773
"1120",80.25269,36.2312
"1121",80.184326,36.24463
"1122",80.1355,36.257812
"1123",80.10132,36.270996
"1124",80.06958,36.284424
"1125",80.0354,36.29785
"1126",79.9939,36.311035
"1127",79.937744,36.32422
"1128",79.869385,36.337646
"1129",79.78882,36.351074
"1130",79.70336,36.364258
"1131",79.61547,36.37744
"1132",79.537346,36.39087
"1133",79.466545,36.404297
"1134",79.40551,36.41748
"1135",79.344475,36.430664
"1136",79.28832,36.44409
"1137",79.23216,36.45752
"1138",79.18089,36.470703
"1139",79.13695,36.483887
"1140",79.10277,36.497314
"1141",79.078354,36.510742
"1142",79.05394,36.523926
"1143",79.03685,36.53711
"1144",79.02464,36.550537
"1145",79.01732,36.563965
"1146",79.012436,36.57715
"1147",79.00755,36.590332
"1148",79.00267,36.60376
"1149",78.995346,36.617188
"1150",78.98558,36.63037
"1151",78.97826,36.643555
"1152",78.97093,36.656982
"1153",78.96605,36.67041
"1154",78.958725,36.683594
"1155",78.95384,36.696777
"1156",78.94408,36.710205
"1157",78.93675,36.723633
"1158",78.93187,36.736816
"1159",78.92943,36.75
"1160",78.924545,36.763428
"1161",78.92699,36.776855
"1162",78.92943,36.79004
"1163",78.93187,36.803223
"1164",78.93431,36.81665
"1165",78.94652,36.83008
"1166",78.958725,36.84326
"1167",78.975815,36.856445
"1168",78.992905,36.869873
"1169",79.009995,36.8833
"1170",79.01976,36.896484
"1171",79.029526,36.909668
"1172",79.03197,36.923096
"1173",79.03197,36.936523
"1174",79.029526,36.949707
"1175",79.03197,36.96289
"1176",79.05394,36.97632
"1177",79.14427,36.989746
"1178",79.364006,37.00293
"1179",79.7522,37.016113
"1180",80.308846,37.02954
"1181",80.990005,37.04297
"1182",81.705345,37.056152
"1183",82.33524,37.069336
"1184",82.78447,37.082764
"1185",83.00908,37.09619
"1186",83.021286,37.109375
"1187",82.862595,37.12256
"1188",82.598915,37.135986
"1189",82.29374,37.149414
"1190",82.00076,37.162598
"1191",81.74441,37.17578
"1192",81.549095,37.18921
"1193",81.41482,37.202637
"1194",81.33669,37.21582
"1195",81.29275,37.229004
"1196",81.25857,37.24243
"1197",81.20729,37.25586
"1198",81.126724,37.269043
"1199",81.01198,37.282227
"1200",80.88014,37.295654
"1201",80.75319,37.309082
"1202",80.64332,37.322266
"1203",80.55787,37.33545
"1204",80.49683,37.348877
"1205",80.45533,37.362305
"1206",80.41871,37.37549
"1207",80.37965,37.38867
"1208",80.3357,37.4021
"1209",80.272224,37.415527
"1210",80.19409,37.42871
"1211",80.10132,37.441895
"1212",80.0061,37.455322
"1213",79.90845,37.46875
"1214",79.815674,37.481934
"1215",79.73266,37.495117
"1216",79.656975,37.508545
"1217",79.58373,37.521973
"1218",79.520256,37.535156
"1219",79.4641,37.54834
"1220",79.41772,37.561768
"1221",79.381096,37.575195
"1222",79.3518,37.58838
"1223",79.32983,37.601562
"1224",79.31274,37.61499
"1225",79.29809,37.628418
"1226",79.28344,37.6416
"1227",79.27123,37.654785
"1228",79.259026,37.668213
"1229",79.25414,37.68164
"1230",79.24681,37.694824
"1231",79.24193,37.708008
"1232",79.234604,37.721436
"1233",79.2224,37.734863
"1234",79.20775,37.748047
"1235",79.19066,37.76123
"1236",79.17845,37.77466
"1237",79.166245,37.788086
"1238",79.15648,37.80127
"1239",79.14183,37.814453
"1240",79.12474,37.82788
"1241",79.10277,37.84131
"1242",79.080795,37.854492
"1243",79.063705,37.867676
"1244",79.05394,37.881104
"1245",79.0515,37.89453
"1246",79.05638,37.907715
"1247",79.063705,37.9209
"1248",79.07347,37.934326
"1249",79.08568,37.947754
"1250",79.10033,37.960938
"1251",79.11009,37.97412
"1252",79.11986,37.98755
"1253",79.12474,38.000977
"1254",79.12718,38.01416
"1255",79.1223,38.027344
"1256",79.11986,38.04077
"1257",79.1223,38.0542
"1258",79.151596,38.067383
"1259",79.24681,38.080566
"1260",79.466545,38.093994
"1261",79.84741,38.10742
"1262",80.39185,38.120605
"1263",81.06325,38.13379
"1264",81.77371,38.147217
"1265",82.41093,38.160645
"1266",82.882126,38.17383
"1267",83.14336,38.18701
"1268",83.19951,38.20044
"1269",83.087204,38.213867
"1270",82.86015,38.22705
"1271",82.57206,38.240234
"1272",82.27177,38.253662
"1273",81.99588,38.26709
"1274",81.76395,38.280273
"1275",81.58572,38.293457
"1276",81.463646,38.306885
"1277",81.38064,38.320312
"1278",81.31472,38.333496
"1279",81.24391,38.34668
"1280",81.163345,38.360107
"1281",81.06569,38.373535
"1282",80.955826,38.38672
"1283",80.85329,38.399902
"1284",80.77028,38.41333
"1285",80.71168,38.426758
"1286",80.67994,38.43994
"1287",80.67017,38.453125
"1288",80.66529,38.466553
"1289",80.65308,38.47998
"1290",80.621346,38.493164
"1291",80.567635,38.506348
"1292",80.48707,38.519775
"1293",80.39185,38.533203
"1294",80.28687,38.546387
"1295",80.17456,38.55957
"1296",80.062256,38.572998
"1297",79.94995,38.586426
"1298",79.84253,38.59961
"1299",79.742424,38.612793
"1300",79.656975,38.62622
"1301",79.586174,38.63965
"1302",79.5227,38.652832
"1303",79.466545,38.666016
"1304",79.4226,38.679443
"1305",79.38598,38.69287
"1306",79.35912,38.706055
"1307",79.344475,38.71924
"1308",79.34203,38.732666
"1309",79.33959,38.746094
"1310",79.33959,38.759277
"1311",79.33715,38.77246
"1312",79.33471,38.78589
"1313",79.327385,38.799316
"1314",79.3225,38.8125
"1315",79.310295,38.825684
"1316",79.29565,38.83911
"1317",79.276115,38.85254
"1318",79.2517,38.865723
"1319",79.22484,38.878906
"1320",79.19554,38.892334
"1321",79.1638,38.90576
"1322",79.13451,38.918945
"1323",79.10521,38.93213
"1324",79.07347,38.945557
"1325",79.046616,38.958984
"1326",79.02464,38.972168
"1327",79.0222,38.98535
"1328",79.07591,38.99878
"1329",79.24193,39.012207
"1330",79.56176,39.02539
"1331",80.05005,39.038574
"1332",80.67506,39.052002
"1333",81.36111,39.06543
"1334",82.00809,39.078613
"1335",82.52079,39.091797
"1336",82.847946,39.105225
"1337",82.97246,39.118652
"1338",82.92607,39.131836
"1339",82.75273,39.14502
"1340",82.5037,39.158447
"1341",82.22537,39.171875
"1342",81.95682,39.18506
"1343",81.722435,39.198242
"1344",81.53933,39.21167
"1345",81.40505,39.225098
"1346",81.307396,39.23828
"1347",81.22926,39.251465
"1348",81.15602,39.264893
"1349",81.075455,39.27832
"1350",80.987564,39.291504
"1351",80.89723,39.304688
"1352",80.81178,39.318115
"1353",80.73853,39.331543
"1354",80.68238,39.344727
"1355",80.64332,39.35791
"1356",80.61402,39.371338
"1357",80.58961,39.384766
"1358",80.56031,39.39795
"1359",80.51881,39.411133
"1360",80.45777,39.42456
"1361",80.37476,39.43799
"1362",80.274666,39.45117
"1363",80.16235,39.464355
"1364",80.04028,39.477783
"1365",79.91577,39.49121
"1366",79.798584,39.504395
"1367",79.693596,39.51758
"1368",79.59838,39.531006
"1369",79.51293,39.544434
"1370",79.432365,39.557617
"1371",79.364006,39.5708
"1372",79.30297,39.58423
"1373",79.2517,39.597656
"1374",79.20775,39.61084
"1375",79.17845,39.624023
"1376",79.15648,39.63745
"1377",79.13939,39.65088
"1378",79.12474,39.664062
"1379",79.11253,39.677246
"1380",79.10033,39.690674
"1381",79.09056,39.7041
"1382",79.07591,39.717285
"1383",79.05882,39.73047
"1384",79.04173,39.743896
"1385",79.02464,39.757324
"1386",79.00511,39.770508
"1387",78.98802,39.78369
"1388",78.97337,39.79712
"1389",78.95628,39.810547
"1390",78.93675,39.82373
"1391",78.91966,39.836914
"1392",78.89525,39.85034
"1393",78.86595,39.86377
"1394",78.83421,39.876953
"1395",78.80736,39.890137
"1396",78.78294,39.903564
"1397",78.79271,39.916992
"1398",78.8806,39.930176
"1399",79.10765,39.94336
"1400",79.50805,39.956787
"1401",80.08911,39.970215
"1402",80.799576,39.9834
"1403",81.55642,39.996582
"1404",82.2449,40.01001
"1405",82.77226,40.023438
"1406",83.09941,40.03662
"1407",83.21904,40.049805
"1408",83.16289,40.063232
"1409",82.98222,40.07666
"1410",82.73319,40.089844
"1411",82.46952,40.103027
"1412",82.22781,40.116455
"1413",82.03006,40.129883
"1414",81.88846,40.143066
"1415",81.795685,40.15625
"1416",81.73708,40.169678
"1417",81.6907,40.183105
"1418",81.62966,40.19629
"1419",81.54421,40.209473
"1420",81.43191,40.2229
"1421",81.29763,40.23633
"1422",81.163345,40.24951
"1423",81.041275,40.262695
"1424",80.938736,40.276123
"1425",80.86061,40.28955
"1426",80.799576,40.302734
"1427",80.75075,40.315918
"1428",80.70191,40.329346
"1429",80.64332,40.342773
"1430",80.57496,40.355957
"1431",80.49195,40.36914
"1432",80.39185,40.38257
"1433",80.27955,40.395996
"1434",80.16235,40.40918
"1435",80.04028,40.422363
"1436",79.91333,40.43579
"1437",79.79126,40.44922
"1438",79.66674,40.462402
"1439",79.551994,40.475586
"1440",79.43969,40.489014
"1441",79.33715,40.50244
"1442",79.24437,40.515625
"1443",79.1638,40.52881
"1444",79.09056,40.542236
"1445",79.03197,40.555664
"1446",78.98802,40.568848
"1447",78.95628,40.58203
"1448",78.93431,40.59546
"1449",78.91478,40.608887
"1450",78.90013,40.62207
"1451",78.88548,40.635254
"1452",78.873276,40.64868
"1453",78.86351,40.66211
"1454",78.84886,40.675293
"1455",78.836655,40.688477
"1456",78.82445,40.701904
"1457",78.8098,40.715332
"1458",78.79027,40.728516
"1459",78.768295,40.7417
"1460",78.74387,40.755127
"1461",78.71458,40.768555
"1462",78.68284,40.78174
"1463",78.65354,40.79492
"1464",78.626686,40.80835
"1465",78.607155,40.821777
"1466",78.6218,40.83496
"1467",78.7219,40.848145
"1468",78.97337,40.861572
"1469",79.40551,40.875
"1470",80.01831,40.888184
"1471",80.762955,40.901367
"1472",81.53933,40.914795
"1473",82.23514,40.928223
"1474",82.760056,40.941406
"1475",83.07744,40.95459
"1476",83.18486,40.968018
"1477",83.12627,40.981445
"1478",82.95293,40.99463
"1479",82.72343,41.007812
"1480",82.48417,41.02124
"1481",82.27421,41.034668
"1482",82.11551,41.04785
"1483",82.01297,41.061035
"1484",81.95438,41.074463
"1485",81.9202,41.08789
"1486",81.88602,41.101074
"1487",81.82254,41.114258
"1488",81.72732,41.127686
"1489",81.60525,41.141113
"1490",81.47341,41.154297
"1491",81.356224,41.16748
"1492",81.26101,41.18091
"1493",81.197525,41.194336
"1494",81.15846,41.20752
"1495",81.13649,41.220703
"1496",81.1194,41.23413
"1497",81.10231,41.24756
"1498",81.075455,41.260742
"1499",81.024185,41.273926
"1500",80.94606,41.287354
"1501",80.84352,41.30078
"1502",80.719,41.313965
"1503",80.58228,41.32715
"1504",80.445564,41.340576
"1505",80.31861,41.354004
"1506",80.198975,41.367188
"1507",80.08667,41.38037
"1508",79.98413,41.3938
"1509",79.88403,41.407227
"1510",79.79126,41.42041
"1511",79.69848,41.433594
"1512",79.61303,41.44702
"1513",79.53002,41.46045
"1514",79.4519,41.473633
"1515",79.37621,41.486816
"1516",79.30541,41.500244
"1517",79.237045,41.51367
"1518",79.17113,41.526855
"1519",79.11009,41.54004
"1520",79.05638,41.553467
"1521",79.00511,41.566895
"1522",78.95384,41.58008
"1523",78.89525,41.59326
"1524",78.82933,41.60669
"1525",78.75609,41.620117
"1526",78.677956,41.6333
"1527",78.60227,41.646484
"1528",78.536354,41.659912
"1529",78.487526,41.67334
"1530",78.46555,41.686523
"1531",78.504616,41.699707
"1532",78.65354,41.713135
"1533",78.958725,41.726562
"1534",79.432365,41.739746
"1535",80.05737,41.75293
"1536",80.75807,41.766357
"1537",81.43435,41.779785
"1538",81.988556,41.79297
"1539",82.35233,41.806152
"1540",82.511024,41.81958
"1541",82.48417,41.833008
"1542",82.320595,41.84619
"1543",82.07889,41.859375
"1544",81.812775,41.872803
"1545",81.57839,41.88623
"1546",81.40261,41.899414
"1547",81.29275,41.912598
"1548",81.23659,41.926025
"1549",81.20973,41.939453
"1550",81.17555,41.952637
"1551",81.10231,41.96582
"1552",80.9778,41.979248
"1553",80.80446,41.992676
"1554",80.6067,42.00586
"1555",80.4065,42.019043
"1556",80.23071,42.03247
"1557",80.08911,42.0459
"1558",79.991455,42.059082
"1559",79.92798,42.072266
"1560",79.89136,42.085693
"1561",79.86694,42.09912
"1562",79.84741,42.112305
"1563",79.82056,42.12549
"1564",79.77905,42.138916
"1565",79.71557,42.152344
"1566",79.62524,42.165527
"1567",79.50561,42.17871
"1568",79.361565,42.19214
"1569",79.1931,42.205566
"1570",79.00511,42.21875
"1571",78.81224,42.231934
"1572",78.61936,42.24536
"1573",78.44358,42.25879
"1574",78.28489,42.271973
"1575",78.14328,42.285156
"1576",78.009,42.298584
"1577",77.87961,42.31201
"1578",77.738,42.325195
"1579",77.58907,42.33838
"1580",77.44015,42.351807
"1581",77.31075,42.365234
"1582",77.22041,42.378418
"1583",77.19356,42.3916
"1584",77.23262,42.40503
"1585",77.33761,42.418457
"1586",77.486534,42.43164
"1587",77.65499,42.444824
"1588",77.8259,42.458252
"1589",77.994354,42.47168
"1590",78.16281,42.484863
"1591",78.34348,42.498047
"1592",78.553444,42.511475
"1593",78.81224,42.524902
"1594",79.15404,42.538086
"1595",79.62035,42.55127
"1596",80.23804,42.564697
"1597",81.004654,42.578125
"1598",81.87625,42.59131
"1599",82.76494,42.604492
"1600",83.57305,42.61792
"1601",84.21271,42.631348
"1602",84.6424,42.64453
"1603",84.86458,42.657715
"1604",84.92073,42.671143
"1605",84.859695,42.68457
"1606",84.735176,42.697754
"1607",84.578926,42.710938
"1608",84.420235,42.724365
"1609",84.263985,42.737793
"1610",84.11505,42.750977
"1611",83.963684,42.76416
"1612",83.81232,42.777588
"1613",83.65362,42.791016
"1614",83.48028,42.8042
"1615",83.2752,42.817383
"1616",83.03349,42.83081
"1617",82.75273,42.84424
"1618",82.44999,42.85742
"1619",82.14725,42.870605
"1620",81.87381,42.884033
"1621",81.654076,42.89746
"1622",81.497826,42.910645
"1623",81.392845,42.92383
"1624",81.322044,42.937256
"1625",81.26345,42.950684
"1626",81.197525,42.963867
"1627",81.10475,42.97705
"1628",80.98268,42.99048
"1629",80.84108,43.003906
"1630",80.67506,43.01709
"1631",80.48463,43.030273
"1632",80.27955,43.0437
"1633",80.059814,43.05713
"1634",79.82544,43.070312
"1635",79.59106,43.083496
"1636",79.36889,43.096924
"1637",79.1638,43.11035
"1638",78.98314,43.123535
"1639",78.82689,43.13672
"1640",78.68772,43.150146
"1641",78.56809,43.163574
"1642",78.46555,43.176758
"1643",78.37278,43.18994
"1644",78.27268,43.20337
"1645",78.16037,43.216797
"1646",78.028534,43.22998
"1647",77.88937,43.243164
"1648",77.74044,43.25659
"1649",77.5964,43.27002
"1650",77.45968,43.283203
"1651",77.349815,43.296387
"1652",77.264366,43.309814
"1653",77.205765,43.323242
"1654",77.171585,43.336426
"1655",77.15938,43.34961
"1656",77.1667,43.363037
"1657",77.20332,43.376465
"1658",77.30587,43.38965
"1659",77.523155,43.402832
"1660",77.89914,43.41626
"1661",78.46311,43.429688
"1662",79.202866,43.44287
"1663",80.06714,43.456055
"1664",80.98268,43.469482
"1665",81.87625,43.48291
"1666",82.68925,43.496094
"1667",83.39727,43.509277
"1668",83.9881,43.522705
"1669",84.437325,43.536133
"1670",84.72785,43.549316
"1671",84.859695,43.5625
"1672",84.85481,43.575928
"1673",84.749825,43.589355
"1674",84.58625,43.60254
"1675",84.39582,43.615723
"1676",84.173645,43.62915
"1677",83.90509,43.64258
"1678",83.563286,43.65576
"1679",83.14824,43.668945
"1680",82.68192,43.682373
"1681",82.2034,43.6958
"1682",81.74441,43.708984
"1683",81.32937,43.722168
"1684",80.96315,43.735596
"1685",80.65064,43.749023
"1686",80.37476,43.762207
"1687",80.12329,43.77539
"1688",79.87915,43.78882
"1689",79.639885,43.802246
"1690",79.38598,43.81543
"1691",79.10521,43.828613
"1692",78.77318,43.84204
"1693",78.382545,43.85547
"1694",77.91623,43.868652
"1695",77.37911,43.881836
"1696",76.79805,43.895264
"1697",76.22919,43.90869
"1698",75.72381,43.921875
"1699",75.335625,43.93506
"1700",75.07927,43.948486
"1701",74.93767,43.961914
"1702",74.881516,43.975098
"1703",74.879074,43.98828
"1704",74.915695,44.00171
"1705",74.99138,44.015137
"1706",75.12077,44.02832
"1707",75.30389,44.041504
"1708",75.51385,44.05493
"1709",75.70672,44.06836
"1710",75.83612,44.081543
"1711",75.88739,44.094727
"1712",75.8703,44.108154
"1713",75.81659,44.121582
"1714",75.76288,44.134766
"1715",75.7409,44.14795
"1716",75.75067,44.161377
"1717",75.78485,44.174805
"1718",75.84589,44.18799
"1719",75.928894,44.20117
"1720",76.03143,44.2146
"1721",76.16571,44.228027
"1722",76.36347,44.24121
"1723",76.65156,44.254395
"1724",77.04219,44.267822
"1725",77.5256,44.28125
"1726",78.05295,44.294434
"1727",78.54368,44.307617
"1728",78.90257,44.321045
"1729",79.05882,44.334473
"1730",78.99046,44.347656
"1731",78.73899,44.36084
"1732",78.37522,44.374268
"1733",77.994354,44.387695
"1734",77.67452,44.40088
"1735",77.48165,44.414062
"1736",77.418175,44.42749
"1737",77.45724,44.440918
"1738",77.54513,44.4541
"1739",77.63546,44.467285
"1740",77.69161,44.480713
"1741",77.69405,44.49414
"1742",77.65499,44.507324
"1743",77.5964,44.520508
"1744",77.54513,44.533936
"1745",77.52071,44.547363
"1746",77.53292,44.560547
"1747",77.574425,44.57373
"1748",77.63546,44.58716
"1749",77.70626,44.600586
"1750",77.77219,44.61377
"1751",77.82834,44.626953
"1752",77.86252,44.64038
"1753",77.86252,44.65381
"1754",77.81613,44.666992
"1755",77.72823,44.680176
"1756",77.608604,44.693604
"1757",77.47677,44.70703
"1758",77.34493,44.720215
"1759",77.21797,44.7334
"1760",77.09346,44.746826
"1761",76.96895,44.760254
"1762",76.83467,44.773438
"1763",76.697945,44.78662
"1764",76.56611,44.80005
"1765",76.45136,44.813477
"1766",76.36103,44.82666
"1767",76.297554,44.839844
"1768",76.27558,44.85327
"1769",76.28535,44.8667
"1770",76.32929,44.879883
"1771",76.39765,44.893066
"1772",76.48798,44.906494
"1773",76.59052,44.91992
"1774",76.700386,44.933105
"1775",76.81758,44.94629
"1776",76.93233,44.959717
"1777",77.04707,44.973145
"1778",77.152054,44.98633
"1779",77.24483,44.99951
"1780",77.32784,45.01294
"1781",77.401085,45.026367
"1782",77.469444,45.03955
"1783",77.53536,45.052734
"1784",77.60372,45.066162
"1785",77.67208,45.07959
"1786",77.74532,45.092773
"1787",77.821014,45.105957
"1788",77.89914,45.119385
"1789",77.979706,45.132812
"1790",78.06271,45.145996
"1791",78.14572,45.15918
"1792",78.23605,45.172607
"1793",78.328835,45.186035
"1794",78.42405,45.19922
"1795",78.521706,45.212402
"1796",78.624245,45.22583
"1797",78.729225,45.239258
"1798",78.83421,45.25244
"1799",78.93675,45.265625
"1800",79.03685,45.279053
"1801",79.13451,45.29248
"1802",79.24193,45.305664
"1803",79.39086,45.318848
"1804",79.62768,45.332275
"1805",80.00122,45.345703
"1806",80.53101,45.358887
"1807",81.19264,45.37207
"1808",81.9202,45.385498
"1809",82.61845,45.398926
"1810",83.192184,45.41211
"1811",83.58282,45.425293
"1812",83.77081,45.43872
"1813",83.773254,45.45215
"1814",83.631645,45.465332
"1815",83.404594,45.478516
"1816",83.15312,45.491943
"1817",82.92363,45.50537
"1818",82.75029,45.518555
"1819",82.63798,45.53174
"1820",82.5745,45.545166
"1821",82.53544,45.558594
"1822",82.493935,45.571777
"1823",82.42802,45.58496
"1824",82.33036,45.59839
"1825",82.196075,45.611816
"1826",82.039825,45.625
"1827",81.87381,45.638184
"1828",81.71999,45.65161
"1829",81.58816,45.66504
"1830",81.480736,45.678223
"1831",81.39773,45.691406
"1832",81.32937,45.704834
"1833",81.26101,45.71826
"1834",81.1902,45.731445
"1835",81.11696,45.74463
"1836",81.03883,45.758057
"1837",80.953384,45.771484
"1838",80.87282,45.784668
"1839",80.79469,45.79785
"1840",80.71412,45.81128
"1841",80.62623,45.824707
"1842",80.52613,45.83789
"1843",80.411385,45.851074
"1844",80.289314,45.864502
"1845",80.164795,45.87793
"1846",80.045166,45.891113
"1847",79.937744,45.904297
"1848",79.85474,45.917725
"1849",79.80591,45.931152
"1850",79.78638,45.944336
"1851",79.801025,45.95752
"1852",79.84497,45.970947
"1853",79.906006,45.984375
"1854",79.96948,45.99756
"1855",80.045166,46.010742
"1856",80.14526,46.02417
"1857",80.26734,46.037598
"1858",80.4065,46.05078
"1859",80.552986,46.063965
"1860",80.69215,46.077393
"1861",80.80202,46.09082
"1862",80.88014,46.104004
"1863",80.92897,46.117188
"1864",80.96071,46.130615
"1865",80.97536,46.144043
"1866",80.97536,46.157227
"1867",80.96315,46.17041
"1868",80.938736,46.183838
"1869",80.902115,46.197266
"1870",80.87526,46.21045
"1871",80.88991,46.223633
"1872",81.007095,46.23706
"1873",81.26101,46.25049
"1874",81.671165,46.26367
"1875",82.20828,46.276855
"1876",82.79668,46.290283
"1877",83.34844,46.30371
"1878",83.77081,46.316895
"1879",84.01495,46.33008
"1880",84.068665,46.343506
"1881",83.9588,46.356934
"1882",83.7293,46.370117
"1883",83.438774,46.3833
"1884",83.13115,46.39673
"1885",82.847946,46.410156
"1886",82.62089,46.42334
"1887",82.44755,46.436523
"1888",82.320595,46.44995
"1889",82.21805,46.46338
"1890",82.11795,46.476562
"1891",81.99588,46.489746
"1892",81.849396,46.503174
"1893",81.685814,46.5166
"1894",81.51003,46.529785
"1895",81.341576,46.54297
"1896",81.19508,46.556396
"1897",81.07057,46.569824
"1898",80.972916,46.583008
"1899",80.88991,46.59619
"1900",80.82155,46.60962
"1901",80.75807,46.623047
"1902",80.69703,46.63623
"1903",80.63111,46.649414
"1904",80.55787,46.66284
"1905",80.47242,46.67627
"1906",80.37232,46.689453
"1907",80.2649,46.702637
"1908",80.14526,46.716064
"1909",80.02319,46.729492
"1910",79.90112,46.742676
"1911",79.77905,46.75586
"1912",79.65942,46.769287
"1913",79.54955,46.782715
"1914",79.4519,46.7959
"1915",79.364006,46.809082
"1916",79.28588,46.82251
"1917",79.21263,46.835938
"1918",79.14183,46.84912
"1919",79.07591,46.862305
"1920",79.01732,46.875732
"1921",78.96849,46.88916
"1922",78.92699,46.902344
"1923",78.89281,46.915527
"1924",78.85863,46.928955
"1925",78.82689,46.942383
"1926",78.80003,46.955566
"1927",78.785385,46.96875
"1928",78.78294,46.982178
"1929",78.78294,46.995605
"1930",78.78783,47.00879
"1931",78.78783,47.021973
"1932",78.7805,47.0354
"1933",78.77074,47.04883
"1934",78.765854,47.06201
"1935",78.76341,47.075195
"1936",78.768295,47.088623
"1937",78.7805,47.10205
"1938",78.79271,47.115234
"1939",78.82445,47.128418
"1940",78.905014,47.141846
"1941",79.08324,47.155273
"1942",79.40063,47.168457
"1943",79.87915,47.18164
"1944",80.48707,47.19507
"1945",81.15114,47.208496
"1946",81.77615,47.22168
"1947",82.266884,47.234863
"1948",82.56718,47.24829
"1949",82.66483,47.26172
"1950",82.59159,47.274902
"1951",82.39872,47.288086
"1952",82.13748,47.301514
"1953",81.85916,47.31494
"1954",81.600365,47.328125
"1955",81.38552,47.34131
"1956",81.22926,47.354736
"1957",81.126724,47.368164
"1958",81.06569,47.381348
"1959",81.01686,47.39453
"1960",80.95827,47.40796
"1961",80.87526,47.421387
"1962",80.76051,47.43457
"1963",80.62623,47.447754
"1964",80.48707,47.46118
"1965",80.35523,47.47461
"1966",80.24536,47.487793
"1967",80.15991,47.500977
"1968",80.1062,47.514404
"1969",80.07202,47.527832
"1970",80.05493,47.541016
"1971",80.045166,47.5542
"1972",80.028076,47.567627
"1973",80.00122,47.581055
"1974",79.96216,47.59424
"1975",79.91333,47.60742
"1976",79.86206,47.62085
"1977",79.80591,47.634277
"1978",79.744865,47.64746
"1979",79.68139,47.660645
"1980",79.61791,47.674072
"1981",79.55688,47.6875
"1982",79.49584,47.700684
"1983",79.44213,47.713867
"1984",79.39086,47.727295
"1985",79.34692,47.740723
"1986",79.310295,47.753906
"1987",79.28832,47.76709
"1988",79.276115,47.780518
"1989",79.27123,47.793945
"1990",79.273674,47.80713
"1991",79.273674,47.820312
"1992",79.27123,47.83374
"1993",79.27123,47.847168
"1994",79.26635,47.86035
"1995",79.256584,47.873535
"1996",79.24925,47.886963
"1997",79.23949,47.90039
"1998",79.23216,47.913574
"1999",79.22728,47.926758
"2000",79.22728,47.940186
"2001",79.22484,47.953613
"2002",79.2224,47.966797
"2003",79.219955,47.97998
"2004",79.217514,47.99341
"2005",79.21507,48.006836
"2006",79.21507,48.02002
"2007",79.21507,48.033203
"2008",79.21507,48.04663
"2009",79.21507,48.06006
"2010",79.21019,48.073242
"2011",79.19798,48.086426
"2012",79.183334,48.099854
"2013",79.185776,48.11328
"2014",79.237045,48.126465
"2015",79.395744,48.13965
"2016",79.708244,48.153076
"2017",80.184326,48.166504
"2018",80.79225,48.179688
"2019",81.449,48.19287
"2020",82.05936,48.2063
"2021",82.530556,48.219727
"2022",82.79912,48.23291
"2023",82.85039,48.246094
"2024",82.703896,48.25952
"2025",82.39384,48.27295
"2026",81.96658,48.286133
"2027",81.48562,48.299316
"2028",81.004654,48.312744
"2029",80.56275,48.32617
"2030",80.18921,48.339355
"2031",79.89136,48.35254
"2032",79.65942,48.365967
"2033",79.46899,48.379395
"2034",79.310295,48.39258
"2035",79.17357,48.40576
"2036",79.05394,48.41919
"2037",78.9514,48.432617
"2038",78.86351,48.4458
"2039",78.78294,48.458984
"2040",78.709694,48.472412
"2041",78.63889,48.48584
"2042",78.58274,48.499023
"2043",78.54612,48.512207
"2044",78.53391,48.525635
"2045",78.538795,48.539062
"2046",78.555885,48.552246
"2047",78.572975,48.56543
"2048",78.572975,48.578857
"2049",78.56077,48.592285
"2050",78.54124,48.60547
"2051",78.51438,48.618652
"2052",78.485085,48.63208
"2053",78.46067,48.645508
"2054",78.433815,48.65869
"2055",78.4094,48.671875
"2056",78.38743,48.685303
"2057",78.37034,48.69873
"2058",78.363014,48.711914
"2059",78.3679,48.725098
"2060",78.382545,48.738525
"2061",78.40696,48.751953
"2062",78.4387,48.765137
"2063",78.4802,48.77832
"2064",78.52903,48.791748
"2065",78.58274,48.805176
"2066",78.643776,48.81836
"2067",78.70237,48.831543
"2068",78.75853,48.84497
"2069",78.81224,48.8584
"2070",78.86107,48.871582
"2071",78.90013,48.884766
"2072",78.93675,48.898193
"2073",78.97337,48.91162
"2074",79.009995,48.924805
"2075",79.0515,48.93799
"2076",79.093,48.951416
"2077",79.12718,48.964844
"2078",79.15892,48.978027
"2079",79.17845,48.99121
"2080",79.19554,49.00464
"2081",79.21019,49.018066
"2082",79.22972,49.03125
"2083",79.24925,49.044434
"2084",79.27123,49.05786
"2085",79.30053,49.07129
"2086",79.36889,49.084473
"2087",79.53246,49.097656
"2088",79.84497,49.111084
"2089",80.325935,49.12451
"2090",80.955826,49.137695
"2091",81.66628,49.15088
"2092",82.34989,49.164307
"2093",82.91142,49.177734
"2094",83.28008,49.190918
"2095",83.43633,49.2041
"2096",83.40215,49.21753
"2097",83.21904,49.230957
"2098",82.9456,49.24414
"2099",82.63798,49.257324
"2100",82.337685,49.270752
"2101",82.07156,49.28418
"2102",81.85672,49.297363
"2103",81.70046,49.310547
"2104",81.5906,49.323975
"2105",81.512474,49.337402
"2106",81.444115,49.350586
"2107",81.36599,49.36377
"2108",81.26589,49.377197
"2109",81.1487,49.390625
"2110",81.02663,49.40381
"2111",80.91432,49.416992
"2112",80.81911,49.43042
"2113",80.75075,49.443848
"2114",80.70435,49.45703
"2115",80.6775,49.470215
"2116",80.66285,49.483643
"2117",80.655525,49.49707
"2118",80.638435,49.510254
"2119",80.59693,49.523438
"2120",80.53834,49.536865
"2121",80.46021,49.550293
"2122",80.37232,49.563477
"2123",80.27711,49.57666
"2124",80.18677,49.590088
"2125",80.093994,49.603516
"2126",80.00366,49.6167
"2127",79.91333,49.629883
"2128",79.83276,49.64331
"2129",79.76196,49.65674
"2130",79.70092,49.66992
"2131",79.65453,49.683105
"2132",79.61791,49.696533
"2133",79.58373,49.70996
"2134",79.55932,49.723145
"2135",79.54223,49.73633
"2136",79.534904,49.749756
"2137",79.53002,49.763184
"2138",79.52514,49.776367
"2139",79.517815,49.78955
"2140",79.50561,49.80298
"2141",79.49096,49.816406
"2142",79.47631,49.82959
"2143",79.4641,49.842773
"2144",79.45678,49.8562
"2145",79.4519,49.86963
"2146",79.4519,49.882812
"2147",79.45678,49.895996
"2148",79.466545,49.909424
"2149",79.47387,49.92285
"2150",79.47631,49.936035
"2151",79.47631,49.94922
"2152",79.47143,49.962646
"2153",79.4641,49.976074
"2154",79.4519,49.989258
"2155",79.44213,50.00244
"2156",79.449455,50.01587
"2157",79.50805,50.029297
"2158",79.676506,50.04248
"2159",80.0061,50.055664
"2160",80.5066,50.06909
"2161",81.146255,50.08252
"2162",81.849396,50.095703
"2163",82.50126,50.108887
"2164",83.004196,50.122314
"2165",83.3045,50.135742
"2166",83.387505,50.148926
"2167",83.28741,50.16211
"2168",83.053024,50.175537
"2169",82.74296,50.188965
"2170",82.41337,50.20215
"2171",82.108185,50.215332
"2172",81.85428,50.22876
"2173",81.65896,50.242188
"2174",81.52468,50.25537
"2175",81.43435,50.268555
"2176",81.36355,50.281982
"2177",81.290306,50.29541
"2178",81.19997,50.308594
"2179",81.0901,50.321777
"2180",80.96315,50.335205
"2181",80.833755,50.348633
"2182",80.723885,50.361816
"2183",80.635994,50.375
"2184",80.5774,50.388428
"2185",80.54078,50.401855
"2186",80.516365,50.41504
"2187",80.49195,50.428223
"2188",80.45777,50.44165
"2189",80.413826,50.45508
"2190",80.35767,50.46826
"2191",80.289314,50.481445
"2192",80.20874,50.494873
"2193",80.12085,50.5083
"2194",80.028076,50.521484
"2195",79.940186,50.534668
"2196",79.852295,50.548096
"2197",79.76929,50.561523
"2198",79.68871,50.574707
"2199",79.61059,50.58789
"2200",79.537346,50.60132
"2201",79.47143,50.614746
"2202",79.412834,50.62793
"2203",79.37133,50.641113
"2204",79.34203,50.65454
"2205",79.31518,50.66797
"2206",79.29565,50.681152
"2207",79.281,50.694336
"2208",79.26635,50.707764
"2209",79.25414,50.72119
"2210",79.24437,50.734375
"2211",79.237045,50.74756
"2212",79.22972,50.760986
"2213",79.219955,50.774414
"2214",79.20775,50.787598
"2215",79.1931,50.80078
"2216",79.17601,50.81421
"2217",79.15892,50.827637
"2218",79.13939,50.84082
"2219",79.11742,50.854004
"2220",79.097885,50.86743
"2221",79.080795,50.88086
"2222",79.06859,50.894043
"2223",79.05638,50.907227
"2224",79.046616,50.920654
"2225",79.03685,50.934082
"2226",79.0222,50.947266
"2227",79.00755,50.96045
"2228",79.01488,50.973877
"2229",79.08812,50.987305
"2230",79.290764,51.00049
"2231",79.66918,51.01367
"2232",80.23071,51.0271
"2233",80.93141,51.040527
"2234",81.68093,51.05371
"2235",82.36454,51.066895
"2236",82.88457,51.080322
"2237",83.194626,51.09375
"2238",83.28985,51.106934
"2239",83.20195,51.120117
"2240",82.98711,51.133545
"2241",82.69901,51.146973
"2242",82.388954,51.160156
"2243",82.091095,51.17334
"2244",81.84451,51.186768
"2245",81.651634,51.200195
"2246",81.512474,51.21338
"2247",81.41482,51.226562
"2248",81.34402,51.23999
"2249",81.26589,51.253418
"2250",81.16823,51.2666
"2251",81.0486,51.279785
"2252",80.919205,51.293213
"2253",80.78981,51.30664
"2254",80.67994,51.319824
"2255",80.59449,51.333008
"2256",80.5359,51.346436
"2257",80.499275,51.359863
"2258",80.4773,51.373047
"2259",80.45777,51.38623
"2260",80.428474,51.39966
"2261",80.38209,51.413086
"2262",80.31373,51.42627
"2263",80.22827,51.439453
"2264",80.130615,51.45288
"2265",80.025635,51.46631
"2266",79.92554,51.479492
"2267",79.82788,51.492676
"2268",79.7351,51.506104
"2269",79.64233,51.51953
"2270",79.554436,51.532715
"2271",79.47143,51.5459
"2272",79.395744,51.559326
"2273",79.327385,51.572754
"2274",79.27123,51.585938
"2275",79.2224,51.59912
"2276",79.183334,51.61255
"2277",79.149155,51.625977
"2278",79.12718,51.63916
"2279",79.11253,51.652344
"2280",79.11253,51.66577
"2281",79.11986,51.6792
"2282",79.12962,51.692383
"2283",79.14183,51.705566
"2284",79.14671,51.718994
"2285",79.14427,51.73242
"2286",79.12962,51.745605
"2287",79.11253,51.75879
"2288",79.08568,51.772217
"2289",79.061264,51.785645
"2290",79.03685,51.79883
"2291",79.012436,51.81201
"2292",78.992905,51.82544
"2293",78.98558,51.838867
"2294",79.01488,51.85205
"2295",79.1223,51.865234
"2296",79.361565,51.878662
"2297",79.77173,51.89209
"2298",80.34547,51.905273
"2299",81.02907,51.918457
"2300",81.73708,51.931885
"2301",82.36698,51.945312
"2302",82.828415,51.958496
"2303",83.08232,51.97168
"2304",83.13359,51.985107
"2305",83.018845,51.998535
"2306",82.78691,52.01172
"2307",82.49882,52.024902
"2308",82.2034,52.03833
"2309",81.93729,52.051758
"2310",81.71755,52.06494
"2311",81.54665,52.078125
"2312",81.41482,52.091553
"2313",81.30007,52.10498
"2314",81.19264,52.118164
"2315",81.07301,52.131348
"2316",80.9485,52.144775
"2317",80.82399,52.158203
"2318",80.709236,52.171387
"2319",80.621346,52.18457
"2320",80.56275,52.197998
"2321",80.533455,52.211426
"2322",80.52125,52.22461
"2323",80.516365,52.237793
"2324",80.50416,52.25122
"2325",80.46998,52.26465
"2326",80.41627,52.277832
"2327",80.343025,52.291016
"2328",80.25269,52.304443
"2329",80.14526,52.31787
"2330",80.03296,52.331055
"2331",79.91821,52.34424
"2332",79.801025,52.357666
"2333",79.68871,52.371094
"2334",79.58129,52.384277
"2335",79.48119,52.39746
"2336",79.395744,52.41089
"2337",79.32006,52.424316
"2338",79.259026,52.4375
"2339",79.20775,52.450684
"2340",79.166245,52.46411
"2341",79.12718,52.47754
"2342",79.09544,52.490723
"2343",79.07347,52.503906
"2344",79.05638,52.517334
"2345",79.04906,52.53076
"2346",79.044174,52.543945
"2347",79.03929,52.55713
"2348",79.03197,52.570557
"2349",79.01976,52.583984
"2350",79.00267,52.597168
"2351",78.975815,52.61035
"2352",78.94652,52.62378
"2353",78.91478,52.637207
"2354",78.87572,52.65039
"2355",78.836655,52.663574
"2356",78.819565,52.677002
"2357",78.8513,52.69043
"2358",78.98558,52.703613
"2359",79.276115,52.716797
"2360",79.744865,52.730225
"2361",80.37232,52.743652
"2362",81.10231,52.756836
"2363",81.83475,52.77002
"2364",82.459755,52.783447
"2365",82.90898,52.796875
"2366",83.140915,52.81006
"2367",83.175095,52.823242
"2368",83.0457,52.83667
"2369",82.81865,52.850098
"2370",82.55009,52.86328
"2371",82.29618,52.876465
"2372",82.07889,52.889893
"2373",81.92264,52.90332
"2374",81.815216,52.916504
"2375",81.74197,52.929688
"2376",81.671165,52.943115
"2377",81.58083,52.956543
"2378",81.45876,52.969727
"2379",81.307396,52.98291
"2380",81.143814,52.996338
"2381",80.98512,53.009766
"2382",80.84596,53.02295
"2383",80.73853,53.036133
"2384",80.66041,53.04956
"2385",80.604256,53.06299
"2386",80.56031,53.07617
"2387",80.52613,53.089355
"2388",80.48463,53.102783
"2389",80.42603,53.11621
"2390",80.34547,53.129395
"2391",80.2478,53.14258
"2392",80.13794,53.156006
"2393",80.01831,53.169434
"2394",79.89868,53.182617
"2395",79.77417,53.1958
"2396",79.64965,53.20923
"2397",79.520256,53.222656
"2398",79.40063,53.23584
"2399",79.29565,53.249023
"2400",79.20531,53.26245
"2401",79.12962,53.27588
"2402",79.06615,53.289062
"2403",79.012436,53.302246
"2404",78.96605,53.315674
"2405",78.92699,53.3291
"2406",78.89769,53.342285
"2407",78.873276,53.35547
"2408",78.84886,53.368896
"2409",78.82445,53.382324
"2410",78.79515,53.395508
"2411",78.76341,53.40869
"2412",78.73167,53.42212
"2413",78.70237,53.435547
"2414",78.677956,53.44873
"2415",78.658424,53.461914
"2416",78.63889,53.47534
"2417",78.61692,53.48877
"2418",78.59251,53.501953
"2419",78.56077,53.515137
"2420",78.52415,53.528564
"2421",78.45335,53.555176
"2422",78.42161,53.56836
"2423",78.399635,53.581787
"2424",78.4094,53.595215
"2425",78.48997,53.6084
"2426",78.69993,53.621582
"2427",79.09056,53.63501
"2428",79.676506,53.648438
"2429",80.42115,53.66162
"2430",81.234146,53.674805
"2431",82.003204,53.688232
"2432",82.62089,53.70166
"2433",83.02373,53.714844
"2434",83.20195,53.728027
"2435",83.17998,53.741455
"2436",83.0164,53.754883
"2437",82.777145,53.768066
"2438",82.528114,53.78125
"2439",82.31327,53.794678
"2440",82.15701,53.808105
"2441",82.06424,53.82129
"2442",82.01541,53.834473
"2443",81.97879,53.8479
"2444",81.92508,53.86133
"2445",81.82742,53.87451
"2446",81.68337,53.887695
"2447",81.495384,53.901123
"2448",81.28298,53.91455
"2449",81.07057,53.927734
"2450",80.8777,53.940918
"2451",80.72144,53.954346
"2452",80.601814,53.967773
"2453",80.51881,53.980957
"2454",80.45533,53.99414
"2455",80.39918,54.00757
"2456",80.3357,54.020996
"2457",80.26246,54.03418
"2458",80.17212,54.047363
"2459",80.06958,54.06079
"2460",79.954834,54.07422
"2461",79.835205,54.087402
"2462",79.7058,54.100586
"2463",79.57397,54.114014
"2464",79.43969,54.12744
"2465",79.31274,54.140625
"2466",79.1931,54.15381
"2467",79.08324,54.167236
"2468",78.9807,54.180664
"2469",78.890366,54.193848
"2470",78.80736,54.20703
"2471",78.73411,54.22046
"2472",78.66819,54.233887
"2473",78.61204,54.24707
"2474",78.56565,54.260254
"2475",78.52903,54.27368
"2476",78.502174,54.28711
"2477",78.47532,54.300293
"2478",78.450905,54.313477
"2479",78.42161,54.326904
"2480",78.39231,54.340332
"2481",78.35569,54.353516
"2482",78.32151,54.3667
"2483",78.28733,54.380127
"2484",78.25559,54.393555
"2485",78.22385,54.40674
"2486",78.19943,54.41992
"2487",78.17746,54.43335
"2488",78.15793,54.446777
"2489",78.1384,54.45996
"2490",78.118866,54.473145
"2491",78.099335,54.486572
"2492",78.0798,54.5
"2493",78.06271,54.513184
"2494",78.04562,54.526367
"2495",78.030975,54.539795
"2496",78.02121,54.553223
"2497",78.02121,54.566406
"2498",78.065155,54.57959
"2499",78.2092,54.593018
"2500",78.5095,54.606445
"2501",78.995346,54.61963
"2502",79.65942,54.632812
"2503",80.4358,54.64624
"2504",81.2195,54.659668
"2505",81.8909,54.67285
"2506",82.371864,54.686035
"2507",82.62333,54.699463
"2508",82.66239,54.71289
"2509",82.53788,54.726074
"2510",82.31815,54.739258
"2511",82.06668,54.752686
"2512",81.832306,54.766113
"2513",81.65896,54.779297
"2514",81.55154,54.79248
"2515",81.50759,54.80591
"2516",81.49294,54.819336
"2517",81.478294,54.83252
"2518",81.427025,54.845703
"2519",81.3196,54.85913
"2520",81.15358,54.87256
"2521",80.95094,54.885742
"2522",80.73853,54.898926
"2523",80.54322,54.912354
"2524",80.38453,54.92578
"2525",80.2649,54.938965
"2526",80.181885,54.95215
"2527",80.128174,54.965576
"2528",80.08667,54.979004
"2529",80.042725,54.992188
"2530",79.9939,55.00537
"2531",79.93042,55.0188
"2532",79.84985,55.032227
"2533",79.74975,55.04541
"2534",79.63744,55.058594
"2535",79.520256,55.07202
"2536",79.40063,55.08545
"2537",79.281,55.098633
"2538",79.17113,55.111816
"2539",79.06615,55.125244
"2540",78.96849,55.13867
"2541",78.87572,55.151855
"2542",78.79759,55.16504
"2543",78.73167,55.178467
"2544",78.677956,55.191895
"2545",78.63645,55.20508
"2546",78.60471,55.21826
"2547",78.57786,55.23169
"2548",78.551,55.245117
"2549",78.52659,55.2583
"2550",78.504616,55.271484
"2551",78.48264,55.284912
"2552",78.45823,55.29834
"2553",78.43137,55.311523
"2554",78.4094,55.324707
"2555",78.38743,55.338135
"2556",78.37034,55.351562
"2557",78.35325,55.364746
"2558",78.34104,55.37793
"2559",78.328835,55.391357
"2560",78.311745,55.404785
"2561",78.294655,55.41797
"2562",78.28001,55.431152
"2563",78.2678,55.44458
"2564",78.25803,55.458008
"2565",78.25315,55.47119
"2566",78.25559,55.484375
"2567",78.26536,55.497803
"2568",78.27268,55.51123
"2569",78.28245,55.524414
"2570",78.29221,55.537598
"2571",78.294655,55.551025
"2572",78.294655,55.564453
"2573",78.29221,55.577637
"2574",78.28733,55.59082
"2575",78.28245,55.604248
"2576",78.28733,55.617676
"2577",78.314186,55.63086
"2578",78.40452,55.644043
"2579",78.60471,55.65747
"2580",78.97093,55.6709
"2581",79.51537,55.684082
"2582",80.21118,55.697266
"2583",80.98268,55.710693
"2584",81.71999,55.72412
"2585",82.320595,55.737305
"2586",82.71366,55.75049
"2587",82.882126,55.763916
"2588",82.85039,55.777344
"2589",82.6746,55.790527
"2590",82.423134,55.80371
"2591",82.15701,55.81714
"2592",81.92508,55.830566
"2593",81.75174,55.84375
"2594",81.63943,55.856934
"2595",81.58083,55.87036
"2596",81.55154,55.88379
"2597",81.51736,55.896973
"2598",81.45632,55.910156
"2599",81.34646,55.923584
"2600",81.19508,55.93701
"2601",81.01686,55.950195
"2602",80.8362,55.96338
"2603",80.67506,55.976807
"2604",80.5481,55.990234
"2605",80.46021,56.003418
"2606",80.40162,56.0166
"2607",80.360115,56.03003
"2608",80.32838,56.043457
"2609",80.2942,56.05664
"2610",80.25025,56.069824
"2611",80.181885,56.083252
"2612",80.09888,56.09668
"2613",80.00366,56.109863
"2614",79.89868,56.123047
"2615",79.78882,56.136475
"2616",79.68383,56.149902
"2617",79.58373,56.163086
"2618",79.48119,56.17627
"2619",79.38354,56.189697
"2620",79.29565,56.203125
"2621",79.217514,56.21631
"2622",79.14427,56.229492
"2623",79.08324,56.24292
"2624",79.029526,56.256348
"2625",78.99046,56.26953
"2626",78.958725,56.282715
"2627",78.93919,56.296143
"2628",78.92699,56.30957
"2629",78.91478,56.322754
"2630",78.90257,56.335938
"2631",78.887924,56.349365
"2632",78.87572,56.362793
"2633",78.86107,56.375977
"2634",78.84642,56.38916
"2635",78.82201,56.402588
"2636",78.80003,56.416016
"2637",78.77562,56.4292
"2638",78.74876,56.442383
"2639",78.72434,56.45581
"2640",78.70725,56.46924
"2641",78.69016,56.48242
"2642",78.677956,56.495605
"2643",78.66819,56.509033
"2644",78.66575,56.52246
"2645",78.66819,56.535645
"2646",78.67063,56.54883
"2647",78.675514,56.562256
"2648",78.677956,56.575684
"2649",78.675514,56.588867
"2650",78.67063,56.60205
"2651",78.66819,56.61548
"2652",78.67063,56.628906
"2653",78.70481,56.64209
"2654",78.81468,56.655273
"2655",79.05394,56.6687
"2656",79.4641,56.68213
"2657",80.04761,56.695312
"2658",80.75563,56.708496
"2659",81.50027,56.721924
"2660",82.17166,56.73535
"2661",82.6746,56.748535
"2662",82.96513,56.76172
"2663",83.04326,56.775146
"2664",82.9456,56.788574
"2665",82.73319,56.801758
"2666",82.4622,56.81494
"2667",82.18631,56.82837
"2668",81.94217,56.841797
"2669",81.75418,56.85498
"2670",81.62722,56.868164
"2671",81.54665,56.88159
"2672",81.4905,56.89502
"2673",81.42947,56.908203
"2674",81.339134,56.921387
"2675",81.21217,56.934814
"2676",81.058365,56.948242
"2677",80.89967,56.961426
"2678",80.75563,56.97461
"2679",80.64088,56.988037
"2680",80.56031,57.001465
"2681",80.50416,57.01465
"2682",80.46754,57.027832
"2683",80.43336,57.04126
"2684",80.39185,57.054688
"2685",80.33814,57.06787
"2686",80.2649,57.081055
"2687",80.16724,57.094482
"2688",80.059814,57.10791
"2689",79.94751,57.121094
"2690",79.835205,57.134277
"2691",79.725334,57.147705
"2692",79.62035,57.161133
"2693",79.517815,57.174316
"2694",79.42016,57.1875
"2695",79.32983,57.200928
"2696",79.24925,57.214355
"2697",79.17845,57.22754
"2698",79.1223,57.240723
"2699",79.07347,57.25415
"2700",79.029526,57.26758
"2701",78.995346,57.28076
"2702",78.96849,57.293945
"2703",78.94408,57.307373
"2704",78.924545,57.3208
"2705",78.9099,57.333984
"2706",78.90013,57.347168
"2707",78.89281,57.360596
"2708",78.88304,57.374023
"2709",78.870834,57.387207
"2710",78.85863,57.40039
"2711",78.83421,57.41382
"2712",78.80492,57.427246
"2713",78.77562,57.44043
"2714",78.74876,57.453613
"2715",78.7219,57.46704
"2716",78.695045,57.48047
"2717",78.675514,57.493652
"2718",78.66331,57.506836
"2719",78.658424,57.520264
"2720",78.658424,57.53369
"2721",78.67063,57.546875
"2722",78.68528,57.56006
"2723",78.695045,57.573486
"2724",78.69993,57.586914
"2725",78.70237,57.600098
"2726",78.695045,57.61328
"2727",78.68528,57.62671
"2728",78.67307,57.640137
"2729",78.66819,57.65332
"2730",78.66575,57.666504
"2731",78.68528,57.67993
"2732",78.76341,57.69336
"2733",78.95628,57.706543
"2734",79.310295,57.719727
"2735",79.85474,57.733154
"2736",80.56031,57.746582
"2737",81.34402,57.759766
"2738",82.08865,57.77295
"2739",82.69169,57.786377
"2740",83.07744,57.799805
"2741",83.23125,57.81299
"2742",83.177536,57.82617
"2743",82.97734,57.8396
"2744",82.69169,57.853027
"2745",82.37919,57.86621
"2746",82.09354,57.879395
"2747",81.85916,57.892822
"2748",81.69558,57.90625
"2749",81.59548,57.919434
"2750",81.54177,57.932617
"2751",81.50027,57.946045
"2752",81.446556,57.959473
"2753",81.358665,57.972656
"2754",81.22682,57.98584
"2755",81.06081,57.999268
"2756",80.885025,58.012695
"2757",80.72144,58.02588
"2758",80.584724,58.039062
"2759",80.48707,58.05249
"2760",80.42115,58.065918
"2761",80.37476,58.0791
"2762",80.3357,58.092285
"2763",80.2942,58.105713
"2764",80.23804,58.11914
"2765",80.16968,58.132324
"2766",80.08667,58.145508
"2767",79.991455,58.158936
"2768",79.888916,58.172363
"2769",79.783936,58.185547
"2770",79.67895,58.19873
"2771",79.571526,58.21216
"2772",79.47387,58.225586
"2773",79.378654,58.23877
"2774",79.28588,58.251953
"2775",79.20775,58.26538
"2776",79.14183,58.27881
"2777",79.08568,58.291992
"2778",79.03685,58.305176
"2779",79.00023,58.318604
"2780",78.97337,58.33203
"2781",78.95384,58.345215
"2782",78.93675,58.3584
"2783",78.924545,58.371826
"2784",78.91234,58.385254
"2785",78.89525,58.398438
"2786",78.88304,58.41162
"2787",78.870834,58.42505
"2788",78.856186,58.438477
"2789",78.84642,58.45166
"2790",78.83421,58.464844
"2791",78.81712,58.47827
"2792",78.79515,58.4917
"2793",78.77806,58.504883
"2794",78.765854,58.518066
"2795",78.75609,58.531494
"2796",78.74876,58.54492
"2797",78.746315,58.558105
"2798",78.73899,58.57129
"2799",78.73167,58.584717
"2800",78.72678,58.598145
"2801",78.72678,58.61133
"2802",78.73411,58.62451
"2803",78.746315,58.63794
"2804",78.75609,58.651367
"2805",78.765854,58.66455
"2806",78.77074,58.677734
"2807",78.77074,58.691162
"2808",78.77318,58.70459
"2809",78.7805,58.717773
"2810",78.78294,58.730957
"2811",78.78783,58.744385
"2812",78.79027,58.757812
"2813",78.802475,58.770996
"2814",78.84642,58.78418
"2815",78.975815,58.797607
"2816",79.24925,58.811035
"2817",79.7058,58.82422
"2818",80.33814,58.837402
"2819",81.08766,58.85083
"2820",81.8616,58.864258
"2821",82.54032,58.87744
"2822",83.035934,58.890625
"2823",83.299614,58.904053
"2824",83.33868,58.91748
"2825",83.19707,58.930664
"2826",82.93828,58.943848
"2827",82.61845,58.957275
"2828",82.28886,58.970703
"2829",82.00076,58.983887
"2830",81.76883,58.99707
"2831",81.602806,59.010498
"2832",81.497826,59.023926
"2833",81.43435,59.03711
"2834",81.38064,59.050293
"2835",81.31716,59.06372
"2836",81.21706,59.07715
"2837",81.08522,59.090332
"2838",80.93385,59.103516
"2839",80.780045,59.116943
"2840",80.64088,59.13037
"2841",80.53101,59.143555
"2842",80.445564,59.15674
"2843",80.38453,59.170166
"2844",80.3357,59.183594
"2845",80.291756,59.196777
"2846",80.2478,59.20996
"2847",80.19409,59.22339
"2848",80.128174,59.236816
"2849",80.05005,59.25
"2850",79.9646,59.263184
"2851",79.869385,59.27661
"2852",79.77417,59.29004
"2853",79.67895,59.303223
"2854",79.588615,59.316406
"2855",79.50561,59.329834
"2856",79.432365,59.34326
"2857",79.364006,59.356445
"2858",79.30297,59.36963
"2859",79.24681,59.383057
"2860",79.19554,59.396484
"2861",79.15892,59.409668
"2862",79.12962,59.42285
"2863",79.10521,59.43628
"2864",79.080795,59.449707
"2865",79.05638,59.46289
"2866",79.03197,59.476074
"2867",79.009995,59.489502
"2868",78.992905,59.50293
"2869",78.9807,59.516113
"2870",78.97093,59.529297
"2871",78.96117,59.542725
"2872",78.94896,59.556152
"2873",78.93675,59.569336
"2874",78.922104,59.58252
"2875",78.9099,59.595947
"2876",78.89769,59.609375
"2877",78.887924,59.62256
"2878",78.8806,59.635742
"2879",78.870834,59.64917
"2880",78.86107,59.662598
"2881",78.853745,59.67578
"2882",78.84886,59.688965
"2883",78.84886,59.702393
"2884",78.853745,59.71582
"2885",78.85863,59.729004
"2886",78.85863,59.742188
"2887",78.86107,59.755615
"2888",78.856186,59.769043
"2889",78.853745,59.782227
"2890",78.853745,59.79541
"2891",78.85863,59.808838
"2892",78.887924,59.822266
"2893",78.98314,59.83545
"2894",79.202866,59.848633
"2895",79.5935,59.86206
"2896",80.16968,59.87549
"2897",80.885025,59.88867
"2898",81.64675,59.901855
"2899",82.34501,59.915283
"2900",82.882126,59.92871
"2901",83.19951,59.941895
"2902",83.29229,59.95508
"2903",83.19707,59.968506
"2904",82.96513,59.981934
"2905",82.650185,59.995117
"2906",82.30595,60.0083
"2907",81.98123,60.02173
"2908",81.69802,60.035156
"2909",81.478294,60.04834
"2910",81.31716,60.061523
"2911",81.20485,60.07495
"2912",81.11696,60.08838
"2913",81.03395,60.101562
"2914",80.938736,60.114746
"2915",80.82643,60.128174
"2916",80.69947,60.1416
"2917",80.5774,60.154785
"2918",80.479744,60.16797
"2919",80.40894,60.181396
"2920",80.36744,60.194824
"2921",80.35035,60.208008
"2922",80.34547,60.22119
"2923",80.3357,60.23462
"2924",80.31373,60.248047
"2925",80.26978,60.26123
"2926",80.20386,60.274414
"2927",80.11597,60.28784
"2928",80.01343,60.30127
"2929",79.903564,60.314453
"2930",79.79126,60.327637
"2931",79.68383,60.341064
"2932",79.586174,60.354492
"2933",79.49584,60.367676
"2934",79.415276,60.38086
"2935",79.34203,60.394287
"2936",79.281,60.407715
"2937",79.22728,60.4209
"2938",79.183334,60.434082
"2939",79.15404,60.44751
"2940",79.13939,60.460938
"2941",79.12962,60.47412
"2942",79.1223,60.487305
"2943",79.11986,60.500732
"2944",79.1223,60.51416
"2945",79.11986,60.527344
"2946",79.11742,60.540527
"2947",79.114975,60.553955
"2948",79.114975,60.567383
"2949",79.10765,60.580566
"2950",79.10033,60.59375
"2951",79.093,60.607178
"2952",79.08324,60.620605
"2953",79.06859,60.63379
"2954",79.0515,60.646973
"2955",79.02464,60.6604
"2956",78.995346,60.67383
"2957",78.96605,60.68701
"2958",78.93675,60.700195
"2959",78.922104,60.713623
"2960",78.9514,60.72705
"2961",79.080795,60.740234
"2962",79.35424,60.753418
"2963",79.80347,60.766846
"2964",80.41871,60.780273
"2965",81.14137,60.793457
"2966",81.864044,60.80664
"2967",82.47929,60.82007
"2968",82.90654,60.833496
"2969",83.11162,60.84668
"2970",83.10918,60.859863
"2971",82.94316,60.87329
"2972",82.67216,60.88672
"2973",82.34989,60.899902
"2974",82.02518,60.913086
"2975",81.7322,60.926514
"2976",81.495384,60.93994
"2977",81.3196,60.953125
"2978",81.19508,60.96631
"2979",81.09743,60.979736
"2980",81.004654,60.993164
"2981",80.902115,61.006348
"2982",80.78493,61.01953
"2983",80.66285,61.03296
"2984",80.552986,61.046387
"2985",80.465096,61.05957
"2986",80.4065,61.072754
"2987",80.37232,61.08618
"2988",80.36256,61.09961
"2989",80.35523,61.112793
"2990",80.33814,61.125977
"2991",80.30396,61.139404
"2992",80.2478,61.152832
"2993",80.17456,61.166016
"2994",80.08667,61.1792
"2995",79.991455,61.192627
"2996",79.888916,61.206055
"2997",79.781494,61.21924
"2998",79.67162,61.23242
"2999",79.5642,61.24585
"3000",79.4641,61.259277
"3001",79.37377,61.27246
"3002",79.293205,61.285645
"3003",79.22484,61.299072
"3004",79.166245,61.3125
"3005",79.114975,61.325684
"3006",79.078354,61.338867
"3007",79.05394,61.352295
"3008",79.044174,61.365723
"3009",79.04173,61.378906
"3010",79.044174,61.39209
"3011",79.046616,61.405518
"3012",79.044174,61.418945
"3013",79.04173,61.43213
"3014",79.03441,61.445312
"3015",79.027084,61.45874
"3016",79.0222,61.472168
"3017",79.01732,61.48535
"3018",79.01488,61.498535
"3019",79.009995,61.511963
"3020",79.00267,61.52539
"3021",78.992905,61.538574
"3022",78.975815,61.551758
"3023",78.95384,61.565186
"3024",78.92699,61.578613
"3025",78.90257,61.591797
"3026",78.88548,61.60498
"3027",78.905014,61.61841
"3028",79.01488,61.631836
"3029",79.273674,61.64502
"3030",79.71801,61.658203
"3031",80.35035,61.67163
"3032",81.10719,61.68506
"3033",81.89334,61.698242
"3034",82.58671,61.711426
"3035",83.09941,61.724854
"3036",83.38262,61.73828
"3037",83.45098,61.751465
"3038",83.33868,61.76465
"3039",83.106735,61.778076
"3040",82.81377,61.791504
"3041",82.513466,61.804688
"3042",82.2449,61.81787
"3043",82.0325,61.8313
"3044",81.88846,61.844727
"3045",81.80057,61.85791
"3046",81.74441,61.871094
"3047",81.688255,61.88452
"3048",81.60769,61.89795
"3049",81.48806,61.911133
"3050",81.339134,61.924316
"3051",81.17555,61.937744
"3052",81.01686,61.95117
"3053",80.8777,61.964355
"3054",80.765396,61.97754
"3055",80.67994,61.990967
"3056",80.618904,62.004395
"3057",80.57496,62.01758
"3058",80.533455,62.03076
"3059",80.48707,62.04419
"3060",80.428474,62.057617
"3061",80.35035,62.0708
"3062",80.25025,62.083984
"3063",80.14038,62.097412
"3064",80.025635,62.11084
"3065",79.90845,62.124023
"3066",79.7937,62.137207
"3067",79.68627,62.150635
"3068",79.58373,62.164062
"3069",79.48119,62.177246
"3070",79.38842,62.19043
"3071",79.30053,62.203857
"3072",79.22484,62.217285
"3073",79.15892,62.23047
"3074",79.10521,62.243652
"3075",79.061264,62.25708
"3076",79.027084,62.270508
"3077",79.00023,62.28369
"3078",78.97826,62.296875
"3079",78.958725,62.310303
"3080",78.93675,62.32373
"3081",78.91478,62.336914
"3082",78.890366,62.350098
"3083",78.86595,62.363525
"3084",78.84398,62.376953
"3085",78.82689,62.390137
"3086",78.81224,62.40332
"3087",78.79759,62.416748
"3088",78.78294,62.430176
"3089",78.765854,62.44336
"3090",78.751205,62.456543
"3091",78.73167,62.46997
"3092",78.712135,62.4834
"3093",78.692604,62.496582
"3094",78.67063,62.509766
"3095",78.64622,62.523193
"3096",78.62913,62.53662
"3097",78.63401,62.549805
"3098",78.70725,62.56299
"3099",78.90013,62.576416
"3100",79.276115,62.589844
"3101",79.84253,62.603027
"3102",80.570076,62.61621
"3103",81.373314,62.62964
"3104",82.1326,62.643066
"3105",82.74052,62.65625
"3106",83.12627,62.669434
"3107",83.27764,62.68286
"3108",83.22392,62.69629
"3109",83.021286,62.709473
"3110",82.74052,62.722656
"3111",82.44511,62.736084
"3112",82.178986,62.74951
"3113",81.97635,62.762695
"3114",81.846954,62.77588
"3115",81.77371,62.789307
"3116",81.7322,62.802734
"3117",81.685814,62.815918
"3118",81.60769,62.8291
"3119",81.48318,62.84253
"3120",81.31716,62.855957
"3121",81.12428,62.86914
"3122",80.92409,62.882324
"3123",80.74586,62.895752
"3124",80.601814,62.90918
"3125",80.49195,62.922363
"3126",80.41627,62.935547
"3127",80.360115,62.948975
"3128",80.31129,62.962402
"3129",80.255135,62.975586
"3130",80.18677,62.98877
"3131",80.10376,63.002197
"3132",80.01099,63.015625
"3133",79.906006,63.02881
"3134",79.7937,63.041992
"3135",79.67895,63.05542
"3136",79.56176,63.068848
"3137",79.447014,63.08203
"3138",79.34203,63.095215
"3139",79.24681,63.108643
"3140",79.15648,63.12207
"3141",79.07591,63.135254
"3142",78.99779,63.148438
"3143",78.92699,63.161865
"3144",78.86351,63.175293
"3145",78.8098,63.188477
"3146",78.768295,63.20166
"3147",78.74143,63.215088
"3148",78.71946,63.228516
"3149",78.70481,63.2417
"3150",78.68772,63.254883
"3151",78.67063,63.26831
"3152",78.6511,63.28174
"3153",78.63157,63.29492
"3154",78.61204,63.308105
"3155",78.590065,63.321533
"3156",78.56321,63.33496
"3157",78.536354,63.348145
"3158",78.51438,63.36133
"3159",78.49485,63.374756
"3160",78.47532,63.388184
"3161",78.46311,63.401367
"3162",78.450905,63.41455
"3163",78.4387,63.42798
"3164",78.42893,63.441406
"3165",78.42649,63.45459
"3166",78.42893,63.467773
"3167",78.42893,63.4812
"3168",78.42893,63.49463
"3169",78.42893,63.507812
"3170",78.42161,63.520996
"3171",78.41184,63.534424
"3172",78.40208,63.54785
"3173",78.40208,63.561035
"3174",78.44358,63.57422
"3175",78.58518,63.587646
"3176",78.88304,63.601074
"3177",79.37133,63.614258
"3178",80.04028,63.62744
"3179",80.81911,63.64087
"3180",81.58816,63.654297
"3181",82.23514,63.66748
"3182",82.669716,63.680664
"3183",82.86748,63.69409
"3184",82.847946,63.70752
"3185",82.66483,63.720703
"3186",82.388954,63.733887
"3187",82.08377,63.747314
"3188",81.79813,63.760742
"3189",81.55886,63.773926
"3190",81.38308,63.78711
"3191",81.26589,63.800537
"3192",81.1902,63.813965
"3193",81.129166,63.82715
"3194",81.05104,63.840332
"3195",80.94606,63.85376
"3196",80.8069,63.867188
"3197",80.65064,63.88037
"3198",80.50172,63.893555
"3199",80.37476,63.906982
"3200",80.27711,63.92041
"3201",80.21118,63.933594
"3202",80.16724,63.946777
"3203",80.130615,63.960205
"3204",80.096436,63.973633
"3205",80.04761,63.986816
"3206",79.98657,64
"3207",79.91089,64.01343
"3208",79.82056,64.026855
"3209",79.725334,64.04004
"3210",79.62768,64.05322
"3211",79.53002,64.06665
"3212",79.43725,64.08008
"3213",79.3518,64.09326
"3214",79.273674,64.106445
"3215",79.20531,64.11987
"3216",79.13939,64.1333
"3217",79.078354,64.146484
"3218",79.027084,64.15967
"3219",78.98314,64.173096
"3220",78.95628,64.18652
"3221",78.94652,64.19971
"3222",78.9514,64.21289
"3223",78.96117,64.22632
"3224",78.98314,64.239746
"3225",79.00755,64.25293
"3226",79.03197,64.26611
"3227",79.063705,64.27954
"3228",79.097885,64.29297
"3229",79.132065,64.30615
"3230",79.17357,64.319336
"3231",79.22484,64.33276
"3232",79.276115,64.34619
"3233",79.32006,64.359375
"3234",79.35424,64.37256
"3235",79.37133,64.38599
"3236",79.36889,64.399414
"3237",79.3518,64.4126
"3238",79.327385,64.42578
"3239",79.30541,64.43921
"3240",79.293205,64.45264
"3241",79.30541,64.46582
"3242",79.378654,64.479004
"3243",79.55932,64.49243
"3244",79.888916,64.50586
"3245",80.37965,64.51904
"3246",80.99489,64.53223
"3247",81.65652,64.545654
"3248",82.266884,64.55908
"3249",82.718544,64.572266
"3250",82.95537,64.58545
"3251",82.97734,64.59888
"3252",82.828415,64.612305
"3253",82.56718,64.62549
"3254",82.269325,64.63867
"3255",81.988556,64.6521
"3256",81.76395,64.66553
"3257",81.60525,64.67871
"3258",81.51003,64.691895
"3259",81.449,64.70532
"3260",81.40505,64.71875
"3261",81.35134,64.73193
"3262",81.26589,64.74512
"3263",81.15358,64.758545
"3264",81.02663,64.77197
"3265",80.902115,64.78516
"3266",80.78981,64.79834
"3267",80.689705,64.81177
"3268",80.58961,64.825195
"3269",80.4773,64.83838
"3270",80.35279,64.85156
"3271",80.216064,64.86499
"3272",80.06958,64.87842
"3273",79.93042,64.8916
"3274",79.80347,64.904785
"3275",79.68383,64.91821
"3276",79.569084,64.93164
"3277",79.466545,64.944824
"3278",79.378654,64.95801
"3279",79.30541,64.971436
"3280",79.24437,64.98486
"3281",79.18822,64.99805
"3282",79.132065,65.01123
"3283",79.06859,65.02466
"3284",79.00267,65.038086
"3285",78.92943,65.05127
"3286",78.8513,65.06445
"3287",78.76097,65.07788
"3288",78.6511,65.09131
"3289",78.536354,65.10449
"3290",78.4387,65.117676
"3291",78.37766,65.1311
"3292",78.37034,65.14453
"3293",78.416725,65.157715
"3294",78.49729,65.1709
"3295",78.572975,65.184326
"3296",78.61448,65.197754
"3297",78.61692,65.21094
"3298",78.590065,65.22412
"3299",78.54612,65.23755
"3300",78.52903,65.25098
"3301",78.59495,65.26416
"3302",78.75853,65.27734
"3303",78.98802,65.29077
"3304",79.234604,65.3042
"3305",79.449455,65.31738
"3306",79.57641,65.33057
"3307",79.586174,65.343994
"3308",79.49096,65.35742
"3309",79.33471,65.370605
"3310",79.14427,65.38379
"3311",78.95628,65.39722
"3312",78.79027,65.410645
"3313",78.67307,65.42383
"3314",78.6511,65.43701
"3315",78.765854,65.45044
"3316",79.0515,65.46387
"3317",79.51293,65.47705
"3318",80.12329,65.490234
"3319",80.82643,65.50366
"3320",81.57595,65.51709
"3321",82.320595,65.53027
"3322",83.021286,65.54346
"3323",83.65118,65.556885
"3324",84.21271,65.57031
"3325",84.7132,65.583496
"3326",85.16731,65.59668
"3327",85.5848,65.61011
"3328",85.94125,65.623535
"3329",86.17319,65.63672
"3330",86.21713,65.6499
"3331",86.06088,65.66333
"3332",85.7264,65.67676
"3333",85.2723,65.68994
"3334",84.76692,65.703125
"3335",84.26887,65.71655
"3336",83.79523,65.72998
"3337",83.34112,65.743164
"3338",82.92363,65.75635
"3339",82.562294,65.769775
"3340",82.25956,65.7832
"3341",82.01053,65.79639
"3342",81.795685,65.80957
"3343",81.600365,65.823
"3344",81.40749,65.836426
"3345",81.20729,65.84961
"3346",80.99733,65.86279
"3347",80.78737,65.87622
"3348",80.570076,65.88965
"3349",80.35035,65.90283
"3350",80.1355,65.916016
"3351",79.92554,65.92944
"3352",79.73266,65.94287
"3353",79.56664,65.956055
"3354",79.432365,65.96924
"3355",79.32494,65.982666
"3356",79.24437,65.99609
"3357",79.17601,66.00928
"3358",79.11009,66.02246
"3359",79.0515,66.03589
"3360",79.00267,66.04932
"3361",78.94896,66.0625
"3362",78.890366,66.07568
"3363",78.82201,66.08911
"3364",78.746315,66.10254
"3365",78.66575,66.11572
"3366",78.58762,66.12891
"3367",78.519264,66.142334
"3368",78.470436,66.15576
"3369",78.44358,66.168945
"3370",78.4387,66.18213
"3371",78.487526,66.19556
"3372",78.68772,66.208984
"3373",79.15404,66.22217
"3374",79.940186,66.23535
"3375",81.007095,66.24878
"3376",82.23514,66.26221
"3377",83.43389,66.27539
"3378",84.43488,66.288574
"3379",85.21126,66.302
"3380",85.93149,66.31543
"3381",86.85924,66.32861
"3382",88.224,66.3418
"3383",90.15274,66.355225
"3384",92.403755,66.36865
"3385",94.540016,66.381836
"3386",96.18799,66.39502
"3387",97.20607,66.40845
"3388",97.60891,66.421875
"3389",97.57961,66.43506
"3390",97.43069,66.44824
"3391",97.41848,66.46167
"3392",97.635765,66.4751
"3393",98.089874,66.48828
"3394",98.861374,66.501465
"3395",99.90631,66.51489
"3396",101.08797,66.52832
"3397",102.203705,66.541504
"3398",103.08751,66.55469
"3399",103.68078,66.568115
"3400",104.02991,66.58154
"3401",104.25208,66.59473
"3402",104.48402,66.60791
"3403",104.78676,66.62134
"3404",105.15785,66.634766
"3405",105.548485,66.64795
"3406",105.93179,66.66113
"3407",106.30778,66.67456
"3408",106.632484,66.68799
"3409",106.84245,66.70117
"3410",106.85954,66.714355
"3411",106.60807,66.72778
"3412",106.0856,66.74121
"3413",105.44106,66.754395
"3414",104.90883,66.76758
"3415",104.69886,66.781006
"3416",104.935684,66.79443
"3417",105.582664,66.80762
"3418",106.476234,66.8208
"3419",107.40887,66.83423
"3420",108.226746,66.84766
"3421",108.83467,66.86084
"3422",109.242386,66.87402
"3423",109.5256,66.88745
"3424",109.79416,66.90088
"3425",110.12619,66.91406
"3426",110.54612,66.927246
"3427",111.28832,66.940674
"3428",112.48951,66.9541
"3429",113.98367,66.967285
"3430",115.389946,66.98047
"3431",116.43244,66.9939
"3432",116.89876,67.007324
"3433",116.6424,67.02051
"3434",115.78058,67.03369
"3435",114.66239,67.04712
"3436",113.57839,67.06055
"3437",112.53101,67.07373
"3438",111.51293,67.086914
"3439",110.52903,67.10034
"3440",109.574425,67.11377
"3441",108.64912,67.12695
"3442",107.755554,67.14014
"3443",106.88884,67.153564
"3444",106.04654,67.16699
"3445",105.233536,67.180176
"3446",104.444954,67.19336
"3447",103.68078,67.20679
"3448",102.941025,67.220215
"3449",102.223236,67.2334
"3450",101.52987,67.24658
"3451",100.85603,67.26001
"3452",100.20416,67.27344
"3453",99.57427,67.28662
"3454",98.96147,67.299805
"3455",98.3682,67.31323
"3456",97.794464,67.32666
"3457",97.24025,67.33984
"3458",96.70069,67.35303
"3459",96.17822,67.366455
"3460",95.672844,67.37988
"3461",95.18211,67.39307
"3462",94.70847,67.40625
"3463",94.24948,67.41968
"3464",93.802704,67.433105
"3465",93.37301,67.44629
"3466",92.95552,67.45947
"3467",92.55024,67.4729
"3468",92.157166,67.48633
"3469",91.77875,67.49951
"3470",91.41009,67.512695
"3471",91.053635,67.52612
"3472",90.70695,67.53955
"3473",90.372475,67.552734
"3474",90.04776,67.56592
"3475",89.73525,67.579346
"3476",89.43008,67.59277
"3477",89.13466,67.60596
"3478",88.851456,67.61914
"3479",88.57313,67.63257
"3480",88.30457,67.645996
"3481",88.04578,67.65918
"3482",87.79431,67.67236
"3483",87.55016,67.68579
"3484",87.31579,67.69922
"3485",87.08629,67.7124
"3486",86.86412,67.725586
"3487",86.65171,67.73901
"3488",86.44175,67.75244
"3489",86.24155,67.765625
"3490",86.046234,67.77881
"3491",85.858246,67.79224
"3492",85.67513,67.805664
"3493",85.49691,67.81885
"3494",85.32601,67.83203
"3495",85.15999,67.84546
"3496",84.996414,67.85889
"3497",84.842606,67.87207
"3498",84.69123,67.885254
"3499",84.54475,67.89868
"3500",84.4007,67.91211
"3501",84.263985,67.92529
"3502",84.1297,67.93848
"3503",84.00275,67.951904
"3504",83.87579,67.96533
"3505",83.756165,67.978516
"3506",83.63897,67.9917
"3507",83.52422,68.00513
"3508",83.41436,68.018555
"3509",82.67948,68.03174
"3510",80.29908,68.04492
"3511",75.545586,68.05835
"3512",68.47517,68.07178
"3513",59.610283,68.08496
"3514",49.67117,68.098145
"3515",39.180286,68.11157
"3516",27.51751,68.125
"3517",13.679408,68.13818
"3518",0,68.15137
"3519",0,68.164795
"3520",0,68.17822
"3521",0,68.19141
"3522",0,68.20459
"3523",0,68.21802
"3524",0,68.231445
"3525",0,68.24463
"3526",0,68.25781
"3527",0,68.27124
"3528",0,68.28467
"3529",0,68.29785
"3530",0,68.311035
"3531",0,68.32446
"3532",0,68.33789
"3533",0,68.351074
"3534",0,68.36426
"3535",0,68.377686
"3536",0,68.39111
"3537",0,68.4043
"3538",0,68.41748
"3539",0,68.43091
"3540",0,68.444336
"3541",0,68.45752
"3542",0.29785612,68.4707
"3543",2.7881284,68.48413
"3544",5.2002745,68.49756
"3545",7.5391774,68.51074
"3546",9.802396,68.523926
"3547",11.997253,68.53735
"3548",14.121309,68.55078
"3549",16.179445,68.563965
"3550",18.174105,68.57715
"3551",20.107729,68.590576
"3552",21.977875,68.604004
"3553",23.791866,68.61719
"3554",25.547264,68.63037
"3555",27.248951,68.6438
"3556",28.899366,68.65723
"3557",30.49607,68.67041
"3558",32.041504,68.68359
"3559",33.54055,68.69702
"3560",34.99321,68.71045
"3561",36.399483,68.72363
"3562",37.761806,68.73682
"3563",39.082626,68.750244
"3564",40.3888,68.76367
"3565",41.751125,68.776855
"3566",43.235523,68.79004
"3567",44.866405,68.80347
"3568",46.604713,68.816895
"3569",48.28931,68.83008
"3570",49.666286,68.84326
"3571",50.584267,68.85669
"3572",51.087204,68.87012
"3573",51.35088,68.8833
"3574",51.577934,68.896484
"3575",51.95636,68.90991
"3576",52.574043,68.92334
"3577",53.36263,68.93652
"3578",54.195164,68.94971
"3579",55.00084,68.963135
"3580",55.7821,68.97656
"3581",56.538948,68.989746
"3582",57.27138,69.00293
"3583",58.82414,69.01636
"3584",61.17037,69.029785
"3585",63.44335,69.04297
"3586",64.80324,69.05615
"3587",65.27932,69.06958
"3588",64.89601,69.08301
"3589",63.682613,69.09619
"3590",62.508278,69.109375
"3591",62.212864,69.1228
"3592",62.769512,69.13623
"3593",63.30663,69.149414
"3594",63.829098,69.1626
"3595",64.33448,69.176025
"3596",64.82521,69.18945
"3597",65.29885,69.20264
"3598",65.75784,69.21582
"3599",66.20218,69.22925
"3600",66.634315,69.242676
"3601",67.0518,69.25586
"3602",67.457085,69.26904
"3603",67.84772,69.28247
"3604",68.22858,69.2959
"3605",68.594795,69.30908
"3606",68.95125,69.322266
"3607",69.297935,69.33569
"3608",69.63241,69.34912
"3609",69.95712,69.362305
"3610",70.26963,69.37549
"3611",70.57481,69.388916
"3612",70.86778,69.40234
"3613",71.15343,69.41553
"3614",71.42931,69.42871
"3615",71.69787,69.44214
"3616",71.956665,69.45557
"3617",72.20813,69.46875
"3618",72.45228,69.48193
"3619",72.689095,69.49536
"3620",72.91615,69.50879
"3621",73.13832,69.52197
"3622",73.35317,69.53516
"3623",73.56069,69.548584
"3624",73.760895,69.56201
"3625",73.95621,69.575195
"3626",74.144196,69.58838
"3627",74.32731,69.60181
"3628",74.50553,69.615234
"3629",74.67643,69.62842
"3630",74.84245,69.6416
"3631",75.003586,69.65503
"3632",75.159836,69.66846
"3633",75.31121,69.68164
"3634",75.457695,69.694824
"3635",75.5993,69.70825
"3636",75.73846,69.72168
"3637",75.8703,69.73486
"3638",75.999695,69.74805
"3639",76.12421,69.761475
"3640",76.24628,69.7749
"3641",76.36347,69.788086
"3642",76.47822,69.80127
"3643",76.58808,69.8147
"3644",76.69306,69.828125
"3645",76.79805,69.84131
"3646",76.89815,69.85449
"3647",76.99336,69.86792
"3648",77.08858,69.88135
"3649",77.17891,69.89453
"3650",77.26681,69.907715
"3651",77.35226,69.92114
"3652",77.435265,69.93457
"3653",77.51583,69.947754
"3654",77.593956,69.96094
"3655",77.6672,69.974365
"3656",77.74044,69.98779
"3657",77.81125,70.00098
"3658",77.87961,70.01416
"3659",77.945526,70.02759
"3660",78.011444,70.041016
"3661",78.07248,70.0542
"3662",78.133514,70.06738
"3663",78.19211,70.08081
"3664",78.24826,70.09424
"3665",78.30198,70.10742
"3666",78.73899,70.120605
"3667",81.76883,70.13403
"3668",89.776764,70.14746
"3669",104.17883,70.160645
"3670",124.70405,70.17383
"3671",149.13069,70.187256
"3672",160,70.20068
"3673",160,70.21387
"3674",160,70.22705
"3675",160,70.24048
"3676",160,70.25391
"3677",160,70.26709
"3678",160,70.28027
"3679",160,70.2937
"3680",160,70.30713
"3681",160,70.32031
"3682",160,70.333496
"3683",160,70.346924
"3684",160,70.36035
"3685",160,70.373535
"3686",160,70.38672
"3687",155.8471,70.40015
"3688",155.7226,70.413574
"3689",160,70.42676
"3690",160,70.43994
"3691",160,70.45337
"3692",160,70.4668
"3693",160,70.47998
"3694",160,70.493164
"3695",160,70.50659
"3696",160,70.52002
"3697",160,70.5332
"3698",158.9746,70.54639
"3699",156.5063,70.559814
"3700",154.11612,70.57324
"3701",151.7992,70.586426
"3702",149.55551,70.59961
"3703",147.38261,70.61304
"3704",145.27565,70.626465
"3705",143.23705,70.63965
"3706",141.25948,70.65283
"3707",139.34538,70.66626
"3708",137.48988,70.67969
"3709",135.69543,70.69287
"3710",133.95468,70.706055
"3711",132.26764,70.71948
"3712",130.63432,70.73291
"3713",129.05226,70.74609
"3714",127.519035,70.75928
"3715",126.03464,70.772705
"3716",124.59663,70.78613
"3717",123.20256,70.79932
"3718",121.85245,70.8125
"3719",120.54383,70.82593
"3720",119.276726,70.839355
"3721",118.048676,70.85254
"3722",116.859695,70.86572
"3723",115.70977,70.87915
"3724",114.59403,70.89258
"3725",113.512474,70.90576
"3726",112.465096,70.918945
"3727",111.449455,70.93237
"3728",110.467995,70.9458
"3729",109.51583,70.958984
"3730",108.592964,70.97217
"3731",107.699394,70.985596
"3732",106.83269,70.99902
"3733",105.36294,71.01221
"3734",102.71397,71.02539
"3735",99.25445,71.03882
"3736",96.22705,71.052246
"3737",94.520485,71.06543
"3738",94.39597,71.07861
"3739",95.799805,71.09204
"3740",98.058136,71.10547
"3741",99.91852,71.11865
"3742",100.4947,71.131836
"3743",100.16022,71.14526
"3744",99.53033,71.15869
"3745",98.91997,71.171875
"3746",98.3267,71.18506
"3747",97.7554,71.19849
"3748",97.20119,71.211914
"3749",96.66163,71.2251
"3750",96.1416,71.23828
"3751",95.638664,71.25171
"3752",95.147934,71.26514
"3753",94.67429,71.27832
"3754",94.21774,71.291504
"3755",93.77341,71.30493
"3756",93.34127,71.31836
"3757",92.92622,71.33154
"3758",92.52094,71.34473
"3759",92.13031,71.358154
"3760",91.75189,71.37158
"3761",91.087814,71.384766
"3762",89.52285,71.39795
"3763",86.37095,71.41138
"3764",81.30984,71.424805
"3765",74.39323,71.43799
"3766",65.99466,71.45117
"3767",56.722057,71.4646
"3768",47.302967,71.47803
"3769",38.318455,71.49121
"3770",30.100557,71.504395
"3771",22.964218,71.51782
"3772",17.212177,71.53125
"3773",13.044633,71.54443
"3774",10.371252,71.55762
"3775",8.908828,71.571045
"3776",8.342412,71.58447
"3777",8.442512,71.59766
"3778",9.060197,71.61084
"3779",10.134432,71.62427
"3780",11.63592,71.637695
"3781",13.515831,71.65088
"3782",15.676509,71.66406
"3783",17.959259,71.67749
"3784",20.202946,71.69092
"3785",22.280613,71.7041
"3786",24.128786,71.717285
"3787",25.72549,71.73071
"3788",27.11223,71.74414
"3789",28.352484,71.757324
"3790",29.521935,71.77051
"3791",30.69627,71.783936
"3792",31.943848,71.79736
"3793",33.30129,71.81055
"3794",34.77348,71.82373
"3795",36.32868,71.83716
"3796",37.925385,71.850586
"3797",39.536736,71.86377
"3798",41.157856,71.87695
"3799",42.786297,71.89038
"3800",44.42695,71.90381
"3801",46.079803,71.91699
"3802",47.74487,71.930176
"3803",49.40017,71.9436
"3804",51.016403,71.95703
"3805",52.574043,71.970215
"3806",54.065765,71.9834
"3807",55.606316,71.996826
"3808",57.293354,72.010254
"3809",59.107346,72.02344
"3810",60.950638,72.03662
"3811",62.791485,72.05005
"3812",64.61036,72.06348
"3813",66.35355,72.07666
"3814",68.01129,72.08984
"3815",69.61532,72.10327
"3816",71.150986,72.1167
"3817",72.46204,72.12988
"3818",73.47524,72.14307
"3819",74.2272,72.156494
"3820",74.83513,72.16992
"3821",75.386894,72.183105
"3822",75.9411,72.19629
"3823",76.524605,72.20972
"3824",77.14229,72.223145
"3825",77.803925,72.23633
"3826",78.53147,72.24951
"3827",79.33471,72.26294
"3828",80.17212,72.27637
"3829",80.94118,72.28955
"3830",81.52712,72.302734
"3831",81.83963,72.31616
"3832",81.8616,72.32959
"3833",81.671165,72.34277
"3834",81.38552,72.35596
"3835",81.0901,72.369385
"3836",80.84596,72.38281
"3837",80.67017,72.395996
"3838",80.54322,72.40918
"3839",80.445564,72.42261
"3840",80.35523,72.436035
"3841",80.26002,72.44922
"3842",80.15259,72.4624
"3843",80.04028,72.47583
"3844",79.92554,72.48926
"3845",79.81079,72.50244
"3846",79.73998,72.515625
"3847",79.79126,72.52905
"3848",80.01099,72.54248
"3849",80.4065,72.555664
"3850",80.91188,72.56885
"3851",81.38308,72.582275
"3852",81.64187,72.5957
"3853",81.54177,72.60889
"3854",81.03395,72.62207
"3855",80.184326,72.6355
"3856",79.12474,72.648926
"3857",78.03342,72.66211
"3858",77.07637,72.67529
"3859",76.35371,72.68872
"3860",75.90204,72.70215
"3861",75.69207,72.71533
"3862",75.665215,72.728516
"3863",75.74822,72.74194
"3864",75.87274,72.75537
"3865",75.98993,72.768555
"3866",76.070496,72.78174
"3867",76.10956,72.795166
"3868",76.11444,72.80859
"3869",76.11688,72.82178
"3870",76.14618,72.83496
"3871",76.21698,72.84839
"3872",76.33906,72.86182
"3873",76.49775,72.875
"3874",76.68818,72.88818
"3875",76.89815,72.90161
"3876",77.11055,72.91504
"3877",77.3254,72.92822
"3878",77.53048,72.94141
"3879",77.71847,72.954834
"3880",77.88449,72.96826
"3881",78.028534,72.981445
"3882",78.150604,72.99463
"3883",78.25315,73.00806
"3884",78.345924,73.021484
"3885",78.42893,73.03467
"3886",78.504616,73.04785
"3887",78.57786,73.06128
"3888",78.65354,73.07471
"3889",78.73411,73.08789
"3890",78.81468,73.101074
"3891",78.907455,73.1145
"3892",79.009995,73.12793
"3893",79.11986,73.14111
"3894",79.234604,73.1543
"3895",79.35912,73.167725
"3896",79.48852,73.18115
"3897",79.622795,73.194336
"3898",79.76196,73.20752
"3899",79.8938,73.22095
"3900",80.01587,73.234375
"3901",80.12329,73.24756
"3902",80.22339,73.26074
"3903",80.306404,73.27417
"3904",80.37965,73.2876
"3905",80.44312,73.30078
"3906",80.499275,73.313965
"3907",80.54078,73.32739
"3908",80.5774,73.34082
"3909",80.60914,73.354004
"3910",80.635994,73.36719
"3911",80.65308,73.380615
"3912",80.66285,73.39404
"3913",80.66285,73.40723
"3914",80.66285,73.42041
"3915",80.66041,73.43384
"3916",80.672615,73.447266
"3917",80.73609,73.46045
"3918",80.92409,73.47363
"3919",81.30251,73.48706
"3920",81.91287,73.50049
"3921",82.7454,73.51367
"3922",83.71465,73.526855
"3923",84.698555,73.54028
"3924",85.55062,73.55371
"3925",86.16342,73.566895
"3926",86.49302,73.58008
"3927",86.55161,73.593506
"3928",86.3856,73.60693
"3929",86.063324,73.62012
"3930",85.66781,73.6333
"3931",85.26009,73.64673
"3932",84.893875,73.66016
"3933",84.593575,73.67334
"3934",84.37141,73.68652
"3935",84.210266,73.69995
"3936",84.08331,73.71338
"3937",83.95392,73.72656
"3938",83.79523,73.739746
"3939",83.60479,73.753174
"3940",83.38506,73.7666
"3941",83.15068,73.779785
"3942",82.933395,73.79297
"3943",82.75029,73.8064
"3944",82.598915,73.819824
"3945",82.48661,73.83301
"3946",82.39872,73.84619
"3947",82.32548,73.85962
"3948",82.24246,73.87305
"3949",82.14725,73.88623
"3950",82.03006,73.899414
"3951",81.88846,73.91284
"3952",81.722435,73.92627
"3953",81.54421,73.93945
"3954",81.358665,73.95264
"3955",81.16823,73.966064
"3956",80.98024,73.97949
"3957",80.79469,73.992676
"3958",80.61646,74.00586
"3959",80.448006,74.01929
"3960",80.291756,74.032715
"3961",80.15015,74.0459
"3962",80.028076,74.05908
"3963",79.923096,74.07251
"3964",79.83032,74.08594
"3965",79.74731,74.09912
"3966",79.67895,74.112305
"3967",79.62524,74.12573
"3968",79.58373,74.13916
"3969",79.54711,74.15234
"3970",79.517815,74.16553
"3971",79.48852,74.178955
"3972",79.45678,74.19238
"3973",79.4226,74.20557
"3974",79.38354,74.21875
"3975",79.33715,74.23218
"3976",79.28588,74.245605
"3977",79.22972,74.25879
"3978",79.166245,74.27197
"3979",79.097885,74.2854
"3980",79.03441,74.29883
"3981",78.97093,74.31201
"3982",78.92699,74.325195
"3983",78.93431,74.33862
"3984",79.04906,74.35205
"3985",79.33959,74.365234
"3986",79.85718,74.37842
"3987",80.59449,74.391846
"3988",81.480736,74.40527
"3989",82.39872,74.41846
"3990",83.21416,74.43164
"3991",83.8172,74.44507
"3992",84.15167,74.458496
"3993",84.2298,74.47168
"3994",84.09064,74.48486
"3995",83.79767,74.49829
"3996",83.421684,74.51172
"3997",83.02373,74.5249
"3998",82.652626,74.538086
"3999",82.34257,74.55151
"4000",82.10086,74.56494
"4001",81.917755,74.578125
"4002",81.76883,74.59131
"4003",81.62722,74.60474
"4004",81.47585,74.618164
"4005",81.307396,74.63135
"4006",81.129166,74.64453
"4007",80.953384,74.65796
"4008",80.799576,74.67139
"4009",80.6775,74.68457
"4010",80.58961,74.697754
"4011",80.53101,74.71118
"4012",80.48463,74.72461
"4013",80.43824,74.73779
"4014",80.37965,74.75098
"4015",80.30152,74.764404
"4016",80.198975,74.77783
"4017",80.06958,74.791016
"4018",79.920654,74.8042
"4019",79.75708,74.81763
"4020",79.586174,74.831055
"4021",79.41772,74.84424
"4022",79.26147,74.85742
"4023",79.11009,74.87085
"4024",78.97337,74.88428
"4025",78.84886,74.89746
"4026",78.73899,74.910645
"4027",78.6511,74.92407
"4028",78.5803,74.9375
"4029",78.52659,74.95068
"4030",78.487526,74.96387
"4031",78.45823,74.977295
"4032",78.4387,74.99072
"4033",78.41917,75.00391
"4034",78.40452,75.01709
"4035",78.397194,75.03052
"4036",78.397194,75.043945
"4037",78.40696,75.05713
"4038",78.41917,75.07031
"4039",78.42649,75.08374
"4040",78.42649,75.09717
"4041",78.42161,75.11035
"4042",78.40696,75.123535
"4043",78.38743,75.13696
"4044",78.363014,75.15039
"4045",78.328835,75.163574
"4046",78.28245,75.17676
"4047",78.22873,75.190186
"4048",78.17258,75.20361
"4049",78.12863,75.2168
"4050",78.13107,75.22998
"4051",78.23605,75.24341
"4052",78.521706,75.256836
"4053",79.04173,75.27002
"4054",79.79614,75.2832
"4055",80.72877,75.29663
"4056",81.722435,75.31006
"4057",82.63065,75.32324
"4058",83.32891,75.336426
"4059",83.756165,75.34985
"4060",83.90265,75.36328
"4061",83.81476,75.376465
"4062",83.560844,75.38965
"4063",83.21904,75.403076
"4064",82.85771,75.416504
"4065",82.528114,75.42969
"4066",82.25956,75.44287
"4067",82.06912,75.4563
"4068",81.94705,75.46973
"4069",81.864044,75.48291
"4070",81.78836,75.49609
"4071",81.688255,75.50952
"4072",81.54177,75.52295
"4073",81.35378,75.53613
"4074",81.13893,75.54932
"4075",80.92653,75.562744
"4076",80.73365,75.57617
"4077",80.57984,75.589355
"4078",80.462654,75.60254
"4079",80.37965,75.61597
"4080",80.31617,75.629395
"4081",80.26246,75.64258
"4082",80.201416,75.65576
"4083",80.12085,75.66919
"4084",80.02075,75.68262
"4085",79.90112,75.6958
"4086",79.76196,75.708984
"4087",79.61547,75.72241
"4088",79.466545,75.73584
"4089",79.32006,75.74902
"4090",79.17113,75.76221
"4091",79.029526,75.775635
"4092",78.890366,75.78906
"4093",78.765854,75.802246
"4094",78.65354,75.81543
"4095",78.56321,75.82886
"4096",78.487526,75.842285
"4097",78.42405,75.85547
"4098",78.37522,75.86865
"4099",78.33616,75.88208
"4100",78.311745,75.89551
"4101",78.294655,75.90869
"4102",78.28977,75.921875
"4103",78.28489,75.9353
"4104",78.28001,75.94873
"4105",78.27024,75.961914
"4106",78.25315,75.9751
"4107",78.23361,75.988525
"4108",78.21896,76.00195
"4109",78.20187,76.01514
"4110",78.18234,76.02832
"4111",78.16281,76.04175
"4112",78.14572,76.055176
"4113",78.12375,76.06836
"4114",78.10422,76.08154
"4115",78.08713,76.09497
"4116",78.06271,76.1084
"4117",78.03342,76.12158
"4118",77.996796,76.134766
"4119",77.960175,76.14819
"4120",77.943085,76.16162
"4121",77.994354,76.174805
"4122",78.184784,76.18799
"4123",78.5803,76.201416
"4124",79.21507,76.21484
"4125",80.05737,76.22803
"4126",81.01686,76.24121
"4127",81.95926,76.25464
"4128",82.75029,76.26807
"4129",83.29473,76.28125
"4130",83.560844,76.29443
"4131",83.57305,76.30786
"4132",83.39971,76.32129
"4133",83.104294,76.33447
"4134",82.7625,76.34766
"4135",82.4329,76.361084
"4136",82.15213,76.37451
"4137",81.93973,76.387695
"4138",81.80301,76.40088
"4139",81.722435,76.41431
"4140",81.66628,76.427734
"4141",81.600365,76.44092
"4142",81.50027,76.4541
"4143",81.34646,76.46753
"4144",81.15602,76.48096
"4145",80.9485,76.49414
"4146",80.75075,76.507324
"4147",80.57984,76.52075
"4148",80.448006,76.53418
"4149",80.35279,76.54736
"4150",80.289314,76.56055
"4151",80.24048,76.573975
"4152",80.19165,76.5874
"4153",80.13306,76.600586
"4154",80.04761,76.61377
"4155",79.94263,76.6272
"4156",79.823,76.640625
"4157",79.68871,76.65381
"4158",79.551994,76.66699
"4159",79.41772,76.68042
"4160",79.276115,76.69385
"4161",79.13695,76.70703
"4162",79.00267,76.720215
"4163",78.87572,76.73364
"4164",78.76341,76.74707
"4165",78.66819,76.760254
"4166",78.590065,76.77344
"4167",78.52903,76.786865
"4168",78.4802,76.80029
"4169",78.44358,76.81348
"4170",78.416725,76.82666
"4171",78.39231,76.84009
"4172",78.37034,76.853516
"4173",78.348366,76.8667
"4174",78.32395,76.87988
"4175",78.30198,76.89331
"4176",78.28489,76.90674
"4177",78.27024,76.91992
"4178",78.25559,76.933105
"4179",78.24094,76.94653
"4180",78.22629,76.95996
"4181",78.21408,76.973145
"4182",78.19699,76.98633
"4183",78.17746,76.999756
"4184",78.15793,77.01318
"4185",78.14328,77.02637
"4186",78.12863,77.03955
"4187",78.12131,77.05298
"4188",78.116425,77.06641
"4189",78.11154,77.07959
"4190",78.10666,77.09277
"4191",78.09201,77.1062
"4192",78.0798,77.11963
"4193",78.09201,77.13281
"4194",78.17258,77.145996
"4195",78.39475,77.159424
"4196",78.81712,77.17285
"4197",79.4641,77.186035
"4198",80.29908,77.19922
"4199",81.22438,77.21265
"4200",82.108185,77.226074
"4201",82.82109,77.23926
"4202",83.282524,77.25244
"4203",83.475395,77.26587
"4204",83.42901,77.2793
"4205",83.20683,77.29248
"4206",82.879684,77.305664
"4207",82.51835,77.31909
"4208",82.178986,77.33252
"4209",81.89334,77.3457
"4210",81.68337,77.35889
"4211",81.53933,77.372314
"4212",81.446556,77.38574
"4213",81.36843,77.398926
"4214",81.28298,77.41211
"4215",81.16823,77.42554
"4216",81.03151,77.438965
"4217",80.8777,77.45215
"4218",80.723885,77.46533
"4219",80.587166,77.47876
"4220",80.4773,77.49219
"4221",80.394295,77.50537
"4222",80.33326,77.518555
"4223",80.289314,77.53198
"4224",80.25269,77.54541
"4225",80.20874,77.55859
"4226",80.15259,77.57178
"4227",80.08179,77.585205
"4228",79.991455,77.59863
"4229",79.88159,77.61182
"4230",79.764404,77.625
"4231",79.64233,77.63843
"4232",79.517815,77.651855
"4233",79.398186,77.66504
"4234",79.28588,77.67822
"4235",79.18089,77.69165
"4236",79.08812,77.70508
"4237",79.00755,77.71826
"4238",78.941635,77.731445
"4239",78.890366,77.74487
"4240",78.8513,77.7583
"4241",78.82445,77.771484
"4242",78.80492,77.78467
"4243",78.79515,77.798096
"4244",78.79271,77.81152
"4245",78.79515,77.82471
"4246",78.79515,77.83789
"4247",78.79759,77.85132
"4248",78.79759,77.864746
"4249",78.802475,77.87793
"4250",78.8098,77.89111
"4251",78.81468,77.90454
"4252",78.81224,77.91797
"4253",78.802475,77.93115
"4254",78.78294,77.944336
"4255",78.751205,77.95776
"4256",78.71458,77.97119
"4257",78.6804,77.984375
"4258",78.6511,77.99756
"4259",78.63157,78.01099
"4260",78.63889,78.024414
"4261",78.712135,78.0376
"4262",78.90013,78.05078
"4263",79.26147,78.06421
"4264",79.82056,78.07764
"4265",80.54322,78.09082
"4266",81.3489,78.104004
"4267",82.12039,78.11743
"4268",82.735634,78.13086
"4269",83.12138,78.14404
"4270",83.26055,78.15723
"4271",83.18242,78.170654
"4272",82.9456,78.18408
"4273",82.61356,78.197266
"4274",82.21805,78.21045
"4275",81.7908,78.22388
"4276",81.35134,78.237305
"4277",80.919205,78.25049
"4278",80.5066,78.26367
"4279",80.128174,78.2771
"4280",79.80347,78.29053
"4281",79.52514,78.30371
"4282",79.293205,78.316895
"4283",79.10521,78.33032
"4284",78.97093,78.34375
"4285",78.88548,78.35693
"4286",78.8513,78.37012
"4287",78.85863,78.383545
"4288",78.89281,78.39697
"4289",78.93919,78.41016
"4290",78.97337,78.42334
"4291",78.98802,78.43677
"4292",78.97826,78.450195
"4293",78.93919,78.46338
"4294",78.8806,78.47656
"4295",78.8098,78.48999
"4296",78.73655,78.50342
"4297",78.66819,78.5166
"4298",78.607155,78.529785
"4299",78.553444,78.54321
"4300",78.504616,78.55664
"4301",78.46555,78.569824
"4302",78.43626,78.58301
"4303",78.416725,78.596436
"4304",78.4094,78.60986
"4305",78.41917,78.62305
"4306",78.44114,78.63623
"4307",78.47288,78.64966
"4308",78.5095,78.663086
"4309",78.553444,78.67627
"4310",78.59983,78.68945
"4311",78.64866,78.70288
"4312",78.69993,78.71631
"4313",78.751205,78.72949
"4314",78.80003,78.742676
"4315",78.84398,78.7561
"4316",78.8806,78.76953
"4317",78.907455,78.782715
"4318",78.924545,78.7959
"4319",78.92699,78.809326
"4320",78.91722,78.822754
"4321",78.89769,78.83594
"4322",78.8806,78.84912
"4323",78.870834,78.86255
"4324",78.89769,78.87598
"4325",79.00755,78.88916
"4326",79.26391,78.90234
"4327",79.71557,78.91577
"4328",80.365,78.9292
"4329",81.16823,78.94238
"4330",82.022736,78.95557
"4331",82.80156,78.968994
"4332",83.39483,78.98242
"4333",83.74151,78.995605
"4334",83.84161,79.00879
"4335",83.72198,79.02222
"4336",83.45342,79.035645
"4337",83.10185,79.04883
"4338",82.74052,79.06201
"4339",82.41337,79.07544
"4340",82.15213,79.08887
"4341",81.971466,79.10205
"4342",81.85672,79.115234
"4343",81.778595,79.12866
"4344",81.705345,79.14209
"4345",81.61257,79.15527
"4346",81.48318,79.16846
"4347",81.32693,79.181885
"4348",81.160904,79.19531
"4349",81.00221,79.208496
"4350",80.87282,79.22168
"4351",80.77272,79.23511
"4352",80.69947,79.248535
"4353",80.64576,79.26172
"4354",80.60914,79.2749
"4355",80.570076,79.28833
"4356",80.52125,79.30176
"4357",80.45289,79.31494
"4358",80.36256,79.328125
"4359",80.25025,79.34155
"4360",80.12573,79.35498
"4361",79.99634,79.368164
"4362",79.869385,79.38135
"4363",79.74975,79.394775
"4364",79.63744,79.4082
"4365",79.534904,79.42139
"4366",79.44213,79.43457
"4367",79.361565,79.448
"4368",79.290764,79.461426
"4369",79.23216,79.47461
"4370",79.18822,79.48779
"4371",79.15892,79.50122
"4372",79.13939,79.51465
"4373",79.12474,79.52783
"4374",79.114975,79.541016
"4375",79.10521,79.55444
"4376",79.09544,79.56787
"4377",79.08324,79.581055
"4378",79.07347,79.59424
"4379",79.063705,79.607666
"4380",79.05638,79.62109
"4381",79.0515,79.63428
"4382",79.046616,79.64746
"4383",79.044174,79.66089
"4384",79.03929,79.67432
"4385",79.0222,79.6875
"4386",78.992905,79.70068
"4387",78.95628,79.71411
"4388",78.91722,79.72754
"4389",78.8806,79.74072
"4390",78.8513,79.75391
"4391",78.84154,79.767334
"4392",78.87816,79.78076
"4393",79.0222,79.793945
"4394",79.33471,79.80713
"4395",79.85962,79.82056
"4396",80.587166,79.833984
"4397",81.449,79.84717
"4398",82.33036,79.86035
"4399",83.089645,79.87378
"4400",83.62432,79.88721
"4401",83.89288,79.90039
"4402",83.90265,79.913574
"4403",83.70733,79.927
"4404",83.38262,79.94043
"4405",83.001755,79.95361
"4406",82.63065,79.9668
"4407",82.31327,79.980225
"4408",82.08133,79.99365
"4409",81.92996,80.006836
"4410",81.83963,80.02002
"4411",81.778595,80.03345
"4412",81.70046,80.046875
"4413",81.57839,80.06006
"4414",81.40261,80.07324
"4415",81.18532,80.08667
"4416",80.953384,80.1001
"4417",80.73365,80.11328
"4418",80.54322,80.126465
"4419",80.394295,80.13989
"4420",80.28443,80.15332
"4421",80.2063,80.166504
"4422",80.14526,80.17969
"4423",80.08911,80.193115
"4424",80.03052,80.20654
"4425",79.957275,80.21973
"4426",79.86206,80.23291
"4427",79.75464,80.24634
"4428",79.63744,80.259766
"4429",79.51293,80.27295
"4430",79.38842,80.28613
"4431",79.26879,80.29956
"4432",79.151596,80.31299
"4433",79.04173,80.32617
"4434",78.941635,80.339355
"4435",78.8513,80.35278
"4436",78.77074,80.36621
"4437",78.70237,80.379395
"4438",78.64622,80.39258
"4439",78.59983,80.406006
"4440",78.56809,80.41943
"4441",78.54368,80.43262
"4442",78.53147,80.4458
"4443",78.52903,80.45923
"4444",78.53391,80.47266
"4445",78.536354,80.48584
"4446",78.54368,80.49902
"4447",78.553444,80.51245
"4448",78.555885,80.52588
"4449",78.555885,80.53906
"4450",78.551,80.552246
"4451",78.54612,80.565674
"4452",78.53391,80.5791
"4453",78.51682,80.592285
"4454",78.49241,80.60547
"4455",78.46311,80.6189
"4456",78.43626,80.632324
"4457",78.4094,80.64551
"4458",78.38987,80.65869
"4459",78.39475,80.67212
"4460",78.45335,80.68555
"4461",78.61936,80.69873
"4462",78.96361,80.711914
"4463",79.517815,80.72534
"4464",80.26734,80.73877
"4465",81.13649,80.75195
"4466",81.98367,80.76514
"4467",82.6746,80.778564
"4468",83.106735,80.79199
"4469",83.23613,80.805176
"4470",83.087204,80.81836
"4471",82.718544,80.83179
"4472",82.20584,80.845215
"4473",81.62478,80.8584
"4474",81.041275,80.87158
"4475",80.49439,80.88501
"4476",79.9939,80.89844
"4477",79.537346,80.91162
"4478",79.11009,80.924805
"4479",78.68772,80.93823
"4480",78.25803,80.95166
"4481",77.83322,80.96484
"4482",77.43282,80.97803
"4483",77.07637,80.991455
"4484",76.77852,81.00488
"4485",76.558784,81.01807
"4486",76.419624,81.03125
"4487",76.35371,81.04468
"4488",76.34638,81.058105
"4489",76.38056,81.07129
"4490",76.439156,81.08447
"4491",76.507515,81.0979
"4492",76.575874,81.11133
"4493",76.64179,81.12451
"4494",76.700386,81.137695
"4495",76.74677,81.15112
"4496",76.78584,81.16455
"4497",76.81514,81.177734
"4498",76.83711,81.19092
"4499",76.859085,81.204346
"4500",76.89815,81.21777
"4501",76.9543,81.23096
"4502",77.02754,81.24414
"4503",77.117874,81.25757
"4504",77.22041,81.270996
"4505",77.330284,81.28418
"4506",77.437706,81.29736
"4507",77.55001,81.31079
"4508",77.66476,81.32422
"4509",77.78195,81.3374
"4510",77.8967,81.350586
"4511",78.011444,81.36401
"4512",78.12375,81.37744
"4513",78.22873,81.390625
"4514",78.32395,81.40381
"4515",78.41917,81.41724
"4516",78.5095,81.430664
"4517",78.59495,81.44385
"4518",78.6804,81.45703
"4519",78.765854,81.47046
"4520",78.84642,81.48389
"4521",78.91478,81.49707
"4522",78.97093,81.510254
"4523",79.01732,81.52368
"4524",79.04906,81.53711
"4525",79.07103,81.55029
"4526",79.08812,81.56348
"4527",79.10765,81.576904
"4528",79.13451,81.59033
"4529",79.19798,81.603516
"4530",79.34936,81.6167
"4531",79.65209,81.63013
"4532",80.15747,81.643555
"4533",80.8777,81.65674
"4534",81.75906,81.66992
"4535",82.69657,81.68335
"4536",83.55108,81.69678
"4537",84.19806,81.70996
"4538",84.56428,81.723145
"4539",84.64973,81.73657
"4540",84.49592,81.75
"4541",84.18585,81.76318
"4542",83.809875,81.77637
"4543",83.438774,81.789795
"4544",83.12627,81.80322
"4545",82.896774,81.81641
"4546",82.75029,81.82959
"4547",82.667274,81.84302
"4548",82.61112,81.856445
"4549",82.54032,81.86963
"4550",82.44022,81.88281
"4551",82.29862,81.89624
