"","ppg","time"
"1",81.37087,690.0449
"2",81.23659,690.0581
"3",81.109634,690.07153
"4",80.972916,690.08496
"5",80.82643,690.09814
"6",80.67506,690.1113
"7",80.54078,690.12476
"8",80.43336,690.1382
"9",80.35767,690.15137
"10",80.30396,690.16455
"11",80.26734,690.178
"12",80.235596,690.1914
"13",80.198975,690.2046
"14",80.14282,690.2178
"15",80.0647,690.2312
"16",79.954834,690.2446
"17",79.815674,690.2578
"18",79.65942,690.271
"19",79.49096,690.2844
"20",79.327385,690.29785
"21",79.17357,690.31104
"22",79.03685,690.3242
"23",78.9099,690.33765
"24",78.79515,690.3511
"25",78.68772,690.36426
"26",78.59251,690.37744
"27",78.50706,690.39087
"28",78.433815,690.4043
"29",78.37278,690.4175
"30",78.328835,690.43066
"31",78.294655,690.4441
"32",78.26536,690.4575
"33",78.24582,690.4707
"34",78.23117,690.4839
"35",78.21652,690.4973
"36",78.20187,690.51074
"37",78.18967,690.5239
"38",78.1799,690.5371
"39",78.170135,690.55054
"40",78.16281,690.56396
"41",78.15549,690.57715
"42",78.14084,690.59033
"43",78.11154,690.60376
"44",78.0798,690.6172
"45",78.0383,690.6304
"46",78.00168,690.64355
"47",77.98215,690.657
"48",78.02365,690.6704
"49",78.18967,690.6836
"50",78.55833,690.6968
"51",79.166245,690.7102
"52",79.98901,690.72363
"53",80.936295,690.7368
"54",81.86893,690.75
"55",82.64286,690.7634
"56",83.160446,690.77686
"57",83.38018,690.79004
"58",83.34112,690.8032
"59",83.10185,690.81665
"60",82.738075,690.8301
"61",82.32304,690.84326
"62",81.917755,690.85645
"63",81.55886,690.8699
"64",81.270775,690.8833
"65",81.0486,690.8965
"66",80.87526,690.90967
"67",80.73121,690.9231
"68",80.58961,690.9365
"69",80.44312,690.9497
"70",80.30152,690.9629
"71",80.16968,690.9763
"72",80.0647,690.98975
"73",79.99634,691.0029
"74",79.95972,691.0161
"75",79.94507,691.02954
"76",79.94507,691.04297
"77",79.94507,691.05615
"78",79.92554,691.06934
"79",79.88403,691.08276
"80",79.818115,691.0962
"81",79.72289,691.1094
"82",79.60815,691.12256
"83",79.48119,691.136
"84",79.344475,691.1494
"85",79.20775,691.1626
"86",79.07591,691.1758
"87",78.958725,691.1892
"88",78.853745,691.20264
"89",78.76341,691.2158
"90",78.68528,691.229
"91",78.61204,691.24243
"92",78.551,691.25586
"93",78.502174,691.26904
"94",78.46555,691.2822
"95",78.44358,691.29565
"96",78.43137,691.3091
"97",78.43137,691.32227
"98",78.433815,691.33545
"99",78.44114,691.3489
"100",78.450905,691.3623
"101",78.45579,691.3755
"102",78.45823,691.3887
"103",78.45579,691.4021
"104",78.44846,691.4155
"105",78.433815,691.4287
"106",78.41428,691.4419
"107",78.38987,691.4553
"108",78.36057,691.46875
"109",78.32639,691.48193
"110",78.294655,691.4951
"111",78.294655,691.50854
"112",78.37522,691.522
"113",78.61448,691.53516
"114",79.07347,691.54834
"115",79.75464,691.56177
"116",80.59449,691.5752
"117",81.48318,691.5884
"118",82.27177,691.60156
"119",82.84306,691.615
"120",83.13847,691.6284
"121",83.17265,691.6416
"122",82.99199,691.6548
"123",82.66483,691.6682
"124",82.25956,691.68164
"125",81.83963,691.6948
"126",81.45388,691.708
"127",81.13161,691.72144
"128",80.87526,691.73486
"129",80.6775,691.74805
"130",80.516365,691.7612
"131",80.37476,691.77466
"132",80.24048,691.7881
"133",80.11841,691.8013
"134",80.02075,691.81445
"135",79.95972,691.8279
"136",79.940186,691.8413
"137",79.95239,691.8545
"138",79.991455,691.8677
"139",80.03052,691.8811
"140",80.05737,691.89453
"141",80.05493,691.9077
"142",80.01587,691.9209
"143",79.937744,691.9343
"144",79.83276,691.94775
"145",79.710686,691.96094
"146",79.57885,691.9741
"147",79.44213,691.98755
"148",79.310295,692.001
"149",79.18822,692.01416
"150",79.07591,692.02734
"151",78.975815,692.0408
"152",78.890366,692.0542
"153",78.82445,692.0674
"154",78.765854,692.08057
"155",78.712135,692.094
"156",78.67063,692.1074
"157",78.63889,692.1206
"158",78.61692,692.1338
"159",78.60471,692.1472
"160",78.59983,692.16064
"161",78.60227,692.1738
"162",78.607155,692.187
"163",78.61448,692.20044
"164",78.624245,692.21387
"165",78.63645,692.22705
"166",78.64622,692.24023
"167",78.65598,692.25366
"168",78.65354,692.2671
"169",78.63889,692.2803
"170",78.6218,692.29346
"171",78.59495,692.3069
"172",78.56565,692.3203
"173",78.536354,692.3335
"174",78.51194,692.3467
"175",78.49241,692.3601
"176",78.51438,692.37354
"177",78.64622,692.3867
"178",78.97093,692.3999
"179",79.53246,692.4133
"180",80.31373,692.42676
"181",81.231705,692.43994
"182",82.144806,692.4531
"183",82.899216,692.46655
"184",83.387505,692.48
"185",83.57549,692.49316
"186",83.50469,692.50635
"187",83.23369,692.5198
"188",82.84306,692.5332
"189",82.41093,692.5464
"190",81.99832,692.5596
"191",81.64431,692.573
"192",81.373314,692.5864
"193",81.18532,692.5996
"194",81.058365,692.6128
"195",80.95827,692.6262
"196",80.85573,692.63965
"197",80.73121,692.65283
"198",80.59205,692.666
"199",80.45045,692.67944
"200",80.32838,692.6929
"201",80.23804,692.70605
"202",80.181885,692.71924
"203",80.15503,692.73267
"204",80.147705,692.7461
"205",80.14282,692.7593
"206",80.128174,692.77246
"207",80.09155,692.7859
"208",80.028076,692.7993
"209",79.9353,692.8125
"210",79.82056,692.8257
"211",79.693596,692.8391
"212",79.56176,692.85254
"213",79.42748,692.8657
"214",79.30053,692.8789
"215",79.18089,692.89233
"216",79.06859,692.90576
"217",78.97093,692.91895
"218",78.88304,692.9321
"219",78.80492,692.94556
"220",78.73411,692.959
"221",78.67307,692.97217
"222",78.6218,692.98535
"223",78.58274,692.9988
"224",78.553444,693.0122
"225",78.53391,693.0254
"226",78.52659,693.0386
"227",78.52659,693.052
"228",78.52903,693.0654
"229",78.53391,693.0786
"230",78.53391,693.0918
"231",78.53391,693.1052
"232",78.53147,693.11865
"233",78.53147,693.13184
"234",78.52659,693.145
"235",78.51194,693.15845
"236",78.49485,693.1719
"237",78.47532,693.18506
"238",78.44602,693.19824
"239",78.41917,693.2117
"240",78.39231,693.2251
"241",78.37034,693.2383
"242",78.363014,693.25146
"243",78.41184,693.2649
"244",78.59251,693.2783
"245",78.98314,693.2915
"246",79.60815,693.3047
"247",80.430916,693.3181
"248",81.35134,693.33154
"249",82.22049,693.3447
"250",82.9041,693.3579
"251",83.30938,693.37134
"252",83.424126,693.38477
"253",83.29717,693.39795
"254",82.99443,693.41113
"255",82.59159,693.42456
"256",82.16434,693.438
"257",81.76639,693.4512
"258",81.43191,693.46436
"259",81.17311,693.4778
"260",80.98024,693.4912
"261",80.8362,693.5044
"262",80.71168,693.5176
"263",80.58961,693.531
"264",80.46021,693.54443
"265",80.33082,693.5576
"266",80.21362,693.5708
"267",80.11597,693.5842
"268",80.05005,693.59766
"269",80.01587,693.61084
"270",80.0061,693.624
"271",80.00366,693.63745
"272",80.00366,693.6509
"273",79.9939,693.66406
"274",79.96216,693.67725
"275",79.903564,693.6907
"276",79.82544,693.7041
"277",79.725334,693.7173
"278",79.605705,693.73047
"279",79.47875,693.7439
"280",79.35424,693.7573
"281",79.23216,693.7705
"282",79.114975,693.7837
"283",79.00511,693.7971
"284",78.9099,693.81055
"285",78.82933,693.8237
"286",78.76341,693.8369
"287",78.712135,693.85034
"288",78.67307,693.8638
"289",78.643776,693.87695
"290",78.6218,693.89014
"291",78.60227,693.90356
"292",78.59251,693.917
"293",78.59251,693.9302
"294",78.59983,693.94336
"295",78.607155,693.9568
"296",78.61936,693.9702
"297",78.63401,693.9834
"298",78.64622,693.9966
"299",78.65354,694.01
"300",78.66331,694.02344
"301",78.66575,694.0366
"302",78.660866,694.0498
"303",78.64622,694.06323
"304",78.62913,694.07666
"305",78.6096,694.08984
"306",78.58762,694.103
"307",78.572975,694.11646
"308",78.59251,694.1299
"309",78.70481,694.14307
"310",78.98802,694.15625
"311",79.4934,694.1697
"312",80.20874,694.1831
"313",81.06325,694.1963
"314",81.92996,694.2095
"315",82.66483,694.2229
"316",83.160446,694.2363
"317",83.37774,694.2495
"318",83.33379,694.2627
"319",83.09941,694.2761
"320",82.735634,694.28955
"321",82.31327,694.30273
"322",81.8909,694.3159
"323",81.51736,694.32935
"324",81.20973,694.3428
"325",80.96803,694.35596
"326",80.78493,694.36914
"327",80.64088,694.38257
"328",80.51392,694.396
"329",80.394295,694.4092
"330",80.289314,694.42236
"331",80.20874,694.4358
"332",80.164795,694.4492
"333",80.15991,694.4624
"334",80.19409,694.4756
"335",80.2478,694.489
"336",80.29908,694.50244
"337",80.32838,694.5156
"338",80.32838,694.5288
"339",80.289314,694.54224
"340",80.21362,694.55566
"341",80.10864,694.56885
"342",79.98413,694.58203
"343",79.84497,694.59546
"344",79.70336,694.6089
"345",79.5642,694.6221
"346",79.429924,694.63525
"347",79.30785,694.6487
"348",79.1931,694.6621
"349",79.093,694.6753
"350",79.00511,694.6885
"351",78.93187,694.7019
"352",78.873276,694.71533
"353",78.82445,694.7285
"354",78.79027,694.7417
"355",78.768295,694.7551
"356",78.751205,694.76855
"357",78.74143,694.78174
"358",78.74143,694.7949
"359",78.74387,694.80835
"360",78.75365,694.8218
"361",78.768295,694.83496
"362",78.78294,694.84814
"363",78.79515,694.8616
"364",78.79759,694.875
"365",78.79271,694.8882
"366",78.77806,694.90137
"367",78.75853,694.9148
"368",78.73167,694.9282
"369",78.70481,694.9414
"370",78.68284,694.9546
"371",78.677956,694.968
"372",78.74387,694.98145
"373",78.958725,694.9946
"374",79.38354,695.0078
"375",80.028076,695.02124
"376",80.84108,695.03467
"377",81.71755,695.04785
"378",82.5037,695.06104
"379",83.075,695.07446
"380",83.36553,695.0879
"381",83.38506,695.1011
"382",83.1873,695.11426
"383",82.83818,695.1277
"384",82.41581,695.1411
"385",81.97879,695.1543
"386",81.57595,695.1675
"387",81.24147,695.1809
"388",80.98268,695.19434
"389",80.79225,695.2075
"390",80.64576,695.2207
"391",80.51392,695.23413
"392",80.38209,695.24756
"393",80.24048,695.26074
"394",80.096436,695.2739
"395",79.96704,695.28735
"396",79.8645,695.3008
"397",79.798584,695.31396
"398",79.766846,695.32715
"399",79.764404,695.3406
"400",79.77417,695.354
"401",79.783936,695.3672
"402",79.781494,695.3804
"403",79.7522,695.3938
"404",79.693596,695.4072
"405",79.60815,695.4204
"406",79.50561,695.4336
"407",79.38842,695.447
"408",79.26635,695.46045
"409",79.13939,695.47363
"410",79.01976,695.4868
"411",78.905014,695.50024
"412",78.802475,695.5137
"413",78.7219,695.52686
"414",78.67063,695.54004
"415",78.641335,695.55347
"416",78.63401,695.5669
"417",78.63889,695.5801
"418",78.643776,695.59326
"419",78.64866,695.6067
"420",78.65598,695.6201
"421",78.66575,695.6333
"422",78.68284,695.6465
"423",78.70481,695.6599
"424",78.72678,695.67334
"425",78.75365,695.6865
"426",78.77318,695.6997
"427",78.79027,695.71313
"428",78.8098,695.72656
"429",78.82689,695.73975
"430",78.84154,695.7529
"431",78.8513,695.76636
"432",78.853745,695.7798
"433",78.84642,695.79297
"434",78.83421,695.80615
"435",78.81468,695.8196
"436",78.79515,695.833
"437",78.78294,695.8462
"438",78.785385,695.8594
"439",78.8513,695.8728
"440",79.05394,695.8862
"441",79.46899,695.8994
"442",80.11841,695.9126
"443",80.96559,695.926
"444",81.89578,695.93945
"445",82.760056,695.95264
"446",83.41436,695.9658
"447",83.77814,695.97925
"448",83.85138,695.9927
"449",83.67803,696.00586
"450",83.336235,696.01904
"451",82.9041,696.0325
"452",82.44511,696.0459
"453",82.01053,696.0591
"454",81.634544,696.07227
"455",81.33669,696.0857
"456",81.11696,696.0991
"457",80.955826,696.1123
"458",80.831314,696.1255
"459",80.71656,696.1389
"460",80.604256,696.15234
"461",80.48951,696.1655
"462",80.38453,696.1787
"463",80.29908,696.19214
"464",80.24536,696.20557
"465",80.218506,696.21875
"466",80.21118,696.23193
"467",80.21362,696.24536
"468",80.20874,696.2588
"469",80.18921,696.272
"470",80.15259,696.28516
"471",80.08911,696.2986
"472",80.00366,696.312
"473",79.89868,696.3252
"474",79.77905,696.3384
"475",79.656975,696.3518
"476",79.53246,696.36523
"477",79.412834,696.3784
"478",79.30297,696.3916
"479",79.20531,696.405
"480",79.11742,696.41846
"481",79.044174,696.43164
"482",78.98314,696.4448
"483",78.93431,696.45825
"484",78.89525,696.4717
"485",78.86107,696.48486
"486",78.836655,696.49805
"487",78.82201,696.5115
"488",78.81468,696.5249
"489",78.8098,696.5381
"490",78.8098,696.5513
"491",78.81468,696.5647
"492",78.82201,696.5781
"493",78.836655,696.5913
"494",78.85863,696.6045
"495",78.8806,696.6179
"496",78.89525,696.63135
"497",78.90257,696.64453
"498",78.90013,696.6577
"499",78.890366,696.67114
"500",78.873276,696.6846
"501",78.853745,696.69775
"502",78.836655,696.71094
"503",78.819565,696.72437
"504",78.80736,696.7378
"505",78.80492,696.751
"506",78.84398,696.76416
"507",79.00023,696.7776
"508",79.35668,696.791
"509",79.94751,696.8042
"510",80.74586,696.8174
"511",81.651634,696.8308
"512",82.528114,696.84424
"513",83.22392,696.8574
"514",83.648735,696.8706
"515",83.78302,696.88403
"516",83.66827,696.89746
"517",83.36797,696.91064
"518",82.95293,696.9238
"519",82.49149,696.93726
"520",82.037384,696.9507
"521",81.634544,696.96387
"522",81.307396,696.97705
"523",81.058365,696.9905
"524",80.87282,697.0039
"525",80.73121,697.0171
"526",80.61402,697.0303
"527",80.50172,697.0437
"528",80.394295,697.0571
"529",80.29664,697.0703
"530",80.22095,697.0835
"531",80.177,697.0969
"532",80.16235,697.11035
"533",80.16968,697.12354
"534",80.184326,697.1367
"535",80.201416,697.15015
"536",80.198975,697.1636
"537",80.177,697.17676
"538",80.12329,697.18994
"539",80.042725,697.20337
"540",79.94263,697.2168
"541",79.82788,697.23
"542",79.7058,697.24316
"543",79.586174,697.2566
"544",79.466545,697.27
"545",79.35668,697.2832
"546",79.259026,697.2964
"547",79.17357,697.3098
"548",79.10521,697.32324
"549",79.04906,697.3364
"550",79.00755,697.3496
"551",78.97337,697.36304
"552",78.94408,697.37646
"553",78.922104,697.38965
"554",78.9099,697.40283
"555",78.9099,697.41626
"556",78.922104,697.4297
"557",78.941635,697.4429
"558",78.96849,697.45605
"559",78.992905,697.4695
"560",79.009995,697.4829
"561",79.01732,697.4961
"562",79.0222,697.5093
"563",79.01976,697.5227
"564",79.01488,697.53613
"565",79.00511,697.5493
"566",78.98802,697.5625
"567",78.97093,697.5759
"568",78.95628,697.58936
"569",78.97093,697.60254
"570",79.07591,697.6157
"571",79.344475,697.62915
"572",79.823,697.6426
"573",80.50416,697.65576
"574",81.31716,697.66895
"575",82.13504,697.6824
"576",82.82597,697.6958
"577",83.284966,697.709
"578",83.475395,697.72217
"579",83.421684,697.7356
"580",83.18242,697.749
"581",82.82109,697.7622
"582",82.39384,697.7754
"583",81.96658,697.7888
"584",81.57595,697.80225
"585",81.24147,697.8154
"586",80.98024,697.8286
"587",80.77272,697.84204
"588",80.604256,697.85547
"589",80.45533,697.86865
"590",80.325935,697.88184
"591",80.20874,697.89526
"592",80.12085,697.9087
"593",80.06714,697.9219
"594",80.05249,697.93506
"595",80.07202,697.9485
"596",80.10864,697.9619
"597",80.15015,697.9751
"598",80.181885,697.9883
"599",80.18921,698.0017
"600",80.15991,698.01514
"601",80.096436,698.0283
"602",80.00366,698.0415
"603",79.8938,698.05493
"604",79.77905,698.06836
"605",79.656975,698.08154
"606",79.53979,698.0947
"607",79.42504,698.10815
"608",79.31518,698.1216
"609",79.217514,698.13477
"610",79.13451,698.14795
"611",79.06615,698.1614
"612",79.012436,698.1748
"613",78.97093,698.188
"614",78.93675,698.2012
"615",78.91234,698.2146
"616",78.90013,698.228
"617",78.89769,698.2412
"618",78.90257,698.2544
"619",78.91722,698.2678
"620",78.93675,698.28125
"621",78.95628,698.29443
"622",78.96849,698.3076
"623",78.975815,698.32104
"624",78.975815,698.3345
"625",78.96361,698.34766
"626",78.94408,698.36084
"627",78.922104,698.37427
"628",78.907455,698.3877
"629",78.922104,698.4009
"630",79.0222,698.41406
"631",79.281,698.4275
"632",79.73998,698.4409
"633",80.396736,698.4541
"634",81.18776,698.4673
"635",81.99832,698.4807
"636",82.684364,698.49414
"637",83.15312,698.5073
"638",83.35821,698.5205
"639",83.319145,698.53394
"640",83.087204,698.54736
"641",82.73075,698.56055
"642",82.320595,698.5737
"643",81.90555,698.58716
"644",81.529564,698.6006
"645",81.2195,698.6138
"646",80.97536,698.62695
"647",80.79225,698.6404
"648",80.6482,698.6538
"649",80.52125,698.667
"650",80.40406,698.6802
"651",80.291756,698.6936
"652",80.19409,698.70703
"653",80.11597,698.7202
"654",80.06958,698.7334
"655",80.05493,698.7468
"656",80.0647,698.76025
"657",80.08179,698.77344
"658",80.09155,698.7866
"659",80.08667,698.80005
"660",80.059814,698.8135
"661",80.00122,698.82666
"662",79.920654,698.83984
"663",79.823,698.8533
"664",79.71557,698.8667
"665",79.60082,698.8799
"666",79.48608,698.89307
"667",79.37621,698.9065
"668",79.27856,698.9199
"669",79.18822,698.9331
"670",79.10521,698.9463
"671",79.03441,698.9597
"672",78.97337,698.97314
"673",78.922104,698.9863
"674",78.88548,698.9995
"675",78.86351,699.01294
"676",78.856186,699.02637
"677",78.85863,699.03955
"678",78.86595,699.05273
"679",78.8806,699.06616
"680",78.89525,699.0796
"681",78.9099,699.0928
"682",78.924545,699.10596
"683",78.93431,699.1194
"684",78.93187,699.1328
"685",78.924545,699.146
"686",78.91478,699.1592
"687",78.90013,699.1726
"688",78.88304,699.18604
"689",78.86351,699.1992
"690",78.84886,699.2124
"691",78.8513,699.2258
"692",78.93431,699.23926
"693",79.17113,699.25244
"694",79.61791,699.2656
"695",80.27711,699.27905
"696",81.08522,699.2925
"697",81.92264,699.30566
"698",82.6453,699.31885
"699",83.140915,699.3323
"700",83.36309,699.3457
"701",83.33135,699.3589
"702",83.09941,699.3721
"703",82.7454,699.3855
"704",82.33524,699.3989
"705",81.934845,699.4121
"706",81.583275,699.4253
"707",81.304955,699.4387
"708",81.09743,699.45215
"709",80.953384,699.46533
"710",80.84108,699.4785
"711",80.73365,699.49194
"712",80.61646,699.5054
"713",80.48951,699.51855
"714",80.360115,699.53174
"715",80.2478,699.54517
"716",80.16235,699.5586
"717",80.10864,699.5718
"718",80.079346,699.58496
"719",80.06958,699.5984
"720",80.06958,699.6118
"721",80.062256,699.625
"722",80.042725,699.6382
"723",79.99634,699.6516
"724",79.92554,699.66504
"725",79.83032,699.6782
"726",79.72045,699.6914
"727",79.605705,699.70483
"728",79.4934,699.71826
"729",79.38354,699.73145
"730",79.28344,699.7446
"731",79.1931,699.75806
"732",79.11253,699.7715
"733",79.03929,699.78467
"734",78.9807,699.79785
"735",78.93431,699.8113
"736",78.89525,699.8247
"737",78.86595,699.8379
"738",78.84642,699.8511
"739",78.83177,699.8645
"740",78.82933,699.8779
"741",78.836655,699.8911
"742",78.84886,699.9043
"743",78.86351,699.9177
"744",78.873276,699.93115
"745",78.8806,699.94434
"746",78.87816,699.9575
"747",78.870834,699.97095
"748",78.8513,699.9844
"749",78.82689,699.99756
"750",78.79759,700.01074
"751",78.768295,700.0242
"752",78.74387,700.0376
"753",78.73411,700.0508
"754",78.77806,700.06396
"755",78.93675,700.0774
"756",79.27123,700.0908
"757",79.818115,700.104
"758",80.54078,700.1172
"759",81.35134,700.1306
"760",82.12039,700.14404
"761",82.720985,700.1572
"762",83.070114,700.1704
"763",83.158005,700.18384
"764",83.0164,700.19727
"765",82.720985,700.21045
"766",82.340126,700.22363
"767",81.94461,700.23706
"768",81.583275,700.2505
"769",81.287865,700.2637
"770",81.06325,700.27686
"771",80.907,700.2903
"772",80.78493,700.3037
"773",80.67506,700.3169
"774",80.55787,700.3301
"775",80.430916,700.3435
"776",80.29908,700.35693
"777",80.17944,700.3701
"778",80.08667,700.3833
"779",80.03296,700.3967
"780",80.01343,700.41016
"781",80.01343,700.42334
"782",80.02075,700.4365
"783",80.025635,700.44995
"784",80.02075,700.4634
"785",79.991455,700.47656
"786",79.9353,700.48975
"787",79.85718,700.5032
"788",79.75952,700.5166
"789",79.64721,700.5298
"790",79.53246,700.54297
"791",79.4226,700.5564
"792",79.31518,700.5698
"793",79.219955,700.583
"794",79.13939,700.5962
"795",79.06859,700.6096
"796",79.009995,700.62305
"797",78.96605,700.6362
"798",78.92943,700.6494
"799",78.90257,700.66284
"800",78.887924,700.6763
"801",78.88304,700.68945
"802",78.88548,700.70264
"803",78.89525,700.71606
"804",78.9099,700.7295
"805",78.92943,700.7427
"806",78.9514,700.75586
"807",78.97826,700.7693
"808",79.00023,700.7827
"809",79.01488,700.7959
"810",79.01976,700.8091
"811",79.012436,700.8225
"812",78.99046,700.83594
"813",78.96361,700.8491
"814",78.93431,700.8623
"815",78.90013,700.87573
"816",78.87816,700.88916
"817",78.89525,700.90234
"818",79.00267,700.9155
"819",79.26635,700.92896
"820",79.725334,700.9424
"821",80.37476,700.95557
"822",81.143814,700.96875
"823",81.91287,700.9822
"824",82.55497,700.9956
"825",82.96513,701.0088
"826",83.11162,701.022
"827",83.018845,701.0354
"828",82.75273,701.0488
"829",82.37675,701.062
"830",81.96414,701.0752
"831",81.57351,701.0886
"832",81.23903,701.10205
"833",80.97536,701.11523
"834",80.780045,701.1284
"835",80.638435,701.14185
"836",80.52125,701.1553
"837",80.411385,701.16846
"838",80.29908,701.18164
"839",80.18921,701.19507
"840",80.10376,701.2085
"841",80.05249,701.2217
"842",80.0354,701.23486
"843",80.05005,701.2483
"844",80.08667,701.2617
"845",80.11841,701.2749
"846",80.128174,701.2881
"847",80.113525,701.3015
"848",80.0647,701.31494
"849",79.98169,701.3281
"850",79.871826,701.3413
"851",79.74975,701.35474
"852",79.61547,701.36816
"853",79.48608,701.38135
"854",79.37377,701.39453
"855",79.27856,701.40796
"856",79.19798,701.4214
"857",79.132065,701.4346
"858",79.07347,701.44775
"859",79.01976,701.4612
"860",78.975815,701.4746
"861",78.93919,701.4878
"862",78.9099,701.501
"863",78.890366,701.5144
"864",78.88304,701.52783
"865",78.88304,701.541
"866",78.890366,701.5542
"867",78.90257,701.5676
"868",78.91722,701.58105
"869",78.93187,701.59424
"870",78.93919,701.6074
"871",78.93919,701.62085
"872",78.93919,701.6343
"873",78.93675,701.64746
"874",78.924545,701.66064
"875",78.907455,701.6741
"876",78.8806,701.6875
"877",78.84886,701.7007
"878",78.81712,701.71387
"879",78.79027,701.7273
"880",78.78783,701.7407
"881",78.84886,701.7539
"882",79.04173,701.7671
"883",79.4226,701.7805
"884",80.01099,701.79395
"885",80.75807,701.8071
"886",81.56863,701.8203
"887",82.29862,701.83374
"888",82.82597,701.84717
"889",83.087204,701.86035
"890",83.089645,701.87354
"891",82.88457,701.88696
"892",82.55009,701.9004
"893",82.15701,701.9136
"894",81.77371,701.92676
"895",81.43923,701.9402
"896",81.180435,701.9536
"897",80.99245,701.9668
"898",80.86305,701.98
"899",80.76784,701.9934
"900",80.67506,702.00684
"901",80.56275,702.02
"902",80.430916,702.0332
"903",80.291756,702.04663
"904",80.16235,702.06006
"905",80.05737,702.07324
"906",79.98657,702.0864
"907",79.954834,702.09985
"908",79.94751,702.1133
"909",79.94751,702.12646
"910",79.94263,702.13965
"911",79.92798,702.1531
"912",79.8938,702.1665
"913",79.83765,702.1797
"914",79.76196,702.1929
"915",79.66918,702.2063
"916",79.5642,702.2197
"917",79.449455,702.2329
"918",79.34203,702.2461
"919",79.24437,702.2595
"920",79.151596,702.27295
"921",79.07347,702.28613
"922",79.00755,702.2993
"923",78.9514,702.31274
"924",78.90257,702.3262
"925",78.86595,702.33936
"926",78.839096,702.35254
"927",78.819565,702.36597
"928",78.80492,702.3794
"929",78.79271,702.3926
"930",78.78783,702.40576
"931",78.79515,702.4192
"932",78.80492,702.4326
"933",78.81712,702.4458
"934",78.82445,702.459
"935",78.82689,702.4724
"936",78.82445,702.48584
"937",78.81712,702.499
"938",78.80736,702.5122
"939",78.802475,702.52563
"940",78.79759,702.53906
"941",78.78294,702.55225
"942",78.76341,702.5654
"943",78.73655,702.57886
"944",78.712135,702.5923
"945",78.68772,702.60547
"946",78.67307,702.61865
"947",78.69016,702.6321
"948",78.79027,702.6455
"949",79.03685,702.6587
"950",79.483635,702.6719
"951",80.130615,702.6853
"952",80.90944,702.6987
"953",81.71267,702.7119
"954",82.39628,702.7251
"955",82.85283,702.7385
"956",83.0457,702.75195
"957",82.98955,702.76514
"958",82.74052,702.7783
"959",82.38163,702.79175
"960",81.986115,702.8052
"961",81.60525,702.81836
"962",81.28542,702.83154
"963",81.03883,702.845
"964",80.87282,702.8584
"965",80.76051,702.8716
"966",80.6775,702.88477
"967",80.59693,702.8982
"968",80.50416,702.9116
"969",80.38453,702.9248
"970",80.255135,702.938
"971",80.13306,702.9514
"972",80.0354,702.96484
"973",79.97681,702.978
"974",79.94995,702.9912
"975",79.94751,703.00464
"976",79.954834,703.01807
"977",79.957275,703.03125
"978",79.94751,703.04443
"979",79.91089,703.05786
"980",79.852295,703.0713
"981",79.77173,703.0845
"982",79.674065,703.09766
"983",79.56664,703.1111
"984",79.4641,703.1245
"985",79.36889,703.1377
"986",79.28588,703.1509
"987",79.21507,703.1643
"988",79.151596,703.17773
"989",79.093,703.1909
"990",79.04173,703.2041
"991",78.992905,703.2175
"992",78.9514,703.23096
"993",78.91478,703.24414
"994",78.890366,703.2573
"995",78.873276,703.27075
"996",78.870834,703.2842
"997",78.873276,703.29736
"998",78.88548,703.31055
"999",78.89525,703.324
"1000",78.907455,703.3374
"1001",78.91722,703.3506
"1002",78.92699,703.3638
"1003",78.93431,703.3772
"1004",78.93675,703.3906
"1005",78.93919,703.4038
"1006",78.93919,703.417
"1007",78.93919,703.4304
"1008",78.941635,703.44385
"1009",78.941635,703.45703
"1010",78.941635,703.4702
"1011",78.93431,703.48364
"1012",78.922104,703.4971
"1013",78.905014,703.51025
"1014",78.887924,703.52344
"1015",78.87572,703.53687
"1016",78.88548,703.5503
"1017",78.97093,703.5635
"1018",79.19554,703.57666
"1019",79.61791,703.5901
"1020",80.24048,703.6035
"1021",81.004654,703.6167
"1022",81.80545,703.6299
"1023",82.5037,703.6433
"1024",82.984665,703.65674
"1025",83.20195,703.6699
"1026",83.16777,703.6831
"1027",82.933395,703.69653
"1028",82.5745,703.70996
"1029",82.15701,703.72314
"1030",81.74441,703.7363
"1031",81.38552,703.74976
"1032",81.09743,703.7632
"1033",80.88747,703.77637
"1034",80.743416,703.78955
"1035",80.63111,703.803
"1036",80.53101,703.8164
"1037",80.42603,703.8296
"1038",80.31861,703.8428
"1039",80.216064,703.8562
"1040",80.1355,703.8696
"1041",80.08667,703.8828
"1042",80.07202,703.896
"1043",80.08179,703.9094
"1044",80.10376,703.92285
"1045",80.12329,703.93604
"1046",80.128174,703.9492
"1047",80.113525,703.96265
"1048",80.06714,703.9761
"1049",79.9939,703.98926
"1050",79.89624,704.00244
"1051",79.78638,704.01587
"1052",79.67162,704.0293
"1053",79.56664,704.0425
"1054",79.46899,704.05566
"1055",79.38354,704.0691
"1056",79.30297,704.0825
"1057",79.22728,704.0957
"1058",79.15892,704.1089
"1059",79.097885,704.1223
"1060",79.05394,704.13574
"1061",79.02464,704.1489
"1062",79.00511,704.1621
"1063",78.99779,704.17554
"1064",78.99779,704.18896
"1065",79.00511,704.20215
"1066",79.01488,704.21533
"1067",79.029526,704.22876
"1068",79.04906,704.2422
"1069",79.06615,704.2554
"1070",79.080795,704.26855
"1071",79.09544,704.282
"1072",79.10277,704.2954
"1073",79.10765,704.3086
"1074",79.10277,704.3218
"1075",79.09544,704.3352
"1076",79.078354,704.34863
"1077",79.05394,704.3618
"1078",79.02464,704.375
"1079",78.995346,704.3884
"1080",78.975815,704.40186
"1081",78.98558,704.41504
"1082",79.08324,704.4282
"1083",79.33715,704.44165
"1084",79.78882,704.4551
"1085",80.42603,704.46826
"1086",81.1902,704.48145
"1087",81.95926,704.4949
"1088",82.59647,704.5083
"1089",83.001755,704.5215
"1090",83.1458,704.53467
"1091",83.05058,704.5481
"1092",82.77959,704.5615
"1093",82.406044,704.5747
"1094",82.00076,704.5879
"1095",81.61501,704.6013
"1096",81.28054,704.61475
"1097",81.01686,704.6279
"1098",80.82399,704.6411
"1099",80.68726,704.65454
"1100",80.584724,704.66797
"1101",80.49439,704.68115
"1102",80.396736,704.69434
"1103",80.291756,704.70776
"1104",80.18921,704.7212
"1105",80.09888,704.7344
"1106",80.03296,704.74756
"1107",79.98901,704.761
"1108",79.974365,704.7744
"1109",79.971924,704.7876
"1110",79.971924,704.8008
"1111",79.96948,704.8142
"1112",79.94995,704.82764
"1113",79.90845,704.8408
"1114",79.84497,704.854
"1115",79.76196,704.86743
"1116",79.6643,704.88086
"1117",79.55932,704.89404
"1118",79.45678,704.9072
"1119",79.35424,704.92065
"1120",79.259026,704.9341
"1121",79.17845,704.94727
"1122",79.10765,704.96045
"1123",79.04906,704.9739
"1124",79.00023,704.9873
"1125",78.95384,705.0005
"1126",78.91966,705.0137
"1127",78.89525,705.0271
"1128",78.8806,705.0405
"1129",78.873276,705.0537
"1130",78.87816,705.0669
"1131",78.88548,705.0803
"1132",78.89281,705.09375
"1133",78.89525,705.10693
"1134",78.89769,705.1201
"1135",78.90257,705.13354
"1136",78.907455,705.147
"1137",78.91234,705.16016
"1138",78.91722,705.17334
"1139",78.922104,705.18677
"1140",78.92699,705.2002
"1141",78.92699,705.2134
"1142",78.92699,705.22656
"1143",78.922104,705.24
"1144",78.91722,705.2534
"1145",78.907455,705.2666
"1146",78.89525,705.2798
"1147",78.87816,705.2932
"1148",78.86351,705.30664
"1149",78.84642,705.3198
"1150",78.84398,705.333
"1151",78.87816,705.34644
"1152",79.01732,705.35986
"1153",79.33471,705.37305
"1154",79.8645,705.3862
"1155",80.59205,705.39966
"1156",81.43191,705.4131
"1157",82.25712,705.4263
"1158",82.92119,705.43945
"1159",83.33379,705.4529
"1160",83.46319,705.4663
"1161",83.34844,705.4795
"1162",83.0457,705.4927
"1163",82.63798,705.5061
"1164",82.196075,705.51953
"1165",81.78104,705.5327
"1166",81.42947,705.5459
"1167",81.160904,705.5593
"1168",80.972916,705.57275
"1169",80.848404,705.58594
"1170",80.75807,705.5991
"1171",80.67506,705.61255
"1172",80.58228,705.626
"1173",80.47486,705.63916
"1174",80.360115,705.65234
"1175",80.255135,705.6658
"1176",80.17944,705.6792
"1177",80.1355,705.6924
"1178",80.12085,705.70557
"1179",80.12085,705.719
"1180",80.12329,705.7324
"1181",80.111084,705.7456
"1182",80.08423,705.7588
"1183",80.03296,705.7722
"1184",79.96216,705.78564
"1185",79.88159,705.7988
"1186",79.78638,705.812
"1187",79.68871,705.82544
"1188",79.588615,705.83887
"1189",79.49096,705.85205
"1190",79.398186,705.86523
"1191",79.31274,705.87866
"1192",79.234604,705.8921
"1193",79.1638,705.9053
"1194",79.10033,705.91846
"1195",79.044174,705.9319
"1196",79.00023,705.9453
"1197",78.97093,705.9585
"1198",78.95628,705.9717
"1199",78.9514,705.9851
"1200",78.9514,705.99854
"1201",78.9514,706.0117
"1202",78.94652,706.0249
"1203",78.941635,706.0383
"1204",78.93919,706.05176
"1205",78.93675,706.06494
"1206",78.93431,706.0781
"1207",78.93187,706.09155
"1208",78.92943,706.105
"1209",78.91966,706.11816
"1210",78.91234,706.13135
"1211",78.905014,706.1448
"1212",78.90013,706.1582
"1213",78.89525,706.1714
"1214",78.890366,706.1846
"1215",78.88548,706.198
"1216",78.88548,706.2114
"1217",78.887924,706.2246
"1218",78.890366,706.2378
"1219",78.89525,706.2512
"1220",78.90257,706.26465
"1221",78.905014,706.27783
"1222",78.905014,706.291
"1223",78.907455,706.30444
"1224",78.907455,706.3179
"1225",78.907455,706.33105
"1226",78.91234,706.34424
"1227",78.9514,706.35767
"1228",79.08812,706.3711
"1229",79.40307,706.3843
"1230",79.94263,706.39746
"1231",80.69703,706.4109
"1232",81.57839,706.4243
"1233",82.44999,706.4375
"1234",83.16777,706.4507
"1235",83.62188,706.4641
"1236",83.7879,706.47754
"1237",83.69512,706.4907
"1238",83.41192,706.5039
"1239",83.00664,706.51733
"1240",82.55009,706.53076
"1241",82.091095,706.54395
"1242",81.67849,706.5571
"1243",81.339134,706.57056
"1244",81.08278,706.584
"1245",80.902115,706.59717
"1246",80.780045,706.61035
"1247",80.68726,706.6238
"1248",80.601814,706.6372
"1249",80.516365,706.6504
"1250",80.42603,706.6636
"1251",80.34547,706.677
"1252",80.28443,706.6904
"1253",80.257576,706.7036
"1254",80.25025,706.7168
"1255",80.26246,706.7302
"1256",80.27711,706.74365
"1257",80.27711,706.75684
"1258",80.25269,706.77
"1259",80.201416,706.78345
"1260",80.130615,706.7969
"1261",80.04028,706.81006
"1262",79.940186,706.82324
"1263",79.83276,706.8367
"1264",79.725334,706.8501
"1265",79.61059,706.8633
"1266",79.500725,706.87646
"1267",79.398186,706.8899
"1268",79.310295,706.9033
"1269",79.23216,706.9165
"1270",79.17113,706.9297
"1271",79.11986,706.9431
"1272",79.08568,706.95654
"1273",79.05638,706.9697
"1274",79.03929,706.9829
"1275",79.03197,706.99634
"1276",79.029526,707.00977
"1277",79.03685,707.02295
"1278",79.044174,707.03613
"1279",79.05638,707.04956
"1280",79.06859,707.063
"1281",79.080795,707.0762
"1282",79.08812,707.08936
"1283",79.093,707.1028
"1284",79.093,707.1162
"1285",79.097885,707.1294
"1286",79.10277,707.1426
"1287",79.11253,707.156
"1288",79.11986,707.16943
"1289",79.12474,707.1826
"1290",79.12474,707.1958
"1291",79.11742,707.2092
"1292",79.10521,707.22266
"1293",79.093,707.23584
"1294",79.07591,707.249
"1295",79.063705,707.26245
"1296",79.05638,707.2759
"1297",79.06615,707.28906
"1298",79.13695,707.30225
"1299",79.34203,707.3157
"1300",79.742424,707.3291
"1301",80.35767,707.3423
"1302",81.14137,707.35547
"1303",81.99344,707.3689
"1304",82.76494,707.3823
"1305",83.336235,707.3955
"1306",83.63897,707.4087
"1307",83.67071,707.4221
"1308",83.48272,707.43555
"1309",83.14336,707.4487
"1310",82.718544,707.4619
"1311",82.266884,707.47534
"1312",81.83719,707.4888
"1313",81.463646,707.50195
"1314",81.16823,707.51514
"1315",80.94606,707.52856
"1316",80.782486,707.542
"1317",80.66041,707.5552
"1318",80.55543,707.56836
"1319",80.45777,707.5818
"1320",80.36988,707.5952
"1321",80.30152,707.6084
"1322",80.26002,707.6216
"1323",80.25269,707.635
"1324",80.26978,707.64844
"1325",80.29908,707.6616
"1326",80.33082,707.6748
"1327",80.35279,707.68823
"1328",80.35523,707.70166
"1329",80.325935,707.71484
"1330",80.26734,707.728
"1331",80.17944,707.74146
"1332",80.06714,707.7549
"1333",79.94751,707.76807
"1334",79.82788,707.78125
"1335",79.708244,707.7947
"1336",79.60082,707.8081
"1337",79.500725,707.8213
"1338",79.41772,707.8345
"1339",79.344475,707.8479
"1340",79.28344,707.8613
"1341",79.234604,707.8745
"1342",79.19554,707.8877
"1343",79.166245,707.9011
"1344",79.13939,707.91455
"1345",79.11986,707.92773
"1346",79.11009,707.9409
"1347",79.10033,707.95435
"1348",79.093,707.9678
"1349",79.093,707.98096
"1350",79.097885,707.99414
"1351",79.10033,708.00757
"1352",79.10521,708.021
"1353",79.10765,708.0342
"1354",79.114975,708.04736
"1355",79.11986,708.0608
"1356",79.1223,708.0742
"1357",79.1223,708.0874
"1358",79.1223,708.1006
"1359",79.11253,708.114
"1360",79.09544,708.12744
"1361",79.07591,708.1406
"1362",79.05394,708.1538
"1363",79.03197,708.16724
"1364",79.01732,708.18066
"1365",79.044174,708.19385
"1366",79.18089,708.20703
"1367",79.500725,708.22046
"1368",80.04761,708.2339
"1369",80.78981,708.2471
"1370",81.64675,708.26025
"1371",82.476845,708.2737
"1372",83.140915,708.2871
"1373",83.546196,708.3003
"1374",83.67559,708.3135
"1375",83.563286,708.3269
"1376",83.27276,708.34033
"1377",82.87236,708.3535
"1378",82.42802,708.3667
"1379",81.991,708.3801
"1380",81.59792,708.39355
"1381",81.270775,708.40674
"1382",81.02174,708.4199
"1383",80.84108,708.43335
"1384",80.709236,708.4468
"1385",80.60914,708.45996
"1386",80.51392,708.47314
"1387",80.41871,708.4866
"1388",80.32105,708.5
"1389",80.24048,708.5132
"1390",80.184326,708.52637
"1391",80.15747,708.5398
"1392",80.15503,708.5532
"1393",80.164795,708.5664
"1394",80.17456,708.5796
"1395",80.17212,708.593
"1396",80.14526,708.60645
"1397",80.096436,708.6196
"1398",80.025635,708.6328
"1399",79.9353,708.64624
"1400",79.82788,708.65967
"1401",79.71313,708.67285
"1402",79.59594,708.68604
"1403",79.483635,708.69946
"1404",79.378654,708.7129
"1405",79.28832,708.7261
"1406",79.20775,708.73926
"1407",79.13939,708.7527
"1408",79.07347,708.7661
"1409",79.012436,708.7793
"1410",78.958725,708.7925
"1411",78.91478,708.8059
"1412",78.887924,708.81934
"1413",78.873276,708.8325
"1414",78.870834,708.8457
"1415",78.87572,708.85913
"1416",78.887924,708.87256
"1417",78.89525,708.88574
"1418",78.90257,708.8989
"1419",78.9099,708.91235
"1420",78.91966,708.9258
"1421",78.93431,708.93896
"1422",78.9514,708.95215
"1423",78.96605,708.9656
"1424",78.97826,708.979
"1425",78.9807,708.9922
"1426",78.97093,709.0054
"1427",78.95384,709.0188
"1428",78.93187,709.0322
"1429",78.907455,709.0454
"1430",78.88304,709.0586
"1431",78.870834,709.072
"1432",78.907455,709.08545
"1433",79.063705,709.09863
"1434",79.412834,709.1118
"1435",79.98901,709.12524
"1436",80.75807,709.1387
"1437",81.62722,709.15186
"1438",82.459755,709.16504
"1439",83.11406,709.17847
"1440",83.50713,709.1919
"1441",83.62676,709.2051
"1442",83.51446,709.21826
"1443",83.228806,709.2317
"1444",82.83818,709.2451
"1445",82.406044,709.2583
"1446",81.98123,709.2715
"1447",81.602806,709.2849
"1448",81.287865,709.29834
"1449",81.0486,709.3115
"1450",80.87038,709.3247
"1451",80.73853,709.33813
"1452",80.62623,709.35156
"1453",80.52125,709.36475
"1454",80.41871,709.3779
"1455",80.325935,709.39136
"1456",80.25025,709.4048
"1457",80.201416,709.41797
"1458",80.18677,709.43115
"1459",80.19165,709.4446
"1460",80.21118,709.458
"1461",80.22583,709.4712
"1462",80.22339,709.4844
"1463",80.19409,709.4978
"1464",80.1355,709.5112
"1465",80.05005,709.5244
"1466",79.94507,709.5376
"1467",79.83032,709.551
"1468",79.71801,709.56445
"1469",79.61059,709.57764
"1470",79.50561,709.5908
"1471",79.40551,709.60425
"1472",79.31274,709.6177
"1473",79.22484,709.63086
"1474",79.14671,709.64404
"1475",79.07591,709.6575
"1476",79.012436,709.6709
"1477",78.96117,709.6841
"1478",78.91722,709.69727
"1479",78.887924,709.7107
"1480",78.873276,709.7241
"1481",78.873276,709.7373
"1482",78.87816,709.7505
"1483",78.890366,709.7639
"1484",78.90013,709.77734
"1485",78.91234,709.7905
"1486",78.92699,709.8037
"1487",78.94408,709.81714
"1488",78.95628,709.83057
"1489",78.96361,709.84375
"1490",78.96361,709.85693
"1491",78.95384,709.87036
"1492",78.93187,709.8838
"1493",78.907455,709.897
"1494",78.8806,709.91016
"1495",78.85863,709.9236
"1496",78.85863,709.937
"1497",78.93675,709.9502
"1498",79.1638,709.9634
"1499",79.605705,709.9768
"1500",80.26002,709.99023
"1501",81.07301,710.0034
"1502",81.9324,710.0166
"1503",82.69657,710.03
"1504",83.245895,710.04346
"1505",83.52422,710.05664
"1506",83.546196,710.0698
"1507",83.35821,710.08325
"1508",83.02373,710.0967
"1509",82.61112,710.10986
"1510",82.18387,710.12305
"1511",81.7908,710.1365
"1512",81.45144,710.1499
"1513",81.180435,710.1631
"1514",80.9778,710.1763
"1515",80.81911,710.1897
"1516",80.689705,710.2031
"1517",80.570076,710.2163
"1518",80.462654,710.2295
"1519",80.36744,710.2429
"1520",80.30152,710.25635
"1521",80.26734,710.26953
"1522",80.2649,710.2827
"1523",80.28199,710.29614
"1524",80.31129,710.3096
"1525",80.33082,710.32275
"1526",80.33326,710.33594
"1527",80.308846,710.34937
"1528",80.25269,710.3628
"1529",80.16968,710.376
"1530",80.062256,710.38916
"1531",79.937744,710.4026
"1532",79.80835,710.416
"1533",79.68139,710.4292
"1534",79.55932,710.4424
"1535",79.44457,710.4558
"1536",79.33959,710.46924
"1537",79.24681,710.4824
"1538",79.16136,710.4956
"1539",79.08812,710.50903
"1540",79.027084,710.52246
"1541",78.975815,710.53564
"1542",78.93675,710.5488
"1543",78.907455,710.56226
"1544",78.887924,710.5757
"1545",78.8806,710.58887
"1546",78.8806,710.60205
"1547",78.88548,710.6155
"1548",78.89281,710.6289
"1549",78.905014,710.6421
"1550",78.91234,710.6553
"1551",78.91478,710.6687
"1552",78.91478,710.6821
"1553",78.9099,710.6953
"1554",78.89525,710.7085
"1555",78.87816,710.7219
"1556",78.86107,710.73535
"1557",78.84154,710.74854
"1558",78.81712,710.7617
"1559",78.79271,710.77515
"1560",78.79759,710.7886
"1561",78.89525,710.80176
"1562",79.15892,710.81494
"1563",79.64233,710.82837
"1564",80.34547,710.8418
"1565",81.19997,710.855
"1566",82.074005,710.86816
"1567",82.83086,710.8816
"1568",83.353325,710.895
"1569",83.595024,710.9082
"1570",83.577934,710.9214
"1571",83.35821,710.9348
"1572",83.01152,710.94824
"1573",82.60624,710.9614
"1574",82.20096,710.9746
"1575",81.832306,710.98804
"1576",81.52712,711.00146
"1577",81.29519,711.01465
"1578",81.12184,711.02783
"1579",80.990005,711.04126
"1580",80.87282,711.0547
"1581",80.75563,711.0679
"1582",80.63111,711.08105
"1583",80.51148,711.0945
"1584",80.413826,711.1079
"1585",80.343025,711.1211
"1586",80.306404,711.1343
"1587",80.2942,711.1477
"1588",80.29664,711.16113
"1589",80.30152,711.1743
"1590",80.2942,711.1875
"1591",80.26978,711.2009
"1592",80.218506,711.21436
"1593",80.14282,711.22754
"1594",80.03784,711.2407
"1595",79.91089,711.25415
"1596",79.77417,711.2676
"1597",79.63744,711.28076
"1598",79.50317,711.29395
"1599",79.37621,711.3074
"1600",79.26391,711.3208
"1601",79.1638,711.334
"1602",79.07347,711.34717
"1603",79.00023,711.3606
"1604",78.93919,711.374
"1605",78.890366,711.3872
"1606",78.84642,711.4004
"1607",78.80736,711.4138
"1608",78.77562,711.42725
"1609",78.75609,711.4404
"1610",78.73655,711.4536
"1611",78.729225,711.46704
"1612",78.72678,711.48047
"1613",78.72678,711.49365
"1614",78.729225,711.50684
"1615",78.73167,711.52026
"1616",78.73167,711.5337
"1617",78.72678,711.5469
"1618",78.7219,711.56006
"1619",78.712135,711.5735
"1620",78.69749,711.5869
"1621",78.677956,711.6001
"1622",78.65354,711.6133
"1623",78.6218,711.6267
"1624",78.58762,711.64014
"1625",78.553444,711.6533
"1626",78.52903,711.6665
"1627",78.538795,711.67993
"1628",78.64622,711.69336
"1629",78.92943,711.70654
"1630",79.44213,711.7197
"1631",80.17212,711.73315
"1632",81.05592,711.7466
"1633",81.95926,711.75977
"1634",82.73319,711.77295
"1635",83.26299,711.7864
"1636",83.51202,711.7998
"1637",83.492485,711.813
"1638",83.265434,711.8262
"1639",82.90654,711.8396
"1640",82.48905,711.853
"1641",82.07156,711.8662
"1642",81.70046,711.8794
"1643",81.40749,711.8928
"1644",81.18776,711.90625
"1645",81.03395,711.91943
"1646",80.919205,711.9326
"1647",80.82155,711.94604
"1648",80.71168,711.9595
"1649",80.59205,711.97266
"1650",80.462654,711.98584
"1651",80.343025,711.99927
"1652",80.25025,712.0127
"1653",80.18921,712.0259
"1654",80.15503,712.03906
"1655",80.14282,712.0525
"1656",80.13794,712.0659
"1657",80.12573,712.0791
"1658",80.09155,712.0923
"1659",80.03296,712.1057
"1660",79.95239,712.11914
"1661",79.84985,712.1323
"1662",79.727776,712.1455
"1663",79.59838,712.15894
"1664",79.4641,712.17236
"1665",79.33227,712.18555
"1666",79.20531,712.1987
"1667",79.093,712.21216
"1668",78.992905,712.2256
"1669",78.907455,712.2388
"1670",78.83177,712.25195
"1671",78.768295,712.2654
"1672",78.71458,712.2788
"1673",78.67307,712.292
"1674",78.641335,712.3052
"1675",78.61692,712.3186
"1676",78.60227,712.33203
"1677",78.59251,712.3452
"1678",78.58518,712.3584
"1679",78.57786,712.3718
"1680",78.572975,712.38525
"1681",78.56809,712.39844
"1682",78.56077,712.4116
"1683",78.555885,712.42505
"1684",78.55833,712.4385
"1685",78.555885,712.45166
"1686",78.551,712.46484
"1687",78.54124,712.4783
"1688",78.52659,712.4917
"1689",78.504616,712.5049
"1690",78.4802,712.51807
"1691",78.45579,712.5315
"1692",78.43137,712.5449
"1693",78.40452,712.5581
"1694",78.382545,712.5713
"1695",78.37278,712.5847
"1696",78.42161,712.59814
"1697",78.59495,712.6113
"1698",78.96849,712.6245
"1699",79.569084,712.63794
"1700",80.36256,712.65137
"1701",81.24635,712.66455
"1702",82.08377,712.67773
"1703",82.74052,712.69116
"1704",83.13359,712.7046
"1705",83.25323,712.7178
"1706",83.140915,712.73096
"1707",82.865036,712.7444
"1708",82.49149,712.7578
"1709",82.08133,712.771
"1710",81.685814,712.7842
"1711",81.34402,712.7976
"1712",81.075455,712.81104
"1713",80.88014,712.8242
"1714",80.7483,712.8374
"1715",80.65064,712.8508
"1716",80.56275,712.86426
"1717",80.462654,712.87744
"1718",80.35767,712.8906
"1719",80.255135,712.90405
"1720",80.17456,712.9175
"1721",80.12329,712.93066
"1722",80.10864,712.94385
"1723",80.11597,712.9573
"1724",80.130615,712.9707
"1725",80.13794,712.9839
"1726",80.128174,712.9971
"1727",80.08423,713.0105
"1728",80.01343,713.0239
"1729",79.91577,713.0371
"1730",79.80347,713.0503
"1731",79.68383,713.0637
"1732",79.56176,713.07715
"1733",79.43969,713.09033
"1734",79.32006,713.1035
"1735",79.20775,713.11694
"1736",79.10521,713.1304
"1737",79.01732,713.14355
"1738",78.94652,713.15674
"1739",78.890366,713.17017
"1740",78.84398,713.1836
"1741",78.80492,713.1968
"1742",78.77318,713.20996
"1743",78.75365,713.2234
"1744",78.73899,713.2368
"1745",78.729225,713.25
"1746",78.729225,713.2632
"1747",78.73411,713.2766
"1748",78.74387,713.29004
"1749",78.75609,713.3032
"1750",78.768295,713.3164
"1751",78.77318,713.32983
"1752",78.77074,713.34326
"1753",78.75365,713.35645
"1754",78.729225,713.3696
"1755",78.69993,713.38306
"1756",78.66819,713.3965
"1757",78.63401,713.40967
"1758",78.607155,713.42285
"1759",78.58518,713.4363
"1760",78.58518,713.4497
"1761",78.658424,713.4629
"1762",78.87572,713.4761
"1763",79.290764,713.4895
"1764",79.903564,713.5029
"1765",80.66285,713.5161
"1766",81.463646,713.5293
"1767",82.178986,713.5427
"1768",82.686806,713.55615
"1769",82.94072,713.56934
"1770",82.95537,713.5825
"1771",82.76982,713.59595
"1772",82.44511,713.6094
"1773",82.056915,713.62256
"1774",81.65896,713.63574
"1775",81.290306,713.6492
"1776",80.98268,713.6626
"1777",80.75075,713.6758
"1778",80.584724,713.68896
"1779",80.46021,713.7024
"1780",80.36256,713.7158
"1781",80.26978,713.729
"1782",80.17456,713.7422
"1783",80.08911,713.7556
"1784",80.02319,713.76904
"1785",79.98657,713.7822
"1786",79.974365,713.7954
"1787",79.98169,713.80884
"1788",79.99878,713.82227
"1789",80.01587,713.83545
"1790",80.01587,713.84863
"1791",79.9939,713.86206
"1792",79.94263,713.8755
"1793",79.8645,713.8887
"1794",79.764404,713.90186
"1795",79.64965,713.9153
"1796",79.52758,713.9287
"1797",79.40795,713.9419
"1798",79.29809,713.9551
"1799",79.19554,713.9685
"1800",79.10277,713.98193
"1801",79.0222,713.9951
"1802",78.95384,714.0083
"1803",78.890366,714.0217
"1804",78.836655,714.03516
"1805",78.78783,714.04834
"1806",78.75365,714.0615
"1807",78.729225,714.07495
"1808",78.712135,714.0884
"1809",78.70237,714.10156
"1810",78.692604,714.11475
"1811",78.68528,714.1282
"1812",78.6804,714.1416
"1813",78.6804,714.1548
"1814",78.68284,714.16797
"1815",78.68772,714.1814
"1816",78.695045,714.1948
"1817",78.69993,714.208
"1818",78.69993,714.2212
"1819",78.695045,714.2346
"1820",78.68772,714.24805
"1821",78.677956,714.2612
"1822",78.66819,714.2744
"1823",78.658424,714.28784
"1824",78.643776,714.3013
"1825",78.624245,714.31445
"1826",78.60471,714.32764
"1827",78.590065,714.34106
"1828",78.61204,714.3545
"1829",78.73899,714.3677
"1830",79.04173,714.38086
"1831",79.5642,714.3943
"1832",80.289314,714.4077
"1833",81.13405,714.4209
"1834",81.971466,714.4341
"1835",82.669716,714.4475
"1836",83.12627,714.46094
"1837",83.31182,714.4741
"1838",83.25567,714.4873
"1839",83.01396,714.50073
"1840",82.65507,714.51416
"1841",82.24979,714.52734
"1842",81.85184,714.5405
"1843",81.50515,714.55396
"1844",81.22682,714.5674
"1845",81.02907,714.58057
"1846",80.89723,714.59375
"1847",80.80446,714.6072
"1848",80.723885,714.6206
"1849",80.638435,714.6338
"1850",80.54322,714.647
"1851",80.44312,714.6604
"1852",80.35279,714.6738
"1853",80.27711,714.687
"1854",80.22583,714.7002
"1855",80.19165,714.7136
"1856",80.17456,714.72705
"1857",80.16724,714.74023
"1858",80.15991,714.7534
"1859",80.14038,714.76685
"1860",80.09888,714.7803
"1861",80.03296,714.79346
"1862",79.94507,714.80664
"1863",79.84741,714.82007
"1864",79.742424,714.8335
"1865",79.639885,714.8467
"1866",79.54467,714.85986
"1867",79.45434,714.8733
"1868",79.36889,714.8867
"1869",79.290764,714.8999
"1870",79.219955,714.9131
"1871",79.15648,714.9265
"1872",79.10521,714.93994
"1873",79.061264,714.9531
"1874",79.029526,714.9663
"1875",79.009995,714.97974
"1876",78.99779,714.99316
"1877",78.995346,715.00635
"1878",78.99779,715.01953
"1879",79.00023,715.03296
"1880",78.995346,715.0464
"1881",78.98314,715.0596
"1882",78.96849,715.07275
"1883",78.958725,715.0862
"1884",78.94896,715.0996
"1885",78.93919,715.1128
"1886",78.92943,715.126
"1887",78.91234,715.1394
"1888",78.887924,715.15283
"1889",78.85863,715.166
"1890",78.82445,715.1792
"1891",78.79271,715.1926
"1892",78.75609,715.20605
"1893",78.71946,715.21924
"1894",78.6804,715.2324
"1895",78.660866,715.24585
"1896",78.69749,715.2593
"1897",78.86107,715.27246
"1898",79.217514,715.28564
"1899",79.78882,715.2991
"1900",80.5359,715.3125
"1901",81.36843,715.3257
"1902",82.15457,715.33887
"1903",82.76494,715.3523
"1904",83.12871,715.3657
"1905",83.23857,715.3789
"1906",83.12871,715.3921
"1907",82.862595,715.4055
"1908",82.50126,715.41895
"1909",82.10574,715.4321
"1910",81.72488,715.4453
"1911",81.392845,715.45874
"1912",81.126724,715.47217
"1913",80.92653,715.48535
"1914",80.780045,715.49854
"1915",80.65797,715.51196
"1916",80.54566,715.5254
"1917",80.44312,715.5386
"1918",80.35767,715.55176
"1919",80.29664,715.5652
"1920",80.26978,715.5786
"1921",80.27955,715.5918
"1922",80.31373,715.605
"1923",80.35767,715.6184
"1924",80.39918,715.63184
"1925",80.41871,715.645
"1926",80.413826,715.6582
"1927",80.36988,715.67163
"1928",80.28687,715.68506
"1929",80.16968,715.69824
"1930",80.0354,715.7114
"1931",79.89136,715.72485
"1932",79.74975,715.7383
"1933",79.61791,715.75146
"1934",79.500725,715.76465
"1935",79.395744,715.7781
"1936",79.30053,715.7915
"1937",79.219955,715.8047
"1938",79.151596,715.8179
"1939",79.093,715.8313
"1940",79.046616,715.8447
"1941",79.012436,715.8579
"1942",78.98802,715.8711
"1943",78.96849,715.8845
"1944",78.96361,715.89795
"1945",78.96605,715.91113
"1946",78.97337,715.9243
"1947",78.98314,715.93774
"1948",78.992905,715.9512
"1949",78.99779,715.96436
"1950",78.992905,715.97754
"1951",78.975815,715.99097
"1952",78.94896,716.0044
"1953",78.91478,716.0176
"1954",78.87816,716.03076
"1955",78.84154,716.0442
"1956",78.8098,716.0576
"1957",78.79759,716.0708
"1958",78.84398,716.084
"1959",79.012436,716.0974
"1960",79.36645,716.11084
"1961",79.92554,716.124
"1962",80.65797,716.1372
"1963",81.47097,716.15063
"1964",82.24246,716.16406
"1965",82.845505,716.17725
"1966",83.19951,716.1904
"1967",83.29717,716.20386
"1968",83.177536,716.2173
"1969",82.896774,716.23047
"1970",82.530556,716.24365
"1971",82.142365,716.2571
"1972",81.778595,716.2705
"1973",81.46609,716.2837
"1974",81.22438,716.2969
"1975",81.04372,716.3103
"1976",80.90944,716.3237
"1977",80.79469,716.3369
"1978",80.68726,716.3501
"1979",80.57984,716.3635
"1980",80.479744,716.37695
"1981",80.396736,716.39014
"1982",80.343025,716.4033
"1983",80.32105,716.41675
"1984",80.32105,716.4302
"1985",80.3357,716.44336
"1986",80.35523,716.45654
"1987",80.365,716.47
"1988",80.35767,716.4834
"1989",80.32838,716.4966
"1990",80.274666,716.50977
"1991",80.19165,716.5232
"1992",80.08667,716.5366
"1993",79.96216,716.5498
"1994",79.823,716.563
"1995",79.68383,716.5764
"1996",79.54711,716.58984
"1997",79.41772,716.603
"1998",79.30053,716.6162
"1999",79.1931,716.62964
"2000",79.093,716.64307
"2001",79.00511,716.65625
"2002",78.92699,716.66943
"2003",78.86351,716.68286
"2004",78.81468,716.6963
"2005",78.77562,716.7095
"2006",78.746315,716.72266
"2007",78.72434,716.7361
"2008",78.709694,716.7495
"2009",78.69749,716.7627
"2010",78.692604,716.7759
"2011",78.692604,716.7893
"2012",78.69749,716.80273
"2013",78.709694,716.8159
"2014",78.72434,716.8291
"2015",78.73899,716.8425
"2016",78.74876,716.85596
"2017",78.751205,716.86914
"2018",78.746315,716.8823
"2019",78.73167,716.89575
"2020",78.70481,716.9092
"2021",78.67307,716.92236
"2022",78.63889,716.93555
"2023",78.60227,716.949
"2024",78.58274,716.9624
"2025",78.624245,716.9756
"2026",78.80492,716.9888
"2027",79.19066,717.0022
"2028",79.81079,717.0156
"2029",80.61646,717.0288
"2030",81.51003,717.042
"2031",82.35233,717.0554
"2032",83.004196,717.06885
"2033",83.389946,717.08203
"2034",83.50713,717.0952
"2035",83.39483,717.10864
"2036",83.1165,717.1221
"2037",82.74296,717.13525
"2038",82.34257,717.14844
"2039",81.971466,717.16187
"2040",81.65896,717.1753
"2041",81.42458,717.1885
"2042",81.26345,717.20166
"2043",81.15358,717.2151
"2044",81.06325,717.2285
"2045",80.972916,717.2417
"2046",80.87038,717.2549
"2047",80.75563,717.2683
"2048",80.64088,717.28174
"2049",80.54322,717.2949
"2050",80.46998,717.3081
"2051",80.428474,717.32153
"2052",80.4065,717.33496
"2053",80.396736,717.34814
"2054",80.38941,717.3613
"2055",80.36988,717.37476
"2056",80.325935,717.3882
"2057",80.255135,717.40137
"2058",80.15747,717.41455
"2059",80.03296,717.428
"2060",79.8938,717.4414
"2061",79.7522,717.4546
"2062",79.61059,717.4678
"2063",79.47631,717.4812
"2064",79.35424,717.4946
"2065",79.23949,717.5078
"2066",79.13695,717.521
"2067",79.046616,717.5344
"2068",78.96849,717.54785
"2069",78.90257,717.56104
"2070",78.84642,717.5742
"2071",78.80003,717.58765
"2072",78.76097,717.6011
"2073",78.73411,717.61426
"2074",78.71458,717.62744
"2075",78.709694,717.64087
"2076",78.709694,717.6543
"2077",78.71458,717.6675
"2078",78.71458,717.68066
"2079",78.712135,717.6941
"2080",78.69749,717.7075
"2081",78.675514,717.7207
"2082",78.64622,717.7339
"2083",78.61448,717.7473
"2084",78.58274,717.76074
"2085",78.553444,717.7739
"2086",78.52903,717.7871
"2087",78.50706,717.80054
"2088",78.485085,717.81396
"2089",78.46555,717.82715
"2090",78.44114,717.84033
"2091",78.42161,717.85376
"2092",78.40696,717.8672
"2093",78.40452,717.8804
"2094",78.450905,717.89355
"2095",78.61692,717.907
"2096",78.97093,717.9204
"2097",79.551994,717.9336
"2098",80.33814,717.9468
"2099",81.24635,717.9602
"2100",82.13992,717.97363
"2101",83.38018,718
"2102",83.60723,718.0134
"2103",83.58282,718.02686
"2104",83.36553,718.04004
"2105",83.02617,718.0532
"2106",82.62821,718.06665
"2107",82.230255,718.0801
"2108",81.87137,718.09326
"2109",81.57839,718.10645
"2110",81.35378,718.1199
"2111",81.18288,718.1333
"2112",81.041275,718.1465
"2113",80.91676,718.15967
"2114",80.79225,718.1731
"2115",80.66773,718.1865
"2116",80.55787,718.1997
"2117",80.47486,718.2129
"2118",80.43336,718.2263
"2119",80.42603,718.23975
"2120",80.43824,718.2529
"2121",80.46021,718.2661
"2122",80.46998,718.27954
"2123",80.45533,718.29297
"2124",80.411385,718.30615
"2125",80.34058,718.31934
"2126",80.235596,718.33276
"2127",80.10864,718.3462
"2128",79.9646,718.3594
"2129",79.81323,718.37256
"2130",79.66674,718.386
"2131",79.53002,718.3994
"2132",79.40795,718.4126
"2133",79.30541,718.4258
"2134",79.21507,718.4392
"2135",79.13451,718.45264
"2136",79.061264,718.4658
"2137",78.995346,718.479
"2138",78.93919,718.49243
"2139",78.887924,718.50586
"2140",78.84642,718.51904
"2141",78.819565,718.5322
"2142",78.80736,718.54565
"2143",78.8098,718.5591
"2144",78.82201,718.57227
"2145",78.836655,718.58545
"2146",78.84886,718.5989
"2147",78.84886,718.6123
"2148",78.836655,718.6255
"2149",78.81224,718.6387
"2150",78.77806,718.6521
"2151",78.74143,718.6655
"2152",78.69993,718.6787
"2153",78.658424,718.6919
"2154",78.61204,718.7053
"2155",78.57542,718.71875
"2156",78.56077,718.73193
"2157",78.61692,718.7451
"2158",78.819565,718.75854
"2159",79.22972,718.772
"2160",79.8645,718.78516
"2161",80.6775,718.79834
"2162",81.56863,718.81177
"2163",82.40116,718.8252
"2164",83.05058,718.8384
"2165",83.4461,718.85156
"2166",83.577934,718.865
"2167",83.47784,718.8784
"2168",83.211716,718.8916
"2169",82.845505,718.9048
"2170",82.442665,718.9182
"2171",82.05936,718.93164
"2172",81.7322,718.9448
"2173",81.47097,718.958
"2174",81.27566,718.97144
"2175",81.12184,718.98486
"2176",80.99245,718.99805
"2177",80.867935,719.0112
"2178",80.743416,719.02466
"2179",80.62623,719.0381
"2180",80.52613,719.0513
"2181",80.45289,719.06445
"2182",80.4065,719.0779
"2183",80.38697,719.0913
"2184",80.38453,719.1045
"2185",80.38209,719.1177
"2186",80.36988,719.1311
"2187",80.33326,719.14453
"2188",80.26734,719.1577
"2189",80.164795,719.1709
"2190",80.03052,719.1843
"2191",79.88159,719.19775
"2192",79.727776,719.21094
"2193",79.571526,719.2241
"2194",79.42748,719.23755
"2195",79.290764,719.251
"2196",79.1638,719.26416
"2197",79.04906,719.27734
"2198",78.94652,719.2908
"2199",78.85863,719.3042
"2200",78.79027,719.3174
"2201",78.73411,719.33057
"2202",78.695045,719.344
"2203",78.66331,719.3574
"2204",78.641335,719.3706
"2205",78.624245,719.3838
"2206",78.6096,719.3972
"2207",78.59983,719.41064
"2208",78.59251,719.4238
"2209",78.58518,719.437
"2210",78.5803,719.45044
"2211",78.57542,719.46387
"2212",78.572975,719.47705
"2213",78.56809,719.49023
"2214",78.56321,719.50366
"2215",78.56077,719.5171
"2216",78.55833,719.5303
"2217",78.553444,719.54346
"2218",78.54856,719.5569
"2219",78.536354,719.5703
"2220",78.51438,719.5835
"2221",78.48264,719.5967
"2222",78.450905,719.6101
"2223",78.42161,719.62354
"2224",78.42405,719.6367
"2225",78.521706,719.6499
"2226",78.79759,719.6633
"2227",79.30785,719.67676
"2228",80.05737,719.68994
"2229",80.98512,719.7031
"2230",81.96658,719.71655
"2231",82.847946,719.73
"2232",83.50225,719.74316
"2233",83.87579,719.75635
"2234",83.96857,719.7698
"2235",83.826965,719.7832
"2236",83.52178,719.7964
"2237",83.12627,719.8096
"2238",82.703896,719.823
"2239",82.30839,719.8364
"2240",81.97879,719.8496
"2241",81.722435,719.8628
"2242",81.53933,719.8762
"2243",81.40749,719.88965
"2244",81.30007,719.90283
"2245",81.1902,719.916
"2246",81.06813,719.92944
"2247",80.93385,719.9429
"2248",80.80446,719.95605
"2249",80.69459,719.96924
"2250",80.61402,719.98267
"2251",80.567635,719.9961
"2252",80.54322,720.0093
"2253",80.53101,720.02246
"2254",80.516365,720.0359
"2255",80.48463,720.0493
"2256",80.428474,720.0625
"2257",80.34791,720.0757
"2258",80.235596,720.0891
"2259",80.09888,720.10254
"2260",79.94751,720.1157
"2261",79.79126,720.1289
"2262",79.63256,720.14233
"2263",79.47875,720.15576
"2264",79.32983,720.16895
"2265",79.19066,720.1821
"2266",79.06615,720.19556
"2267",78.9514,720.209
"2268",78.84886,720.22217
"2269",78.76097,720.23535
"2270",78.6804,720.2488
"2271",78.61448,720.2622
"2272",78.56077,720.2754
"2273",78.52415,720.2886
"2274",78.49485,720.302
"2275",78.467995,720.3154
"2276",78.43626,720.3286
"2277",78.40696,720.3418
"2278",78.380104,720.3552
"2279",78.35813,720.36865
"2280",78.34348,720.38184
"2281",78.33372,720.395
"2282",78.32151,720.40845
"2283",78.3093,720.4219
"2284",78.294655,720.43506
"2285",78.28489,720.44824
"2286",78.277565,720.4617
"2287",78.27512,720.4751
"2288",78.27268,720.4883
"2289",78.2678,720.50146
"2290",78.26292,720.5149
"2291",78.260475,720.5283
"2292",78.25315,720.5415
"2293",78.24338,720.5547
"2294",78.23605,720.5681
"2295",78.22629,720.58154
"2296",78.221405,720.5947
"2297",78.22873,720.6079
"2298",78.28733,720.62134
"2299",78.470436,720.63477
"2300",78.853745,720.64795
"2301",79.48119,720.66113
"2302",80.3357,720.67456
"2303",81.33181,720.688
"2304",82.33036,720.7012
"2305",83.18242,720.71436
"2306",83.78302,720.7278
"2307",84.09064,720.7412
"2308",84.12482,720.7544
"2309",83.93927,720.7676
"2310",83.60235,720.781
"2311",83.1873,720.79443
"2312",82.757614,720.8076
"2313",82.36698,720.8208
"2314",82.037384,720.8342
"2315",81.778595,720.84766
"2316",81.58083,720.86084
"2317",81.427025,720.874
"2318",81.29275,720.88745
"2319",81.17067,720.9009
"2320",81.05348,720.91406
"2321",80.94118,720.92725
"2322",80.850845,720.9407
"2323",80.78737,720.9541
"2324",80.75563,720.9673
"2325",80.74586,720.98047
"2326",80.7483,720.9939
"2327",80.75563,721.0073
"2328",80.7483,721.0205
"2329",80.71412,721.0337
"2330",80.6482,721.0471
"2331",80.5481,721.06055
"2332",80.413826,721.0737
"2333",80.26002,721.0869
"2334",80.09155,721.10034
"2335",79.92798,721.1138
"2336",79.76929,721.12695
"2337",79.622795,721.14014
"2338",79.483635,721.15356
"2339",79.35668,721.167
"2340",79.24193,721.1802
"2341",79.13451,721.19336
"2342",79.03685,721.2068
"2343",78.95384,721.2202
"2344",78.8806,721.2334
"2345",78.819565,721.2466
"2346",78.77806,721.26
"2347",78.746315,721.27344
"2348",78.72678,721.2866
"2349",78.71458,721.2998
"2350",78.709694,721.31323
"2351",78.70237,721.32666
"2352",78.69993,721.33984
"2353",78.69993,721.353
"2354",78.69749,721.36646
"2355",78.69993,721.3799
"2356",78.69993,721.39307
"2357",78.69016,721.40625
"2358",78.675514,721.4197
"2359",78.64866,721.4331
"2360",78.6096,721.4463
"2361",78.56565,721.4595
"2362",78.519264,721.4729
"2363",78.47532,721.4863
"2364",78.450905,721.4995
"2365",78.487526,721.5127
"2366",78.65354,721.5261
"2367",79.01976,721.53955
"2368",79.62524,721.55273
"2369",80.445564,721.5659
"2370",81.38796,721.57935
"2371",82.32548,721.5928
"2372",83.1165,721.60596
"2373",83.66338,721.61914
"2374",83.93439,721.63257
"2375",83.946594,721.646
"2376",83.756165,721.6592
"2377",83.42657,721.67236
"2378",83.02617,721.6858
"2379",82.616005,721.6992
"2380",82.23758,721.7124
"2381",81.91043,721.7256
"2382",81.64675,721.739
"2383",81.43679,721.75244
"2384",81.25857,721.7656
"2385",81.09743,721.7788
"2386",80.94606,721.79224
"2387",80.81178,721.80566
"2388",80.70191,721.81885
"2389",80.63355,721.83203
"2390",80.604256,721.84546
"2391",80.60914,721.8589
"2392",80.63111,721.8721
"2393",80.65308,721.88525
"2394",80.655525,721.8987
"2395",80.63355,721.9121
"2396",80.57252,721.9253
"2397",80.47486,721.9385
"2398",80.343025,721.9519
"2399",80.184326,721.96533
"2400",80.008545,721.9785
"2401",79.82544,721.9917
"2402",79.64965,722.0051
"2403",79.48119,722.01855
"2404",79.32494,722.03174
"2405",79.18089,722.0449
"2406",79.05394,722.05835
"2407",78.93919,722.0718
"2408",78.839096,722.08496
"2409",78.75365,722.09814
"2410",78.68772,722.1116
"2411",78.63645,722.125
"2412",78.59495,722.1382
"2413",78.56077,722.15137
"2414",78.53147,722.1648
"2415",78.50706,722.1782
"2416",78.485085,722.1914
"2417",78.46555,722.2046
"2418",78.450905,722.218
"2419",78.43626,722.23145
"2420",78.42405,722.2446
"2421",78.41428,722.2578
"2422",78.40452,722.27124
"2423",78.397194,722.28467
"2424",78.38499,722.29785
"2425",78.365456,722.31104
"2426",78.3386,722.32446
"2427",78.30686,722.3379
"2428",78.27512,722.3511
"2429",78.24094,722.36426
"2430",78.21164,722.3777
"2431",78.20676,722.3911
"2432",78.277565,722.4043
"2433",78.504616,722.4175
"2434",78.96605,722.4309
"2435",79.68627,722.44434
"2436",80.61402,722.4575
"2437",81.64187,722.4707
"2438",82.61845,722.48413
"2439",83.39971,722.49756
"2440",83.90021,722.51074
"2441",84.102844,722.5239
"2442",84.04425,722.53735
"2443",83.792786,722.5508
"2444",83.41924,722.56396
"2445",82.99931,722.57715
"2446",82.58915,722.5906
"2447",82.230255,722.604
"2448",81.94461,722.6172
"2449",81.7322,722.6304
"2450",81.57595,722.6438
"2451",81.449,722.6572
"2452",81.322044,722.6704
"2453",81.18288,722.6836
"2454",81.03151,722.697
"2455",80.88258,722.71045
"2456",80.75319,722.72363
"2457",80.65308,722.7368
"2458",80.587166,722.75024
"2459",80.54566,722.7637
"2460",80.52125,722.77686
"2461",80.50416,722.79004
"2462",80.47242,722.80347
"2463",80.41627,722.8169
"2464",80.32838,722.8301
"2465",80.2063,722.84326
"2466",80.059814,722.8567
"2467",79.89868,722.8701
"2468",79.725334,722.8833
"2469",79.54955,722.8965
"2470",79.37621,722.9099
"2471",79.20775,722.92334
"2472",79.046616,722.9365
"2473",78.905014,722.9497
"2474",78.7805,722.96313
"2475",78.67063,722.97656
"2476",78.57053,722.98975
"2477",78.48264,723.0029
"2478",78.40696,723.01636
"2479",78.35081,723.0298
"2480",78.30686,723.04297
"2481",78.27268,723.05615
"2482",78.24094,723.0696
"2483",78.21164,723.083
"2484",78.187225,723.0962
"2485",78.167694,723.1094
"2486",78.153046,723.1228
"2487",78.14328,723.1362
"2488",78.133514,723.1494
"2489",78.118866,723.1626
"2490",78.099335,723.176
"2491",78.07736,723.18945
"2492",78.05539,723.20264
"2493",78.03342,723.2158
"2494",78.011444,723.22925
"2495",77.98947,723.2427
"2496",77.960175,723.25586
"2497",77.925995,723.26904
"2498",77.8967,723.2825
"2499",77.88449,723.2959
"2500",77.93576,723.3091
"2501",78.12863,723.32227
"2502",78.54124,723.3357
"2503",79.20775,723.3491
"2504",80.10132,723.3623
"2505",81.126724,723.3755
"2506",82.13748,723.3889
"2507",82.99199,723.40234
"2508",83.5877,723.4155
"2509",83.888,723.4287
"2510",83.9173,723.44214
"2511",83.73174,723.45557
"2512",83.404594,723.46875
"2513",83.01152,723.48193
"2514",82.60868,723.49536
"2515",82.247345,723.5088
"2516",81.951935,723.522
"2517",81.72732,723.53516
"2518",81.55642,723.5486
"2519",81.41726,723.562
"2520",81.290306,723.5752
"2521",81.15602,723.5884
"2522",81.01442,723.6018
"2523",80.87526,723.61523
"2524",80.75807,723.6284
"2525",80.67017,723.6416
"2526",80.618904,723.655
"2527",80.59693,723.66846
"2528",80.59205,723.68164
"2529",80.587166,723.6948
"2530",80.567635,723.70825
"2531",80.52613,723.7217
"2532",80.45045,723.73486
"2533",80.343025,723.74805
"2534",80.21362,723.7615
"2535",80.062256,723.7749
"2536",79.89868,723.7881
"2537",79.7351,723.8013
"2538",79.57397,723.8147
"2539",79.42504,723.8281
"2540",79.28588,723.8413
"2541",79.1638,723.8545
"2542",79.05882,723.8679
"2543",78.96605,723.88135
"2544",78.88304,723.89453
"2545",78.81224,723.9077
"2546",78.75853,723.92114
"2547",78.712135,723.9346
"2548",78.68528,723.94775
"2549",78.67307,723.96094
"2550",78.67063,723.97437
"2551",78.67307,723.9878
"2552",78.677956,724.001
"2553",78.675514,724.01416
"2554",78.660866,724.0276
"2555",78.63645,724.041
"2556",78.60227,724.0542
"2557",78.56321,724.0674
"2558",78.52415,724.0808
"2559",78.47776,724.09424
"2560",78.43626,724.1074
"2561",78.39475,724.1206
"2562",78.365456,724.13403
"2563",78.39231,724.14746
"2564",78.551,724.16064
"2565",78.907455,724.1738
"2566",79.50317,724.18726
"2567",80.31373,724.2007
"2568",81.24391,724.21387
"2569",82.15701,724.22705
"2570",82.91142,724.2405
"2571",83.4168,724.2539
"2572",83.64385,724.2671
"2573",83.62188,724.2803
"2574",83.40215,724.2937
"2575",83.055466,724.3071
"2576",82.64774,724.3203
"2577",82.23514,724.3335
"2578",81.8616,724.3469
"2579",81.55154,724.36035
"2580",81.307396,724.37354
"2581",81.112076,724.3867
"2582",80.938736,724.40015
"2583",80.77516,724.4136
"2584",80.618904,724.42676
"2585",80.48463,724.43994
"2586",80.38209,724.45337
"2587",80.323494,724.4668
"2588",80.31129,724.48
"2589",80.33082,724.49316
"2590",80.365,724.5066
"2591",80.38941,724.52
"2592",80.394295,724.5332
"2593",80.36256,724.5464
"2594",80.289314,724.5598
"2595",80.17212,724.57324
"2596",80.028076,724.5864
"2597",79.86206,724.5996
"2598",79.68871,724.61304
"2599",79.51537,724.62646
"2600",79.34936,724.63965
"2601",79.1931,724.65283
"2602",79.044174,724.66626
"2603",78.91234,724.6797
"2604",78.80003,724.6929
"2605",78.70237,724.70605
"2606",78.61936,724.7195
"2607",78.54856,724.7329
"2608",78.487526,724.7461
"2609",78.44358,724.7593
"2610",78.416725,724.7727
"2611",78.40452,724.78613
"2612",78.40208,724.7993
"2613",78.40452,724.8125
"2614",78.399635,724.8259
"2615",78.39231,724.83936
"2616",78.380104,724.85254
"2617",78.37034,724.8657
"2618",78.35813,724.87915
"2619",78.34104,724.8926
"2620",78.311745,724.90576
"2621",78.27512,724.91895
"2622",78.23361,724.9324
"2623",78.19455,724.9458
"2624",78.167694,724.959
"2625",78.18234,724.97217
"2626",78.29221,724.9856
"2627",78.57542,724.999
"2628",79.08568,725.0122
"2629",79.82788,725.0254
"2630",80.73121,725.0388
"2631",81.67605,725.05225
"2632",82.51591,725.0654
"2633",83.13603,725.0786
"2634",83.475395,725.09204
"2635",83.53643,725.10547
"2636",83.3753,725.11865
"2637",83.05791,725.13184
"2638",82.66239,725.14526
"2639",82.25956,725.1587
"2640",81.90555,725.1719
"2641",81.62478,725.18506
"2642",81.42947,725.1985
"2643",81.290306,725.2119
"2644",81.180435,725.2251
"2645",81.06813,725.2383
"2646",80.938736,725.2517
"2647",80.78737,725.26514
"2648",80.62379,725.2783
"2649",80.46998,725.2915
"2650",80.343025,725.30493
"2651",80.25269,725.31836
"2652",80.19653,725.33154
"2653",80.17212,725.3447
"2654",80.15747,725.35815
"2655",80.1355,725.3716
"2656",80.09155,725.38477
"2657",80.02319,725.39795
"2658",79.92798,725.4114
"2659",79.81079,725.4248
"2660",79.67895,725.438
"2661",79.534904,725.4512
"2662",79.38354,725.4646
"2663",79.22972,725.478
"2664",79.08568,725.4912
"2665",78.95628,725.5044
"2666",78.84886,725.5178
"2667",78.751205,725.53125
"2668",78.66575,725.54443
"2669",78.59251,725.5576
"2670",78.52903,725.57104
"2671",78.47532,725.5845
"2672",78.43626,725.59766
"2673",78.40696,725.61084
"2674",78.382545,725.62427
"2675",78.3679,725.6377
"2676",78.35813,725.6509
"2677",78.35325,725.66406
"2678",78.35081,725.6775
"2679",78.348366,725.6909
"2680",78.34348,725.7041
"2681",78.3386,725.7173
"2682",78.33372,725.7307
"2683",78.32151,725.74414
"2684",78.30686,725.7573
"2685",78.28977,725.7705
"2686",78.26536,725.78394
"2687",78.23117,725.79736
"2688",78.19455,725.81055
"2689",78.15549,725.8237
"2690",78.118866,725.83716
"2691",78.10666,725.8506
"2692",78.16525,725.8638
"2693",78.3679,725.87695
"2694",78.78783,725.8904
"2695",79.449455,725.9038
"2696",80.31129,725.917
"2697",81.26833,725.9302
"2698",82.178986,725.9436
"2699",82.9041,725.95703
"2700",83.35577,725.9702
"2701",83.52422,725.9834
"2702",83.438774,725.9968
"2703",83.17998,726.01025
"2704",82.81621,726.02344
"2705",82.41825,726.0366
"2706",82.04959,726.05005
"2707",81.74441,726.0635
"2708",81.52224,726.07666
"2709",81.373314,726.08984
"2710",81.26833,726.1033
"2711",81.17555,726.1167
"2712",81.06813,726.1299
"2713",80.92897,726.14307
"2714",80.76784,726.1565
"2715",80.601814,726.1699
"2716",80.45289,726.1831
"2717",80.3357,726.1963
"2718",80.257576,726.2097
"2719",80.2063,726.22314
"2720",80.17944,726.2363
"2721",80.15747,726.2495
"2722",80.128174,726.26294
"2723",80.08423,726.27637
"2724",80.01587,726.28955
"2725",79.91821,726.30273
"2726",79.79614,726.31616
"2727",79.65942,726.3296
"2728",79.50805,726.3428
"2729",79.364006,726.35596
"2730",79.22972,726.3694
"2731",79.11009,726.3828
"2732",78.995346,726.396
"2733",78.890366,726.4092
"2734",78.79027,726.4226
"2735",78.70237,726.43604
"2736",78.62913,726.4492
"2737",78.57786,726.4624
"2738",78.54124,726.4758
"2739",78.51682,726.48926
"2740",78.49729,726.50244
"2741",78.47776,726.5156
"2742",78.46067,726.52905
"2743",78.450905,726.5425
"2744",78.44358,726.55566
"2745",78.43626,726.56885
"2746",78.42649,726.5823
"2747",78.41428,726.5957
"2748",78.399635,726.6089
"2749",78.38987,726.6221
"2750",78.380104,726.6355
"2751",78.37522,726.6489
"2752",78.3679,726.6621
"2753",78.363014,726.6753
"2754",78.35569,726.6887
"2755",78.34348,726.70215
"2756",78.331276,726.71533
"2757",78.31907,726.7285
"2758",78.30198,726.74194
"2759",78.28001,726.7554
"2760",78.26292,726.76855
"2761",78.25315,726.78174
"2762",78.28245,726.79517
"2763",78.416725,726.8086
"2764",78.73167,726.8218
"2765",79.27856,726.83496
"2766",80.045166,726.8484
"2767",80.95827,726.8618
"2768",81.88846,726.875
"2769",82.684364,726.8882
"2770",83.23369,726.9016
"2771",83.492485,726.91504
"2772",83.48272,726.9282
"2773",83.265434,726.9414
"2774",82.91142,726.95483
"2775",82.496376,726.96826
"2776",82.08133,726.98145
"2777",81.71511,726.9946
"2778",81.427025,727.00806
"2779",81.22194,727.0215
"2780",81.075455,727.03467
"2781",80.96559,727.04785
"2782",80.86061,727.0613
"2783",80.74586,727.0747
"2784",80.618904,727.0879
"2785",80.49439,727.1011
"2786",80.38941,727.1145
"2787",80.31617,727.1279
"2788",80.27711,727.1411
"2789",80.26978,727.1543
"2790",80.272224,727.1677
"2791",80.274666,727.18115
"2792",80.26002,727.19434
"2793",80.22583,727.2075
"2794",80.16235,727.22095
"2795",80.076904,727.2344
"2796",79.96704,727.24756
"2797",79.835205,727.26074
"2798",79.693596,727.2742
"2799",79.54223,727.2876
"2800",79.395744,727.3008
"2801",79.26391,727.31396
"2802",79.151596,727.3274
"2803",79.05882,727.3408
"2804",78.98314,727.354
"2805",78.91966,727.3672
"2806",78.86839,727.3806
"2807",78.82689,727.39404
"2808",78.79515,727.4072
"2809",78.77074,727.4204
"2810",78.75365,727.43384
"2811",78.73899,727.44727
"2812",78.729225,727.46045
"2813",78.7219,727.47363
"2814",78.7219,727.48706
"2815",78.72434,727.5005
"2816",78.729225,727.5137
"2817",78.73655,727.52686
"2818",78.746315,727.5403
"2819",78.74876,727.5537
"2820",78.746315,727.5669
"2821",78.73899,727.5801
"2822",78.72434,727.5935
"2823",78.70237,727.60693
"2824",78.677956,727.6201
"2825",78.6511,727.6333
"2826",78.6218,727.6467
"2827",78.590065,727.66016
"2828",78.56077,727.67334
"2829",78.54368,727.6865
"2830",78.57786,727.69995
"2831",78.71946,727.7134
"2832",79.044174,727.72656
"2833",79.59594,727.73975
"2834",80.34791,727.7532
"2835",81.21706,727.7666
"2836",82.07889,727.7798
"2837",82.791794,727.79297
"2838",83.25323,727.8064
"2839",83.43633,727.8198
"2840",83.36553,727.833
"2841",83.106735,727.8462
"2842",82.72587,727.8596
"2843",82.29862,727.87305
"2844",81.88602,727.8862
"2845",81.5198,727.8994
"2846",81.22682,727.91284
"2847",81.007095,727.9263
"2848",80.84596,727.93945
"2849",80.719,727.95264
"2850",80.601814,727.96606
"2851",80.49195,727.9795
"2852",80.38453,727.9927
"2853",80.291756,728.00586
"2854",80.23071,728.0193
"2855",80.198975,728.0327
"2856",80.19653,728.0459
"2857",80.21362,728.0591
"2858",80.23804,728.0725
"2859",80.255135,728.08594
"2860",80.25269,728.0991
"2861",80.216064,728.1123
"2862",80.147705,728.12573
"2863",80.042725,728.13916
"2864",79.91089,728.15234
"2865",79.77173,728.1655
"2866",79.63012,728.17896
"2867",79.49584,728.1924
"2868",79.37133,728.20557
"2869",79.26391,728.21875
"2870",79.168686,728.2322
"2871",79.08568,728.2456
"2872",79.01488,728.2588
"2873",78.96117,728.272
"2874",78.91234,728.2854
"2875",78.87572,728.2988
"2876",78.84886,728.312
"2877",78.83177,728.3252
"2878",78.819565,728.3386
"2879",78.81712,728.35205
"2880",78.819565,728.36523
"2881",78.82933,728.3784
"2882",78.836655,728.39185
"2883",78.84398,728.4053
"2884",78.84642,728.41846
"2885",78.84398,728.43164
"2886",78.83421,728.44507
"2887",78.82201,728.4585
"2888",78.80492,728.4717
"2889",78.785385,728.48486
"2890",78.76341,728.4983
"2891",78.74143,728.5117
"2892",78.71702,728.5249
"2893",78.692604,728.5381
"2894",78.66575,728.5515
"2895",78.641335,728.56494
"2896",78.64622,728.5781
"2897",78.73899,728.5913
"2898",78.99779,728.60474
"2899",79.47875,728.61816
"2900",80.17944,728.63135
"2901",81.03151,728.64453
"2902",81.91287,728.65796
"2903",82.684364,728.6714
"2904",83.22392,728.6846
"2905",83.47784,728.69775
"2906",83.46807,728.7112
"2907",83.243454,728.7246
"2908",82.882126,728.7378
"2909",82.45731,728.751
"2910",82.039825,728.7644
"2911",81.668724,728.77783
"2912",81.375755,728.791
"2913",81.163345,728.8042
"2914",81.02174,728.8176
"2915",80.919205,728.83105
"2916",80.82643,728.84424
"2917",80.726326,728.8574
"2918",80.61158,728.87085
"2919",80.48463,728.8843
"2920",80.36256,728.89746
"2921",80.257576,728.91064
"2922",80.181885,728.9241
"2923",80.14038,728.9375
"2924",80.12329,728.9507
"2925",80.12329,728.96387
"2926",80.12573,728.9773
"2927",80.113525,728.9907
"2928",80.07202,729.0039
"2929",80.00122,729.0171
"2930",79.89868,729.0305
"2931",79.77905,729.04395
"2932",79.64965,729.0571
"2933",79.520256,729.0703
"2934",79.395744,729.08374
"2935",79.28344,729.09717
"2936",79.18089,729.11035
"2937",79.08812,729.12354
"2938",79.00511,729.13696
"2939",78.93675,729.1504
"2940",78.87572,729.1636
"2941",78.82201,729.17676
"2942",78.785385,729.1902
"2943",78.76097,729.2036
"2944",78.74387,729.2168
"2945",78.73167,729.23
"2946",78.72434,729.2434
"2947",78.7219,729.25684
"2948",78.7219,729.27
"2949",78.71702,729.2832
"2950",78.712135,729.29663
"2951",78.712135,729.31006
"2952",78.70481,729.32324
"2953",78.69993,729.3364
"2954",78.69993,729.34985
"2955",78.70237,729.3633
"2956",78.70481,729.37646
"2957",78.70481,729.38965
"2958",78.70725,729.4031
"2959",78.70237,729.4165
"2960",78.68772,729.4297
"2961",78.66819,729.4429
"2962",78.643776,729.4563
"2963",78.61204,729.4697
"2964",78.5803,729.4829
"2965",78.55833,729.4961
"2966",78.58762,729.5095
"2967",78.729225,729.52295
"2968",79.05882,729.53613
"2969",79.62035,729.5493
"2970",80.39185,729.56274
"2971",81.287865,729.5762
"2972",82.16922,729.58936
"2973",82.896774,729.60254
"2974",83.36309,729.61597
"2975",83.543755,729.6294
"2976",83.46319,729.6426
"2977",83.192184,729.65576
"2978",82.80156,729.6692
"2979",82.36454,729.6826
"2980",81.93729,729.6958
"2981",81.55886,729.709
"2982",81.253685,729.7224
"2983",81.02907,729.73584
"2984",80.87526,729.749
"2985",80.76784,729.7622
"2986",80.67994,729.77563
"2987",80.58961,729.78906
"2988",80.48707,729.80225
"2989",80.36988,729.8154
"2990",80.26246,729.82886
"2991",80.17456,729.8423
"2992",80.11841,729.85547
"2993",80.09155,729.86865
"2994",80.08423,729.8821
"2995",80.08667,729.8955
"2996",80.08423,729.9087
"2997",80.06714,729.9219
"2998",80.03052,729.9353
"2999",79.971924,729.9487
"3000",79.888916,729.9619
"3001",79.78882,729.9751
"3002",79.67162,729.9885
"3003",79.54955,730.00195
"3004",79.42748,730.01514
"3005",79.310295,730.0283
"3006",79.19798,730.04175
"3007",79.10277,730.0552
"3008",79.01488,730.06836
"3009",78.941635,730.08154
"3010",78.87816,730.095
"3011",78.82933,730.1084
"3012",78.79027,730.1216
"3013",78.76341,730.13477
"3014",78.74876,730.1482
"3015",78.74387,730.1616
"3016",78.74387,730.1748
"3017",78.74876,730.188
"3018",78.75609,730.2014
"3019",78.76341,730.21484
"3020",78.77074,730.228
"3021",78.77806,730.2412
"3022",78.78294,730.25464
"3023",78.79027,730.26807
"3024",78.79271,730.28125
"3025",78.79515,730.29443
"3026",78.79515,730.30786
"3027",78.79271,730.3213
"3028",78.7805,730.3345
"3029",78.768295,730.34766
"3030",78.751205,730.3611
"3031",78.73167,730.3745
"3032",78.709694,730.3877
"3033",78.68772,730.4009
"3034",78.675514,730.4143
"3035",78.695045,730.42773
"3036",78.80736,730.4409
"3037",79.08812,730.4541
"3038",79.588615,730.4675
"3039",80.29664,730.48096
"3040",81.143814,730.49414
"3041",82.005646,730.5073
"3042",82.74296,730.52075
"3043",83.23857,730.5342
"3044",83.45342,730.54736
"3045",83.41436,730.56055
"3046",83.177536,730.574
"3047",82.81377,730.5874
"3048",82.388954,730.6006
"3049",81.96414,730.6138
"3050",81.58083,730.6272
"3051",81.26101,730.6406
"3052",81.007095,730.6538
"3053",80.82155,730.667
"3054",80.67506,730.6804
"3055",80.552986,730.69385
"3056",80.43824,730.70703
"3057",80.33326,730.7202
"3058",80.24048,730.73364
"3059",80.177,730.7471
"3060",80.147705,730.76025
"3061",80.15259,730.77344
"3062",80.18677,730.78687
"3063",80.23071,730.8003
"3064",80.26734,730.8135
"3065",80.28199,730.82666
"3066",80.2649,730.8401
"3067",80.198975,730.8535
"3068",80.096436,730.8667
"3069",79.9646,730.8799
"3070",79.815674,730.8933
"3071",79.66186,730.90674
"3072",79.520256,730.9199
"3073",79.38842,730.9331
"3074",79.27123,730.94653
"3075",79.168686,730.95996
"3076",79.08812,730.97314
"3077",79.0222,730.9863
"3078",78.97826,730.99976
"3079",78.94896,731.0132
"3080",78.924545,731.02637
"3081",78.9099,731.03955
"3082",78.905014,731.053
"3083",78.9099,731.0664
"3084",78.924545,731.0796
"3085",78.9514,731.0928
"3086",78.98558,731.1062
"3087",79.02464,731.1196
"3088",79.06859,731.1328
"3089",79.10033,731.146
"3090",79.114975,731.1594
"3091",79.10521,731.17285
"3092",79.07591,731.18604
"3093",79.01976,731.1992
"3094",78.94896,731.21265
"3095",78.88304,731.2261
"3096",78.82689,731.23926
"3097",78.785385,731.25244
"3098",78.785385,731.26587
"3099",78.87816,731.2793
"3100",79.13695,731.2925
"3101",79.603264,731.30566
"3102",80.274666,731.3191
"3103",81.08522,731.3325
"3104",81.92508,731.3457
"3105",82.65995,731.3589
"3106",83.18486,731.3723
"3107",83.46319,731.38574
"3108",83.51202,731.3989
"3109",83.38262,731.4121
"3110",83.12138,731.42554
"3111",82.794235,731.43896
"3112",82.44755,731.45215
"3113",82.11551,731.46533
"3114",81.829865,731.47876
"3115",81.600365,731.4922
"3116",81.41726,731.5054
"3117",81.270775,731.51855
"3118",81.13893,731.532
"3119",80.99977,731.5454
"3120",80.85817,731.5586
"3121",80.726326,731.5718
"3122",80.62379,731.5852
"3123",80.55787,731.59863
"3124",80.53834,731.6118
"3125",80.55787,731.625
"3126",80.60914,731.6384
"3127",80.672615,731.65186
"3128",80.7483,731.66504
"3129",80.82887,731.6782
"3130",80.91676,731.69165
"3131",81.01686,731.7051
"3132",81.14137,731.71826
"3133",81.29763,731.73145
"3134",81.480736,731.7449
"3135",81.68093,731.7583
"3136",81.87869,731.7715
"3137",82.09354,731.78467
"3138",82.36942,731.7981
"3139",82.75517,731.8115
"3140",83.250786,731.8247
"3141",83.81964,731.8379
"3142",84.3592,731.8513
"3143",84.76936,731.86475
"3144",84.996414,731.8779
"3145",85.05501,731.8911
"3146",85.00374,731.90454
"3147",84.89143,731.91797
"3148",84.7425,731.93115
"3149",84.56184,731.94434
"3150",84.33967,731.95776
"3151",84.07355,731.9712
"3152",83.76837,731.9844
"3153",83.438774,731.99756
"3154",83.09697,732.011
"3155",82.75029,732.0244
"3156",82.39872,732.0376
"3157",82.037384,732.0508
"3158",81.67605,732.0642
"3159",81.31472,732.07764
"3160",80.97536,732.0908
"3161",80.69459,732.104
"3162",80.51392,732.11743
"3163",80.42359,732.13086
"3164",80.35767,732.14404
"3165",80.25025,732.1572
"3166",80.03296,732.17065
"3167",79.66186,732.1841
"3168",79.132065,732.19727
"3169",78.46555,732.21045
"3170",77.70138,732.2239
"3171",76.8835,732.2373
"3172",76.06073,732.2505
"3173",75.30389,732.2637
"3174",74.69108,732.2771
"3175",74.268715,732.2905
"3176",74.05386,732.3037
"3177",74.022125,732.3169
"3178",74.08072,732.3303
"3179",74.110016,732.34375
"3180",74.002594,732.35693
"3181",73.724266,732.3701
"3182",73.304344,732.38354
"3183",72.84535,732.397
"3184",72.46204,732.41016
"3185",72.24231,732.42334
"3186",72.20813,732.43677
"3187",72.33509,732.4502
"3188",72.56458,732.4634
"3189",72.85512,732.47656
"3190",73.17738,732.49
"3191",73.50698,732.5034
"3192",73.829254,732.5166
"3193",74.13443,732.5298
"3194",74.41764,732.5432
"3195",74.68131,732.55664
"3196",74.92546,732.5698
"3197",75.15007,732.583
"3198",75.3576,732.59644
"3199",75.54803,732.60986
"3200",75.72381,732.62305
"3201",75.88983,732.6362
"3202",76.05829,732.64966
"3203",76.22919,732.6631
"3204",76.404976,732.6763
"3205",76.58808,732.68945
"3206",76.77608,732.7029
"3207",76.961624,732.7163
"3208",77.14961,732.7295
"3209",77.34005,732.7427
"3210",77.5256,732.7561
"3211",77.70138,732.76953
"3212",77.86984,732.7827
"3213",78.02365,732.7959
"3214",78.167694,732.8093
"3215",78.30198,732.82275
"3216",78.42161,732.83594
"3217",78.53391,732.8491
"3218",78.641335,732.86255
"3219",78.79027,732.876
"3220",79.04906,732.88916
"3221",79.4934,732.90234
"3222",80.15015,732.9158
"3223",80.98268,732.9292
"3224",81.898224,732.9424
"3225",82.76738,732.95557
"3226",83.46075,732.969
"3227",83.90021,732.9824
"3228",84.07843,732.9956
"3229",84.034485,733.0088
"3230",83.826965,733.0222
"3231",83.51934,733.03564
"3232",83.175095,733.0488
"3233",82.84062,733.062
"3234",82.55009,733.07544
"3235",82.31571,733.08887
"3236",82.13748,733.10205
"3237",81.99832,733.11523
"3238",81.87625,733.12866
"3239",81.761505,733.1421
"3240",81.651634,733.1553
"3241",81.54665,733.16846
"3242",81.45876,733.1819
"3243",81.40017,733.1953
"3244",81.375755,733.2085
"3245",81.3782,733.2217
"3246",81.39773,733.2351
"3247",81.42214,733.24854
"3248",81.43679,733.2617
"3249",81.427025,733.2749
"3250",81.38308,733.2883
"3251",81.30984,733.30176
"3252",81.20729,733.31494
"3253",81.08522,733.3281
"3254",80.953384,733.34155
"3255",80.81911,733.355
"3256",80.68482,733.36816
"3257",80.552986,733.38135
"3258",80.430916,733.3948
"3259",80.31617,733.4082
"3260",80.218506,733.4214
"3261",80.13794,733.4346
"3262",80.07446,733.448
"3263",80.025635,733.4614
"3264",79.991455,733.4746
"3265",79.96704,733.4878
"3266",79.94263,733.5012
"3267",79.920654,733.51465
"3268",79.89868,733.52783
"3269",79.871826,733.541
"3270",79.84253,733.55444
"3271",79.81079,733.5679
"3272",79.77417,733.58105
"3273",79.74975,733.59424
"3274",79.77417,733.60767
"3275",79.91333,733.6211
"3276",80.22827,733.6343
"3277",80.75075,733.64746
"3278",81.449,733.6609
"3279",82.2327,733.6743
"3280",82.98222,733.6875
"3281",83.57061,733.7007
"3282",83.92462,733.7141
"3283",84.02228,733.72754
"3284",83.90509,733.7407
"3285",83.631645,733.7539
"3286",83.265434,733.76733
"3287",82.87724,733.78076
"3288",82.50858,733.79395
"3289",82.19119,733.8071
"3290",81.934845,733.82056
"3291",81.73464,733.834
"3292",81.566185,733.84717
"3293",81.409935,733.86035
"3294",81.25613,733.8738
"3295",81.10231,733.8872
"3296",80.95827,733.9004
"3297",80.84596,733.9136
"3298",80.77272,733.927
"3299",80.73853,733.9404
"3300",80.73853,733.9536
"3301",80.75319,733.9668
"3302",80.76051,733.9802
"3303",80.75075,733.99365
"3304",80.719,734.00684
"3305",80.65308,734.02
"3306",80.56031,734.03345
"3307",80.45045,734.0469
"3308",80.325935,734.06006
"3309",80.19653,734.07324
"3310",80.0647,734.0867
"3311",79.937744,734.1001
"3312",79.80835,734.1133
"3313",79.68871,734.12646
"3314",79.57397,734.1399
"3315",79.47143,734.1533
"3316",79.38354,734.1665
"3317",79.31274,734.1797
"3318",79.259026,734.1931
"3319",79.2224,734.20654
"3320",79.200424,734.2197
"3321",79.19066,734.2329
"3322",79.1931,734.24634
"3323",79.19554,734.25977
"3324",79.1931,734.27295
"3325",79.18089,734.28613
"3326",79.15648,734.29956
"3327",79.1223,734.313
"3328",79.08568,734.3262
"3329",79.05882,734.33936
"3330",79.06615,734.3528
"3331",79.15404,734.3662
"3332",79.38842,734.3794
"3333",79.818115,734.3926
"3334",80.43824,734.406
"3335",81.1902,734.41943
"3336",81.969025,734.4326
"3337",82.64042,734.4458
"3338",83.09697,734.4592
"3339",83.299614,734.47266
"3340",83.267876,734.48584
"3341",83.055466,734.499
"3342",82.738075,734.51245
"3343",82.37919,734.5259
"3344",82.0325,734.53906
"3345",81.7322,734.55225
"3346",81.4905,734.5657
"3347",81.304955,734.5791
"3348",81.160904,734.5923
"3349",81.02663,734.60547
"3350",80.88747,734.6189
"3351",80.73609,734.6323
"3352",80.584724,734.6455
"3353",80.43824,734.6587
"3354",80.325935,734.6721
"3355",80.25269,734.68555
"3356",80.21362,734.6987
"3357",80.20386,734.7119
"3358",80.20386,734.72534
"3359",80.201416,734.7388
"3360",80.184326,734.75195
"3361",80.14282,734.76514
"3362",80.076904,734.77856
"3363",79.98413,734.792
"3364",79.869385,734.8052
"3365",79.742424,734.81836
"3366",79.60815,734.8318
"3367",79.47875,734.8452
"3368",79.35912,734.8584
"3369",79.24925,734.8716
"3370",79.151596,734.885
"3371",79.06615,734.89844
"3372",78.99046,734.9116
"3373",78.92699,734.9248
"3374",78.87572,734.93823
"3375",78.836655,734.95166
"3376",78.81468,734.96484
"3377",78.80736,734.978
"3378",78.8098,734.99146
"3379",78.81224,735.0049
"3380",78.81224,735.01807
"3381",78.80492,735.03125
"3382",78.79271,735.0447
"3383",78.77562,735.0581
"3384",78.75365,735.0713
"3385",78.72678,735.0845
"3386",78.70725,735.0979
"3387",78.709694,735.1113
"3388",78.785385,735.1245
"3389",78.99779,735.1377
"3390",79.40551,735.1511
"3391",80.008545,735.16455
"3392",80.75563,735.17773
"3393",81.54421,735.1909
"3394",82.24002,735.20435
"3395",82.73319,735.2178
"3396",82.967575,735.23096
"3397",82.95293,735.24414
"3398",82.74296,735.25757
"3399",82.41337,735.271
"3400",82.039825,735.2842
"3401",81.68093,735.29736
"3402",81.375755,735.3108
"3403",81.13893,735.3242
"3404",80.96315,735.3374
"3405",80.82643,735.3506
"3406",80.70435,735.364
"3407",80.57984,735.37744
"3408",80.448006,735.3906
"3409",80.308846,735.4038
"3410",80.181885,735.41724
"3411",80.08179,735.43066
"3412",80.01831,735.44385
"3413",79.98657,735.45703
"3414",79.98169,735.47046
"3415",79.98413,735.4839
"3416",79.97925,735.4971
"3417",79.957275,735.51025
"3418",79.91577,735.5237
"3419",79.852295,735.5371
"3420",79.766846,735.5503
"3421",79.6643,735.5635
"3422",79.54955,735.5769
"3423",79.42748,735.59033
"3424",79.30297,735.6035
"3425",79.183334,735.6167
"3426",79.07347,735.6301
"3427",78.96849,735.64355
"3428",78.88304,735.65674
"3429",78.80736,735.6699
"3430",78.74876,735.68335
"3431",78.709694,735.6968
"3432",78.68772,735.70996
"3433",78.677956,735.72314
"3434",78.675514,735.7366
"3435",78.68528,735.75
"3436",78.695045,735.7632
"3437",78.69993,735.77637
"3438",78.69993,735.7898
"3439",78.695045,735.8032
"3440",78.68528,735.8164
"3441",78.66819,735.8296
"3442",78.64622,735.843
"3443",78.61692,735.85645
"3444",78.58762,735.8696
"3445",78.57542,735.8828
"3446",78.624245,735.89624
"3447",78.80492,735.90967
"3448",79.17113,735.92285
"3449",79.73998,735.93604
"3450",80.46754,735.94946
"3451",81.26101,735.9629
"3452",81.988556,735.9761
"3453",82.533,735.98926
"3454",82.8333,736.0027
"3455",82.879684,736.0161
"3456",82.718544,736.0293
"3457",82.42069,736.0425
"3458",82.0618,736.0559
"3459",81.70779,736.06934
"3460",81.39773,736.0825
"3461",81.15602,736.0957
"3462",80.9778,736.10913
"3463",80.848404,736.12256
"3464",80.73365,736.13574
"3465",80.61402,736.1489
"3466",80.482185,736.16235
"3467",80.34058,736.1758
"3468",80.20386,736.18896
"3469",80.08911,736.20215
"3470",80.01343,736.2156
"3471",79.97925,736.229
"3472",79.98169,736.2422
"3473",80.00122,736.2554
"3474",80.02075,736.2688
"3475",80.025635,736.2822
"3476",80.00122,736.2954
"3477",79.94507,736.3086
"3478",79.8645,736.322
"3479",79.76196,736.33545
"3480",79.65209,736.34863
"3481",79.54223,736.3618
"3482",79.42748,736.37524
"3483",79.310295,736.3887
"3484",79.200424,736.40186
"3485",79.097885,736.41504
"3486",79.00755,736.42847
"3487",78.92943,736.4419
"3488",78.870834,736.4551
"3489",78.82689,736.46826
"3490",78.79515,736.4817
"3491",78.77806,736.4951
"3492",78.77562,736.5083
"3493",78.78783,736.5215
"3494",78.80492,736.5349
"3495",78.82201,736.54834
"3496",78.83421,736.5615
"3497",78.839096,736.5747
"3498",78.83421,736.58813
"3499",78.819565,736.60156
"3500",78.79759,736.61475
"3501",78.77074,736.6279
"3502",78.74387,736.64136
"3503",78.71946,736.6548
"3504",78.70481,736.66797
"3505",78.73411,736.68115
"3506",78.86107,736.6946
"3507",79.149155,736.708
"3508",79.63012,736.7212
"3509",80.289314,736.7344
"3510",81.05592,736.7478
"3511",81.80301,736.7612
"3512",82.406044,736.7744
"3513",82.777145,736.7876
"3514",82.896774,736.801
"3515",82.78935,736.81445
"3516",82.51591,736.82764
"3517",82.15213,736.8408
"3518",81.761505,736.85425
"3519",81.40261,736.8677
"3520",81.10231,736.88086
"3521",80.87038,736.89404
"3522",80.689705,736.9075
"3523",80.550545,736.9209
"3524",80.41871,736.9341
"3525",80.28687,736.94727
"3526",80.16235,736.9607
"3527",80.059814,736.9741
"3528",79.991455,736.9873
"3529",79.96704,737.0005
"3530",79.98169,737.0139
"3531",80.03052,737.02734
"3532",80.08667,737.0405
"3533",80.13306,737.0537
"3534",80.15259,737.06714
"3535",80.1355,737.08057
"3536",80.079346,737.09375
"3537",79.98413,737.10693
"3538",79.86206,737.12036
"3539",79.73022,737.1338
"3540",79.59594,737.147
"3541",79.46899,737.16016
"3542",79.34936,737.1736
"3543",79.24193,737.187
"3544",79.14671,737.2002
"3545",79.06615,737.2134
"3546",79.00023,737.2268
"3547",78.94896,737.24023
"3548",78.907455,737.2534
"3549",78.87572,737.2666
"3550",78.853745,737.28
"3551",78.839096,737.29346
"3552",78.836655,737.30664
"3553",78.84398,737.3198
"3554",78.85863,737.33325
"3555",78.870834,737.3467
"3556",78.87816,737.35986
"3557",78.87572,737.37305
"3558",78.86351,737.3865
"3559",78.839096,737.3999
"3560",78.8098,737.4131
"3561",78.77562,737.4263
"3562",78.746315,737.4397
"3563",78.74876,737.4531
"3564",78.84154,737.4663
"3565",79.093,737.4795
"3566",79.54711,737.4929
"3567",80.201416,737.50635
"3568",80.98512,737.51953
"3569",81.778595,737.5327
"3570",82.44999,737.54614
"3571",82.896774,737.5596
"3572",83.07988,737.57275
"3573",83.021286,737.58594
"3574",82.78203,737.59937
"3575",82.43046,737.6128
"3576",82.04227,737.626
"3577",81.671165,737.63916
"3578",81.35378,737.6526
"3579",81.10719,737.666
"3580",80.92653,737.6792
"3581",80.78981,737.6924
"3582",80.67506,737.7058
"3583",80.55787,737.71924
"3584",80.43336,737.7324
"3585",80.30396,737.7456
"3586",80.18677,737.75903
"3587",80.09888,737.77246
"3588",80.05493,737.78564
"3589",80.045166,737.7988
"3590",80.062256,737.81226
"3591",80.08423,737.8257
"3592",80.096436,737.83887
"3593",80.08179,737.85205
"3594",80.04028,737.8655
"3595",79.96704,737.8789
"3596",79.869385,737.8921
"3597",79.74731,737.9053
"3598",79.61791,737.9187
"3599",79.48608,737.9321
"3600",79.35912,737.9453
"3601",79.237045,737.9585
"3602",79.12962,737.9719
"3603",79.03197,737.98535
"3604",78.94652,737.99854
"3605",78.87572,738.0117
"3606",78.81712,738.02515
"3607",78.77318,738.0386
"3608",78.746315,738.05176
"3609",78.729225,738.06494
"3610",78.71946,738.07837
"3611",78.71458,738.0918
"3612",78.70725,738.105
"3613",78.70481,738.11816
"3614",78.70237,738.1316
"3615",78.70725,738.145
"3616",78.71458,738.1582
"3617",78.72678,738.1714
"3618",78.73167,738.1848
"3619",78.729225,738.19824
"3620",78.7219,738.2114
"3621",78.70481,738.2246
"3622",78.68284,738.23804
"3623",78.65354,738.25146
"3624",78.624245,738.26465
"3625",78.590065,738.27783
"3626",78.56565,738.29126
"3627",78.57542,738.3047
"3628",78.67307,738.3179
"3629",78.93919,738.33105
"3630",79.432365,738.3445
"3631",80.15015,738.3579
"3632",81.024185,738.3711
"3633",81.9324,738.3843
"3634",82.72587,738.3977
"3635",83.284966,738.41113
"3636",83.5584,738.4243
"3637",83.56573,738.4375
"3638",83.35821,738.4509
"3639",83.0164,738.46436
"3640",82.61356,738.47754
"3641",82.21805,738.4907
"3642",81.87137,738.50415
"3643",81.602806,738.5176
"3644",81.41482,738.53076
"3645",81.28298,738.54395
"3646",81.17799,738.5574
"3647",81.07301,738.5708
"3648",80.9485,738.584
"3649",80.79469,738.59717
"3650",80.63355,738.6106
"3651",80.479744,738.624
"3652",80.35035,738.6372
"3653",80.255135,738.6504
"3654",80.19165,738.6638
"3655",80.15991,738.67725
"3656",80.14282,738.6904
"3657",80.128174,738.7036
"3658",80.10132,738.71704
"3659",80.059814,738.73047
"3660",79.99634,738.74365
"3661",79.91089,738.75684
"3662",79.80347,738.77026
"3663",79.68627,738.7837
"3664",79.55688,738.7969
"3665",79.42504,738.81006
"3666",79.290764,738.8235
"3667",79.168686,738.8369
"3668",79.05882,738.8501
"3669",78.96361,738.8633
"3670",78.87816,738.8767
"3671",78.81224,738.89014
"3672",78.765854,738.9033
"3673",78.73411,738.9165
"3674",78.71458,738.92993
"3675",78.70237,738.94336
"3676",78.692604,738.95654
"3677",78.68284,738.9697
"3678",78.675514,738.98315
"3679",78.67063,738.9966
"3680",78.66819,739.00977
"3681",78.66819,739.02295
"3682",78.66331,739.0364
"3683",78.65354,739.0498
"3684",78.64622,739.063
"3685",78.63401,739.0762
"3686",78.624245,739.0896
"3687",78.6218,739.103
"3688",78.6218,739.1162
"3689",78.61448,739.1294
"3690",78.607155,739.1428
"3691",78.59251,739.15625
"3692",78.572975,739.16943
"3693",78.54856,739.1826
"3694",78.52659,739.19604
"3695",78.504616,739.2095
"3696",78.49241,739.22266
"3697",78.51438,739.23584
"3698",78.63401,739.24927
"3699",78.93431,739.2627
"3700",79.46899,739.2759
"3701",80.235596,739.28906
"3702",81.15602,739.3025
"3703",82.09842,739.3159
"3704",82.90898,739.3291
"3705",83.46563,739.3423
"3706",83.72442,739.3557
"3707",83.70733,739.36914
"3708",83.47784,739.3823
"3709",83.10918,739.3955
"3710",82.67948,739.40894
"3711",82.252235,739.42236
"3712",81.87137,739.43555
"3713",81.566185,739.4487
"3714",81.34402,739.46216
"3715",81.19264,739.4756
"3716",81.08034,739.4888
"3717",80.97536,739.50195
"3718",80.85573,739.5154
"3719",80.71656,739.5288
"3720",80.567635,739.542
"3721",80.428474,739.5552
"3722",80.31617,739.5686
"3723",80.24536,739.58203
"3724",80.21118,739.5952
"3725",80.201416,739.6084
"3726",80.21118,739.6218
"3727",80.216064,739.63525
"3728",80.2063,739.64844
"3729",80.17212,739.6616
"3730",80.10864,739.67505
"3731",80.01343,739.6885
"3732",79.89624,739.70166
"3733",79.764404,739.71484
"3734",79.63012,739.7283
"3735",79.49828,739.7417
"3736",79.37133,739.7549
"3737",79.259026,739.76807
"3738",79.151596,739.7815
"3739",79.05882,739.7949
"3740",78.9807,739.8081
"3741",78.91478,739.8213
"3742",78.86351,739.8347
"3743",78.82445,739.84814
"3744",78.79759,739.8613
"3745",78.77806,739.8745
"3746",78.765854,739.88794
"3747",78.75853,739.90137
"3748",78.75609,739.91455
"3749",78.75853,739.92773
"3750",78.765854,739.94116
"3751",78.77318,739.9546
"3752",78.77806,739.9678
"3753",78.78294,739.98096
"3754",78.78294,739.9944
"3755",78.77806,740.0078
"3756",78.77074,740.021
"3757",78.76097,740.0342
"3758",78.74387,740.0476
"3759",78.72678,740.06104
"3760",78.69993,740.0742
"3761",78.67063,740.0874
"3762",78.65598,740.1008
"3763",78.70725,740.11426
"3764",78.89281,740.12744
"3765",79.28588,740.1406
"3766",79.91333,740.15405
"3767",80.723885,740.1675
"3768",81.60525,740.18066
"3769",82.41825,740.19385
"3770",83.02861,740.2073
"3771",83.36065,740.2207
"3772",83.421684,740.2339
"3773",83.26055,740.2471
"3774",82.9456,740.2605
"3775",82.54032,740.2739
"3776",82.11063,740.2871
"3777",81.705345,740.3003
"3778",81.3489,740.3137
"3779",81.06081,740.32715
"3780",80.83864,740.34033
"3781",80.66285,740.3535
"3782",80.50904,740.36694
"3783",80.37232,740.3804
"3784",80.24048,740.39355
"3785",80.12329,740.40674
"3786",80.03296,740.42017
"3787",79.991455,740.4336
"3788",79.99634,740.4468
"3789",80.042725,740.45996
"3790",80.113525,740.4734
"3791",80.17944,740.4868
"3792",80.218506,740.5
"3793",80.21362,740.5132
"3794",80.15747,740.5266
"3795",80.05737,740.54004
"3796",79.92798,740.5532
"3797",79.77905,740.5664
"3798",79.63012,740.57983
"3799",79.49096,740.59326
"3800",79.364006,740.60645
"3801",79.24925,740.6196
"3802",79.149155,740.63306
"3803",79.061264,740.6465
"3804",78.98314,740.65967
"3805",78.91478,740.67285
"3806",78.856186,740.6863
"3807",78.80736,740.6997
"3808",78.77074,740.7129
"3809",78.74876,740.7261
"3810",78.73655,740.7395
"3811",78.73167,740.7529
"3812",78.73655,740.7661
"3813",78.74876,740.7793
"3814",78.765854,740.7927
"3815",78.78294,740.80615
"3816",78.79515,740.81934
"3817",78.79271,740.8325
"3818",78.78294,740.84595
"3819",78.76097,740.8594
"3820",78.73899,740.87256
"3821",78.71946,740.88574
"3822",78.712135,740.8992
"3823",78.74387,740.9126
"3824",78.8806,740.9258
"3825",79.1931,740.93896
"3826",79.727776,740.9524
"3827",80.462654,740.9658
"3828",81.31228,740.979
"3829",82.14725,740.9922
"3830",82.828415,741.0056
"3831",83.26055,741.01904
"3832",83.4168,741.0322
"3833",83.33135,741.0454
"3834",83.06767,741.05884
"3835",82.68925,741.07227
"3836",82.26444,741.08545
"3837",81.84451,741.09863
"3838",81.47097,741.11206
"3839",81.16823,741.1255
"3840",80.93141,741.1387
"3841",80.75075,741.15186
"3842",80.6067,741.1653
"3843",80.4773,741.1787
"3844",80.34791,741.1919
"3845",80.22583,741.2051
"3846",80.11841,741.2185
"3847",80.03784,741.23193
"3848",79.9939,741.2451
"3849",79.98901,741.2583
"3850",80.01099,741.2717
"3851",80.045166,741.28516
"3852",80.07202,741.29834
"3853",80.079346,741.3115
"3854",80.05493,741.32495
"3855",79.99878,741.3384
"3856",79.91089,741.35156
"3857",79.798584,741.36475
"3858",79.67162,741.3782
"3859",79.54223,741.3916
"3860",79.41039,741.4048
"3861",79.28588,741.41797
"3862",79.166245,741.4314
"3863",79.061264,741.4448
"3864",78.96605,741.458
"3865",78.8806,741.4712
"3866",78.80736,741.4846
"3867",78.751205,741.49805
"3868",78.70725,741.5112
"3869",78.677956,741.5244
"3870",78.660866,741.53784
"3871",78.65354,741.5513
"3872",78.6511,741.56445
"3873",78.65598,741.57764
"3874",78.66331,741.59106
"3875",78.675514,741.6045
"3876",78.69016,741.6177
"3877",78.70725,741.63086
"3878",78.7219,741.6443
"3879",78.73411,741.6577
"3880",78.73899,741.6709
"3881",78.73655,741.6841
"3882",78.72678,741.6975
"3883",78.70725,741.71094
"3884",78.68528,741.7241
"3885",78.660866,741.7373
"3886",78.641335,741.75073
"3887",78.65598,741.76416
"3888",78.77074,741.77734
"3889",79.061264,741.7905
"3890",79.588615,741.80396
"3891",80.34791,741.8174
"3892",81.25613,741.83057
"3893",82.18387,741.84375
"3894",82.97246,741.8572
"3895",83.50469,741.8706
"3896",83.73907,741.8838
"3897",83.702446,741.897
"3898",83.458305,741.9104
"3899",83.08232,741.9238
"3900",82.6453,741.937
"3901",82.210724,741.9502
"3902",81.82254,741.9636
"3903",81.50515,741.97705
"3904",81.26345,741.99023
"3905",81.0901,742.0034
"3906",80.96071,742.01685
"3907",80.848404,742.0303
"3908",80.73365,742.04346
"3909",80.60914,742.05664
"3910",80.482185,742.07007
"3911",80.365,742.0835
"3912",80.26978,742.0967
"3913",80.2063,742.10986
"3914",80.17212,742.1233
"3915",80.15991,742.1367
"3916",80.15503,742.1499
"3917",80.14526,742.1631
"3918",80.11841,742.1765
"3919",80.06714,742.18994
"3920",79.9939,742.2031
"3921",79.89624,742.2163
"3922",79.783936,742.22974
"3923",79.6643,742.24316
"3924",79.537346,742.25635
"3925",79.41039,742.26953
"3926",79.28588,742.28296
"3927",79.17357,742.2964
"3928",79.07103,742.3096
"3929",78.98558,742.32275
"3930",78.91722,742.3362
"3931",78.86351,742.3496
"3932",78.81712,742.3628
"3933",78.7805,742.376
"3934",78.74876,742.3894
"3935",78.72678,742.40283
"3936",78.712135,742.416
"3937",78.69993,742.4292
"3938",78.69993,742.4426
"3939",78.70237,742.45605
"3940",78.70725,742.46924
"3941",78.712135,742.4824
"3942",78.72434,742.49585
"3943",78.73167,742.5093
"3944",78.73411,742.52246
"3945",78.73655,742.53564
"3946",78.73411,742.5491
"3947",78.72434,742.5625
"3948",78.70725,742.5757
"3949",78.68772,742.58887
"3950",78.66331,742.6023
"3951",78.63889,742.6157
"3952",78.624245,742.6289
"3953",78.66331,742.6421
"3954",78.82689,742.6555
"3955",79.19798,742.66895
"3956",79.81079,742.6821
"3957",80.64088,742.6953
"3958",81.58083,742.70874
"3959",82.48661,742.72217
"3960",83.20439,742.73535
"3961",83.64141,742.74854
"3962",83.78058,742.76196
"3963",83.66094,742.7754
"3964",83.36065,742.7886
"3965",82.95537,742.80176
"3966",82.51591,742.8152
"3967",82.091095,742.8286
"3968",81.72976,742.8418
"3969",81.44167,742.855
"3970",81.231705,742.8684
"3971",81.07301,742.88184
"3972",80.94362,742.895
"3973",80.81178,742.9082
"3974",80.672615,742.92163
"3975",80.52369,742.93506
"3976",80.38453,742.94824
"3977",80.26978,742.9614
"3978",80.18921,742.97485
"3979",80.147705,742.9883
"3980",80.13794,743.00146
"3981",80.147705,743.01465
"3982",80.15991,743.0281
"3983",80.16235,743.0415
"3984",80.14282,743.0547
"3985",80.08911,743.0679
"3986",80.0061,743.0813
"3987",79.90112,743.0947
"3988",79.781494,743.1079
"3989",79.65453,743.1211
"3990",79.52514,743.1345
"3991",79.395744,743.14795
"3992",79.26879,743.16113
"3993",79.15404,743.1743
"3994",79.0515,743.18774
"3995",78.96605,743.2012
"3996",78.89769,743.21436
"3997",78.84398,743.22754
"3998",78.802475,743.24097
"3999",78.77074,743.2544
"4000",78.751205,743.2676
"4001",78.73899,743.28076
"4002",78.73167,743.2942
"4003",78.73167,743.3076
"4004",78.73899,743.3208
"4005",78.74387,743.334
"4006",78.74876,743.3474
"4007",78.75365,743.36084
"4008",78.75609,743.374
"4009",78.75365,743.3872
"4010",78.746315,743.40063
"4011",78.73411,743.41406
"4012",78.71946,743.42725
"4013",78.69749,743.4404
"4014",78.67063,743.45386
"4015",78.65354,743.4673
"4016",78.68772,743.48047
"4017",78.84886,743.49365
"4018",79.21263,743.5071
"4019",79.81323,743.5205
"4020",80.61402,743.5337
"4021",81.512474,743.5469
"4022",82.3621,743.5603
"4023",83.021286,743.5737
"4024",83.404594,743.5869
"4025",83.49981,743.6001
"4026",83.35577,743.6135
"4027",83.035934,743.62695
"4028",82.62089,743.64014
"4029",82.178986,743.6533
"4030",81.76395,743.66675
"4031",81.40749,743.6802
"4032",81.12428,743.69336
"4033",80.90944,743.70654
"4034",80.743416,743.72
"4035",80.59937,743.7334
"4036",80.46754,743.7466
"4037",80.33814,743.75977
"4038",80.21362,743.7732
"4039",80.11841,743.7866
"4040",80.059814,743.7998
"4041",80.042725,743.813
"4042",80.062256,743.8264
"4043",80.10132,743.83984
"4044",80.14282,743.853
"4045",80.164795,743.8662
"4046",80.16235,743.87964
"4047",80.12329,743.89307
"4048",80.04761,743.90625
"4049",79.94507,743.91943
"4050",79.823,743.93286
"4051",79.68627,743.9463
"4052",79.54711,743.9595
"4053",79.412834,743.97266
"4054",79.28344,743.9861
"4055",79.1638,743.9995
"4056",79.061264,744.0127
"4057",78.97337,744.0259
"4058",78.89769,744.0393
"4059",78.83421,744.05273
"4060",78.78294,744.0659
"4061",78.74387,744.0791
"4062",78.72434,744.0925
"4063",78.71946,744.10596
"4064",78.72434,744.11914
"4065",78.73899,744.1323
"4066",78.76097,744.14575
"4067",78.77074,744.1592
"4068",78.77562,744.17236
"4069",78.77318,744.18555
"4070",78.76341,744.199
"4071",78.74143,744.2124
"4072",78.71702,744.2256
"4073",78.692604,744.2388
"4074",78.66575,744.2522
"4075",78.643776,744.2656
"4076",78.65598,744.2788
"4077",78.765854,744.292
"4078",79.05394,744.3054
"4079",79.5642,744.31885
"4080",80.289314,744.33203
"4081",81.143814,744.3452
"4082",81.99832,744.35864
"4083",82.70878,744.3721
"4084",83.16777,744.38525
"4085",83.34112,744.39844
"4086",83.25567,744.41187
"4087",82.97978,744.4253
"4088",82.59159,744.4385
"4089",82.161896,744.45166
"4090",81.74929,744.4651
"4091",81.392845,744.4785
"4092",81.109634,744.4917
"4093",80.89967,744.5049
"4094",80.743416,744.5183
"4095",80.61646,744.53174
"4096",80.49683,744.5449
"4097",80.36988,744.5581
"4098",80.24292,744.57153
"4099",80.12573,744.58496
"4100",80.03784,744.59814
"4101",79.98901,744.6113
"4102",79.97681,744.62476
"4103",79.98901,744.6382
"4104",80.0061,744.65137
"4105",80.01343,744.66455
"4106",80.00366,744.678
"4107",79.9646,744.6914
"4108",79.8938,744.7046
"4109",79.80347,744.7178
"4110",79.693596,744.7312
"4111",79.57397,744.7446
"4112",79.4519,744.7578
"4113",79.33227,744.771
"4114",79.217514,744.7844
"4115",79.11009,744.79785
"4116",79.009995,744.81104
"4117",78.91966,744.8242
"4118",78.84398,744.83765
"4119",78.78294,744.8511
"4120",78.73411,744.86426
"4121",78.70237,744.87744
"4122",78.675514,744.89087
"4123",78.660866,744.9043
"4124",78.65354,744.9175
"4125",78.6511,744.93066
"4126",78.65598,744.9441
"4127",78.660866,744.9575
"4128",78.66575,744.9707
"4129",78.66819,744.9839
"4130",78.67307,744.9973
"4131",78.677956,745.01074
"4132",78.6804,745.0239
"4133",78.675514,745.0371
"4134",78.66575,745.05054
"4135",78.64866,745.06396
"4136",78.62913,745.07715
"4137",78.607155,745.09033
"4138",78.58274,745.10376
"4139",78.56077,745.1172
"4140",78.572975,745.1304
"4141",78.68528,745.14355
"4142",78.975815,745.157
"4143",79.50317,745.1704
"4144",80.257576,745.1836
"4145",81.15114,745.1968
"4146",82.056915,745.2102
"4147",82.81865,745.22363
"4148",83.32891,745.2368
"4149",83.54864,745.25
"4150",83.50225,745.2634
"4151",83.25567,745.27686
"4152",82.88457,745.29004
"4153",82.4622,745.3032
"4154",82.04959,745.31665
"4155",81.69314,745.3301
"4156",81.41238,745.34326
"4157",81.214615,745.35645
"4158",81.08034,745.3699
"4159",80.9778,745.3833
"4160",80.8777,745.3965
"4161",80.762955,745.40967
"4162",80.62867,745.4231
"4163",80.48463,745.4365
"4164",80.34791,745.4497
"4165",80.23804,745.4629
"4166",80.16724,745.4763
"4167",80.128174,745.48975
"4168",80.11597,745.5029
"4169",80.111084,745.5161
"4170",80.1062,745.52954
"4171",80.08179,745.54297
"4172",80.03296,745.55615
"4173",79.957275,745.56934
"4174",79.8645,745.58276
"4175",79.7522,745.5962
"4176",79.63256,745.6094
"4177",79.50561,745.62256
"4178",79.38598,745.636
"4179",79.26879,745.6494
"4180",79.1638,745.6626
"4181",79.07103,745.6758
"4182",78.98558,745.6892
"4183",78.91722,745.70264
"4184",78.86107,745.7158
"4185",78.81712,745.729
"4186",78.7805,745.74243
"4187",78.75609,745.75586
"4188",78.73655,745.76904
"4189",78.73411,745.7822
"4190",78.73167,745.79565
"4191",78.73167,745.8091
"4192",78.73167,745.82227
"4193",78.73167,745.83545
"4194",78.72678,745.8489
"4195",78.7219,745.8623
"4196",78.71702,745.8755
"4197",78.71702,745.8887
"4198",78.71458,745.9021
"4199",78.709694,745.9155
"4200",78.69749,745.9287
"4201",78.6804,745.9419
"4202",78.65598,745.9553
"4203",78.62913,745.96875
"4204",78.60227,745.98193
"4205",78.57786,745.9951
"4206",78.57542,746.00854
"4207",78.624245,746.022
"4208",78.79759,746.03516
"4209",79.17601,746.04834
"4210",79.783936,746.06177
"4211",80.59449,746.0752
"4212",81.50515,746.0884
"4213",82.36942,746.10156
"4214",83.0457,746.115
"4215",83.4461,746.1284
"4216",83.560844,746.1416
"4217",83.43145,746.1548
"4218",83.12871,746.1682
"4219",82.73075,746.18164
"4220",82.30595,746.1948
"4221",81.91043,746.208
"4222",81.57839,746.22144
"4223",81.32937,746.23486
"4224",81.15602,746.24805
"4225",81.03151,746.2612
"4226",80.92653,746.27466
"4227",80.816666,746.2881
"4228",80.689705,746.3013
"4229",80.552986,746.31445
"4230",80.42603,746.3279
"4231",80.323494,746.3413
"4232",80.257576,746.3545
"4233",80.22827,746.3677
"4234",80.22095,746.3811
"4235",80.22583,746.39453
"4236",80.22583,746.4077
"4237",80.20874,746.4209
"4238",80.16968,746.4343
"4239",80.10376,746.44775
"4240",80.01099,746.46094
"4241",79.90112,746.4741
"4242",79.77905,746.48755
"4243",79.65209,746.501
"4244",79.52514,746.51416
"4245",79.40063,746.52734
"4246",79.28588,746.5408
"4247",79.18822,746.5542
"4248",79.10033,746.5674
"4249",79.027084,746.58057
"4250",78.96605,746.594
"4251",78.9099,746.6074
"4252",78.85863,746.6206
"4253",78.82445,746.6338
"4254",78.80003,746.6472
"4255",78.785385,746.66064
"4256",78.77806,746.6738
"4257",78.7805,746.687
"4258",78.78783,746.70044
"4259",78.79271,746.71387
"4260",78.802475,746.72705
"4261",78.81468,746.74023
"4262",78.82445,746.75366
"4263",78.82445,746.7671
"4264",78.81712,746.7803
"4265",78.802475,746.79346
"4266",78.77806,746.8069
"4267",78.74876,746.8203
"4268",78.71702,746.8335
"4269",78.6804,746.8467
"4270",78.64866,746.8601
"4271",78.63157,746.87354
"4272",78.677956,746.8867
"4273",78.85863,746.8999
"4274",79.24681,746.9133
"4275",79.8645,746.92676
"4276",80.66773,746.93994
"4277",81.549095,746.9531
"4278",82.36454,746.96655
"4279",82.98222,746.98
"4280",83.32891,746.99316
"4281",83.404594,747.00635
"4282",83.25567,747.0198
"4283",82.948044,747.0332
"4284",82.55497,747.0464
"4285",82.144806,747.0596
"4286",81.76639,747.073
"4287",81.45144,747.0864
"4288",81.214615,747.0996
"4289",81.03883,747.1128
"4290",80.902115,747.1262
"4291",80.7776,747.13965
"4292",80.655525,747.15283
"4293",80.53101,747.166
"4294",80.413826,747.17944
"4295",80.32105,747.1929
"4296",80.26734,747.20605
"4297",80.25269,747.21924
"4298",80.27955,747.23267
"4299",80.33814,747.2461
"4300",80.40894,747.2593
"4301",80.479744,747.27246
"4302",80.53101,747.2859
"4303",80.55543,747.2993
"4304",80.5481,747.3125
"4305",80.51148,747.3257
"4306",80.448006,747.3391
"4307",80.37476,747.35254
"4308",80.291756,747.3657
"4309",80.20386,747.3789
"4310",80.113525,747.39233
"4311",80.02319,747.40576
"4312",79.937744,747.41895
"4313",79.85718,747.4321
"4314",79.781494,747.44556
"4315",79.72045,747.459
"4316",79.66918,747.47217
"4317",79.62768,747.48535
"4318",79.5935,747.4988
"4319",79.5642,747.5122
"4320",79.53979,747.5254
"4321",79.51537,747.5386
"4322",79.4934,747.552
"4323",79.45922,747.5654
"4324",79.40795,747.5786
"4325",79.33959,747.5918
"4326",79.24925,747.6052
"4327",79.14671,747.61865
"4328",79.044174,747.63184
"4329",78.94896,747.645
"4330",78.856186,747.65845
"4331",78.76341,747.6719
"4332",78.66575,747.68506
"4333",78.56565,747.69824
"4334",78.46311,747.7117
"4335",78.363014,747.7251
"4336",78.2678,747.7383
"4337",78.17502,747.75146
"4338",78.082245,747.7649
"4339",78.00168,747.7783
"4340",77.960175,747.7915
"4341",78.02121,747.8047
"4342",78.260475,747.8181
"4343",78.73899,747.83154
"4344",79.45678,747.8447
"4345",80.34547,747.8579
"4346",81.2781,747.87134
"4347",82.09842,747.88477
"4348",82.69169,747.89795
"4349",83.001755,747.91113
"4350",83.04814,747.92456
"4351",82.87724,747.938
"4352",82.55741,747.9512
"4353",82.159454,747.96436
"4354",81.74929,747.9778
"4355",81.36843,747.9912
"4356",81.06325,748.0044
"4357",80.84596,748.0176
"4358",80.706795,748.031
"4359",80.61646,748.04443
"4360",80.54566,748.0576
"4361",80.46998,748.0708
"4362",80.37476,748.0842
"4363",80.2649,748.09766
"4364",80.15747,748.11084
"4365",80.06714,748.124
"4366",79.99878,748.13745
"4367",79.95972,748.1509
"4368",79.94507,748.16406
"4369",79.937744,748.17725
"4370",79.93042,748.1907
"4371",79.91333,748.2041
"4372",79.87671,748.2173
"4373",79.815674,748.23047
"4374",79.73022,748.2439
"4375",79.62768,748.2573
"4376",79.51049,748.2705
"4377",79.39086,748.2837
"4378",79.26635,748.2971
"4379",79.151596,748.31055
"4380",79.044174,748.3237
"4381",78.9514,748.3369
"4382",78.86839,748.35034
"4383",78.80003,748.3638
"4384",78.73899,748.37695
"4385",78.69016,748.39014
"4386",78.64622,748.40356
"4387",78.6096,748.417
"4388",78.58518,748.4302
"4389",78.56565,748.44336
"4390",78.553444,748.4568
"4391",78.54612,748.4702
"4392",78.54612,748.4834
"4393",78.54368,748.4966
"4394",78.54856,748.51
"4395",78.555885,748.52344
"4396",78.56321,748.5366
"4397",78.56809,748.5498
"4398",78.572975,748.56323
"4399",78.57053,748.57666
"4400",78.56565,748.58984
"4401",78.55833,748.603
"4402",78.551,748.61646
"4403",78.54856,748.6299
"4404",78.54124,748.64307
"4405",78.53147,748.65625
"4406",78.51438,748.6697
"4407",78.49485,748.6831
"4408",78.49485,748.6963
"4409",78.56809,748.7095
"4410",78.79271,748.7229
"4411",79.22728,748.7363
"4412",79.886475,748.7495
"4413",80.71168,748.7627
"4414",81.59304,748.7761
"4415",82.38407,748.78955
"4416",82.96025,748.80273
"4417",83.26299,748.8159
"4418",83.302055,748.82935
"4419",83.12627,748.8428
"4420",82.811325,748.85596
"4421",82.425575,748.86914
"4422",82.02518,748.88257
"4423",81.654076,748.896
"4424",81.34402,748.9092
"4425",81.09987,748.92236
"4426",80.919205,748.9358
"4427",80.782486,748.9492
"4428",80.66773,748.9624
"4429",80.552986,748.9756
"4430",80.43336,748.989
"4431",80.323494,749.00244
"4432",80.233154,749.0156
"4433",80.177,749.0288
"4434",80.15991,749.04224
"4435",80.177,749.05566
"4436",80.2063,749.06885
"4437",80.24292,749.08203
"4438",80.26246,749.09546
"4439",80.25269,749.1089
"4440",80.21362,749.1221
"4441",80.14282,749.13525
"4442",80.042725,749.1487
"4443",79.92798,749.1621
"4444",79.80347,749.1753
"4445",79.674065,749.1885
"4446",79.54955,749.2019
"4447",79.43481,749.21533
"4448",79.32494,749.2285
"4449",79.22484,749.2417
"4450",79.13451,749.2551
"4451",79.05638,749.26855
"4452",78.98802,749.28174
"4453",78.93675,749.2949
"4454",78.905014,749.30835
"4455",78.88548,749.3218
"4456",78.87816,749.33496
"4457",78.8806,749.34814
"4458",78.890366,749.3616
"4459",78.89769,749.375
"4460",78.905014,749.3882
"4461",78.907455,749.40137
"4462",78.9099,749.4148
"4463",78.9099,749.4282
"4464",78.905014,749.4414
"4465",78.89281,749.4546
"4466",78.870834,749.468
"4467",78.84154,749.48145
"4468",78.81224,749.4946
"4469",78.78294,749.5078
"4470",78.768295,749.52124
"4471",78.80003,749.53467
"4472",78.93675,749.54785
"4473",79.24925,749.56104
"4474",79.77661,749.57446
"4475",80.49683,749.5879
"4476",81.324486,749.6011
"4477",82.13016,749.61426
"4478",82.78203,749.6277
"4479",83.18486,749.6411
"4480",83.32159,749.6543
"4481",83.228806,749.6675
"4482",82.96269,749.6809
"4483",82.59647,749.69434
"4484",82.193634,749.7075
"4485",81.80789,749.7207
"4486",81.47341,749.73413
"4487",81.20729,749.74756
"4488",81.00954,749.76074
"4489",80.86061,749.7739
"4490",80.73609,749.78735
"4491",80.61646,749.8008
"4492",80.49195,749.81396
"4493",80.36744,749.82715
"4494",80.25269,749.8406
"4495",80.16724,749.854
"4496",80.11841,749.8672
"4497",80.10864,749.8804
"4498",80.128174,749.8938
"4499",80.15991,749.9072
"4500",80.18921,749.9204
"4501",80.201416,749.9336
"4502",80.177,749.947
"4503",80.12329,749.96045
"4504",80.04028,749.97363
"4505",79.93042,749.9868
"4506",79.80347,750.00024
"4507",79.67162,750.0137
"4508",79.54467,750.02686
"4509",79.42016,750.04004
"4510",79.30785,750.05347
"4511",79.20531,750.0669
"4512",79.11009,750.0801
"4513",79.02464,750.09326
"4514",78.95384,750.1067
"4515",78.89769,750.1201
"4516",78.85863,750.1333
"4517",78.83421,750.1465
"4518",78.81712,750.1599
"4519",78.80736,750.17334
"4520",78.802475,750.1865
"4521",78.80003,750.1997
"4522",78.79515,750.21313
"4523",78.79027,750.22656
"4524",78.785385,750.23975
"4525",78.77806,750.2529
"4526",78.7805,750.26636
"4527",78.78783,750.2798
"4528",78.79271,750.29297
"4529",78.79515,750.30615
"4530",78.79027,750.3196
"4531",78.77806,750.333
"4532",78.76097,750.3462
"4533",78.73899,750.3594
"4534",78.71946,750.3728
"4535",78.695045,750.3862
"4536",78.6804,750.3994
"4537",78.71702,750.4126
"4538",78.8806,750.426
"4539",79.24681,750.43945
"4540",79.84741,750.45264
"4541",80.655525,750.4658
"4542",81.57595,750.47925
"4543",82.46708,750.4927
"4544",83.18486,750.50586
"4545",83.64141,750.51904
"4546",83.82208,750.5325
"4547",83.75372,750.5459
"4548",83.49737,750.5591
"4549",83.12871,750.57227
"4550",82.7161,750.5857
"4551",82.31327,750.5991
"4552",81.969025,750.6123
"4553",81.7029,750.6255
"4554",81.51736,750.6389
"4555",81.38796,750.65234
"4556",81.290306,750.6655
"4557",81.19264,750.6787
"4558",81.07301,750.69214
"4559",80.93385,750.70557
"4560",80.78981,750.71875
"4561",80.66041,750.73193
"4562",80.56031,750.74536
"4563",80.49683,750.7588
"4564",80.462654,750.772
"4565",80.448006,750.78516
"4566",80.4358,750.7986
"4567",80.41627,750.812
"4568",80.37476,750.8252
"4569",80.31129,750.8384
"4570",80.22339,750.8518
"4571",80.12085,750.86523
"4572",79.99878,750.8784
"4573",79.869385,750.8916
"4574",79.73998,750.905
