"","ppg","time"
"1",78.746315,405.49072
"2",78.76341,405.5039
"3",78.7805,405.51758
"4",78.79759,405.53125
"5",78.84154,405.54443
"6",78.9514,405.55762
"7",79.1931,405.5713
"8",79.605705,405.58496
"9",80.18921,405.59814
"10",80.88991,405.61133
"11",81.60769,405.625
"12",82.24246,405.63867
"13",82.70634,405.65186
"14",82.967575,405.66504
"15",83.038376,405.6787
"16",82.96269,405.69238
"17",82.78447,405.70557
"18",82.55253,405.71875
"19",82.30595,405.73242
"20",82.074005,405.7461
"21",81.864044,405.75928
"22",81.685814,405.77246
"23",81.53689,405.78613
"24",81.409935,405.7998
"25",81.29275,405.813
"26",81.17311,405.82617
"27",81.03639,405.83984
"28",80.885025,405.85352
"29",80.72144,405.8667
"30",80.55787,405.87988
"31",80.40406,405.89355
"32",80.26978,405.90723
"33",80.15991,405.9204
"34",80.07202,405.9336
"35",80.00366,405.94727
"36",79.94995,405.96094
"37",79.903564,405.97412
"38",79.85718,405.9873
"39",79.81079,406.00098
"40",79.75464,406.01465
"41",79.691154,406.02783
"42",79.62035,406.04102
"43",79.54223,406.0547
"44",79.45678,406.06836
"45",79.36645,406.08154
"46",79.276115,406.09473
"47",79.18822,406.1084
"48",79.11253,406.12207
"49",79.046616,406.13525
"50",78.992905,406.14844
"51",78.94896,406.1621
"52",78.9099,406.17578
"53",78.870834,406.18896
"54",78.839096,406.20215
"55",78.81468,406.21582
"56",78.79759,406.2295
"57",78.785385,406.24268
"58",78.77562,406.25586
"59",78.76341,406.26953
"60",78.746315,406.2832
"61",78.729225,406.2964
"62",78.71946,406.30957
"63",78.71702,406.32324
"64",78.72434,406.3369
"65",78.73655,406.3501
"66",78.74876,406.36328
"67",78.76097,406.37695
"68",78.768295,406.39062
"69",78.768295,406.4038
"70",78.768295,406.417
"71",78.79759,406.43066
"72",78.905014,406.44434
"73",79.14427,406.45752
"74",79.55688,406.4707
"75",80.14038,406.48438
"76",80.84352,406.49805
"77",81.57351,406.51123
"78",82.210724,406.5244
"79",82.68192,406.5381
"80",82.950485,406.55176
"81",83.02861,406.56494
"82",82.95293,406.57812
"83",82.774704,406.5918
"84",82.54276,406.60547
"85",82.29374,406.61865
"86",82.056915,406.63184
"87",81.849396,406.6455
"88",81.67605,406.65918
"89",81.53445,406.67236
"90",81.40749,406.68555
"91",81.28054,406.69922
"92",81.143814,406.7129
"93",80.990005,406.72607
"94",80.82399,406.73926
"95",80.655525,406.75293
"96",80.48951,406.7666
"97",80.33814,406.7798
"98",80.21118,406.79297
"99",80.113525,406.80664
"100",80.042725,406.8203
"101",79.991455,406.8335
"102",79.957275,406.84668
"103",79.93042,406.86035
"104",79.8938,406.87402
"105",79.84497,406.8872
"106",79.783936,406.9004
"107",79.708244,406.91406
"108",79.61791,406.92773
"109",79.52758,406.94092
"110",79.43969,406.9541
"111",79.35424,406.96777
"112",79.273674,406.98145
"113",79.1931,406.99463
"114",79.11986,407.0078
"115",79.05394,407.02148
"116",78.99779,407.03516
"117",78.95384,407.04834
"118",78.91966,407.06152
"119",78.890366,407.0752
"120",78.86595,407.08887
"121",78.84642,407.10205
"122",78.82933,407.11523
"123",78.81712,407.1289
"124",78.80736,407.14258
"125",78.79759,407.15576
"126",78.785385,407.16895
"127",78.77318,407.18262
"128",78.76341,407.1963
"129",78.75853,407.20947
"130",78.75853,407.22266
"131",78.75853,407.23633
"132",78.76097,407.25
"133",78.76097,407.26318
"134",78.77074,407.27637
"135",78.819565,407.29004
"136",78.96849,407.3037
"137",79.26879,407.3169
"138",79.73754,407.33008
"139",80.35523,407.34375
"140",81.05104,407.35742
"141",81.71267,407.3706
"142",82.2449,407.3838
"143",82.58915,407.39746
"144",82.72587,407.41113
"145",82.69413,407.42432
"146",82.533,407.4375
"147",82.29862,407.45117
"148",82.03006,407.46484
"149",81.76639,407.47803
"150",81.52712,407.4912
"151",81.3196,407.50488
"152",81.146255,407.51855
"153",81.00221,407.53174
"154",80.867935,407.54492
"155",80.73121,407.5586
"156",80.58228,407.57227
"157",80.42359,407.58545
"158",80.257576,407.59863
"159",80.10132,407.6123
"160",79.96704,407.62598
"161",79.85962,407.63916
"162",79.783936,407.65234
"163",79.73266,407.66602
"164",79.69604,407.6797
"165",79.6643,407.69287
"166",79.62768,407.70605
"167",79.58373,407.71973
"168",79.5227,407.7334
"169",79.4519,407.74658
"170",79.37133,407.75977
"171",79.28588,407.77344
"172",79.19798,407.7871
"173",79.114975,407.8003
"174",79.03685,407.81348
"175",78.96605,407.82715
"176",78.89769,407.84082
"177",78.83421,407.854
"178",78.77562,407.8672
"179",78.7219,407.88086
"180",78.67307,407.89453
"181",78.63157,407.9077
"182",78.59251,407.9209
"183",78.555885,407.93457
"184",78.521706,407.94824
"185",78.485085,407.96143
"186",78.44602,407.9746
"187",78.4094,407.98828
"188",78.37522,408.00195
"189",78.345924,408.01514
"190",78.311745,408.02832
"191",78.26536,408.042
"192",78.18967,408.05566
"193",78.08469,408.06885
"194",77.9675,408.08203
"195",77.86984,408.0957
"196",77.84787,408.10938
"197",77.97238,408.12256
"198",78.28489,408.13574
"199",78.78294,408.1494
"200",79.41039,408.1631
"201",80.08667,408.17627
"202",80.71168,408.18945
"203",81.20241,408.20312
"204",81.51736,408.2168
"205",81.68337,408.22998
"206",81.74929,408.24316
"207",81.77371,408.25684
"208",81.778595,408.2705
"209",81.77127,408.2837
"210",81.74441,408.29688
"211",81.671165,408.31055
"212",81.54177,408.32422
"213",81.36355,408.3374
"214",81.160904,408.3506
"215",80.94118,408.36426
"216",80.71168,408.37793
"217",80.479744,408.3911
"218",80.25025,408.4043
"219",80.03052,408.41797
"220",79.83765,408.43164
"221",79.676506,408.44482
"222",79.55688,408.458
"223",79.47631,408.47168
"224",79.42748,408.48535
"225",79.395744,408.49854
"226",79.364006,408.51172
"227",79.30785,408.5254
"228",79.22972,408.53906
"229",79.132065,408.55225
"230",79.0222,408.56543
"231",78.91234,408.5791
"232",78.81712,408.59277
"233",78.73655,408.60596
"234",78.66575,408.61914
"235",78.60471,408.6328
"236",78.555885,408.64648
"237",78.51682,408.65967
"238",78.487526,408.67285
"239",78.46555,408.68652
"240",78.45579,408.7002
"241",78.45579,408.71338
"242",78.46311,408.72656
"243",78.4802,408.74023
"244",78.502174,408.7539
"245",78.53147,408.7671
"246",78.551,408.78027
"247",78.57053,408.79395
"248",78.58274,408.80762
"249",78.59495,408.8208
"250",78.60227,408.83398
"251",78.607155,408.84766
"252",78.6096,408.86133
"253",78.624245,408.8745
"254",78.68284,408.8877
"255",78.84886,408.90137
"256",79.17845,408.91504
"257",79.693596,408.92822
"258",80.365,408.9414
"259",81.12428,408.95508
"260",81.85916,408.96875
"261",82.47929,408.98193
"262",82.916306,408.99512
"263",83.158005,409.0088
"264",83.22148,409.02246
"265",83.15312,409.03564
"266",83.001755,409.04883
"267",82.80888,409.0625
"268",82.61112,409.07617
"269",82.43778,409.08936
"270",82.29862,409.10254
"271",82.18387,409.1162
"272",82.08377,409.12988
"273",81.98367,409.14307
"274",81.87869,409.15625
"275",81.75906,409.16992
"276",81.62966,409.1836
"277",81.50759,409.19678
"278",81.40505,409.20996
"279",81.341576,409.22363
"280",81.31716,409.2373
"281",81.31472,409.2505
"282",81.31716,409.26367
"283",81.304955,409.27734
"284",81.25613,409.29102
"285",81.17311,409.3042
"286",81.06813,409.31738
"287",80.9485,409.33105
"288",80.82155,409.34473
"289",80.68726,409.3579
"290",80.55787,409.3711
"291",80.430916,409.38477
"292",80.31129,409.39844
"293",80.2063,409.41162
"294",80.113525,409.4248
"295",80.03296,409.43848
"296",79.95972,409.45215
"297",79.89868,409.46533
"298",79.84497,409.47852
"299",79.798584,409.4922
"300",79.75952,409.50586
"301",79.72289,409.51904
"302",79.691154,409.53223
"303",79.6643,409.5459
"304",79.63744,409.55957
"305",79.59838,409.57275
"306",79.54955,409.58594
"307",79.49096,409.5996
"308",79.42748,409.61328
"309",79.38354,409.62646
"310",79.41039,409.63965
"311",79.55932,409.65332
"312",79.871826,409.667
"313",80.35035,409.68018
"314",80.95094,409.69336
"315",81.59792,409.70703
"316",82.18875,409.7207
"317",82.63798,409.7339
"318",82.9041,409.74707
"319",82.984665,409.76074
"320",82.899216,409.7744
"321",82.701454,409.7876
"322",82.43778,409.80078
"323",82.14725,409.81445
"324",81.8616,409.82812
"325",81.60525,409.8413
"326",81.38064,409.8545
"327",81.17555,409.86816
"328",80.98512,409.88184
"329",80.799576,409.89502
"330",80.621346,409.9082
"331",80.45289,409.92188
"332",80.30396,409.93555
"333",80.18921,409.94873
"334",80.11597,409.9619
"335",80.079346,409.9756
"336",80.07202,409.98926
"337",80.08667,410.00244
"338",80.10376,410.01562
"339",80.1062,410.0293
"340",80.08911,410.04297
"341",80.04761,410.05615
"342",79.97925,410.06934
"343",79.89136,410.083
"344",79.79126,410.09668
"345",79.67895,410.10986
"346",79.56176,410.12305
"347",79.44213,410.13672
"348",79.32983,410.1504
"349",79.22728,410.16357
"350",79.13451,410.17676
"351",79.05638,410.19043
"352",78.992905,410.2041
"353",78.94408,410.2173
"354",78.907455,410.23047
"355",78.8806,410.24414
"356",78.86595,410.2578
"357",78.853745,410.271
"358",78.84398,410.28418
"359",78.839096,410.29785
"360",78.8513,410.31152
"361",78.91234,410.3247
"362",79.063705,410.3379
"363",79.34936,410.35156
"364",79.781494,410.36523
"365",80.33082,410.37842
"366",80.93141,410.3916
"367",81.4905,410.40527
"368",81.92996,410.41895
"369",82.193634,410.43213
"370",82.28153,410.4453
"371",82.21805,410.45898
"372",82.04959,410.47266
"373",81.815216,410.48584
"374",81.56374,410.49902
"375",81.324486,410.5127
"376",81.112076,410.52637
"377",80.92897,410.53955
"378",80.77028,410.55273
"379",80.62867,410.5664
"380",80.49195,410.58008
"381",80.35279,410.59326
"382",80.218506,410.60645
"383",80.10376,410.62012
"384",80.01831,410.6338
"385",79.971924,410.64697
"386",79.971924,410.66016
"387",80.01099,410.67383
"388",80.062256,410.6875
"389",80.11841,410.70068
"390",80.15503,410.71387
"391",80.15991,410.72754
"392",80.1355,410.7412
"393",80.08667,410.7544
"394",80.02319,410.76758
"395",79.94995,410.78125
"396",79.87671,410.79492
"397",79.798584,410.8081
"398",79.72045,410.8213
"399",79.639885,410.83496
"400",79.56176,410.84863
"401",79.48608,410.86182
"402",79.40795,410.875
"403",79.33715,410.88867
"404",79.26391,410.90234
"405",79.200424,410.91553
"406",79.13939,410.9287
"407",79.08812,410.94238
"408",79.0515,410.95605
"409",79.0515,410.96924
"410",79.1223,410.98242
"411",79.31518,410.9961
"412",79.656975,411.00977
"413",80.1355,411.02295
"414",80.70435,411.03613
"415",81.28298,411.0498
"416",81.778595,411.06348
"417",82.13016,411.07666
"418",82.31327,411.08984
"419",82.340126,411.10352
"420",82.25468,411.1172
"421",82.1033,411.13037
"422",81.91531,411.14355
"423",81.722435,411.15723
"424",81.54665,411.1709
"425",81.3904,411.18408
"426",81.24635,411.19727
"427",81.10231,411.21094
"428",80.953384,411.2246
"429",80.79225,411.2378
"430",80.62379,411.25098
"431",80.45777,411.26465
"432",80.31373,411.27832
"433",80.20874,411.2915
"434",80.147705,411.3047
"435",80.13306,411.31836
"436",80.15015,411.33203
"437",80.184326,411.3452
"438",80.216064,411.3584
"439",80.22827,411.37207
"440",80.20874,411.38574
"441",80.15259,411.39893
"442",80.06714,411.4121
"443",79.96216,411.42578
"444",79.84985,411.43945
"445",79.73998,411.45264
"446",79.639885,411.46582
"447",79.554436,411.4795
"448",79.47631,411.49316
"449",79.40307,411.50635
"450",79.32983,411.51953
"451",79.25414,411.5332
"452",79.183334,411.54688
"453",79.080795,411.56006
"454",78.922104,411.57324
"455",78.71946,411.5869
"456",78.54124,411.6006
"457",78.47288,411.61377
"458",78.58274,411.62695
"459",78.91722,411.64062
"460",79.43969,411.6543
"461",80.05737,411.66748
"462",80.64088,411.68066
"463",81.11696,411.69434
"464",81.43923,411.708
"465",81.61013,411.7212
"466",81.64919,411.73438
"467",81.60525,411.74805
"468",81.5198,411.76172
"469",81.427025,411.7749
"470",81.34402,411.7881
"471",81.27322,411.80176
"472",81.197525,411.81543
"473",81.10231,411.8286
"474",80.9778,411.8418
"475",80.82399,411.85547
"476",80.65064,411.86914
"477",80.46754,411.88232
"478",80.29664,411.8955
"479",80.15503,411.90918
"480",80.0647,411.92285
"481",80.028076,411.93604
"482",80.04028,411.94922
"483",80.08667,411.9629
"484",80.14526,411.97656
"485",80.181885,411.98975
"486",80.181885,412.00293
"487",80.14038,412.0166
"488",80.05737,412.03027
"489",79.94507,412.04346
"490",79.815674,412.05664
"491",79.67895,412.0703
"492",79.54955,412.08398
"493",79.429924,412.09717
"494",79.32006,412.11035
"495",79.22484,412.12402
"496",79.14427,412.1377
"497",79.07347,412.15088
"498",79.00755,412.16406
"499",78.93675,412.17773
"500",78.86839,412.1914
"501",78.8098,412.2046
"502",78.79759,412.21777
"503",78.873276,412.23145
"504",79.09056,412.24512
"505",79.4641,412.2583
"506",79.9646,412.27148
"507",80.52369,412.28516
"508",81.06569,412.29883
"509",81.50271,412.312
"510",81.795685,412.3252
"511",81.94705,412.33887
"512",81.99344,412.35254
"513",81.96658,412.36572
"514",81.898224,412.3789
"515",81.80545,412.39258
"516",81.69314,412.40625
"517",81.55886,412.41943
"518",81.40505,412.43262
"519",81.234146,412.4463
"520",81.05348,412.45996
"521",80.86061,412.47314
"522",80.6482,412.48633
"523",80.41871,412.5
"524",80.181885,412.51367
"525",79.95972,412.52686
"526",79.77905,412.54004
"527",79.67162,412.5537
"528",79.64233,412.56738
"529",79.67895,412.58057
"530",79.74731,412.59375
"531",79.80835,412.60742
"532",79.82544,412.6211
"533",79.77661,412.63428
"534",79.6643,412.64746
"535",79.49828,412.66113
"536",79.29565,412.6748
"537",79.06615,412.688
"538",78.83177,412.70117
"539",78.6096,412.71484
"540",78.41184,412.72852
"541",78.24582,412.7417
"542",78.10666,412.75488
"543",77.994354,412.76855
"544",77.89914,412.78223
"545",77.803925,412.7954
"546",77.70382,412.8086
"547",77.5964,412.82227
"548",77.48165,412.83594
"549",77.36202,412.84912
"550",77.261925,412.8623
"551",77.23018,412.87598
"552",77.3254,412.88965
"553",77.591515,412.90283
"554",78.048065,412.91602
"555",78.66575,412.9297
"556",79.35668,412.94336
"557",80.02075,412.95654
"558",80.567635,412.96973
"559",80.94118,412.9834
"560",81.14137,412.99707
"561",81.20485,413.01025
"562",81.17555,413.02344
"563",81.109634,413.0371
"564",81.04616,413.05078
"565",81.004654,413.06396
"566",80.98024,413.07715
"567",80.96559,413.09082
"568",80.94362,413.1045
"569",80.88747,413.11768
"570",80.780045,413.13086
"571",80.618904,413.14453
"572",80.41871,413.1582
"573",80.2063,413.1714
"574",80.01831,413.18457
"575",79.87671,413.19824
"576",79.80347,413.2119
"577",79.78882,413.2251
"578",79.82544,413.23828
"579",79.88403,413.25195
"580",79.937744,413.26562
"581",79.96216,413.2788
"582",79.94751,413.292
"583",79.888916,413.30566
"584",79.79126,413.31934
"585",79.66918,413.33252
"586",79.534904,413.3457
"587",79.40063,413.35938
"588",79.27123,413.37305
"589",79.149155,413.38623
"590",79.046616,413.3994
"591",78.958725,413.4131
"592",78.88304,413.42676
"593",78.82201,413.43994
"594",78.768295,413.45312
"595",78.7219,413.4668
"596",78.68284,413.48047
"597",78.6511,413.49365
"598",78.624245,413.50684
"599",78.61204,413.5205
"600",78.607155,413.53418
"601",78.59739,413.54736
"602",78.58274,413.56055
"603",78.55833,413.57422
"604",78.519264,413.5879
"605",78.47288,413.60107
"606",78.42649,413.61426
"607",78.40696,413.62793
"608",78.44846,413.6416
"609",78.59495,413.6548
"610",78.88304,413.66797
"611",79.33471,413.68164
"612",79.92798,413.6953
"613",80.59449,413.7085
"614",81.248795,413.72168
"615",81.79813,413.73535
"616",82.18875,413.74902
"617",82.41093,413.7622
"618",82.48905,413.7754
"619",82.4744,413.78906
"620",82.41093,413.80273
"621",82.340126,413.81592
"622",82.27421,413.8291
"623",82.21805,413.84277
"624",82.161896,413.85645
"625",82.10086,413.86963
"626",82.020294,413.8828
"627",81.89578,413.89648
"628",81.722435,413.91016
"629",81.50515,413.92334
"630",81.25613,413.93652
"631",80.99733,413.9502
"632",80.75807,413.96387
"633",80.567635,413.97705
"634",80.428474,413.99023
"635",80.34547,414.0039
"636",80.29908,414.01758
"637",80.27955,414.03076
"638",80.255135,414.04395
"639",80.218506,414.05762
"640",80.15259,414.0713
"641",80.05737,414.08447
"642",79.93042,414.09766
"643",79.78882,414.11133
"644",79.635,414.125
"645",79.47631,414.13818
"646",79.32494,414.15137
"647",79.183334,414.16504
"648",79.046616,414.1787
"649",78.924545,414.1919
"650",78.81712,414.20508
"651",78.71946,414.21875
"652",78.63401,414.23242
"653",78.555885,414.2456
"654",78.487526,414.2588
"655",78.42649,414.27246
"656",78.37278,414.28613
"657",78.32639,414.29932
"658",78.28489,414.3125
"659",78.24582,414.32617
"660",78.2092,414.33984
"661",78.17502,414.35303
"662",78.1384,414.3662
"663",78.101776,414.37988
"664",78.065155,414.39355
"665",78.028534,414.40674
"666",77.98459,414.41992
"667",77.9382,414.4336
"668",77.88937,414.44727
"669",77.86008,414.46045
"670",77.89426,414.47363
"671",78.04074,414.4873
"672",78.3386,414.50098
"673",78.78294,414.51416
"674",79.32494,414.52734
"675",79.87671,414.54102
"676",80.34791,414.5547
"677",80.66285,414.56787
"678",80.80202,414.58105
"679",80.78737,414.59473
"680",80.66529,414.6084
"681",80.49439,414.62158
"682",80.32838,414.63477
"683",80.19653,414.64844
"684",80.11597,414.6621
"685",80.08179,414.6753
"686",80.07446,414.68848
"687",80.06714,414.70215
"688",80.03784,414.71582
"689",79.96216,414.729
"690",79.84009,414.7422
"691",79.67162,414.75586
"692",79.47875,414.76953
"693",79.290764,414.7827
"694",79.132065,414.7959
"695",79.01732,414.80957
"696",78.94652,414.82324
"697",78.91478,414.83643
"698",78.90257,414.8496
"699",78.890366,414.86328
"700",78.86595,414.87695
"701",78.82933,414.89014
"702",78.77318,414.90332
"703",78.69993,414.917
"704",78.61204,414.93066
"705",78.51194,414.94385
"706",78.4094,414.95703
"707",78.3093,414.9707
"708",78.21896,414.98438
"709",78.14328,414.99756
"710",78.0798,415.01074
"711",78.030975,415.0244
"712",77.994354,415.0381
"713",77.9675,415.05127
"714",77.95041,415.06445
"715",77.94797,415.07812
"716",77.95285,415.0918
"717",77.96506,415.10498
"718",77.98947,415.11816
"719",78.01633,415.13184
"720",78.04562,415.1455
"721",78.07492,415.1587
"722",78.101776,415.17188
"723",78.13107,415.18555
"724",78.153046,415.19922
"725",78.17502,415.2124
"726",78.19943,415.2256
"727",78.21896,415.23926
"728",78.23361,415.25293
"729",78.24826,415.2661
"730",78.260475,415.2793
"731",78.29954,415.29297
"732",78.40696,415.30664
"733",78.660866,415.31982
"734",79.12474,415.333
"735",79.818115,415.34668
"736",80.69215,415.36035
"737",81.64431,415.37354
"738",82.53788,415.38672
"739",83.25811,415.4004
"740",83.74395,415.41406
"741",84.000305,415.42725
"742",84.08087,415.44043
"743",84.04669,415.4541
"744",83.95636,415.46777
"745",83.85382,415.48096
"746",83.758606,415.49414
"747",83.682915,415.5078
"748",83.612114,415.52148
"749",83.53155,415.53467
"750",83.42657,415.54785
"751",83.282524,415.56152
"752",83.08476,415.5752
"753",82.83818,415.58838
"754",82.55985,415.60156
"755",82.27421,415.61523
"756",82.003204,415.6289
"757",81.76883,415.6421
"758",81.583275,415.65527
"759",81.43679,415.66895
"760",81.322044,415.68262
"761",81.2195,415.6958
"762",81.11452,415.70898
"763",80.99977,415.72266
"764",80.86305,415.73633
"765",80.70191,415.7495
"766",80.52613,415.7627
"767",80.34547,415.77637
"768",80.164795,415.79004
"769",79.99634,415.80322
"770",79.84009,415.8164
"771",79.693596,415.83008
"772",79.55688,415.84375
"773",79.432365,415.85693
"774",79.31518,415.87012
"775",79.21019,415.8838
"776",79.11742,415.89746
"777",79.03441,415.91064
"778",78.958725,415.92383
"779",78.88548,415.9375
"780",78.81468,415.95117
"781",78.74876,415.96436
"782",78.692604,415.97754
"783",78.641335,415.9912
"784",78.59251,416.00488
"785",78.54612,416.01807
"786",78.49729,416.03125
"787",78.44114,416.04492
"788",78.38743,416.0586
"789",78.34348,416.07178
"790",78.3093,416.08496
"791",78.29221,416.09863
"792",78.28977,416.1123
"793",78.294655,416.1255
"794",78.30686,416.13867
"795",78.33372,416.15234
"796",78.397194,416.16602
"797",78.54856,416.1792
"798",78.83421,416.19238
"799",79.290764,416.20605
"800",79.90845,416.21973
"801",80.638435,416.2329
"802",81.356224,416.2461
"803",81.92996,416.25977
"804",82.27909,416.27344
"805",82.408485,416.28662
"806",82.36454,416.2998
"807",82.22781,416.31348
"808",82.08377,416.32715
"809",81.98123,416.34033
"810",81.91531,416.35352
"811",81.866486,416.3672
"812",81.82742,416.38086
"813",81.78836,416.39404
"814",81.74197,416.40723
"815",81.67361,416.4209
"816",81.57107,416.43457
"817",81.42214,416.44775
"818",81.22926,416.46094
"819",80.99977,416.4746
"820",80.75319,416.48828
"821",80.516365,416.50146
"822",80.31617,416.51465
"823",80.15747,416.52832
"824",80.05005,416.542
"825",79.98413,416.55518
"826",79.94507,416.56836
"827",79.91333,416.58203
"828",79.87427,416.5957
"829",79.815674,416.6089
"830",79.73266,416.62207
"831",79.635,416.63574
"832",79.5227,416.6494
"833",79.412834,416.6626
"834",79.31274,416.67578
"835",79.2224,416.68945
"836",79.14183,416.70312
"837",79.07591,416.7163
"838",79.01976,416.7295
"839",78.97826,416.74316
"840",78.94896,416.75684
"841",78.92943,416.77002
"842",78.922104,416.7832
"843",78.922104,416.79688
"844",78.92699,416.81055
"845",78.92943,416.82373
"846",78.93187,416.8369
"847",78.92943,416.8506
"848",78.922104,416.86426
"849",78.9099,416.87744
"850",78.89525,416.89062
"851",78.8806,416.9043
"852",78.86351,416.91797
"853",78.836655,416.93115
"854",78.80492,416.94434
"855",78.77318,416.958
"856",78.74387,416.97168
"857",78.71702,416.98486
"858",78.695045,416.99805
"859",78.67307,417.01172
"860",78.65598,417.0254
"861",78.64622,417.03857
"862",78.660866,417.05176
"863",78.746315,417.06543
"864",78.95384,417.0791
"865",79.32006,417.0923
"866",79.84497,417.10547
"867",80.479744,417.11914
"868",81.143814,417.1328
"869",81.7322,417.146
"870",82.16678,417.15918
"871",82.41581,417.17285
"872",82.49882,417.18652
"873",82.459755,417.1997
"874",82.35233,417.2129
"875",82.21805,417.22656
"876",82.08865,417.24023
"877",81.988556,417.25342
"878",81.90799,417.2666
"879",81.846954,417.28027
"880",81.78592,417.29395
"881",81.71023,417.30713
"882",81.600365,417.3203
"883",81.45144,417.33398
"884",81.26101,417.34766
"885",81.0486,417.36084
"886",80.8362,417.37402
"887",80.64088,417.3877
"888",80.482185,417.40137
"889",80.36744,417.41455
"890",80.291756,417.42773
"891",80.2478,417.4414
"892",80.22095,417.45508
"893",80.19409,417.46826
"894",80.15991,417.48145
"895",80.1062,417.49512
"896",80.025635,417.5088
"897",79.93042,417.52197
"898",79.823,417.53516
"899",79.70336,417.54883
"900",79.58129,417.5625
"901",79.4641,417.57568
"902",79.35424,417.58887
"903",79.25414,417.60254
"904",79.168686,417.6162
"905",79.097885,417.6294
"906",79.03685,417.64258
"907",78.98558,417.65625
"908",78.93675,417.66992
"909",78.89281,417.6831
"910",78.8513,417.6963
"911",78.81224,417.70996
"912",78.77562,417.72363
"913",78.746315,417.73682
"914",78.71702,417.75
"915",78.68772,417.76367
"916",78.660866,417.77734
"917",78.63401,417.79053
"918",78.61204,417.8037
"919",78.59251,417.81738
"920",78.58274,417.83105
"921",78.58518,417.84424
"922",78.590065,417.85742
"923",78.59495,417.8711
"924",78.59739,417.88477
"925",78.59495,417.89795
"926",78.58518,417.91113
"927",78.572975,417.9248
"928",78.572975,417.93848
"929",78.61692,417.95166
"930",78.75365,417.96484
"931",79.03441,417.97852
"932",79.47875,417.9922
"933",80.07202,418.00537
"934",80.74586,418.01855
"935",81.41238,418.03223
"936",81.96414,418.0459
"937",82.34989,418.05908
"938",82.547646,418.07227
"939",82.58671,418.08594
"940",82.5037,418.0996
"941",82.3621,418.1128
"942",82.20096,418.12598
"943",82.04959,418.13965
"944",81.9202,418.15332
"945",81.815216,418.1665
"946",81.72976,418.1797
"947",81.651634,418.19336
"948",81.566185,418.20703
"949",81.45632,418.2202
"950",81.30984,418.2334
"951",81.126724,418.24707
"952",80.91676,418.26074
"953",80.70191,418.27393
"954",80.5066,418.2871
"955",80.35035,418.30078
"956",80.23804,418.31445
"957",80.17212,418.32764
"958",80.13794,418.34082
"959",80.11841,418.3545
"960",80.10132,418.36816
"961",80.0647,418.38135
"962",80.008545,418.39453
"963",79.92798,418.4082
"964",79.82788,418.42188
"965",79.710686,418.43506
"966",79.59594,418.44824
"967",79.48119,418.4619
"968",79.37377,418.4756
"969",79.26879,418.48877
"970",79.17357,418.50195
"971",79.08324,418.51562
"972",79.00023,418.5293
"973",78.922104,418.54248
"974",78.86107,418.55566
"975",78.81224,418.56934
"976",78.768295,418.583
"977",78.729225,418.5962
"978",78.695045,418.60938
"979",78.66331,418.62305
"980",78.63157,418.63672
"981",78.6096,418.6499
"982",78.59739,418.6631
"983",78.590065,418.67676
"984",78.58762,418.69043
"985",78.590065,418.7036
"986",78.59495,418.7168
"987",78.59983,418.73047
"988",78.60471,418.74414
"989",78.61204,418.75732
"990",78.61936,418.7705
"991",78.6218,418.78418
"992",78.624245,418.79785
"993",78.624245,418.81104
"994",78.61936,418.82422
"995",78.626686,418.8379
"996",78.68528,418.85156
"997",78.8513,418.86475
"998",79.17845,418.87793
"999",79.68139,418.8916
"1000",80.32838,418.90527
"1001",81.03395,418.91846
"1002",81.70046,418.93164
"1003",82.230255,418.9453
"1004",82.581825,418.95898
"1005",82.75029,418.97217
"1006",82.76982,418.98535
"1007",82.684364,418.99902
"1008",82.547646,419.0127
"1009",82.388954,419.02588
"1010",82.23758,419.03906
"1011",82.108185,419.05273
"1012",82.00809,419.0664
"1013",81.92996,419.0796
"1014",81.864044,419.09277
"1015",81.78836,419.10645
"1016",81.688255,419.12012
"1017",81.55154,419.1333
"1018",81.373314,419.14648
"1019",81.16579,419.16016
"1020",80.9485,419.17383
"1021",80.743416,419.187
"1022",80.567635,419.2002
"1023",80.43336,419.21387
"1024",80.33326,419.22754
"1025",80.26246,419.24072
"1026",80.20874,419.2539
"1027",80.15503,419.26758
"1028",80.093994,419.28125
"1029",80.02319,419.29443
"1030",79.937744,419.30762
"1031",79.83765,419.3213
"1032",79.73022,419.33496
"1033",79.622795,419.34814
"1034",79.51293,419.36133
"1035",79.40551,419.375
"1036",79.30541,419.38867
"1037",79.21263,419.40186
"1038",79.13451,419.41504
"1039",79.063705,419.4287
"1040",79.00267,419.44238
"1041",78.94408,419.45557
"1042",78.89281,419.46875
"1043",78.84642,419.48242
"1044",78.81224,419.4961
"1045",78.77318,419.50928
"1046",78.709694,419.52246
"1047",78.59983,419.53613
"1048",78.45335,419.5498
"1049",78.29221,419.563
"1050",78.14328,419.57617
"1051",78.03342,419.58984
"1052",77.977264,419.60352
"1053",77.9675,419.6167
"1054",77.977264,419.62988
"1055",77.99191,419.64355
"1056",78.00656,419.65723
"1057",78.028534,419.6704
"1058",78.05051,419.6836
"1059",78.07736,419.69727
"1060",78.10422,419.71094
"1061",78.12619,419.72412
"1062",78.14328,419.7373
"1063",78.16281,419.75098
"1064",78.19699,419.76465
"1065",78.28977,419.77783
"1066",78.49241,419.79102
"1067",78.856186,419.8047
"1068",79.398186,419.81836
"1069",80.079346,419.83154
"1070",80.816666,419.84473
"1071",81.50759,419.8584
"1072",82.054474,419.87207
"1073",82.39872,419.88525
"1074",82.54032,419.89844
"1075",82.51591,419.9121
"1076",82.37675,419.92578
"1077",82.176544,419.93896
"1078",81.96414,419.95215
"1079",81.77127,419.96582
"1080",81.617455,419.9795
"1081",81.50759,419.99268
"1082",81.42947,420.00586
"1083",81.36111,420.01953
"1084",81.28054,420.0332
"1085",81.17311,420.0464
"1086",81.02907,420.05957
"1087",80.850845,420.07324
"1088",80.64576,420.0869
"1089",80.428474,420.1001
"1090",80.216064,420.11328
"1091",80.02319,420.12695
"1092",79.869385,420.14062
"1093",79.75952,420.1538
"1094",79.691154,420.167
"1095",79.656975,420.18066
"1096",79.639885,420.19434
"1097",79.62035,420.20752
"1098",79.57885,420.2207
"1099",79.50805,420.23438
"1100",79.40063,420.24805
"1101",79.26391,420.26123
"1102",79.10765,420.2744
"1103",78.9514,420.2881
"1104",78.802475,420.30176
"1105",78.6804,420.31494
"1106",78.58274,420.32812
"1107",78.51682,420.3418
"1108",78.47288,420.35547
"1109",78.44602,420.36865
"1110",78.43137,420.38184
"1111",78.42649,420.3955
"1112",78.42893,420.40918
"1113",78.43626,420.42236
"1114",78.44114,420.43555
"1115",78.44602,420.44922
"1116",78.44602,420.4629
"1117",78.44358,420.47607
"1118",78.4387,420.48926
"1119",78.4387,420.50293
"1120",78.44114,420.5166
"1121",78.44846,420.5298
"1122",78.46311,420.54297
"1123",78.4802,420.55664
"1124",78.504616,420.5703
"1125",78.53391,420.5835
"1126",78.56565,420.59668
"1127",78.59251,420.61035
"1128",78.61936,420.62402
"1129",78.64622,420.6372
"1130",78.67063,420.6504
"1131",78.70725,420.66406
"1132",78.79027,420.67773
"1133",78.97093,420.69092
"1134",79.30297,420.7041
"1135",79.81079,420.71777
"1136",80.46998,420.73145
"1137",81.20729,420.74463
"1138",81.91531,420.7578
"1139",82.496376,420.77148
"1140",82.879684,420.78516
"1141",83.06035,420.79834
"1142",83.06279,420.81152
"1143",82.93584,420.8252
"1144",82.73075,420.83887
"1145",82.50126,420.85205
"1146",82.27909,420.86523
"1147",82.08377,420.8789
"1148",81.92264,420.89258
"1149",81.80057,420.90576
"1150",81.6907,420.91895
"1151",81.58083,420.93262
"1152",81.45144,420.9463
"1153",81.29275,420.95947
"1154",81.10231,420.97266
"1155",80.89967,420.98633
"1156",80.69947,421
"1157",80.516365,421.01318
"1158",80.36256,421.02637
"1159",80.24536,421.04004
"1160",80.15503,421.0537
"1161",80.09155,421.0669
"1162",80.042725,421.08008
"1163",79.99634,421.09375
"1164",79.937744,421.10742
"1165",79.86206,421.1206
"1166",79.766846,421.1338
"1167",79.64965,421.14746
"1168",79.50561,421.16113
"1169",79.33471,421.17432
"1170",79.151596,421.1875
"1171",78.96361,421.20117
"1172",78.78294,421.21484
"1173",78.61936,421.22803
"1174",78.4802,421.2412
"1175",78.35569,421.25488
"1176",78.24826,421.26855
"1177",78.153046,421.28174
"1178",78.07736,421.29492
"1179",78.01633,421.3086
"1180",77.96994,421.32227
"1181",77.93088,421.33545
"1182",77.8967,421.34863
"1183",77.86496,421.3623
"1184",77.83566,421.37598
"1185",77.81613,421.38916
"1186",77.79904,421.40234
"1187",77.78195,421.41602
"1188",77.769745,421.4297
"1189",77.76242,421.44287
"1190",77.76242,421.45605
"1191",77.7673,421.46973
"1192",77.78195,421.4834
"1193",77.80148,421.49658
"1194",77.81857,421.50977
"1195",77.83322,421.52344
"1196",77.86252,421.5371
"1197",77.95041,421.5503
"1198",78.167694,421.56348
"1199",78.56565,421.57715
"1200",79.166245,421.59082
"1201",79.93042,421.604
"1202",80.76051,421.6172
"1203",81.53445,421.63086
"1204",82.14725,421.64453
"1205",82.53788,421.6577
"1206",82.71122,421.6709
"1207",82.703896,421.68457
"1208",82.56962,421.69824
"1209",82.36454,421.71143
"1210",82.1326,421.7246
"1211",81.90555,421.73828
"1212",81.69314,421.75195
"1213",81.512474,421.76514
"1214",81.35378,421.77832
"1215",81.21217,421.792
"1216",81.07301,421.80566
"1217",80.92409,421.81885
"1218",80.75807,421.83203
"1219",80.6067,421.8457
"1220",80.50904,421.85938
"1221",80.47486,421.87256
"1222",80.516365,421.88574
"1223",80.638435,421.8994
"1224",80.79469,421.9131
"1225",80.90456,421.92627
"1226",80.91188,421.93945
"1227",80.82155,421.95312
"1228",80.64088,421.9668
"1229",80.413826,421.97998
"1230",80.19653,421.99316
"1231",80.028076,422.00684
"1232",79.90845,422.0205
"1233",79.82056,422.0337
"1234",79.74975,422.04688
"1235",79.68871,422.06055
"1236",79.639885,422.07422
"1237",79.60082,422.0874
"1238",79.55932,422.1006
"1239",79.51293,422.11426
"1240",79.45434,422.12793
"1241",79.3933,422.1411
"1242",79.33715,422.1543
"1243",79.293205,422.16797
"1244",79.259026,422.18164
"1245",79.22972,422.19482
"1246",79.185776,422.208
"1247",79.12474,422.22168
"1248",79.05394,422.23535
"1249",78.9807,422.24854
"1250",78.9099,422.26172
"1251",78.84886,422.2754
"1252",78.79759,422.28906
"1253",78.746315,422.30225
"1254",78.692604,422.31543
"1255",78.643776,422.3291
"1256",78.60471,422.34277
"1257",78.572975,422.35596
"1258",78.56565,422.36914
"1259",78.6218,422.3828
"1260",78.80736,422.39648
"1261",79.17357,422.40967
"1262",79.7351,422.42285
"1263",80.45045,422.43652
"1264",81.22682,422.4502
"1265",81.94217,422.46338
"1266",82.49149,422.47656
"1267",82.82109,422.49023
"1268",82.93584,422.5039
"1269",82.8748,422.5171
"1270",82.69413,422.53027
"1271",82.44755,422.54395
"1272",82.1741,422.55762
"1273",81.91043,422.5708
"1274",81.67361,422.58398
"1275",81.478294,422.59766
"1276",81.3196,422.61133
"1277",81.18288,422.6245
"1278",81.05348,422.6377
"1279",80.90944,422.65137
"1280",80.75563,422.66504
"1281",80.58961,422.67822
"1282",80.42603,422.6914
"1283",80.28199,422.70508
"1284",80.16968,422.71875
"1285",80.09888,422.73193
"1286",80.0647,422.74512
"1287",80.05493,422.7588
"1288",80.059814,422.77246
"1289",80.0647,422.78564
"1290",80.04761,422.79883
"1291",80.00366,422.8125
"1292",79.937744,422.82617
"1293",79.85474,422.83936
"1294",79.76196,422.85254
"1295",79.66186,422.8662
"1296",79.56176,422.87988
"1297",79.46899,422.89307
"1298",79.38354,422.90625
"1299",79.30297,422.91992
"1300",79.22972,422.9336
"1301",79.166245,422.94678
"1302",79.11009,422.95996
"1303",79.05638,422.97363
"1304",79.00755,422.9873
"1305",78.96849,423.0005
"1306",78.93187,423.01367
"1307",78.89769,423.02734
"1308",78.86107,423.04102
"1309",78.82933,423.0542
"1310",78.79759,423.06738
"1311",78.76341,423.08105
"1312",78.729225,423.09473
"1313",78.692604,423.1079
"1314",78.64866,423.1211
"1315",78.59739,423.13477
"1316",78.553444,423.14844
"1317",78.536354,423.16162
"1318",78.58762,423.1748
"1319",78.77318,423.18848
"1320",79.14671,423.20215
"1321",79.72045,423.21533
"1322",80.465096,423.22852
"1323",81.287865,423.2422
"1324",82.07645,423.25586
"1325",82.720985,423.26904
"1326",83.15068,423.28223
"1327",83.346,423.2959
"1328",83.34356,423.30957
"1329",83.1873,423.32275
"1330",82.933395,423.33594
"1331",82.633095,423.3496
"1332",82.33524,423.36328
"1333",82.0618,423.37646
"1334",81.8201,423.38965
"1335",81.61501,423.40332
"1336",81.42947,423.417
"1337",81.25124,423.43018
"1338",81.06569,423.44336
"1339",80.87282,423.45703
"1340",80.67994,423.4707
"1341",80.50172,423.4839
"1342",80.34791,423.49707
"1343",80.23071,423.51074
"1344",80.147705,423.5244
"1345",80.096436,423.5376
"1346",80.06714,423.55078
"1347",80.04761,423.56445
"1348",80.02319,423.57812
"1349",79.98657,423.5913
"1350",79.9353,423.6045
"1351",79.871826,423.61816
"1352",79.79126,423.63184
"1353",79.69848,423.64502
"1354",79.603264,423.6582
"1355",79.50805,423.67188
"1356",79.412834,423.68555
"1357",79.32983,423.69873
"1358",79.256584,423.7119
"1359",79.200424,423.7256
"1360",79.149155,423.73926
"1361",79.10765,423.75244
"1362",79.07347,423.76562
"1363",79.03929,423.7793
"1364",79.012436,423.79297
"1365",78.99046,423.80615
"1366",78.97826,423.81934
"1367",78.96849,423.833
"1368",78.96849,423.84668
"1369",78.97093,423.85986
"1370",78.975815,423.87305
"1371",78.9807,423.88672
"1372",78.98558,423.9004
"1373",78.99046,423.91357
"1374",79.00023,423.92676
"1375",79.03685,423.94043
"1376",79.14671,423.9541
"1377",79.39086,423.9673
"1378",79.81079,423.98047
"1379",80.4065,423.99414
"1380",81.129166,424.0078
"1381",81.881134,424.021
"1382",82.55009,424.03418
"1383",83.05058,424.04785
"1384",83.34112,424.06152
"1385",83.438774,424.0747
"1386",83.387505,424.0879
"1387",83.23857,424.10156
"1388",83.04082,424.11523
"1389",82.8333,424.12842
"1390",82.63798,424.1416
"1391",82.45731,424.15527
"1392",82.29374,424.16895
"1393",82.13748,424.18213
"1394",81.98123,424.1953
"1395",81.80789,424.20898
"1396",81.617455,424.22266
"1397",81.41726,424.23584
"1398",81.21706,424.24902
"1399",81.03151,424.2627
"1400",80.87526,424.27637
"1401",80.75563,424.28955
"1402",80.66529,424.30273
"1403",80.6067,424.3164
"1404",80.56275,424.33008
"1405",80.52857,424.34326
"1406",80.49195,424.35645
"1407",80.45045,424.37012
"1408",80.39185,424.3838
"1409",80.32105,424.39697
"1410",80.24048,424.41016
"1411",80.15015,424.42383
"1412",80.05737,424.4375
"1413",79.96948,424.45068
"1414",79.888916,424.46387
"1415",79.823,424.47754
"1416",79.76929,424.4912
"1417",79.73022,424.5044
"1418",79.70092,424.51758
"1419",79.68383,424.53125
"1420",79.67162,424.54492
"1421",79.66186,424.5581
"1422",79.656975,424.5713
"1423",79.65453,424.58496
"1424",79.656975,424.59863
"1425",79.65453,424.61182
"1426",79.64965,424.625
"1427",79.63744,424.63867
"1428",79.61303,424.65234
"1429",79.57885,424.66553
"1430",79.54955,424.6787
"1431",79.51293,424.69238
"1432",79.47631,424.70605
"1433",79.49096,424.71924
"1434",79.622795,424.73242
"1435",79.920654,424.7461
"1436",80.38209,424.75977
"1437",80.96559,424.77295
"1438",81.58083,424.78613
"1439",82.11063,424.7998
"1440",82.47196,424.81348
"1441",82.64774,424.82666
"1442",82.65507,424.83984
"1443",82.53788,424.85352
"1444",82.33524,424.8672
"1445",82.09598,424.88037
"1446",81.849396,424.89355
"1447",81.62722,424.90723
"1448",81.43679,424.9209
"1449",81.27566,424.93408
"1450",81.13405,424.94727
"1451",81.007095,424.96094
"1452",80.8777,424.9746
"1453",80.740974,424.9878
"1454",80.6067,425.00098
"1455",80.48951,425.01465
"1456",80.396736,425.02832
"1457",80.33814,425.0415
"1458",80.31129,425.0547
"1459",80.30152,425.06836
"1460",80.2942,425.08203
"1461",80.27711,425.0952
"1462",80.24048,425.1084
"1463",80.177,425.12207
"1464",80.08667,425.13574
"1465",79.98413,425.14893
"1466",79.869385,425.1621
"1467",79.7522,425.17578
"1468",79.635,425.18945
"1469",79.520256,425.20264
"1470",79.40307,425.21582
"1471",79.290764,425.2295
"1472",79.18822,425.24316
"1473",79.097885,425.25635
"1474",79.029526,425.26953
"1475",78.975815,425.2832
"1476",78.93675,425.29688
"1477",78.90257,425.31006
"1478",78.870834,425.32324
"1479",78.836655,425.3369
"1480",78.802475,425.3506
"1481",78.76097,425.36377
"1482",78.71702,425.37695
"1483",78.692604,425.39062
"1484",78.71946,425.4043
"1485",78.84154,425.41748
"1486",79.10521,425.43066
"1487",79.51537,425.44434
"1488",80.04761,425.458
"1489",80.63111,425.4712
"1490",81.17555,425.48438
"1491",81.600365,425.49805
"1492",81.85916,425.51172
"1493",81.94217,425.5249
"1494",81.87869,425.5381
"1495",81.71023,425.55176
"1496",81.48562,425.56543
"1497",81.24635,425.5786
"1498",81.024185,425.5918
"1499",80.82887,425.60547
"1500",80.65797,425.61914
"1501",80.50416,425.63232
"1502",80.35279,425.6455
"1503",80.201416,425.65918
"1504",80.04761,425.67285
"1505",79.903564,425.68604
"1506",79.78882,425.69922
"1507",79.708244,425.7129
"1508",79.674065,425.72656
"1509",79.67895,425.73975
"1510",79.710686,425.75293
"1511",79.74975,425.7666
"1512",79.77417,425.78027
"1513",79.766846,425.79346
"1514",79.72289,425.80664
"1515",79.64477,425.8203
"1516",79.53979,425.83398
"1517",79.4226,425.84717
"1518",79.30541,425.86035
"1519",79.19798,425.87402
"1520",79.10765,425.8877
"1521",79.029526,425.90088
"1522",78.96361,425.91406
"1523",78.9099,425.92773
"1524",78.86351,425.9414
"1525",78.819565,425.9546
"1526",78.77806,425.96777
"1527",78.74387,425.98145
"1528",78.709694,425.99512
"1529",78.677956,426.0083
"1530",78.643776,426.02148
"1531",78.62913,426.03516
"1532",78.65354,426.04883
"1533",78.77074,426.062
"1534",79.01488,426.0752
"1535",79.41039,426.08887
"1536",79.92798,426.10254
"1537",80.50904,426.11572
"1538",81.07301,426.1289
"1539",81.532005,426.14258
"1540",81.84207,426.15625
"1541",81.986115,426.16943
"1542",81.99344,426.18262
"1543",81.8909,426.1963
"1544",81.72732,426.20996
"1545",81.53689,426.22314
"1546",81.34646,426.23633
"1547",81.17311,426.25
"1548",81.024185,426.26367
"1549",80.89235,426.27686
"1550",80.765396,426.29004
"1551",80.635994,426.3037
"1552",80.49683,426.31738
"1553",80.35523,426.33057
"1554",80.22095,426.34375
"1555",80.11597,426.35742
"1556",80.045166,426.3711
"1557",80.01831,426.38428
"1558",80.03052,426.39746
"1559",80.06958,426.41113
"1560",80.111084,426.4248
"1561",80.14038,426.438
"1562",80.14282,426.45117
"1563",80.111084,426.46484
"1564",80.045166,426.47852
"1565",79.95239,426.4917
"1566",79.84497,426.50488
"1567",79.727776,426.51855
"1568",79.60815,426.53223
"1569",79.49584,426.5454
"1570",79.395744,426.5586
"1571",79.30053,426.57227
"1572",79.21507,426.58594
"1573",79.13451,426.59912
"1574",79.05882,426.6123
"1575",78.98802,426.62598
"1576",78.92943,426.63965
"1577",78.88304,426.65283
"1578",78.86839,426.66602
"1579",78.92699,426.6797
"1580",79.09544,426.69336
"1581",79.40795,426.70654
"1582",79.869385,426.71973
"1583",80.4358,426.7334
"1584",81.03395,426.74707
"1585",81.56863,426.76025
"1586",81.97879,426.77344
"1587",82.2327,426.7871
"1588",82.337685,426.80078
"1589",82.32792,426.81396
"1590",82.24002,426.82715
"1591",82.11551,426.84082
"1592",81.97635,426.8545
"1593",81.83475,426.86768
"1594",81.69558,426.88086
"1595",81.55886,426.89453
"1596",81.40749,426.9082
"1597",81.24391,426.9214
"1598",81.03151,426.93457
"1599",80.743416,426.94824
"1600",80.40406,426.9619
"1601",80.059814,426.9751
"1602",79.7522,426.98828
"1603",79.52514,427.00195
"1604",79.412834,427.01562
"1605",79.40063,427.0288
"1606",79.43481,427.042
"1607",79.47143,427.05566
"1608",79.483635,427.06934
"1609",79.4641,427.08252
"1610",79.40795,427.0957
"1611",79.32006,427.10938
"1612",79.217514,427.12305
"1613",79.11009,427.13623
"1614",79.00511,427.1494
"1615",78.90013,427.1631
"1616",78.80736,427.17676
"1617",78.72678,427.18994
"1618",78.65354,427.20312
"1619",78.59251,427.2168
"1620",78.538795,427.23047
"1621",78.49241,427.24365
"1622",78.44846,427.25684
"1623",78.42161,427.2705
"1624",78.43626,427.28418
"1625",78.538795,427.29736
"1626",78.768295,427.31055
"1627",79.149155,427.32422
"1628",79.6643,427.3379
"1629",80.25269,427.35107
"1630",80.8362,427.36426
"1631",81.33181,427.37793
"1632",81.685814,427.3916
"1633",81.87625,427.4048
"1634",81.9324,427.41797
"1635",81.89334,427.43164
"1636",81.7908,427.4453
"1637",81.66384,427.4585
"1638",81.532005,427.47168
"1639",81.40261,427.48535
"1640",81.2781,427.49902
"1641",81.1487,427.5122
"1642",80.99489,427.5254
"1643",80.8069,427.53906
"1644",80.570076,427.55273
"1645",80.2942,427.56592
"1646",79.9939,427.5791
"1647",79.70092,427.59277
"1648",79.44213,427.60645
"1649",79.23949,427.61963
"1650",79.10521,427.6328
"1651",79.03441,427.64648
"1652",79.012436,427.66016
"1653",79.01488,427.67334
"1654",79.012436,427.68652
"1655",78.975815,427.7002
"1656",78.890366,427.71387
"1657",78.75853,427.72705
"1658",78.58762,427.74023
"1659",78.39475,427.7539
"1660",78.20187,427.76758
"1661",78.02121,427.78076
"1662",77.86496,427.79395
"1663",77.74044,427.80762
"1664",77.65011,427.8213
"1665",77.58663,427.83447
"1666",77.540245,427.84766
"1667",77.49874,427.86133
"1668",77.454796,427.875
"1669",77.41085,427.88818
"1670",77.37423,427.90137
"1671",77.349815,427.91504
"1672",77.349815,427.9287
"1673",77.3962,427.9419
"1674",77.53292,427.95508
"1675",77.81125,427.96875
"1676",78.25803,427.98242
"1677",78.85863,427.9956
"1678",79.56664,428.0088
"1679",80.28199,428.02246
"1680",80.91432,428.03613
"1681",81.3904,428.04932
"1682",81.69558,428.0625
"1683",81.849396,428.07617
"1684",81.900665,428.08984
"1685",81.88846,428.10303
"1686",81.85672,428.1162
"1687",81.829865,428.12988
"1688",81.815216,428.14355
"1689",81.80301,428.15674
"1690",81.778595,428.16992
"1691",81.72488,428.1836
"1692",81.619896,428.19727
"1693",81.45388,428.21045
"1694",81.23903,428.22363
"1695",80.99977,428.2373
"1696",80.75563,428.25098
"1697",80.54078,428.26416
"1698",80.38209,428.27734
"1699",80.28199,428.29102
"1700",80.233154,428.3047
"1701",80.22095,428.31787
"1702",80.22583,428.33105
"1703",80.22339,428.34473
"1704",80.19653,428.3584
"1705",80.13794,428.37158
"1706",80.042725,428.38477
"1707",79.91577,428.39844
"1708",79.76929,428.4121
"1709",79.61547,428.4253
"1710",79.47387,428.43848
"1711",79.34692,428.45215
"1712",79.237045,428.46582
"1713",79.151596,428.479
"1714",79.08324,428.4922
"1715",79.01976,428.50586
"1716",78.95628,428.51953
"1717",78.89769,428.5327
"1718",78.836655,428.5459
"1719",78.7805,428.55957
"1720",78.729225,428.57324
"1721",78.68772,428.58643
"1722",78.65354,428.5996
"1723",78.6218,428.61328
"1724",78.590065,428.62695
"1725",78.55833,428.64014
"1726",78.52659,428.65332
"1727",78.48997,428.667
"1728",78.45823,428.68066
"1729",78.4387,428.69385
"1730",78.46067,428.70703
"1731",78.5803,428.7207
"1732",78.8513,428.73438
"1733",79.29565,428.74756
"1734",79.888916,428.76074
"1735",80.55787,428.7744
"1736",81.19508,428.7881
"1737",81.71511,428.80127
"1738",82.05936,428.81445
"1739",82.22781,428.82812
"1740",82.25468,428.8418
"1741",82.19119,428.85498
"1742",82.08621,428.86816
"1743",81.98123,428.88184
"1744",81.88846,428.8955
"1745",81.8201,428.9087
"1746",81.761505,428.92188
"1747",81.69314,428.93555
"1748",81.59792,428.94922
"1749",81.45632,428.9624
"1750",81.25857,428.9756
"1751",81.01442,428.98926
"1752",80.73853,429.00293
"1753",80.45533,429.0161
"1754",80.18677,429.0293
"1755",79.954834,429.04297
"1756",79.76196,429.05664
"1757",79.60815,429.06982
"1758",79.47387,429.083
"1759",79.34692,429.09668
"1760",79.219955,429.11035
"1761",79.097885,429.12354
"1762",78.97826,429.13672
"1763",78.86595,429.1504
"1764",78.76341,429.16406
"1765",78.67307,429.17725
"1766",78.58762,429.19043
"1767",78.51194,429.2041
"1768",78.44846,429.21777
"1769",78.399635,429.23096
"1770",78.3679,429.24414
"1771",78.35569,429.2578
"1772",78.363014,429.27148
"1773",78.38743,429.28467
"1774",78.42161,429.29785
"1775",78.46067,429.31152
"1776",78.502174,429.3252
"1777",78.536354,429.33838
"1778",78.56809,429.35156
"1779",78.59495,429.36523
"1780",78.624245,429.3789
"1781",78.658424,429.3921
"1782",78.70237,429.40527
"1783",78.75365,429.41895
"1784",78.80003,429.43262
"1785",78.83421,429.4458
"1786",78.853745,429.45898
"1787",78.8513,429.47266
"1788",78.82689,429.48633
"1789",78.80003,429.4995
"1790",78.79027,429.5127
"1791",78.82689,429.52637
"1792",78.97337,429.54004
"1793",79.276115,429.55322
"1794",79.7522,429.5664
"1795",80.365,429.58008
"1796",81.04372,429.59375
"1797",81.685814,429.60693
"1798",82.19852,429.62012
"1799",82.53788,429.6338
"1800",82.71122,429.64746
"1801",82.74784,429.66064
"1802",82.701454,429.67383
"1803",82.61845,429.6875
"1804",82.54032,429.70117
"1805",82.4744,429.71436
"1806",82.42802,429.72754
"1807",82.39384,429.7412
"1808",82.357216,429.75488
"1809",82.29374,429.76807
"1810",82.19119,429.78125
"1811",82.03494,429.79492
"1812",81.82498,429.8086
"1813",81.57351,429.82178
"1814",81.29763,429.83496
"1815",81.03151,429.84863
"1816",80.80934,429.8623
"1817",80.64576,429.8755
"1818",80.54566,429.88867
"1819",80.49683,429.90234
"1820",80.479744,429.91602
"1821",80.46754,429.9292
"1822",80.44312,429.94238
"1823",80.394295,429.95605
"1824",80.31861,429.96973
"1825",80.218506,429.9829
"1826",80.096436,429.9961
"1827",79.96216,430.00977
"1828",79.823,430.02344
"1829",79.68871,430.03662
"1830",79.56176,430.0498
"1831",79.447014,430.06348
"1832",79.34692,430.07715
"1833",79.26147,430.09033
"1834",79.185776,430.10352
"1835",79.11986,430.1172
"1836",79.06615,430.13086
"1837",79.01732,430.14404
"1838",78.97093,430.15723
"1839",78.92943,430.1709
"1840",78.890366,430.18457
"1841",78.84886,430.19775
"1842",78.8098,430.21094
"1843",78.768295,430.2246
"1844",78.729225,430.23828
"1845",78.68772,430.25146
"1846",78.65354,430.26465
"1847",78.6218,430.27832
"1848",78.59983,430.292
"1849",78.57786,430.30518
"1850",78.55833,430.31836
"1851",78.54368,430.33203
"1852",78.538795,430.3457
"1853",78.572975,430.3589
"1854",78.69016,430.37207
"1855",78.941635,430.38574
"1856",79.34936,430.3994
"1857",79.90112,430.4126
"1858",80.53101,430.42578
"1859",81.15114,430.43945
"1860",81.671165,430.45312
"1861",82.03006,430.4663
"1862",82.21805,430.4795
"1863",82.26444,430.49316
"1864",82.21805,430.50684
"1865",82.12283,430.52002
"1866",82.020294,430.5332
"1867",81.92264,430.54688
"1868",81.84207,430.56055
"1869",81.77127,430.57373
"1870",81.7029,430.5869
"1871",81.62478,430.6006
"1872",81.514915,430.61426
"1873",81.36355,430.62744
"1874",81.16823,430.64062
"1875",80.93385,430.6543
"1876",80.67994,430.66797
"1877",80.43336,430.68115
"1878",80.216064,430.69434
"1879",80.042725,430.708
"1880",79.923096,430.72168
"1881",79.85474,430.73486
"1882",79.82056,430.74805
"1883",79.80835,430.76172
"1884",79.79126,430.7754
"1885",79.75708,430.78857
"1886",79.691154,430.80176
"1887",79.60082,430.81543
"1888",79.48852,430.8291
"1889",79.364006,430.8423
"1890",79.23949,430.85547
"1891",79.11742,430.86914
"1892",79.012436,430.8828
"1893",78.91722,430.896
"1894",78.836655,430.90918
"1895",78.77074,430.92285
"1896",78.71702,430.93652
"1897",78.66575,430.9497
"1898",78.61936,430.9629
"1899",78.5803,430.97656
"1900",78.54124,430.99023
"1901",78.50706,431.00342
"1902",78.47776,431.0166
"1903",78.45335,431.03027
"1904",78.43626,431.04395
"1905",78.42405,431.05713
"1906",78.41428,431.0703
"1907",78.4094,431.08398
"1908",78.40452,431.09766
"1909",78.397194,431.11084
"1910",78.39231,431.12402
"1911",78.38499,431.1377
"1912",78.37522,431.15137
"1913",78.363014,431.16455
"1914",78.35325,431.17773
"1915",78.35569,431.1914
"1916",78.399635,431.20508
"1917",78.52903,431.21826
"1918",78.79515,431.23145
"1919",79.2224,431.24512
"1920",79.7937,431.2588
"1921",80.445564,431.27197
"1922",81.094986,431.28516
"1923",81.64187,431.29883
"1924",82.02518,431.3125
"1925",82.230255,431.32568
"1926",82.27909,431.33887
"1927",82.22293,431.35254
"1928",82.10574,431.3662
"1929",81.97635,431.3794
"1930",81.85428,431.39258
"1931",81.75418,431.40625
"1932",81.67849,431.41992
"1933",81.617455,431.4331
"1934",81.55154,431.4463
"1935",81.461205,431.45996
"1936",81.339134,431.47363
"1937",81.17555,431.48682
"1938",80.97536,431.5
"1939",80.75563,431.51367
"1940",80.54078,431.52734
"1941",80.35035,431.54053
"1942",80.19653,431.5537
"1943",80.08911,431.56738
"1944",80.03052,431.58105
"1945",80.00122,431.59424
"1946",79.991455,431.60742
"1947",79.98657,431.6211
"1948",79.96216,431.63477
"1949",79.91089,431.64795
"1950",79.83276,431.66113
"1951",79.73266,431.6748
"1952",79.62524,431.68848
"1953",79.51049,431.70166
"1954",79.395744,431.71484
"1955",79.28832,431.72852
"1956",79.19066,431.7422
"1957",79.10277,431.75537
"1958",79.027084,431.76855
"1959",78.958725,431.78223
"1960",78.905014,431.7959
"1961",78.86107,431.80908
"1962",78.82445,431.82227
"1963",78.79271,431.83594
"1964",78.765854,431.8496
"1965",78.74143,431.8628
"1966",78.71702,431.87598
"1967",78.692604,431.88965
"1968",78.67063,431.90332
"1969",78.64866,431.9165
"1970",78.626686,431.9297
"1971",78.607155,431.94336
"1972",78.59251,431.95703
"1973",78.5803,431.9702
"1974",78.57053,431.9834
"1975",78.56809,431.99707
"1976",78.56321,432.01074
"1977",78.55833,432.02393
"1978",78.553444,432.0371
"1979",78.54612,432.05078
"1980",78.54124,432.06445
"1981",78.555885,432.07764
"1982",78.63157,432.09082
"1983",78.82933,432.1045
"1984",79.183334,432.11816
"1985",79.691154,432.13135
"1986",80.31129,432.14453
"1987",80.953384,432.1582
"1988",81.52224,432.17188
"1989",81.93729,432.18506
"1990",82.176544,432.19824
"1991",82.247345,432.2119
"1992",82.20096,432.2256
"1993",82.07889,432.23877
"1994",81.92752,432.25195
"1995",81.778595,432.26562
"1996",81.651634,432.2793
"1997",81.54421,432.29248
"1998",81.45388,432.30566
"1999",81.36355,432.31934
"2000",81.26589,432.333
"2001",81.146255,432.3462
"2002",80.99489,432.35938
"2003",80.81178,432.37305
"2004",80.61158,432.38672
"2005",80.4065,432.3999
"2006",80.216064,432.4131
"2007",80.05493,432.42676
"2008",79.940186,432.44043
"2009",79.871826,432.4536
"2010",79.83765,432.4668
"2011",79.82544,432.48047
"2012",79.815674,432.49414
"2013",79.79126,432.50732
"2014",79.744865,432.5205
"2015",79.674065,432.53418
"2016",79.58129,432.54785
"2017",79.47875,432.56104
"2018",79.36645,432.57422
"2019",79.256584,432.5879
"2020",79.151596,432.60156
"2021",79.05882,432.61475
"2022",78.975815,432.62793
"2023",78.90257,432.6416
"2024",78.84398,432.65527
"2025",78.79271,432.66846
"2026",78.746315,432.68164
"2027",78.70725,432.6953
"2028",78.6804,432.70898
"2029",78.660866,432.72217
"2030",78.64866,432.73535
"2031",78.643776,432.74902
"2032",78.64622,432.7627
"2033",78.64622,432.77588
"2034",78.643776,432.78906
"2035",78.64622,432.80273
"2036",78.6511,432.8164
"2037",78.658424,432.8296
"2038",78.66819,432.84277
"2039",78.677956,432.85645
"2040",78.68528,432.87012
"2041",78.68528,432.8833
"2042",78.68772,432.89648
"2043",78.69016,432.91016
"2044",78.695045,432.92383
"2045",78.70481,432.937
"2046",78.751205,432.9502
"2047",78.87572,432.96387
"2048",79.12962,432.97754
"2049",79.54711,432.99072
"2050",80.113525,433.0039
"2051",80.77028,433.01758
"2052",81.4197,433.03125
"2053",81.969025,433.04443
"2054",82.34257,433.05762
"2055",82.533,433.0713
"2056",82.564735,433.08496
"2057",82.48173,433.09814
"2058",82.33524,433.11133
"2059",82.17166,433.125
"2060",82.01053,433.13867
"2061",81.86893,433.15186
"2062",81.74929,433.16504
"2063",81.64431,433.1787
"2064",81.54421,433.19238
"2065",81.43435,433.20557
"2066",81.304955,433.21875
"2067",81.143814,433.23242
"2068",80.953384,433.2461
"2069",80.7483,433.25928
"2070",80.54078,433.27246
"2071",80.35523,433.28613
"2072",80.20386,433.2998
"2073",80.093994,433.313
"2074",80.028076,433.32617
"2075",80.00122,433.33984
"2076",79.98901,433.35352
"2077",79.97681,433.3667
"2078",79.95239,433.37988
"2079",79.906006,433.39355
"2080",79.83032,433.40723
"2081",79.73266,433.4204
"2082",79.63012,433.4336
"2083",79.5227,433.44727
"2084",79.4226,433.46094
"2085",79.33227,433.47412
"2086",79.25414,433.4873
"2087",79.18822,433.50098
"2088",79.132065,433.51465
"2089",79.08568,433.52783
"2090",79.04906,433.54102
"2091",79.01732,433.5547
"2092",78.99779,433.56836
"2093",78.98314,433.58154
"2094",78.97093,433.59473
"2095",78.96117,433.6084
"2096",78.95384,433.62207
"2097",78.94896,433.63525
"2098",78.941635,433.64844
"2099",78.93919,433.6621
"2100",78.93675,433.67578
"2101",78.93919,433.68896
"2102",78.93919,433.70215
"2103",78.94408,433.71582
"2104",78.9514,433.7295
"2105",78.96361,433.74268
"2106",78.97093,433.75586
"2107",78.975815,433.76953
"2108",78.9807,433.7832
"2109",78.9807,433.7964
"2110",78.97826,433.80957
"2111",78.98558,433.82324
"2112",79.03197,433.8369
"2113",79.16136,433.8501
"2114",79.42504,433.86328
"2115",79.852295,433.87695
"2116",80.428474,433.89062
"2117",81.08766,433.9038
"2118",81.74197,433.917
"2119",82.28886,433.93066
"2120",82.65995,433.94434
"2121",82.83818,433.95752
"2122",82.845505,433.9707
"2123",82.73319,433.98438
"2124",82.55497,433.99805
"2125",82.3621,434.01123
"2126",82.18875,434.0244
"2127",82.04715,434.0381
"2128",81.93729,434.05176
"2129",81.82254,434.06494
"2130",81.66384,434.07812
"2131",81.43923,434.0918
"2132",81.16579,434.10547
"2133",80.86305,434.11865
"2134",80.56275,434.13184
"2135",80.30152,434.1455
"2136",80.093994,434.15918
"2137",79.9353,434.17236
"2138",79.80835,434.18555
"2139",79.71801,434.19922
"2140",79.6643,434.2129
"2141",79.639885,434.22607
"2142",79.63744,434.23926
"2143",79.63744,434.25293
"2144",79.63012,434.2666
"2145",79.603264,434.2798
"2146",79.554436,434.29297
"2147",79.48608,434.30664
"2148",79.40551,434.3203
"2149",79.31762,434.3335
"2150",79.22972,434.34668
"2151",79.15404,434.36035
"2152",79.08812,434.37402
"2153",79.03441,434.3872
"2154",78.98802,434.4004
"2155",78.94652,434.41406
"2156",78.905014,434.42773
"2157",78.86839,434.44092
"2158",78.839096,434.4541
"2159",78.80003,434.48145
"2160",78.785385,434.49463
"2161",78.77074,434.5078
"2162",78.75609,434.52148
"2163",78.74387,434.53516
"2164",78.73899,434.54834
"2165",78.73167,434.56152
"2166",78.72678,434.5752
"2167",78.7219,434.58887
"2168",78.71702,434.60205
"2169",78.71458,434.61523
"2170",78.71458,434.6289
"2171",78.71702,434.64258
"2172",78.71702,434.65576
"2173",78.71946,434.66895
"2174",78.71702,434.68262
"2175",78.71702,434.6963
"2176",78.71702,434.70947
"2177",78.7219,434.72266
"2178",78.751205,434.73633
"2179",78.839096,434.75
"2180",79.04173,434.76318
"2181",79.40307,434.77637
"2182",79.9353,434.79004
"2183",80.58961,434.8037
"2184",81.290306,434.8169
"2185",81.92508,434.83008
"2186",82.41093,434.84375
"2187",82.69901,434.85742
"2188",82.79668,434.8706
"2189",82.74296,434.8838
"2190",82.58915,434.89746
"2191",82.38407,434.91113
"2192",82.16922,434.92432
"2193",81.97391,434.9375
"2194",81.81033,434.95117
"2195",81.68093,434.96484
"2196",81.583275,434.97803
"2197",81.497826,434.9912
"2198",81.40261,435.00488
"2199",81.29519,435.01855
"2200",81.15846,435.03174
"2201",80.99977,435.04492
"2202",80.833755,435.0586
"2203",80.6775,435.07227
"2204",80.53834,435.08545
"2205",80.42603,435.09863
"2206",80.34791,435.1123
"2207",80.291756,435.12598
"2208",80.25025,435.13916
"2209",80.216064,435.15234
"2210",80.177,435.16602
"2211",80.12573,435.1797
"2212",80.059814,435.19287
"2213",79.974365,435.20605
"2214",79.87671,435.21973
"2215",79.77661,435.2334
"2216",79.674065,435.24658
"2217",79.57397,435.25977
"2218",79.483635,435.27344
"2219",79.39086,435.2871
"2220",79.27856,435.3003
"2221",79.14427,435.31348
"2222",78.99779,435.32715
"2223",78.8513,435.34082
"2224",78.71946,435.354
"2225",78.626686,435.3672
"2226",78.57053,435.38086
"2227",78.54856,435.39453
"2228",78.538795,435.4077
"2229",78.54124,435.4209
"2230",78.54612,435.43457
"2231",78.54856,435.44824
"2232",78.551,435.46143
"2233",78.553444,435.4746
"2234",78.56077,435.48828
"2235",78.57053,435.50195
"2236",78.590065,435.51514
"2237",78.61204,435.52832
"2238",78.63157,435.542
"2239",78.6511,435.55566
"2240",78.66331,435.56885
"2241",78.67063,435.58203
"2242",78.67307,435.5957
"2243",78.67307,435.60938
"2244",78.68284,435.62256
"2245",78.73655,435.63574
"2246",78.8806,435.6494
"2247",79.17357,435.6631
"2248",79.63744,435.67627
"2249",80.255135,435.68945
"2250",80.95094,435.70312
"2251",81.62722,435.7168
"2252",82.18143,435.72998
"2253",82.55009,435.74316
"2254",82.71366,435.75684
"2255",82.703896,435.7705
"2256",82.57206,435.7837
"2257",82.36698,435.79688
"2258",82.13016,435.81055
"2259",81.898224,435.82422
"2260",81.688255,435.8374
"2261",81.51003,435.8506
"2262",81.36599,435.86426
"2263",81.24147,435.87793
"2264",81.129166,435.8911
"2265",81.01198,435.9043
"2266",80.88014,435.91797
"2267",80.73121,435.93164
"2268",80.57252,435.94482
"2269",80.41871,435.958
"2270",80.28199,435.97168
"2271",80.164795,435.98535
"2272",80.07202,435.99854
"2273",80.00122,436.01172
"2274",79.94507,436.0254
"2275",79.89624,436.03906
"2276",79.84497,436.05225
"2277",79.783936,436.06543
"2278",79.71313,436.0791
"2279",79.635,436.09277
"2280",79.554436,436.10596
"2281",79.466545,436.11914
"2282",79.378654,436.1328
"2283",79.28588,436.14648
"2284",79.18822,436.15967
"2285",79.08812,436.17285
"2286",78.99779,436.18652
"2287",78.91722,436.2002
"2288",78.84886,436.21338
"2289",78.79027,436.22656
"2290",78.746315,436.24023
"2291",78.70481,436.2539
"2292",78.660866,436.2671
"2293",78.61936,436.28027
"2294",78.57053,436.29395
"2295",78.521706,436.30762
"2296",78.47532,436.3208
"2297",78.43626,436.33398
"2298",78.40452,436.34766
"2299",78.37766,436.36133
"2300",78.36057,436.3745
"2301",78.348366,436.3877
"2302",78.34104,436.40137
"2303",78.3386,436.41504
"2304",78.34348,436.42822
"2305",78.34104,436.4414
"2306",78.331276,436.45508
"2307",78.314186,436.46875
"2308",78.2971,436.48193
"2309",78.3093,436.49512
"2310",78.397194,436.5088
"2311",78.6218,436.52246
"2312",79.00267,436.53564
"2313",79.517815,436.54883
"2314",80.09888,436.5625
"2315",80.6482,436.57617
"2316",81.077896,436.58936
"2317",81.324486,436.60254
"2318",81.38064,436.6162
"2319",81.28542,436.62988
"2320",81.08766,436.64307
"2321",80.8362,436.65625
"2322",80.567635,436.66992
"2323",80.31617,436.6836
"2324",80.096436,436.69678
"2325",79.91333,436.70996
"2326",79.76929,436.72363
"2327",79.65942,436.7373
"2328",79.571526,436.7505
"2329",79.49584,436.76367
"2330",79.41772,436.77734
"2331",79.34203,436.79102
"2332",79.273674,436.8042
"2333",79.219955,436.81738
"2334",79.19066,436.83105
"2335",79.18822,436.84473
"2336",79.20775,436.8579
"2337",79.24437,436.8711
"2338",79.290764,436.88477
"2339",79.33959,436.89844
"2340",79.38354,436.91162
"2341",79.412834,436.9248
"2342",79.4226,436.93848
"2343",79.40795,436.95215
"2344",79.37621,436.96533
"2345",79.32983,436.97852
"2346",79.273674,436.9922
"2347",79.2224,437.00586
"2348",79.17601,437.01904
"2349",79.132065,437.03223
"2350",79.093,437.0459
"2351",79.063705,437.05957
"2352",79.04173,437.07275
"2353",79.027084,437.08594
"2354",79.02464,437.0996
"2355",79.029526,437.11328
"2356",79.044174,437.12646
"2357",79.063705,437.13965
"2358",79.08324,437.15332
"2359",79.10521,437.167
"2360",79.13451,437.18018
"2361",79.15892,437.19336
"2362",79.183334,437.20703
"2363",79.20531,437.2207
"2364",79.2224,437.2339
"2365",79.23949,437.24707
"2366",79.281,437.26074
"2367",79.39086,437.2744
"2368",79.622795,437.2876
"2369",80.025635,437.30078
"2370",80.601814,437.31445
"2371",81.304955,437.32812
"2372",82.039825,437.3413
"2373",82.701454,437.3545
"2374",83.18974,437.36816
"2375",83.46319,437.38184
"2376",83.51934,437.39502
"2377",83.407036,437.4082
"2378",83.18242,437.42188
"2379",82.899216,437.43555
"2380",82.6038,437.44873
"2381",82.320595,437.4619
"2382",82.06424,437.4756
"2383",81.829865,437.48926
"2384",81.61501,437.50244
"2385",81.41238,437.51562
"2386",81.2195,437.5293
"2387",81.03883,437.54297
"2388",80.87526,437.55615
"2389",80.72877,437.56934
"2390",80.604256,437.583
"2391",80.5066,437.59668
"2392",80.44068,437.60986
"2393",80.40406,437.62305
"2394",80.38453,437.63672
"2395",80.377205,437.6504
"2396",80.36744,437.66357
"2397",80.34058,437.67676
"2398",80.291756,437.69043
"2399",80.218506,437.7041
"2400",80.12329,437.7173
"2401",80.01099,437.73047
"2402",79.88403,437.74414
"2403",79.7522,437.7578
"2404",79.63256,437.771
"2405",79.52758,437.78418
"2406",79.43969,437.79785
"2407",79.36645,437.81152
"2408",79.310295,437.8247
"2409",79.26147,437.8379
"2410",79.219955,437.85156
"2411",79.185776,437.86523
"2412",79.16136,437.87842
"2413",79.14427,437.8916
"2414",79.13695,437.90527
"2415",79.13451,437.91895
"2416",79.132065,437.93213
"2417",79.12962,437.9453
"2418",79.12474,437.95898
"2419",79.114975,437.97266
"2420",79.12718,437.98584
"2421",79.19798,437.99902
"2422",79.38842,438.0127
"2423",79.74975,438.02637
"2424",80.28687,438.03955
"2425",80.9485,438.05273
"2426",81.651634,438.0664
"2427",82.28397,438.08008
"2428",82.74784,438.09326
"2429",83.001755,438.10645
"2430",83.05791,438.12012
"2431",82.95781,438.1338
"2432",82.7454,438.14697
"2433",82.47196,438.16016
"2434",82.176544,438.17383
"2435",81.89334,438.1875
"2436",81.634544,438.20068
"2437",81.41482,438.21387
"2438",81.234146,438.22754
"2439",81.075455,438.2412
"2440",80.921646,438.2544
"2441",80.75563,438.26758
"2442",80.57496,438.28125
"2443",80.39185,438.29492
"2444",80.22095,438.3081
"2445",80.07446,438.3213
"2446",79.957275,438.33496
"2447",79.87671,438.34863
"2448",79.82788,438.36182
"2449",79.80591,438.375
"2450",79.801025,438.38867
"2451",79.798584,438.40234
"2452",79.79126,438.41553
"2453",79.76196,438.4287
"2454",79.7058,438.44238
"2455",79.63012,438.45605
"2456",79.54467,438.46924
"2457",79.45678,438.48242
"2458",79.37133,438.4961
"2459",79.290764,438.50977
"2460",79.21263,438.52295
"2461",79.14183,438.53613
"2462",79.080795,438.5498
"2463",79.03197,438.56348
"2464",78.992905,438.57666
"2465",78.96361,438.58984
"2466",78.941635,438.60352
"2467",78.924545,438.6172
"2468",78.91234,438.63037
"2469",78.905014,438.64355
"2470",78.905014,438.65723
"2471",78.907455,438.6709
"2472",78.9099,438.68408
"2473",78.91478,438.69727
"2474",78.94408,438.71094
"2475",79.04173,438.7246
"2476",79.26635,438.7378
"2477",79.656975,438.75098
"2478",80.2063,438.76465
"2479",80.86305,438.77832
"2480",81.532005,438.7915
"2481",82.108185,438.8047
"2482",82.51591,438.81836
"2483",82.72343,438.83203
"2484",82.74296,438.8452
"2485",82.62089,438.8584
"2486",82.408485,438.87207
"2487",82.14969,438.88574
"2488",81.88846,438.89893
"2489",81.64675,438.9121
"2490",81.43923,438.92578
"2491",81.26589,438.93945
"2492",81.12184,438.95264
"2493",80.987564,438.96582
"2494",80.848404,438.9795
"2495",80.69703,438.99316
"2496",80.5359,439.00635
"2497",80.377205,439.01953
"2498",80.235596,439.0332
"2499",80.12085,439.04688
"2500",80.04028,439.06006
"2501",79.98901,439.07324
"2502",79.95972,439.0869
"2503",79.940186,439.1006
"2504",79.923096,439.11377
"2505",79.89624,439.12695
"2506",79.852295,439.14062
"2507",79.7937,439.1543
"2508",79.72289,439.16748
"2509",79.639885,439.18066
"2510",79.554436,439.19434
"2511",79.466545,439.208
"2512",79.38354,439.2212
"2513",79.30297,439.23438
"2514",79.22484,439.24805
"2515",79.15404,439.26172
"2516",79.093,439.2749
"2517",79.03929,439.2881
"2518",79.00023,439.30176
"2519",78.97093,439.31543
"2520",78.95628,439.3286
"2521",78.94408,439.3418
"2522",78.941635,439.35547
"2523",78.93675,439.36914
"2524",78.93187,439.38232
"2525",78.91966,439.3955
"2526",78.9099,439.40918
"2527",78.91478,439.42285
"2528",78.9807,439.43604
"2529",79.15892,439.44922
"2530",79.49584,439.4629
"2531",79.9939,439.47656
"2532",80.61402,439.48975
"2533",81.27322,439.50293
"2534",81.87625,439.5166
"2535",82.33036,439.53027
"2536",82.59159,439.54346
"2537",82.66239,439.55664
"2538",82.57206,439.5703
"2539",82.36698,439.58398
"2540",82.10574,439.59717
"2541",81.829865,439.61035
"2542",81.566185,439.62402
"2543",81.339134,439.6377
"2544",81.1487,439.65088
"2545",80.98512,439.66406
"2546",80.831314,439.67773
"2547",80.67994,439.6914
"2548",80.52369,439.7046
"2549",80.365,439.71777
"2550",80.21118,439.73145
"2551",80.076904,439.74512
"2552",79.971924,439.7583
"2553",79.90845,439.77148
"2554",79.87915,439.78516
"2555",79.87915,439.79883
"2556",79.886475,439.812
"2557",79.8938,439.8252
"2558",79.88159,439.83887
"2559",79.83765,439.85254
"2560",79.77173,439.86572
"2561",79.68139,439.8789
"2562",79.586174,439.89258
"2563",79.47875,439.90625
"2564",79.37133,439.91943
"2565",79.27123,439.93262
"2566",79.17601,439.9463
"2567",79.09056,439.95996
"2568",79.02464,439.97314
"2569",78.97826,439.98633
"2570",78.94408,440
"2571",78.91722,440.01367
"2572",78.89769,440.02686
"2573",78.8806,440.04004
"2574",78.86107,440.0537
"2575",78.84154,440.06738
"2576",78.82201,440.08057
"2577",78.80492,440.09375
"2578",78.80003,440.10742
"2579",78.84398,440.1211
"2580",78.98314,440.13428
"2581",79.26635,440.14746
"2582",79.710686,440.16113
"2583",80.28199,440.1748
"2584",80.91188,440.188
"2585",81.497826,440.20117
"2586",81.95682,440.21484
"2587",82.230255,440.22852
"2588",82.31083,440.2417
"2589",82.2327,440.25488
"2590",82.039825,440.26855
"2591",81.78348,440.28223
"2592",81.50515,440.2954
"2593",81.23659,440.3086
"2594",80.99489,440.32227
"2595",80.780045,440.33594
"2596",80.58961,440.34912
"2597",80.41627,440.3623
"2598",80.25025,440.37598
"2599",80.08667,440.38965
"2600",79.937744,440.40283
"2601",79.81079,440.41602
"2602",79.71801,440.4297
"2603",79.66918,440.44336
"2604",79.66186,440.45654
"2605",79.68871,440.46973
"2606",79.727776,440.4834
"2607",79.75952,440.49707
"2608",79.77417,440.51025
"2609",79.75708,440.52344
"2610",79.708244,440.5371
"2611",79.63744,440.55078
"2612",79.54955,440.56396
"2613",79.45922,440.57715
"2614",79.37133,440.59082
"2615",79.28344,440.6045
"2616",79.19798,440.61768
"2617",79.11986,440.63086
"2618",79.0515,440.64453
"2619",78.99779,440.6582
"2620",78.97093,440.6714
"2621",78.97093,440.68457
"2622",79.00511,440.69824
"2623",79.06859,440.7119
"2624",79.15648,440.7251
"2625",79.26147,440.73828
"2626",79.38354,440.75195
"2627",79.534904,440.76562
"2628",79.73022,440.7788
"2629",79.99634,440.792
"2630",80.365,440.80566
"2631",80.850845,440.81934
"2632",81.4197,440.83252
"2633",82.00809,440.8457
"2634",82.53544,440.85938
"2635",82.930954,440.87305
"2636",83.13603,440.88623
"2637",83.1458,440.8994
"2638",83.001755,440.9131
"2639",82.757614,440.92676
"2640",82.46952,440.93994
"2641",82.17166,440.95312
"2642",81.89334,440.9668
"2643",81.63943,440.98047
"2644",81.40261,440.99365
"2645",81.17067,441.00684
"2646",80.938736,441.0205
"2647",80.70191,441.03418
"2648",80.465096,441.04736
"2649",80.23804,441.06055
"2650",80.03784,441.07422
"2651",79.869385,441.0879
"2652",79.73266,441.10107
"2653",79.63012,441.11426
"2654",79.54467,441.12793
"2655",79.45678,441.1416
"2656",79.361565,441.1548
"2657",79.256584,441.16797
"2658",79.13695,441.18164
"2659",79.01488,441.1953
"2660",78.89769,441.2085
"2661",78.79271,441.22168
"2662",78.70481,441.23535
"2663",78.63889,441.24902
"2664",78.59495,441.2622
"2665",78.58274,441.2754
"2666",78.59983,441.28906
"2667",78.63889,441.30273
"2668",78.692604,441.31592
"2669",78.751205,441.3291
"2670",78.81712,441.34277
"2671",78.887924,441.35645
"2672",78.96117,441.36963
"2673",79.044174,441.3828
"2674",79.149155,441.39648
"2675",79.30785,441.41016
"2676",79.5642,441.42334
"2677",79.94995,441.43652
"2678",80.46021,441.4502
"2679",81.05592,441.46387
"2680",81.6614,441.47705
"2681",82.18875,441.49023
"2682",82.564735,441.5039
"2683",82.7625,441.51758
"2684",82.79668,441.53076
"2685",82.70878,441.54395
"2686",82.54032,441.55762
"2687",82.337685,441.5713
"2688",82.13748,441.58447
"2689",81.96414,441.59766
"2690",81.829865,441.61133
"2691",81.722435,441.625
"2692",81.62478,441.63818
"2693",81.52712,441.65137
"2694",81.41482,441.66504
"2695",81.29275,441.6787
"2696",81.180435,441.6919
"2697",81.10475,441.70508
"2698",81.08522,441.71875
"2699",81.12428,441.73242
"2700",81.214615,441.7456
"2701",81.339134,441.7588
"2702",81.47585,441.77246
"2703",81.600365,441.78613
"2704",81.69314,441.79932
"2705",81.7322,441.8125
"2706",81.70779,441.82617
"2707",81.619896,441.83984
"2708",81.47585,441.85303
"2709",81.290306,441.8662
"2710",81.08522,441.87988
"2711",80.87038,441.89355
"2712",80.65308,441.90674
"2713",80.4358,441.91992
"2714",80.216064,441.9336
"2715",79.98901,441.94727
"2716",79.74975,441.96045
"2717",79.50561,441.97363
"2718",79.26147,441.9873
"2719",79.05394,442.00098
"2720",78.93919,442.01416
"2721",78.98314,442.02734
"2722",79.2224,442.04102
"2723",79.65453,442.0547
"2724",80.23071,442.06787
"2725",80.87282,442.08105
"2726",81.478294,442.09473
"2727",81.9617,442.1084
"2728",82.28153,442.12158
"2729",82.42802,442.13477
"2730",82.41581,442.14844
"2731",82.27909,442.1621
"2732",82.06424,442.1753
"2733",81.80789,442.18848
"2734",81.54177,442.20215
"2735",81.2781,442.21582
"2736",81.02907,442.229
"2737",80.78493,442.2422
"2738",80.5359,442.25586
"2739",80.2649,442.26953
"2740",79.96216,442.2827
"2741",79.622795,442.2959
"2742",79.27856,442.30957
"2743",78.96605,442.32324
"2744",78.7219,442.33643
"2745",78.572975,442.3496
"2746",78.519264,442.36328
"2747",78.53391,442.37695
"2748",78.57786,442.39014
"2749",78.61448,442.40332
"2750",78.61936,442.417
"2751",78.57542,442.43066
"2752",78.49485,442.44385
"2753",78.382545,442.45703
"2754",78.25803,442.4707
"2755",78.13107,442.48438
"2756",78.009,442.49756
"2757",77.8967,442.51074
"2758",77.79904,442.5244
"2759",77.71603,442.5381
"2760",77.65255,442.55127
"2761",77.611046,442.56445
"2762",77.58907,442.57812
"2763",77.58419,442.5918
"2764",77.58663,442.60498
"2765",77.61349,442.61816
"2766",77.70138,442.63184
"2767",77.90158,442.6455
"2768",78.25071,442.6587
"2769",78.75365,442.67188
"2770",79.37377,442.68555
"2771",80.03052,442.69922
"2772",80.63111,442.7124
"2773",81.09743,442.7256
"2774",81.40261,442.73926
"2775",81.55154,442.75293
"2776",81.57351,442.7661
"2777",81.51003,442.7793
"2778",81.39773,442.79297
"2779",81.26833,442.80664
"2780",81.14137,442.81982
"2781",81.024185,442.833
"2782",80.91432,442.84668
"2783",80.8069,442.86035
"2784",80.67994,442.87354
"2785",80.53101,442.88672
"2786",80.35279,442.9004
"2787",80.15503,442.91406
"2788",79.95972,442.92725
"2789",79.79126,442.94043
"2790",79.6643,442.9541
"2791",79.588615,442.96777
"2792",79.5642,442.98096
"2793",79.57885,442.99414
"2794",79.61303,443.0078
"2795",79.64965,443.02148
"2796",79.67162,443.03467
"2797",79.66186,443.04785
"2798",79.61547,443.06152
"2799",79.537346,443.0752
"2800",79.43481,443.08838
"2801",79.32006,443.10156
"2802",79.202866,443.11523
"2803",79.09544,443.1289
"2804",79.00023,443.1421
"2805",78.91478,443.15527
"2806",78.84642,443.16895
"2807",78.79515,443.18262
"2808",78.75365,443.1958
"2809",78.7219,443.20898
"2810",78.69993,443.22266
"2811",78.675514,443.23633
"2812",78.6511,443.2495
"2813",78.62913,443.2627
"2814",78.6096,443.27637
"2815",78.6218,443.29004
"2816",78.71458,443.30322
"2817",78.94408,443.3164
"2818",79.344475,443.33008
"2819",79.90112,443.34375
"2820",80.55543,443.35693
"2821",81.214615,443.37012
"2822",81.778595,443.3838
"2823",82.1741,443.39746
"2824",82.38651,443.41064
"2825",82.44511,443.42383
"2826",82.39628,443.4375
"2827",82.28397,443.45117
"2828",82.15213,443.46436
"2829",82.02518,443.47754
"2830",81.90799,443.4912
"2831",81.80301,443.50488
"2832",81.70046,443.51807
"2833",81.583275,443.53125
"2834",81.44167,443.54492
"2835",81.26101,443.5586
"2836",81.03395,443.57178
"2837",80.77272,443.58496
"2838",80.50172,443.59863
"2839",80.24048,443.6123
"2840",80.01343,443.6255
"2841",79.83765,443.63867
"2842",79.710686,443.65234
"2843",79.62524,443.66602
"2844",79.569084,443.6792
"2845",79.52514,443.69238
"2846",79.47143,443.70605
"2847",79.398186,443.71973
"2848",79.29809,443.7329
"2849",79.17357,443.7461
"2850",79.029526,443.75977
"2851",78.870834,443.77344
"2852",78.71702,443.78662
"2853",78.572975,443.7998
"2854",78.44846,443.81348
"2855",78.348366,443.82715
"2856",78.27024,443.84033
"2857",78.2092,443.85352
"2858",78.16037,443.8672
"2859",78.118866,443.88086
"2860",78.09201,443.89404
"2861",78.07492,443.90723
"2862",78.065155,443.9209
"2863",78.06271,443.93457
"2864",78.0676,443.94775
"2865",78.07248,443.96094
"2866",78.07492,443.9746
"2867",78.0798,443.98828
"2868",78.0798,444.00146
"2869",78.07736,444.01465
"2870",78.07248,444.02832
"2871",78.07492,444.042
"2872",78.116425,444.05518
"2873",78.24338,444.06836
"2874",78.51194,444.08203
"2875",78.95384,444.0957
"2876",79.54467,444.1089
"2877",80.22339,444.12207
"2878",80.89479,444.13574
"2879",81.45632,444.1494
"2880",81.846954,444.1626
"2881",82.04959,444.17578
"2882",82.09598,444.18945
"2883",82.0325,444.20312
"2884",81.91043,444.2163
"2885",81.77127,444.2295
"2886",81.63943,444.24316
"2887",81.53445,444.25684
"2888",81.45144,444.27002
"2889",81.38064,444.2832
"2890",81.30251,444.29688
"2891",81.19997,444.31055
"2892",81.06081,444.32373
"2893",80.87526,444.3369
"2894",80.65797,444.3506
"2895",80.428474,444.36426
"2896",80.2063,444.37744
"2897",80.01831,444.39062
"2898",79.871826,444.4043
"2899",79.781494,444.41797
"2900",79.7351,444.43115
"2901",79.72045,444.44434
"2902",79.72045,444.458
"2903",79.71801,444.47168
"2904",79.69848,444.48486
"2905",79.65209,444.49805
"2906",79.57885,444.51172
"2907",79.48852,444.5254
"2908",79.381096,444.53857
"2909",79.27123,444.55176
"2910",79.16136,444.56543
"2911",79.05638,444.5791
"2912",78.96361,444.5923
"2913",78.88548,444.60547
"2914",78.81712,444.61914
"2915",78.75853,444.6328
"2916",78.712135,444.646
"2917",78.67063,444.65918
"2918",78.63401,444.67285
"2919",78.607155,444.68652
"2920",78.58518,444.6997
"2921",78.56565,444.7129
"2922",78.54856,444.72656
"2923",78.536354,444.74023
"2924",78.521706,444.75342
"2925",78.51438,444.7666
"2926",78.50706,444.78027
"2927",78.49485,444.79395
"2928",78.485085,444.80713
"2929",78.47288,444.8203
"2930",78.46555,444.83398
"2931",78.46311,444.84766
"2932",78.47776,444.86084
"2933",78.521706,444.87402
"2934",78.643776,444.8877
"2935",78.89525,444.90137
"2936",79.30541,444.91455
"2937",79.871826,444.92773
"2938",80.533455,444.9414
"2939",81.19997,444.95508
"2940",81.76395,444.96826
"2941",82.161896,444.98145
"2942",82.36698,444.99512
"2943",82.41337,445.0088
"2944",82.34745,445.02197
"2945",82.22293,445.03516
"2946",82.07645,445.04883
"2947",81.94217,445.0625
"2948",81.829865,445.07568
"2949",81.739525,445.08887
"2950",81.6614,445.10254
"2951",81.58083,445.1162
"2952",81.478294,445.1294
"2953",81.339134,445.14258
"2954",81.160904,445.15625
"2955",80.9485,445.16992
"2956",80.719,445.1831
"2957",80.48707,445.1963
"2958",80.27955,445.20996
"2959",80.111084,445.22363
"2960",79.98901,445.23682
"2961",79.91089,445.25
"2962",79.871826,445.26367
"2963",79.85474,445.27734
"2964",79.83765,445.29053
"2965",79.80835,445.3037
"2966",79.75952,445.31738
"2967",79.68871,445.33105
"2968",79.5935,445.34424
"2969",79.48608,445.35742
"2970",79.36645,445.3711
"2971",79.24925,445.38477
"2972",79.13939,445.39795
"2973",79.044174,445.41113
"2974",78.96361,445.4248
"2975",78.89525,445.43848
"2976",78.84154,445.45166
"2977",78.79271,445.46484
"2978",78.75365,445.47852
"2979",78.71458,445.4922
"2980",78.677956,445.50537
"2981",78.643776,445.51855
"2982",78.61692,445.53223
"2983",78.590065,445.5459
"2984",78.57053,445.55908
"2985",78.551,445.57227
"2986",78.53147,445.58594
"2987",78.51194,445.5996
"2988",78.49729,445.6128
"2989",78.487526,445.62598
"2990",78.487526,445.63965
"2991",78.48264,445.65332
"2992",78.47532,445.6665
"2993",78.467995,445.6797
"2994",78.46067,445.69336
"2995",78.470436,445.70703
"2996",78.53147,445.7202
"2997",78.695045,445.7334
"2998",79.00023,445.74707
"2999",79.46899,445.76074
"3000",80.06958,445.77393
"3001",80.726326,445.7871
"3002",81.341576,445.80078
"3003",81.82498,445.81445
"3004",82.1326,445.82764
"3005",82.25956,445.84082
"3006",82.24246,445.8545
"3007",82.13016,445.86816
"3008",81.97391,445.88135
"3009",81.80789,445.89453
"3010",81.6614,445.9082
"3011",81.53933,445.92188
"3012",81.444115,445.93506
"3013",81.358665,445.94824
"3014",81.270775,445.9619
"3015",81.15602,445.9756
"3016",81.00954,445.98877
"3017",80.82643,446.00195
"3018",80.61402,446.01562
"3019",80.38941,446.0293
"3020",80.177,446.04248
"3021",80.00122,446.05566
"3022",79.871826,446.06934
"3023",79.78882,446.083
"3024",79.744865,446.0962
"3025",79.73266,446.10938
"3026",79.727776,446.12305
"3027",79.71313,446.13672
"3028",79.68627,446.1499
"3029",79.639885,446.1631
"3030",79.571526,446.17676
"3031",79.483635,446.19043
"3032",79.39086,446.2036
"3033",79.29565,446.2168
"3034",79.19798,446.23047
"3035",79.10765,446.24414
"3036",79.027084,446.25732
"3037",78.96117,446.2705
"3038",78.90257,446.28418
"3039",78.85863,446.29785
"3040",78.82445,446.31104
"3041",78.79759,446.32422
"3042",78.77562,446.3379
"3043",78.75609,446.35156
"3044",78.73411,446.36475
"3045",78.71458,446.37793
"3046",78.692604,446.3916
"3047",78.66819,446.40527
"3048",78.64622,446.41846
"3049",78.63645,446.43164
"3050",78.62913,446.4453
"3051",78.62913,446.45898
"3052",78.63401,446.47217
"3053",78.64622,446.48535
"3054",78.6511,446.49902
"3055",78.65354,446.5127
"3056",78.65598,446.52588
"3057",78.660866,446.53906
"3058",78.67063,446.55273
"3059",78.71946,446.5664
"3060",78.8513,446.5796
"3061",79.11986,446.59277
"3062",79.54955,446.60645
"3063",80.12329,446.62012
"3064",80.77516,446.6333
"3065",81.409935,446.64648
"3066",81.934845,446.66016
"3067",82.28397,446.67383
"3068",82.442665,446.687
"3069",82.44022,446.7002
"3070",82.32792,446.71387
"3071",82.14969,446.72754
"3072",81.95682,446.74072
"3073",81.778595,446.7539
"3074",81.62966,446.76758
"3075",81.50271,446.78125
"3076",81.39529,446.79443
"3077",81.290306,446.80762
"3078",81.17555,446.8213
"3079",81.03883,446.83496
"3080",80.87038,446.84814
"3081",80.6775,446.86133
"3082",80.47242,446.875
"3083",80.274666,446.88867
"3084",80.10376,446.90186
"3085",79.97925,446.91504
"3086",79.89624,446.9287
"3087",79.85474,446.94238
"3088",79.83765,446.95557
"3089",79.83032,446.96875
"3090",79.818115,446.98242
"3091",79.79126,446.9961
"3092",79.744865,447.00928
"3093",79.676506,447.02246
"3094",79.5935,447.03613
"3095",79.50561,447.0498
"3096",79.42016,447.063
"3097",79.33715,447.07617
"3098",79.26147,447.08984
"3099",79.19066,447.10352
"3100",79.12474,447.1167
"3101",79.06859,447.12988
"3102",79.01732,447.14355
"3103",78.97337,447.15723
"3104",78.93919,447.1704
"3105",78.91478,447.1836
"3106",78.89525,447.19727
"3107",78.873276,447.21094
"3108",78.8513,447.22412
"3109",78.83421,447.2373
"3110",78.82201,447.25098
"3111",78.81224,447.26465
"3112",78.81224,447.27783
"3113",78.81468,447.29102
"3114",78.819565,447.3047
"3115",78.81712,447.31836
"3116",78.81712,447.33154
"3117",78.81712,447.34473
"3118",78.81712,447.3584
"3119",78.81224,447.37207
"3120",78.80736,447.38525
"3121",78.81468,447.39844
"3122",78.86839,447.4121
"3123",79.027084,447.42578
"3124",79.34203,447.43896
"3125",79.823,447.45215
"3126",80.43824,447.46582
"3127",81.10719,447.4795
"3128",81.72488,447.49268
"3129",82.20096,447.50586
"3130",82.48417,447.51953
"3131",82.58427,447.5332
"3132",82.530556,447.5464
"3133",82.374306,447.55957
"3134",82.17166,447.57324
"3135",81.95926,447.5869
"3136",81.761505,447.6001
"3137",81.58816,447.61328
"3138",81.444115,447.62695
"3139",81.31716,447.64062
"3140",81.19508,447.6538
"3141",81.06569,447.667
"3142",80.92409,447.68066
"3143",80.75807,447.69434
"3144",80.5774,447.70752
"3145",80.394295,447.7207
"3146",80.22339,447.73438
"3147",80.079346,447.74805
"3148",79.96948,447.76123
"3149",79.8938,447.7744
"3150",79.84985,447.7881
"3151",79.823,447.80176
"3152",79.801025,447.81494
"3153",79.77905,447.82812
"3154",79.74975,447.8418
"3155",79.7058,447.85547
"3156",79.64477,447.86865
"3157",79.569084,447.88184
"3158",79.48119,447.8955
"3159",79.3933,447.90918
"3160",79.310295,447.92236
"3161",79.23216,447.93555
"3162",79.166245,447.94922
"3163",79.10765,447.9629
"3164",79.0515,447.97607
"3165",78.99779,447.98926
"3166",78.94896,448.00293
"3167",78.9099,448.0166
"3168",78.87816,448.0298
"3169",78.853745,448.04297
"3170",78.839096,448.05664
"3171",78.82933,448.0703
"3172",78.81712,448.0835
"3173",78.802475,448.09668
"3174",78.78783,448.11035
"3175",78.77806,448.12402
"3176",78.77074,448.1372
"3177",78.77562,448.1504
"3178",78.785385,448.16406
"3179",78.79515,448.17773
"3180",78.802475,448.19092
"3181",78.802475,448.2041
"3182",78.79515,448.21777
"3183",78.79759,448.23145
"3184",78.82689,448.24463
"3185",78.93431,448.2578
"3186",79.17357,448.27148
"3187",79.57641,448.28516
"3188",80.13794,448.29834
"3189",80.799576,448.31152
"3190",81.47341,448.3252
"3191",82.05203,448.33887
"3192",82.4622,448.35205
"3193",82.669716,448.36523
"3194",82.69657,448.3789
"3195",82.579384,448.39258
"3196",82.37675,448.40576
"3197",82.13748,448.41895
"3198",81.900665,448.43262
"3199",81.68337,448.4463
"3200",81.50515,448.45947
"3201",81.35378,448.47266
"3202",81.22438,448.48633
"3203",81.09987,448.5
"3204",80.972916,448.51318
"3205",80.82887,448.52637
"3206",80.67017,448.54004
"3207",80.5066,448.5537
"3208",80.34547,448.5669
"3209",80.201416,448.58008
"3210",80.08423,448.59375
"3211",80.00366,448.60742
"3212",79.957275,448.6206
"3213",79.9353,448.6338
"3214",79.923096,448.64746
"3215",79.91089,448.66113
"3216",79.886475,448.67432
"3217",79.83765,448.6875
"3218",79.77173,448.70117
"3219",79.691154,448.71484
"3220",79.603264,448.72803
"3221",79.51049,448.7412
"3222",79.41772,448.75488
"3223",79.33227,448.76855
"3224",79.2517,448.78174
"3225",79.18089,448.79492
"3226",79.11742,448.8086
"3227",79.06615,448.82227
"3228",79.0222,448.83545
"3229",78.98314,448.84863
"3230",78.95384,448.8623
"3231",78.93187,448.87598
"3232",78.91234,448.88916
"3233",78.89525,448.90234
"3234",78.88304,448.91602
"3235",78.87572,448.9297
"3236",78.870834,448.94287
"3237",78.86839,448.95605
"3238",78.870834,448.96973
"3239",78.86839,448.9834
"3240",78.870834,448.99658
"3241",78.873276,449.00977
"3242",78.87816,449.02344
"3243",78.8806,449.0371
"3244",78.88304,449.0503
"3245",78.88548,449.06348
"3246",78.89525,449.07715
"3247",78.95628,449.09082
"3248",79.11986,449.104
"3249",79.43969,449.1172
"3250",79.92554,449.13086
"3251",80.5481,449.14453
"3252",81.22926,449.1577
"3253",81.866486,449.1709
"3254",82.36942,449.18457
"3255",82.684364,449.19824
"3256",82.80644,449.21143
"3257",82.76982,449.2246
"3258",82.616005,449.23828
"3259",82.39872,449.25195
"3260",82.15701,449.26514
"3261",81.917755,449.27832
"3262",81.7029,449.292
"3263",81.514915,449.30566
"3264",81.35378,449.31885
"3265",81.21217,449.33203
"3266",81.08522,449.3457
"3267",80.95827,449.35938
"3268",80.82155,449.37256
"3269",80.672615,449.38574
"3270",80.51881,449.3994
"3271",80.36988,449.4131
"3272",80.23071,449.42627
"3273",80.11597,449.43945
"3274",80.03052,449.45312
"3275",79.96216,449.4668
"3276",79.91821,449.47998
"3277",79.886475,449.49316
"3278",79.85962,449.50684
"3279",79.82788,449.5205
"3280",79.781494,449.5337
"3281",79.72045,449.54688
"3282",79.64721,449.56055
"3283",79.5642,449.57422
"3284",79.47875,449.5874
"3285",79.398186,449.6006
"3286",79.32494,449.61426
"3287",79.259026,449.62793
"3288",79.19554,449.6411
"3289",79.14183,449.6543
"3290",79.09056,449.66797
"3291",79.046616,449.68164
"3292",79.00511,449.69482
"3293",78.97093,449.708
"3294",78.941635,449.72168
"3295",78.91966,449.73535
"3296",78.89769,449.74854
"3297",78.87572,449.76172
"3298",78.856186,449.7754
"3299",78.84642,449.78906
"3300",78.839096,449.80225
"3301",78.836655,449.81543
"3302",78.839096,449.8291
"3303",78.84398,449.84277
"3304",78.84642,449.85596
"3305",78.8513,449.86914
"3306",78.85863,449.8828
"3307",78.870834,449.89648
"3308",78.8806,449.90967
"3309",78.90013,449.92285
"3310",78.93919,449.93652
"3311",79.044174,449.9502
"3312",79.27856,449.96338
"3313",79.68383,449.97656
"3314",80.257576,449.99023
"3315",80.9485,450.0039
"3316",81.65652,450.0171
"3317",82.27421,450.03027
"3318",82.70878,450.04395
"3319",82.92851,450.05762
"3320",82.96025,450.0708
"3321",82.84062,450.08398
"3322",82.63065,450.09766
"3323",82.37919,450.11133
"3324",82.127716,450.1245
"3325",81.8909,450.1377
"3326",81.688255,450.15137
"3327",81.5198,450.16504
"3328",81.375755,450.17822
"3329",81.24635,450.1914
"3330",81.11696,450.20508
"3331",80.98268,450.21875
"3332",80.8362,450.23193
"3333",80.672615,450.24512
"3334",80.50416,450.2588
"3335",80.343025,450.27246
"3336",80.19165,450.28564
"3337",80.06714,450.29883
"3338",79.96948,450.3125
"3339",79.8938,450.32617
"3340",79.84253,450.33936
"3341",79.80591,450.35254
"3342",79.76929,450.3662
"3343",79.727776,450.37988
"3344",79.67895,450.39307
"3345",79.62035,450.40625
"3346",79.554436,450.41992
"3347",79.47875,450.4336
"3348",79.40063,450.44678
"3349",79.3225,450.45996
"3350",79.24193,450.47363
"3351",79.15892,450.4873
"3352",79.078354,450.5005
"3353",79.00755,450.51367
"3354",78.94408,450.52734
"3355",78.89281,450.54102
"3356",78.8513,450.5542
"3357",78.82201,450.56738
"3358",78.79515,450.58105
"3359",78.768295,450.59473
"3360",78.746315,450.6079
"3361",78.72678,450.6211
"3362",78.709694,450.63477
"3363",78.69749,450.64844
"3364",78.68772,450.66162
"3365",78.677956,450.6748
"3366",78.677956,450.68848
"3367",78.6804,450.70215
"3368",78.68528,450.71533
"3369",78.692604,450.72852
"3370",78.69993,450.7422
"3371",78.70237,450.75586
"3372",78.70725,450.76904
"3373",78.729225,450.78223
"3374",78.819565,450.7959
"3375",79.03685,450.80957
"3376",79.42504,450.82275
"3377",79.98657,450.83594
"3378",80.67506,450.8496
"3379",81.38796,450.86328
"3380",82.01541,450.87646
"3381",82.46952,450.88965
"3382",82.718544,450.90332
"3383",82.76738,450.917
"3384",82.66483,450.93018
"3385",82.45731,450.94336
"3386",82.20096,450.95703
"3387",81.92752,450.9707
"3388",81.66384,450.9839
"3389",81.427025,450.99707
"3390",81.2195,451.01074
"3391",81.03639,451.0244
"3392",80.8777,451.0376
"3393",80.726326,451.05078
"3394",80.57252,451.06445
"3395",80.41627,451.07812
"3396",80.26002,451.0913
"3397",80.10376,451.1045
"3398",79.96948,451.11816
"3399",79.85718,451.13184
"3400",79.77661,451.14502
"3401",79.72045,451.1582
"3402",79.68627,451.17188
"3403",79.6643,451.18555
"3404",79.64477,451.19873
"3405",79.61303,451.2119
"3406",79.569084,451.2256
"3407",79.51293,451.23926
"3408",79.43969,451.25244
"3409",79.35424,451.26562
"3410",79.26147,451.2793
"3411",79.1638,451.29297
"3412",79.06615,451.30615
"3413",78.97337,451.31934
"3414",78.887924,451.333
"3415",78.81224,451.34668
"3416",78.74387,451.35986
"3417",78.6804,451.37305
"3418",78.61692,451.38672
"3419",78.55833,451.4004
"3420",78.50706,451.41357
"3421",78.46311,451.42676
"3422",78.433815,451.44043
"3423",78.41184,451.4541
"3424",78.39475,451.4673
"3425",78.38499,451.48047
"3426",78.382545,451.49414
"3427",78.382545,451.5078
"3428",78.39231,451.521
"3429",78.40452,451.53418
"3430",78.4094,451.54785
"3431",78.40452,451.56152
"3432",78.38987,451.5747
"3433",78.363014,451.5879
"3434",78.35081,451.60156
"3435",78.399635,451.61523
"3436",78.5803,451.62842
"3437",78.93675,451.6416
"3438",79.47875,451.65527
"3439",80.147705,451.66895
"3440",80.850845,451.68213
"3441",81.46609,451.6953
"3442",81.89334,451.70898
"3443",82.09354,451.72266
"3444",82.06424,451.73584
"3445",81.84207,451.74902
"3446",81.49294,451.7627
"3447",81.08034,451.77637
"3448",80.66041,451.78955
"3449",80.28199,451.80273
"3450",79.96948,451.8164
"3451",79.71313,451.83008
"3452",79.49584,451.84326
"3453",79.29565,451.85645
"3454",79.10277,451.87012
"3455",78.922104,451.8838
"3456",78.76097,451.89697
"3457",78.62913,451.91016
"3458",78.54124,451.92383
"3459",78.49973,451.9375
"3460",78.49973,451.95068
"3461",78.53391,451.96387
"3462",78.590065,451.97754
"3463",78.65598,451.9912
"3464",78.7219,452.0044
"3465",78.77562,452.01758
"3466",78.81712,452.03125
"3467",78.84398,452.04492
"3468",78.85863,452.0581
"3469",78.86107,452.0713
"3470",78.853745,452.08496
"3471",78.839096,452.09863
"3472",78.81468,452.11182
"3473",78.78783,452.125
"3474",78.765854,452.13867
"3475",78.76097,452.15234
"3476",78.765854,452.16553
"3477",78.7805,452.1787
"3478",78.79271,452.19238
"3479",78.802475,452.20605
"3480",78.80003,452.21924
"3481",78.79759,452.23242
"3482",78.79271,452.2461
"3483",78.78783,452.25977
"3484",78.78783,452.27295
"3485",78.78294,452.28613
"3486",78.7805,452.2998
"3487",78.77318,452.31348
"3488",78.76341,452.32666
"3489",78.75365,452.33984
"3490",78.746315,452.35352
"3491",78.73899,452.3672
"3492",78.751205,452.38037
"3493",78.819565,452.39355
"3494",79.00267,452.40723
"3495",79.361565,452.4209
"3496",79.923096,452.43408
"3497",80.655525,452.44727
"3498",81.47097,452.46094
"3499",82.24979,452.4746
"3500",82.87724,452.4878
"3501",83.27764,452.50098
"3502",83.441216,452.51465
"3503",83.39971,452.52832
"3504",83.20683,452.5415
"3505",82.916306,452.5547
"3506",82.581825,452.56836
"3507",82.247345,452.58203
"3508",81.94217,452.5952
"3509",81.671165,452.6084
"3510",81.43679,452.62207
"3511",81.231705,452.63574
"3512",81.03883,452.64893
"3513",80.85329,452.6621
"3514",80.67506,452.67578
"3515",80.51148,452.68945
"3516",80.377205,452.70264
"3517",80.27955,452.71582
"3518",80.218506,452.7295
"3519",80.19409,452.74316
"3520",80.18921,452.75635
"3521",80.201416,452.76953
"3522",80.216064,452.7832
"3523",80.22583,452.79688
"3524",80.22095,452.81006
"3525",80.198975,452.82324
"3526",80.15259,452.8369
"3527",80.08423,452.8506
"3528",79.99878,452.86377
"3529",79.906006,452.87695
"3530",79.81323,452.89062
"3531",79.727776,452.9043
"3532",79.64477,452.91748
"3533",79.569084,452.93066
"3534",79.49584,452.94434
"3535",79.429924,452.958
"3536",79.36645,452.9712
"3537",79.31274,452.98438
"3538",79.27123,452.99805
"3539",79.23949,453.01172
"3540",79.217514,453.0249
"3541",79.202866,453.0381
"3542",79.19066,453.05176
"3543",79.18089,453.06543
"3544",79.17113,453.0786
"3545",79.16136,453.0918
"3546",79.15648,453.10547
"3547",79.19554,453.11914
"3548",79.33227,453.13232
"3549",79.63012,453.1455
"3550",80.113525,453.15918
"3551",80.75807,453.17285
"3552",81.49294,453.18604
"3553",82.210724,453.19922
"3554",82.79912,453.2129
"3555",83.18486,453.22656
"3556",83.34844,453.23975
"3557",83.319145,453.25293
"3558",83.13115,453.2666
"3559",82.845505,453.28027
"3560",82.511024,453.29346
"3561",82.16678,453.30664
"3562",81.846954,453.3203
"3563",81.55642,453.33398
"3564",81.29763,453.34717
"3565",81.06325,453.36035
"3566",80.84108,453.37402
"3567",80.62867,453.3877
"3568",80.4358,453.40088
"3569",80.274666,453.41406
"3570",80.15015,453.42773
"3571",80.06958,453.4414
"3572",80.03296,453.4546
"3573",80.04028,453.46777
"3574",80.06958,453.48145
"3575",80.10864,453.49512
"3576",80.14282,453.5083
"3577",80.15747,453.52148
"3578",80.13794,453.53516
"3579",80.08423,453.54883
"3580",80.00366,453.562
"3581",79.906006,453.5752
"3582",79.7937,453.58887
"3583",79.68139,453.60254
"3584",79.571526,453.61572
"3585",79.47387,453.6289
"3586",79.38354,453.64258
"3587",79.31274,453.65625
"3588",79.25414,453.66943
"3589",79.20531,453.68262
"3590",79.1638,453.6963
"3591",79.132065,453.70996
"3592",79.11253,453.72314
"3593",79.09544,453.73633
"3594",79.08324,453.75
"3595",79.07591,453.76367
"3596",79.07347,453.77686
"3597",79.09544,453.79004
"3598",79.19554,453.8037
"3599",79.43969,453.81738
"3600",79.86206,453.83057
"3601",80.45777,453.84375
"3602",81.16823,453.85742
"3603",81.89334,453.8711
"3604",82.52323,453.88428
"3605",82.96513,453.89746
"3606",83.192184,453.91113
"3607",83.22392,453.9248
"3608",83.09453,453.938
"3609",82.86015,453.95117
"3610",82.56962,453.96484
"3611",82.27177,453.97852
"3612",81.99588,453.9917
"3613",81.75662,454.00488
"3614",81.56374,454.01855
"3615",81.409935,454.03223
"3616",81.2781,454.0454
"3617",81.15846,454.0586
"3618",81.041275,454.07227
"3619",80.93141,454.08594
"3620",80.831314,454.09912
"3621",80.75075,454.1123
"3622",80.68482,454.12598
"3623",80.635994,454.13965
"3624",80.59693,454.15283
"3625",80.56275,454.16602
"3626",80.52125,454.1797
"3627",80.46998,454.19336
"3628",80.40162,454.20654
"3629",80.31617,454.21973
"3630",80.21362,454.2334
"3631",80.09888,454.24707
"3632",79.97925,454.26025
"3633",79.852295,454.27344
"3634",79.72045,454.2871
"3635",79.586174,454.30078
"3636",79.46166,454.31396
"3637",79.344475,454.32715
"3638",79.237045,454.34082
"3639",79.14427,454.3545
"3640",79.063705,454.36768
"3641",78.98802,454.38086
"3642",78.91478,454.39453
"3643",78.84642,454.4082
"3644",78.77806,454.4214
"3645",78.71458,454.43457
"3646",78.658424,454.44824
"3647",78.63401,454.4619
"3648",78.67063,454.4751
"3649",78.836655,454.48828
"3650",79.17601,454.50195
"3651",79.69848,454.51562
"3652",80.365,454.5288
"3653",81.092545,454.542
"3654",81.76639,454.55566
"3655",82.28886,454.56934
"3656",82.60624,454.58252
"3657",82.71366,454.5957
"3658",82.65507,454.60938
"3659",82.47929,454.62305
"3660",82.24246,454.63623
"3661",81.988556,454.6494
"3662",81.75418,454.6631
"3663",81.549095,454.67676
"3664",81.375755,454.68994
"3665",81.22926,454.70312
"3666",81.092545,454.7168
"3667",80.955826,454.73047
"3668",80.80934,454.74365
"3669",80.65308,454.75684
"3670",80.49195,454.7705
"3671",80.35035,454.78418
"3672",80.235596,454.79736
"3673",80.15991,454.81055
"3674",80.11597,454.82422
"3675",80.09888,454.8379
"3676",80.08911,454.85107
"3677",80.07446,454.86426
"3678",80.045166,454.87793
"3679",80.00122,454.8916
"3680",79.9353,454.9048
"3681",79.85962,454.91797
"3682",79.77173,454.93164
"3683",79.68383,454.9453
"3684",79.59594,454.9585
"3685",79.51537,454.97168
"3686",79.432365,454.98535
"3687",79.35668,454.99902
"3688",79.28832,455.0122
"3689",79.22972,455.0254
"3690",79.183334,455.03906
"3691",79.14671,455.05273
"3692",79.11742,455.06592
"3693",79.093,455.0791
"3694",79.07347,455.09277
"3695",79.0515,455.10645
"3696",79.03685,455.11963
"3697",79.027084,455.1328
"3698",79.046616,455.14648
"3699",79.13939,455.16016
"3700",79.35424,455.17334
"3701",79.73022,455.18652
"3702",80.26734,455.2002
"3703",80.921646,455.21387
"3704",81.602806,455.22705
"3705",82.20828,455.24023
"3706",82.652626,455.2539
"3707",82.90166,455.26758
"3708",82.96513,455.28076
"3709",82.879684,455.29395
"3710",82.69901,455.30762
"3711",82.47929,455.3213
"3712",82.252235,455.33447
"3713",82.04227,455.34766
"3714",81.8616,455.36133
"3715",81.705345,455.375
"3716",81.55642,455.38818
"3717",81.40505,455.40137
"3718",81.24391,455.41504
"3719",81.077896,455.4287
"3720",80.91188,455.4419
"3721",80.765396,455.45508
"3722",80.6482,455.46875
"3723",80.570076,455.48242
"3724",80.52369,455.4956
"3725",80.50172,455.5088
"3726",80.49439,455.52246
"3727",80.49195,455.53613
"3728",80.48951,455.54932
"3729",80.479744,455.5625
"3730",80.43824,455.57617
"3731",80.34791,455.58984
"3732",80.20874,455.60303
"3733",80.045166,455.6162
"3734",79.87427,455.62988
"3735",79.71801,455.64355
"3736",79.5935,455.65674
"3737",79.50561,455.66992
"3738",79.429924,455.6836
"3739",79.34692,455.69727
"3740",79.26635,455.71045
"3741",79.185776,455.72363
"3742",79.114975,455.7373
"3743",79.05394,455.75098
"3744",78.99779,455.76416
"3745",78.94652,455.77734
"3746",78.89525,455.79102
"3747",78.84886,455.8047
"3748",78.83421,455.81787
"3749",78.89769,455.83105
"3750",79.09056,455.84473
"3751",79.43481,455.8584
"3752",79.91577,455.87158
"3753",80.482185,455.88477
"3754",81.05348,455.89844
"3755",81.53445,455.9121
"3756",81.87381,455.9253
"3757",82.039825,455.93848
"3758",82.04959,455.95215
"3759",81.934845,455.96582
"3760",81.74197,455.979
"3761",81.50271,455.9922
"3762",81.26101,456.00586
"3763",81.03151,456.01953
"3764",80.816666,456.0327
"3765",80.61646,456.0459
"3766",80.42359,456.05957
"3767",80.233154,456.07324
"3768",80.04761,456.08643
"3769",79.87671,456.0996
"3770",79.73266,456.11328
"3771",79.622795,456.12695
"3772",79.55932,456.14014
"3773",79.537346,456.15332
"3774",79.54711,456.167
"3775",79.57397,456.18066
"3776",79.59838,456.19385
"3777",79.61059,456.20703
"3778",79.59838,456.2207
"3779",79.55688,456.23438
"3780",79.48852,456.24756
"3781",79.398186,456.26074
"3782",79.293205,456.2744
"3783",79.18089,456.2881
"3784",79.07103,456.30127
"3785",78.96849,456.31445
"3786",78.8806,456.32812
"3787",78.80736,456.3418
"3788",78.74876,456.35498
"3789",78.70237,456.36816
"3790",78.67063,456.38184
"3791",78.64622,456.3955
"3792",78.63157,456.4087
"3793",78.6218,456.42188
"3794",78.61936,456.43555
"3795",78.643776,456.44922
"3796",78.73167,456.4624
"3797",78.93431,456.4756
"3798",79.281,456.48926
"3799",79.77417,456.50293
"3800",80.360115,456.5161
"3801",80.96803,456.5293
"3802",81.497826,456.54297
"3803",81.88846,456.55664
"3804",82.11063,456.56982
"3805",82.176544,456.583
"3806",82.11551,456.59668
"3807",81.971466,456.61035
"3808",81.78592,456.62354
"3809",81.58816,456.63672
"3810",81.40261,456.6504
"3811",81.234146,456.66406
"3812",81.08034,456.67725
"3813",80.92897,456.69043
"3814",80.74586,456.7041
"3815",80.50416,456.71777
"3816",80.20874,456.73096
"3817",79.906006,456.74414
"3818",79.63256,456.7578
"3819",79.429924,456.77148
"3820",79.33227,456.78467
"3821",79.33227,456.79785
"3822",79.39086,456.81152
"3823",79.45434,456.8252
"3824",79.49828,456.83838
"3825",79.51049,456.85156
"3826",79.48852,456.86523
"3827",79.43725,456.8789
"3828",79.36645,456.8921
"3829",79.28344,456.90527
"3830",79.19066,456.91895
"3831",79.08568,456.93262
"3832",78.97337,456.9458
"3833",78.870834,456.95898
"3834",78.7805,456.97266
"3835",78.709694,456.98633
"3836",78.65354,456.9995
"3837",78.607155,457.0127
"3838",78.56809,457.02637
"3839",78.536354,457.04004
"3840",78.52903,457.05322
"3841",78.572975,457.0664
"3842",78.70725,457.08008
"3843",78.96849,457.09375
"3844",79.36645,457.10693
"3845",79.88159,457.12012
"3846",80.45289,457.1338
"3847",80.99489,457.14746
"3848",81.43435,457.16064
"3849",81.72732,457.17383
"3850",81.85916,457.1875
"3851",81.85672,457.20117
"3852",81.76883,457.21436
"3853",81.634544,457.22754
"3854",81.49294,457.2412
"3855",81.358665,457.25488
"3856",81.248795,457.26807
"3857",81.1487,457.28125
"3858",81.0486,457.29492
"3859",80.938736,457.3086
"3860",80.81178,457.32178
"3861",80.66773,457.33496
"3862",80.52125,457.34863
"3863",80.38697,457.3623
"3864",80.28199,457.3755
"3865",80.21118,457.38867
"3866",80.17212,457.40234
"3867",80.164795,457.41602
"3868",80.16724,457.4292
"3869",80.15503,457.44238
"3870",80.113525,457.45605
"3871",80.0354,457.46973
"3872",79.923096,457.4829
"3873",79.77417,457.4961
"3874",79.605705,457.50977
"3875",79.43725,457.52344
"3876",79.27856,457.53662
"3877",79.13451,457.5498
"3878",79.012436,457.56348
"3879",78.9099,457.57715
"3880",78.81712,457.59033
"3881",78.73411,457.60352
"3882",78.66331,457.6172
"3883",78.60227,457.63086
"3884",78.54856,457.64404
"3885",78.50706,457.65723
"3886",78.487526,457.6709
"3887",78.52659,457.68457
"3888",78.67307,457.69775
"3889",78.96849,457.71094
"3890",79.41039,457.7246
"3891",79.96216,457.73828
"3892",80.53834,457.75146
"3893",81.058365,457.76465
"3894",81.449,457.77832
"3895",81.67605,457.792
"3896",81.75174,457.80518
"3897",81.70779,457.81836
"3898",81.58816,457.83203
"3899",81.43191,457.8457
"3900",81.26833,457.8589
"3901",81.112076,457.87207
"3902",80.95827,457.88574
"3903",80.80202,457.8994
"3904",80.62867,457.9126
"3905",80.42603,457.92578
"3906",80.18921,457.93945
"3907",79.93042,457.95312
"3908",79.6643,457.9663
"3909",79.412834,457.9795
"3910",79.202866,457.99316
"3911",79.046616,458.00684
"3912",78.95628,458.02002
"3913",78.924545,458.0332
"3914",78.93675,458.04688
"3915",78.96605,458.06055
"3916",78.995346,458.07373
"3917",79.00511,458.0869
"3918",78.98802,458.1006
"3919",78.93919,458.11426
"3920",78.86839,458.12744
"3921",78.78294,458.14062
"3922",78.69016,458.1543
"3923",78.60471,458.16797
"3924",78.52903,458.18115
"3925",78.46555,458.19434
"3926",78.41184,458.208
"3927",78.37766,458.22168
"3928",78.348366,458.23486
"3929",78.33372,458.24805
"3930",78.32639,458.26172
"3931",78.32151,458.2754
"3932",78.31663,458.28857
"3933",78.30686,458.30176
"3934",78.2971,458.31543
"3935",78.28977,458.3291
"3936",78.30442,458.3423
"3937",78.380104,458.35547
"3938",78.57786,458.36914
"3939",78.93431,458.3828
"3940",79.45678,458.396
"3941",80.09155,458.40918
"3942",80.75563,458.42285
"3943",81.3489,458.43652
"3944",81.79324,458.4497
"3945",82.05203,458.4629
"3946",82.15213,458.47656
"3947",82.1326,458.49023
"3948",82.04471,458.50342
"3949",81.9324,458.5166
"3950",81.82254,458.53027
"3951",81.72732,458.54395
"3952",81.64675,458.55713
"3953",81.57107,458.5703
"3954",81.48806,458.58398
"3955",81.38796,458.59766
"3956",81.253685,458.61084
"3957",81.08522,458.62402
"3958",80.885025,458.6377
"3959",80.67017,458.65137
"3960",80.46021,458.66455
"3961",80.28687,458.67773
"3962",80.15259,458.6914
"3963",80.06714,458.70508
"3964",80.01831,458.71826
"3965",79.99634,458.73145
"3966",79.97925,458.74512
"3967",79.957275,458.7588
"3968",79.923096,458.77197
"3969",79.869385,458.78516
"3970",79.78882,458.79883
"3971",79.691154,458.8125
"3972",79.58373,458.82568
"3973",79.46899,458.83887
"3974",79.35424,458.85254
"3975",79.24437,458.8662
"3976",79.14671,458.8794
"3977",79.05882,458.89258
"3978",78.98314,458.90625
"3979",78.91478,458.91992
"3980",78.8513,458.9331
"3981",78.79027,458.9463
"3982",78.73167,458.95996
"3983",78.68284,458.97363
"3984",78.64622,458.98682
"3985",78.61936,459
"3986",78.60471,459.01367
"3987",78.590065,459.02734
"3988",78.572975,459.04053
"3989",78.551,459.0537
"3990",78.52659,459.06738
"3991",78.49729,459.08105
"3992",78.47776,459.09424
"3993",78.49485,459.10742
"3994",78.6096,459.1211
"3995",78.86351,459.13477
"3996",79.28832,459.14795
"3997",79.85962,459.16113
"3998",80.51148,459.1748
"3999",81.143814,459.18848
"4000",81.66628,459.20166
"4001",82.01297,459.21484
"4002",82.18387,459.22852
"4003",82.20584,459.2422
"4004",82.127716,459.25537
"4005",82.005646,459.26855
"4006",81.87869,459.28223
"4007",81.76639,459.2959
"4008",81.685814,459.30908
"4009",81.619896,459.32227
"4010",81.55886,459.33594
"4011",81.478294,459.3496
"4012",81.36355,459.3628
"4013",81.20241,459.37598
"4014",80.99977,459.38965
"4015",80.76784,459.40332
"4016",80.53101,459.4165
"4017",80.308846,459.4297
"4018",80.12329,459.44336
"4019",79.98901,459.45703
"4020",79.903564,459.4702
"4021",79.86206,459.4834
"4022",79.84497,459.49707
"4023",79.83276,459.51074
"4024",79.81323,459.52393
"4025",79.77661,459.5371
"4026",79.710686,459.55078
"4027",79.622795,459.56445
"4028",79.517815,459.57764
"4029",79.398186,459.59082
"4030",79.27123,459.6045
"4031",79.14671,459.61816
"4032",79.03197,459.63135
"4033",78.92699,459.64453
"4034",78.836655,459.6582
"4035",78.75853,459.67188
"4036",78.695045,459.68506
"4037",78.643776,459.69824
"4038",78.59983,459.7119
"4039",78.56565,459.7256
"4040",78.53391,459.73877
"4041",78.502174,459.75195
"4042",78.47288,459.76562
"4043",78.44846,459.7793
"4044",78.42893,459.79248
"4045",78.41917,459.80566
"4046",78.416725,459.81934
"4047",78.41428,459.833
"4048",78.41428,459.8462
"4049",78.41917,459.85938
"4050",78.416725,459.87305
"4051",78.4094,459.88672
"4052",78.40208,459.8999
"4053",78.39231,459.9131
"4054",78.40696,459.92676
"4055",78.49241,459.94043
"4056",78.712135,459.9536
"4057",79.10521,459.9668
"4058",79.66186,459.98047
"4059",80.325935,459.99414
"4060",80.990005,460.00732
"4061",81.55886,460.0205
"4062",81.95682,460.03418
"4063",82.161896,460.04785
"4064",82.2034,460.06104
"4065",82.13992,460.07422
"4066",82.01785,460.0879
"4067",81.88602,460.10156
"4068",81.76639,460.11475
"4069",81.671165,460.12793
"4070",81.59792,460.1416
"4071",81.532005,460.15527
"4072",81.45876,460.16846
"4073",81.36599,460.18164
"4074",81.231705,460.1953
"4075",81.06325,460.20898
"4076",80.86061,460.22217
"4077",80.638435,460.23535
"4078",80.41871,460.24902
"4079",80.22095,460.2627
"4080",80.0647,460.27588
"4081",79.954834,460.28906
"4082",79.89136,460.30273
"4083",79.86206,460.3164
"4084",79.84497,460.3296
"4085",79.82788,460.34277
"4086",79.798584,460.35645
"4087",79.742424,460.37012
"4088",79.66674,460.3833
"4089",79.56664,460.39648
"4090",79.45678,460.41016
"4091",79.33959,460.42383
"4092",79.22484,460.437
"4093",79.114975,460.4502
"4094",79.01976,460.46387
"4095",78.93919,460.47754
"4096",78.86839,460.49072
"4097",78.80736,460.5039
"4098",78.751205,460.51758
"4099",78.70481,460.53125
"4100",78.66331,460.54443
"4101",78.63157,460.55762
"4102",78.607155,460.5713
"4103",78.59495,460.58496
"4104",78.5803,460.59814
"4105",78.56321,460.61133
"4106",78.54368,460.625
"4107",78.52415,460.63867
"4108",78.502174,460.65186
"4109",78.48264,460.66504
"4110",78.470436,460.6787
"4111",78.46311,460.69238
"4112",78.46555,460.70557
"4113",78.470436,460.71875
"4114",78.48264,460.73242
"4115",78.49241,460.7461
"4116",78.502174,460.75928
"4117",78.504616,460.77246
"4118",78.519264,460.78613
"4119",78.57786,460.7998
"4120",78.73411,460.813
"4121",79.03441,460.82617
"4122",79.500725,460.83984
"4123",80.09888,460.85352
"4124",80.765396,460.8667
"4125",81.39529,460.87988
"4126",81.90311,460.89355
"4127",82.23758,460.90723
"4128",82.388954,460.9204
"4129",82.391396,460.9336
"4130",82.2913,460.94727
"4131",82.144806,460.96094
"4132",81.986115,460.97412
"4133",81.85184,460.9873
"4134",81.74197,461.00098
"4135",81.65652,461.01465
"4136",81.57839,461.02783
"4137",81.49294,461.04102
"4138",81.3904,461.0547
"4139",81.25857,461.06836
"4140",81.094986,461.08154
"4141",80.90456,461.09473
"4142",80.69947,461.1084
"4143",80.48951,461.12207
"4144",80.29908,461.13525
"4145",80.14038,461.14844
"4146",80.02319,461.1621
"4147",79.94751,461.17578
"4148",79.89868,461.18896
"4149",79.869385,461.20215
"4150",79.83765,461.21582
"4151",79.7937,461.2295
"4152",79.727776,461.24268
"4153",79.639885,461.25586
"4154",79.53979,461.26953
"4155",79.43481,461.2832
"4156",79.327385,461.2964
"4157",79.23216,461.30957
"4158",79.14671,461.32324
"4159",79.06859,461.3369
"4160",78.99046,461.3501
"4161",78.91966,461.36328
"4162",78.8513,461.37695
"4163",78.79271,461.39062
"4164",78.74143,461.4038
"4165",78.69993,461.417
"4166",78.66575,461.43066
"4167",78.62913,461.44434
"4168",78.58762,461.45752
"4169",78.54612,461.4707
"4170",78.50706,461.48438
"4171",78.47532,461.49805
"4172",78.45335,461.51123
"4173",78.433815,461.5244
"4174",78.41184,461.5381
"4175",78.38743,461.55176
"4176",78.363014,461.56494
"4177",78.34104,461.57812
"4178",78.32395,461.5918
"4179",78.30686,461.60547
"4180",78.28977,461.61865
"4181",78.27512,461.63184
"4182",78.2678,461.6455
"4183",78.27512,461.65918
"4184",78.331276,461.67236
"4185",78.48997,461.68555
"4186",78.79271,461.69922
"4187",79.259026,461.7129
"4188",79.86694,461.72607
"4189",80.54322,461.73926
"4190",81.1902,461.75293
"4191",81.71755,461.7666
"4192",82.06912,461.7798
"4193",82.24246,461.79297
"4194",82.25956,461.80664
"4195",82.16922,461.8203
"4196",82.01785,461.8335
"4197",81.84451,461.84668
"4198",81.67361,461.86035
"4199",81.52712,461.87402
"4200",81.40505,461.8872
"4201",81.30251,461.9004
"4202",81.20485,461.91406
"4203",81.10231,461.92773
"4204",80.9778,461.94092
"4205",80.81911,461.9541
"4206",80.63355,461.96777
"4207",80.430916,461.98145
"4208",80.23071,461.99463
"4209",80.05493,462.0078
"4210",79.923096,462.02148
"4211",79.84009,462.03516
"4212",79.801025,462.04834
"4213",79.7937,462.06152
"4214",79.80591,462.0752
"4215",79.815674,462.08887
"4216",79.815674,462.10205
"4217",79.798584,462.11523
"4218",79.764404,462.1289
"4219",79.71313,462.14258
"4220",79.64477,462.15576
"4221",79.56664,462.16895
"4222",79.47875,462.18262
"4223",79.3933,462.1963
"4224",79.31518,462.20947
"4225",79.24925,462.22266
"4226",79.19798,462.23633
"4227",79.16136,462.25
"4228",79.13695,462.26318
"4229",79.114975,462.27637
"4230",79.10277,462.29004
"4231",79.093,462.3037
"4232",79.09056,462.3169
"4233",79.093,462.33008
"4234",79.10277,462.34375
"4235",79.11009,462.35742
"4236",79.11742,462.3706
"4237",79.11742,462.3838
"4238",79.11253,462.39746
"4239",79.11253,462.41113
"4240",79.114975,462.42432
"4241",79.1223,462.4375
"4242",79.132065,462.45117
"4243",79.13451,462.46484
"4244",79.132065,462.47803
"4245",79.1223,462.4912
"4246",79.10521,462.50488
"4247",79.09544,462.51855
"4248",79.11742,462.53174
"4249",79.2224,462.54492
"4250",79.46899,462.5586
"4251",79.88403,462.57227
"4252",80.45045,462.58545
"4253",81.10475,462.59863
"4254",81.75418,462.6123
"4255",82.29618,462.62598
"4256",82.667274,462.63916
"4257",82.85039,462.65234
"4258",82.86748,462.66602
"4259",82.76738,462.6797
"4260",82.59159,462.69287
"4261",82.391396,462.70605
"4262",82.196075,462.71973
"4263",82.022736,462.7334
"4264",81.87381,462.74658
"4265",81.74685,462.75977
"4266",81.634544,462.77344
"4267",81.51736,462.7871
"4268",81.38552,462.8003
"4269",81.231705,462.81348
"4270",81.058365,462.82715
"4271",80.87526,462.84082
"4272",80.69215,462.854
"4273",80.533455,462.8672
"4274",80.39918,462.88086
"4275",80.29664,462.89453
"4276",80.218506,462.9077
"4277",80.16235,462.9209
"4278",80.12085,462.93457
"4279",80.08423,462.94824
"4280",80.042725,462.96143
"4281",79.991455,462.9746
"4282",79.923096,462.98828
"4283",79.84009,463.00195
"4284",79.744865,463.01514
"4285",79.64233,463.02832
"4286",79.53979,463.042
"4287",79.43969,463.05566
"4288",79.34692,463.06885
"4289",79.26147,463.08203
"4290",79.185776,463.0957
"4291",79.11986,463.10938
"4292",79.06615,463.12256
"4293",79.0222,463.13574
"4294",78.98558,463.1494
"4295",78.95628,463.1631
"4296",78.93187,463.17627
"4297",78.91234,463.18945
"4298",78.890366,463.20312
"4299",78.873276,463.2168
"4300",78.85863,463.22998
"4301",78.84642,463.24316
"4302",78.83421,463.25684
"4303",78.82445,463.2705
"4304",78.81224,463.2837
"4305",78.802475,463.29688
"4306",78.79759,463.31055
"4307",78.79515,463.32422
"4308",78.78783,463.3374
"4309",78.7805,463.3506
"4310",78.77318,463.36426
"4311",78.78294,463.37793
"4312",78.84398,463.3911
"4313",79.01732,463.4043
"4314",79.344475,463.41797
"4315",79.83276,463.43164
"4316",80.445564,463.44482
"4317",81.112076,463.458
"4318",81.71999,463.47168
"4319",82.19119,463.48535
"4320",82.4744,463.49854
"4321",82.57694,463.51172
"4322",82.528114,463.5254
"4323",82.37919,463.53906
"4324",82.178986,463.55225
"4325",81.9617,463.56543
"4326",81.75662,463.5791
"4327",81.57595,463.59277
"4328",81.427025,463.60596
"4329",81.30007,463.61914
"4330",81.180435,463.6328
"4331",81.05348,463.64648
"4332",80.91188,463.65967
"4333",80.7483,463.67285
"4334",80.57496,463.68652
"4335",80.40406,463.7002
"4336",80.25025,463.71338
"4337",80.11597,463.72656
"4338",80.008545,463.74023
"4339",79.93286,463.7539
"4340",79.886475,463.7671
"4341",79.85718,463.78027
"4342",79.835205,463.79395
"4343",79.80591,463.80762
"4344",79.75952,463.8208
"4345",79.68871,463.83398
"4346",79.60082,463.84766
"4347",79.50317,463.86133
"4348",79.40063,463.8745
"4349",79.30053,463.8877
"4350",79.202866,463.90137
"4351",79.11009,463.91504
"4352",79.03197,463.92822
"4353",78.96361,463.9414
"4354",78.907455,463.95508
"4355",78.86595,463.96875
"4356",78.83421,463.98193
"4357",78.80736,463.99512
"4358",78.78783,464.0088
"4359",78.77562,464.02246
"4360",78.765854,464.03564
"4361",78.75609,464.04883
"4362",78.746315,464.0625
"4363",78.73655,464.07617
"4364",78.73167,464.08936
"4365",78.73655,464.10254
"4366",78.74876,464.1162
"4367",78.75853,464.12988
"4368",78.765854,464.14307
"4369",78.765854,464.15625
"4370",78.76341,464.16992
"4371",78.76097,464.1836
"4372",78.77562,464.19678
"4373",78.836655,464.20996
"4374",79.00267,464.22363
"4375",79.31518,464.2373
"4376",79.79126,464.2505
"4377",80.396736,464.26367
"4378",81.06081,464.27734
"4379",81.68337,464.29102
"4380",82.16678,464.3042
"4381",82.4622,464.31738
"4382",82.57694,464.33105
"4383",82.54032,464.34473
"4384",82.39628,464.3579
"4385",82.20096,464.3711
"4386",81.988556,464.38477
"4387",81.78836,464.39844
"4388",81.61013,464.41162
"4389",81.461205,464.4248
"4390",81.33425,464.43848
"4391",81.21706,464.45215
"4392",81.094986,464.46533
"4393",80.955826,464.47852
"4394",80.799576,464.4922
"4395",80.62867,464.50586
"4396",80.46021,464.51904
"4397",80.308846,464.53223
"4398",80.18921,464.5459
"4399",80.10376,464.55957
"4400",80.05005,464.57275
"4401",80.01587,464.58594
"4402",79.9939,464.5996
"4403",79.971924,464.61328
"4404",79.940186,464.62646
"4405",79.888916,464.63965
"4406",79.82788,464.65332
"4407",79.7522,464.667
"4408",79.66674,464.68018
"4409",79.57397,464.69336
"4410",79.483635,464.70703
"4411",79.39086,464.7207
"4412",79.30541,464.7339
"4413",79.22728,464.74707
"4414",79.16136,464.76074
"4415",79.10521,464.7744
"4416",79.05882,464.7876
"4417",79.0222,464.80078
"4418",78.995346,464.81445
"4419",78.97337,464.82812
"4420",78.96117,464.8413
"4421",78.9514,464.8545
"4422",78.941635,464.86816
"4423",78.92943,464.88184
"4424",78.91234,464.89502
"4425",78.890366,464.9082
"4426",78.86839,464.92188
"4427",78.8513,464.93555
"4428",78.84154,464.94873
"4429",78.83421,464.9619
"4430",78.82445,464.9756
"4431",78.80492,464.98926
"4432",78.77806,465.00244
"4433",78.75609,465.01562
"4434",78.76097,465.0293
"4435",78.836655,465.04297
"4436",79.04173,465.05615
"4437",79.42016,465.06934
"4438",79.96704,465.083
"4439",80.635994,465.09668
"4440",81.32693,465.10986
"4441",81.93973,465.12305
"4442",82.39384,465.13672
"4443",82.64286,465.1504
"4444",82.703896,465.16357
"4445",82.62333,465.17676
"4446",82.44755,465.19043
"4447",82.22537,465.2041
"4448",81.99588,465.2173
"4449",81.78836,465.23047
"4450",81.61257,465.24414
"4451",81.46853,465.2578
"4452",81.35134,465.271
"4453",81.253685,465.28418
"4454",81.15602,465.29785
"4455",81.04372,465.31152
"4456",80.907,465.3247
"4457",80.7483,465.3379
"4458",80.5774,465.35156
"4459",80.40894,465.36523
"4460",80.257576,465.37842
"4461",80.14038,465.3916
"4462",80.05005,465.40527
"4463",79.98169,465.41895
"4464",79.923096,465.43213
"4465",79.871826,465.4453
"4466",79.815674,465.45898
"4467",79.744865,465.47266
"4468",79.66674,465.48584
"4469",79.57885,465.49902
"4470",79.48608,465.5127
"4471",79.39086,465.52637
"4472",79.293205,465.53955
"4473",79.1931,465.55273
"4474",79.09544,465.5664
"4475",78.99779,465.58008
"4476",78.905014,465.59326
"4477",78.82933,465.60645
"4478",78.768295,465.62012
"4479",78.712135,465.6338
"4480",78.66331,465.64697
"4481",78.61448,465.66016
"4482",78.56809,465.67383
"4483",78.519264,465.6875
"4484",78.47532,465.70068
"4485",78.43626,465.71387
"4486",78.40696,465.72754
"4487",78.38499,465.7412
"4488",78.3679,465.7544
"4489",78.35569,465.76758
"4490",78.3386,465.78125
"4491",78.3093,465.79492
"4492",78.260475,465.8081
"4493",78.19455,465.8213
"4494",78.12619,465.83496
"4495",78.07492,465.84863
"4496",78.09201,465.86182
"4497",78.24338,465.875
"4498",78.56809,465.88867
"4499",79.07103,465.90234
"4500",79.708244,465.91553
"4501",80.38697,465.9287
"4502",80.99733,465.94238
"4503",81.45388,465.95605
"4504",81.71999,465.96924
"4505",81.80301,465.98242
"4506",81.74441,465.9961
"4507",81.58816,466.00977
"4508",81.38796,466.02295
"4509",81.17799,466.03613
"4510",80.98268,466.0498
"4511",80.81911,466.06348
"4512",80.689705,466.07666
"4513",80.59449,466.08984
"4514",80.52125,466.10352
"4515",80.45045,466.1172
