"","ppg","time"
"1",81.42947,643.37646
"2",81.30251,643.38965
"3",81.19997,643.4033
"4",81.12428,643.417
"5",81.06081,643.4302
"6",80.98512,643.44336
"7",80.885025,643.45703
"8",80.75563,643.4707
"9",80.6067,643.4839
"10",80.448006,643.4971
"11",80.30152,643.51074
"12",80.181885,643.5244
"13",80.09888,643.5376
"14",80.04761,643.5508
"15",80.01587,643.56445
"16",79.99878,643.5781
"17",79.98413,643.5913
"18",79.95972,643.6045
"19",79.920654,643.61816
"20",79.86694,643.63184
"21",79.79614,643.645
"22",79.71801,643.6582
"23",79.63256,643.6719
"24",79.554436,643.68555
"25",79.48119,643.6987
"26",79.415276,643.7119
"27",79.35912,643.7256
"28",79.30785,643.73926
"29",79.26391,643.75244
"30",79.22484,643.7656
"31",79.1931,643.7793
"32",79.168686,643.79297
"33",79.14671,643.80615
"34",79.12718,643.81934
"35",79.11009,643.833
"36",79.09544,643.8467
"37",79.08324,643.85986
"38",79.07347,643.87305
"39",79.06615,643.8867
"40",79.05882,643.9004
"41",79.05638,643.9136
"42",79.05638,643.92676
"43",79.061264,643.9404
"44",79.06859,643.9541
"45",79.078354,643.9673
"46",79.08568,643.98047
"47",79.08812,643.99414
"48",79.08324,644.0078
"49",79.078354,644.021
"50",79.07591,644.0342
"51",79.093,644.04785
"52",79.166245,644.0615
"53",79.34203,644.0747
"54",79.639885,644.0879
"55",80.059814,644.10156
"56",80.552986,644.11523
"57",81.04372,644.1284
"58",81.45144,644.1416
"59",81.722435,644.1553
"60",81.83963,644.16895
"61",81.82254,644.1821
"62",81.71755,644.1953
"63",81.566185,644.209
"64",81.409935,644.22266
"65",81.27322,644.23584
"66",81.16579,644.249
"67",81.08034,644.2627
"68",81.00954,644.27637
"69",80.93385,644.28955
"70",80.84352,644.30273
"71",80.73121,644.3164
"72",80.604256,644.3301
"73",80.465096,644.34326
"74",80.32838,644.35645
"75",80.20386,644.3701
"76",80.1062,644.3838
"77",80.0354,644.397
"78",79.991455,644.41016
"79",79.96216,644.4238
"80",79.940186,644.4375
"81",79.91577,644.4507
"82",79.87915,644.46387
"83",79.83276,644.47754
"84",79.77661,644.4912
"85",79.71801,644.5044
"86",79.65209,644.5176
"87",79.5935,644.53125
"88",79.53002,644.5449
"89",79.46899,644.5581
"90",79.41039,644.5713
"91",79.35912,644.58496
"92",79.310295,644.59863
"93",79.27123,644.6118
"94",79.23949,644.625
"95",79.21019,644.6387
"96",79.18089,644.65234
"97",79.15648,644.6655
"98",79.12962,644.6787
"99",79.10277,644.6924
"100",79.07591,644.70605
"101",79.05638,644.71924
"102",79.04173,644.7324
"103",79.03197,644.7461
"104",79.02464,644.75977
"105",79.01488,644.77295
"106",79.009995,644.78613
"107",79.00511,644.7998
"108",78.995346,644.8135
"109",78.98802,644.82666
"110",78.97826,644.83984
"111",78.96605,644.8535
"112",78.95628,644.8672
"113",78.9514,644.8804
"114",78.94408,644.89355
"115",78.94896,644.9072
"116",78.98558,644.9209
"117",79.09056,644.9341
"118",79.30541,644.94727
"119",79.64965,644.96094
"120",80.10376,644.9746
"121",80.60914,644.9878
"122",81.08522,645.001
"123",81.461205,645.01465
"124",81.69802,645.0283
"125",81.795685,645.0415
"126",81.77615,645.0547
"127",81.67849,645.06836
"128",81.53689,645.08203
"129",81.38552,645.0952
"130",81.23903,645.1084
"131",81.112076,645.1221
"132",81.00954,645.13574
"133",80.92409,645.1489
"134",80.8362,645.1621
"135",80.73609,645.1758
"136",80.61402,645.18945
"137",80.4773,645.20264
"138",80.3357,645.2158
"139",80.2063,645.2295
"140",80.096436,645.24316
"141",80.01099,645.25635
"142",79.94751,645.26953
"143",79.90112,645.2832
"144",79.871826,645.2969
"145",79.84009,645.31006
"146",79.80835,645.32324
"147",79.77173,645.3369
"148",79.725334,645.3506
"149",79.66918,645.3638
"150",79.61303,645.37695
"151",79.551994,645.3906
"152",79.49828,645.4043
"153",79.44457,645.4175
"154",79.39086,645.43066
"155",79.33959,645.44434
"156",79.293205,645.458
"157",79.2517,645.4712
"158",79.2224,645.4844
"159",79.19554,645.49805
"160",79.17601,645.5117
"161",79.15892,645.5249
"162",79.151596,645.5381
"163",79.149155,645.55176
"164",79.15404,645.5654
"165",79.1638,645.5786
"166",79.17357,645.5918
"167",79.183334,645.60547
"168",79.18822,645.61914
"169",79.1931,645.6323
"170",79.1931,645.6455
"171",79.19798,645.6592
"172",79.200424,645.67285
"173",79.202866,645.68604
"174",79.202866,645.6992
"175",79.19798,645.7129
"176",79.19066,645.72656
"177",79.17601,645.73975
"178",79.166245,645.7529
"179",79.168686,645.7666
"180",79.219955,645.7803
"181",79.35912,645.79346
"182",79.63012,645.80664
"183",80.042725,645.8203
"184",80.56275,645.834
"185",81.11696,645.84717
"186",81.617455,645.86035
"187",81.986115,645.874
"188",82.18631,645.8877
"189",82.22049,645.9009
"190",82.1326,645.91406
"191",81.97391,645.92773
"192",81.78348,645.9414
"193",81.5906,645.9546
"194",81.41726,645.9678
"195",81.2781,645.98145
"196",81.16579,645.9951
"197",81.06813,646.0083
"198",80.970474,646.0215
"199",80.867935,646.03516
"200",80.7483,646.0488
"201",80.61646,646.062
"202",80.48463,646.0752
"203",80.36988,646.08887
"204",80.27711,646.10254
"205",80.216064,646.1157
"206",80.177,646.1289
"207",80.15503,646.1426
"208",80.14038,646.15625
"209",80.12329,646.16943
"210",80.093994,646.1826
"211",80.05493,646.1963
"212",80.00366,646.20996
"213",79.937744,646.22314
"214",79.869385,646.2363
"215",79.79614,646.25
"216",79.72045,646.2637
"217",79.64721,646.27686
"218",79.58129,646.29004
"219",79.520256,646.3037
"220",79.46899,646.3174
"221",79.42504,646.33057
"222",79.38598,646.34375
"223",79.34936,646.3574
"224",79.310295,646.3711
"225",79.276115,646.3843
"226",79.2517,646.39746
"227",79.22972,646.41113
"228",79.2224,646.4248
"229",79.2224,646.438
"230",79.22972,646.4512
"231",79.237045,646.46484
"232",79.24437,646.4785
"233",79.24437,646.4917
"234",79.24437,646.5049
"235",79.23949,646.51855
"236",79.22972,646.5322
"237",79.219955,646.5454
"238",79.20531,646.5586
"239",79.19066,646.57227
"240",79.185776,646.58594
"241",79.19066,646.5991
"242",79.22972,646.6123
"243",79.344475,646.626
"244",79.571526,646.63965
"245",79.91821,646.65283
"246",80.36744,646.666
"247",80.86305,646.6797
"248",81.32937,646.69336
"249",81.688255,646.70654
"250",81.898224,646.7197
"251",81.95438,646.7334
"252",81.88602,646.7471
"253",81.73464,646.76025
"254",81.54177,646.77344
"255",81.33669,646.7871
"256",81.14137,646.8008
"257",80.970474,646.81396
"258",80.82399,646.82715
"259",80.70191,646.8408
"260",80.58961,646.8545
"261",80.479744,646.8677
"262",80.36744,646.88086
"263",80.24536,646.89453
"264",80.128174,646.9082
"265",80.02319,646.9214
"266",79.94263,646.9346
"267",79.8938,646.94824
"268",79.871826,646.9619
"269",79.869385,646.9751
"270",79.871826,646.9883
"271",79.86694,647.00195
"272",79.84741,647.0156
"273",79.80835,647.0288
"274",79.74975,647.042
"275",79.67895,647.05566
"276",79.605705,647.06934
"277",79.53246,647.0825
"278",79.4641,647.0957
"279",79.40551,647.1094
"280",79.35668,647.12305
"281",79.32006,647.1362
"282",79.30053,647.1494
"283",79.290764,647.1631
"284",79.28588,647.17676
"285",79.281,647.18994
"286",79.273674,647.2031
"287",79.259026,647.2168
"288",79.23949,647.23047
"289",79.219955,647.24365
"290",79.20531,647.25684
"291",79.19798,647.2705
"292",79.200424,647.2842
"293",79.21263,647.29736
"294",79.22484,647.31055
"295",79.234604,647.3242
"296",79.237045,647.3379
"297",79.237045,647.3511
"298",79.22728,647.36426
"299",79.21263,647.3779
"300",79.19554,647.3916
"301",79.18089,647.4048
"302",79.18089,647.41797
"303",79.22728,647.43164
"304",79.361565,647.4453
"305",79.61791,647.4585
"306",79.99878,647.4717
"307",80.46998,647.48535
"308",80.96071,647.499
"309",81.39773,647.5122
"310",81.71267,647.5254
"311",81.87869,647.53906
"312",81.90311,647.55273
"313",81.82254,647.5659
"314",81.671165,647.5791
"315",81.49294,647.5928
"316",81.31228,647.60645
"317",81.1487,647.6196
"318",81.007095,647.6328
"319",80.885025,647.6465
"320",80.77272,647.66016
"321",80.66041,647.67334
"322",80.54566,647.6865
"323",80.42359,647.7002
"324",80.30152,647.71387
"325",80.18921,647.72705
"326",80.096436,647.74023
"327",80.028076,647.7539
"328",79.98657,647.7676
"329",79.971924,647.78076
"330",79.96948,647.79395
"331",79.971924,647.8076
"332",79.96948,647.8213
"333",79.94751,647.8345
"334",79.906006,647.84766
"335",79.84497,647.8613
"336",79.77417,647.875
"337",79.69848,647.8882
"338",79.62524,647.90137
"339",79.554436,647.91504
"340",79.4934,647.9287
"341",79.43725,647.9419
"342",79.38598,647.9551
"343",79.344475,647.96875
"344",79.31274,647.9824
"345",79.293205,647.9956
"346",79.281,648.0088
"347",79.273674,648.02246
"348",79.27123,648.03613
"349",79.273674,648.0493
"350",79.27123,648.0625
"351",79.26879,648.0762
"352",79.273674,648.08984
"353",79.273674,648.103
"354",79.273674,648.1162
"355",79.276115,648.1299
"356",79.276115,648.14355
"357",79.26879,648.15674
"358",79.26147,648.1699
"359",79.25414,648.1836
"360",79.2517,648.19727
"361",79.28344,648.21045
"362",79.38842,648.22363
"363",79.603264,648.2373
"364",79.94263,648.251
"365",80.38697,648.26416
"366",80.87526,648.27734
"367",81.33181,648.291
"368",81.68093,648.3047
"369",81.881134,648.3179
"370",81.934845,648.33105
"371",81.866486,648.3447
"372",81.71511,648.3584
"373",81.52468,648.3716
"374",81.33181,648.38477
"375",81.15602,648.39844
"376",81.007095,648.4121
"377",80.88258,648.4253
"378",80.77516,648.4385
"379",80.67017,648.45215
"380",80.55787,648.4658
"381",80.43824,648.479
"382",80.32105,648.4922
"383",80.21118,648.50586
"384",80.12573,648.51953
"385",80.062256,648.5327
"386",80.025635,648.5459
"387",80.0061,648.5596
"388",79.9939,648.57324
"389",79.98657,648.5864
"390",79.974365,648.5996
"391",79.94507,648.6133
"392",79.90112,648.62695
"393",79.84009,648.64014
"394",79.764404,648.6533
"395",79.68383,648.667
"396",79.60815,648.68066
"397",79.54223,648.69385
"398",79.48852,648.70703
"399",79.44457,648.7207
"400",79.40795,648.7344
"401",79.381096,648.74756
"402",79.35912,648.76074
"403",79.344475,648.7744
"404",79.33227,648.7881
"405",79.32494,648.8013
"406",79.32006,648.81445
"407",79.32006,648.8281
"408",79.32494,648.8418
"409",79.33227,648.855
"410",79.344475,648.86816
"411",79.34936,648.88184
"412",79.3518,648.8955
"413",79.34936,648.9087
"414",79.34692,648.9219
"415",79.35912,648.93555
"416",79.40551,648.9492
"417",79.52514,648.9624
"418",79.74975,648.9756
"419",80.08911,648.98926
"420",80.50904,649.0029
"421",80.96071,649.0161
"422",81.36843,649.0293
"423",81.66628,649.04297
"424",81.8201,649.05664
"425",81.83963,649.0698
"426",81.74929,649.083
"427",81.59548,649.0967
"428",81.41238,649.11035
"429",81.234146,649.12354
"430",81.075455,649.1367
"431",80.94118,649.1504
"432",80.82643,649.16406
"433",80.72144,649.17725
"434",80.618904,649.1904
"435",80.50416,649.2041
"436",80.37965,649.2178
"437",80.25025,649.23096
"438",80.12573,649.24414
"439",80.01587,649.2578
"440",79.92798,649.2715
"441",79.871826,649.28467
"442",79.84253,649.29785
"443",79.82788,649.3115
"444",79.818115,649.3252
"445",79.80591,649.3384
"446",79.77417,649.35156
"447",79.725334,649.36523
"448",79.66186,649.3789
"449",79.59838,649.3921
"450",79.52758,649.4053
"451",79.45922,649.41895
"452",79.395744,649.4326
"453",79.33715,649.4458
"454",79.281,649.459
"455",79.234604,649.47266
"456",79.19798,649.4863
"457",79.168686,649.4995
"458",79.151596,649.5127
"459",79.13939,649.52637
"460",79.12962,649.54004
"461",79.1223,649.5532
"462",79.1223,649.5664
"463",79.1223,649.5801
"464",79.12474,649.59375
"465",79.12474,649.60693
"466",79.12718,649.6201
"467",79.12962,649.6338
"468",79.132065,649.64746
"469",79.132065,649.66064
"470",79.14183,649.6738
"471",79.17113,649.6875
"472",79.25414,649.7012
"473",79.43725,649.71436
"474",79.742424,649.72754
"475",80.15747,649.7412
"476",80.635994,649.7549
"477",81.10231,649.76807
"478",81.478294,649.78125
"479",81.71267,649.7949
"480",81.80057,649.8086
"481",81.76639,649.8218
"482",81.64675,649.83496
"483",81.48562,649.84863
"484",81.31472,649.8623
"485",81.15846,649.8755
"486",81.03395,649.8887
"487",80.93385,649.90234
"488",80.850845,649.916
"489",80.77516,649.9292
"490",80.68726,649.9424
"491",80.57984,649.95605
"492",80.46021,649.9697
"493",80.34547,649.9829
"494",80.24048,649.9961
"495",80.15747,650.00977
"496",80.10132,650.02344
"497",80.0647,650.0366
"498",80.042725,650.0498
"499",80.02319,650.0635
"500",80.00122,650.07715
"501",79.9646,650.09033
"502",79.91577,650.1035
"503",79.85718,650.1172
"504",79.78638,650.13086
"505",79.71557,650.14404
"506",79.64721,650.1572
"507",79.57641,650.1709
"508",79.51049,650.1846
"509",79.447014,650.19775
"510",79.39086,650.21094
"511",79.344475,650.2246
"512",79.30541,650.2383
"513",79.276115,650.25146
"514",79.2517,650.26465
"515",79.23216,650.2783
"516",79.21507,650.292
"517",79.202866,650.3052
"518",79.19554,650.31836
"519",79.19066,650.33203
"520",79.18822,650.3457
"521",79.183334,650.3589
"522",79.17845,650.3721
"523",79.17113,650.38574
"524",79.16136,650.3994
"525",79.151596,650.4126
"526",79.14671,650.4258
"527",79.151596,650.43945
"528",79.19554,650.4531
"529",79.31518,650.4663
"530",79.54223,650.4795
"531",79.88403,650.49316
"532",80.31617,650.50684
"533",80.78493,650.52
"534",81.21217,650.5332
"535",81.532005,650.5469
"536",81.705345,650.56055
"537",81.739525,650.5737
"538",81.66384,650.5869
"539",81.52468,650.6006
"540",81.356224,650.61426
"541",81.19508,650.62744
"542",81.05348,650.6406
"543",80.938736,650.6543
"544",80.84352,650.66797
"545",80.75319,650.68115
"546",80.66041,650.69434
"547",80.552986,650.708
"548",80.4358,650.7217
"549",80.31373,650.73486
"550",80.201416,650.74805
"551",80.10864,650.7617
"552",80.042725,650.7754
"553",80.00366,650.7886
"554",79.97925,650.80176
"555",79.9646,650.8154
"556",79.94995,650.8291
"557",79.923096,650.8423
"558",79.88403,650.85547
"559",79.83276,650.86914
"560",79.764404,650.8828
"561",79.691154,650.896
"562",79.61547,650.9092
"563",79.54223,650.92285
"564",79.47631,650.9365
"565",79.41772,650.9497
"566",79.36889,650.9629
"567",79.3225,650.97656
"568",79.28588,650.99023
"569",79.25414,651.0034
"570",79.22972,651.0166
"571",79.21507,651.0303
"572",79.20531,651.04395
"573",79.19798,651.0571
"574",79.19554,651.0703
"575",79.1931,651.084
"576",79.18822,651.09766
"577",79.183334,651.11084
"578",79.17357,651.124
"579",79.168686,651.1377
"580",79.166245,651.15137
"581",79.168686,651.16455
"582",79.17113,651.17773
"583",79.17113,651.1914
"584",79.17113,651.2051
"585",79.168686,651.21826
"586",79.19554,651.23145
"587",79.293205,651.2451
"588",79.49828,651.2588
"589",79.82788,651.272
"590",80.26246,651.28516
"591",80.75563,651.2988
"592",81.22438,651.3125
"593",81.59548,651.3257
"594",81.82254,651.33887
"595",81.898224,651.35254
"596",81.846954,651.3662
"597",81.71755,651.3794
"598",81.55154,651.3926
"599",81.38552,651.40625
"600",81.24147,651.4199
"601",81.12428,651.4331
"602",81.03151,651.4463
"603",80.9485,651.45996
"604",80.85817,651.47363
"605",80.75807,651.4868
"606",80.64576,651.5
"607",80.52125,651.5137
"608",80.40162,651.52734
"609",80.29664,651.5405
"610",80.216064,651.5537
"611",80.16235,651.5674
"612",80.13306,651.58105
"613",80.11597,651.59424
"614",80.1062,651.6074
"615",80.08423,651.6211
"616",80.04761,651.63477
"617",79.991455,651.64795
"618",79.920654,651.66113
"619",79.84497,651.6748
"620",79.77173,651.6885
"621",79.70092,651.70166
"622",79.635,651.71484
"623",79.571526,651.7285
"624",79.51293,651.7422
"625",79.45678,651.7554
"626",79.41039,651.76855
"627",79.37133,651.7822
"628",79.344475,651.7959
"629",79.31762,651.8091
"630",79.29809,651.82227
"631",79.281,651.83594
"632",79.26635,651.8496
"633",79.24681,651.8628
"634",79.22728,651.876
"635",79.200424,651.88965
"636",79.17357,651.9033
"637",79.149155,651.9165
"638",79.12474,651.9297
"639",79.10765,651.94336
"640",79.08812,651.95703
"641",79.07103,651.9702
"642",79.0515,651.9834
"643",79.03441,651.9971
"644",79.02464,652.01074
"645",79.046616,652.0239
"646",79.1223,652.0371
"647",79.29809,652.0508
"648",79.5935,652.06445
"649",79.99878,652.07764
"650",80.465096,652.0908
"651",80.92653,652.1045
"652",81.304955,652.11816
"653",81.55154,652.13135
"654",81.64675,652.14453
"655",81.617455,652.1582
"656",81.50271,652.1719
"657",81.341576,652.18506
"658",81.16823,652.19824
"659",81.00954,652.2119
"660",80.8777,652.2256
"661",80.77272,652.2388
"662",80.68482,652.25195
"663",80.604256,652.2656
"664",80.51881,652.2793
"665",80.42359,652.2925
"666",80.31129,652.30566
"667",80.198975,652.31934
"668",80.09888,652.333
"669",80.01831,652.3462
"670",79.96704,652.3594
"671",79.937744,652.37305
"672",79.920654,652.3867
"673",79.91333,652.3999
"674",79.903564,652.4131
"675",79.886475,652.42676
"676",79.852295,652.4404
"677",79.80347,652.4536
"678",79.73998,652.4668
"679",79.6643,652.48047
"680",79.58373,652.49414
"681",79.50805,652.5073
"682",79.44457,652.5205
"683",79.39086,652.5342
"684",79.344475,652.54785
"685",79.30541,652.56104
"686",79.276115,652.5742
"687",79.256584,652.5879
"688",79.24437,652.60156
"689",79.237045,652.61475
"690",79.234604,652.6279
"691",79.234604,652.6416
"692",79.23216,652.6553
"693",79.22972,652.66846
"694",79.2224,652.68164
"695",79.219955,652.6953
"696",79.219955,652.709
"697",79.219955,652.72217
"698",79.2224,652.73535
"699",79.22728,652.749
"700",79.22728,652.7627
"701",79.2224,652.7759
"702",79.21507,652.78906
"703",79.20775,652.80273
"704",79.21263,652.8164
"705",79.26147,652.8296
"706",79.398186,652.8428
"707",79.64721,652.85645
"708",80.01831,652.8701
"709",80.47486,652.8833
"710",80.953384,652.8965
"711",81.36599,652.91016
"712",81.65652,652.9238
"713",81.7908,652.937
"714",81.78592,652.9502
"715",81.67605,652.96387
"716",81.50515,652.97754
"717",81.31716,652.9907
"718",81.13893,653.0039
"719",80.99245,653.0176
"720",80.8777,653.03125
"721",80.78981,653.04443
"722",80.71168,653.0576
"723",80.62623,653.0713
"724",80.52125,653.08496
"725",80.40162,653.09814
"726",80.28199,653.1113
"727",80.16968,653.125
"728",80.08179,653.1387
"729",80.02075,653.15186
"730",79.98413,653.16504
"731",79.95972,653.1787
"732",79.940186,653.1924
"733",79.91821,653.20557
"734",79.87915,653.21875
"735",79.823,653.2324
"736",79.74731,653.2461
"737",79.6643,653.2593
"738",79.58129,653.27246
"739",79.49828,653.28613
"740",79.42016,653.2998
"741",79.35424,653.313
"742",79.29565,653.3262
"743",79.24681,653.33984
"744",79.21019,653.3535
"745",79.17845,653.3667
"746",79.15404,653.3799
"747",79.13695,653.39355
"748",79.1223,653.4072
"749",79.10765,653.4204
"750",79.10521,653.4336
"751",79.11009,653.44727
"752",79.11986,653.46094
"753",79.12962,653.4741
"754",79.14427,653.4873
"755",79.15892,653.501
"756",79.168686,653.51465
"757",79.17357,653.52783
"758",79.17845,653.541
"759",79.18089,653.5547
"760",79.183334,653.56836
"761",79.17601,653.58154
"762",79.168686,653.5947
"763",79.1638,653.6084
"764",79.17601,653.6221
"765",79.24193,653.63525
"766",79.40063,653.64844
"767",79.68139,653.6621
"768",80.08667,653.6758
"769",80.570076,653.68896
"770",81.058365,653.70215
"771",81.47341,653.7158
"772",81.75174,653.7295
"773",81.87381,653.7427
"774",81.85184,653.75586
"775",81.7322,653.76953
"776",81.55886,653.7832
"777",81.36843,653.7964
"778",81.19264,653.8096
"779",81.04616,653.82324
"780",80.93141,653.8369
"781",80.8362,653.8501
"782",80.75075,653.8633
"783",80.66529,653.87695
"784",80.567635,653.8906
"785",80.46021,653.9038
"786",80.35279,653.917
"787",80.255135,653.93066
"788",80.17212,653.94434
"789",80.111084,653.9575
"790",80.07446,653.9707
"791",80.05249,653.9844
"792",80.04028,653.99805
"793",80.025635,654.0112
"794",79.99634,654.0244
"795",79.94995,654.0381
"796",79.888916,654.05176
"797",79.81323,654.06494
"798",79.7351,654.0781
"799",79.65209,654.0918
"800",79.57641,654.10547
"801",79.500725,654.11865
"802",79.432365,654.13184
"803",79.37621,654.1455
"804",79.33227,654.1592
"805",79.29809,654.17236
"806",79.27856,654.18555
"807",79.26879,654.1992
"808",79.26635,654.2129
"809",79.26391,654.2261
"810",79.26635,654.23926
"811",79.26635,654.2529
"812",79.26147,654.2666
"813",79.256584,654.2798
"814",79.24681,654.29297
"815",79.24193,654.30664
"816",79.23949,654.3203
"817",79.23949,654.3335
"818",79.24437,654.3467
"819",79.2517,654.36035
"820",79.2517,654.374
"821",79.24925,654.3872
"822",79.24193,654.4004
"823",79.23216,654.41406
"824",79.22728,654.42773
"825",79.24437,654.4409
"826",79.32006,654.4541
"827",79.49828,654.4678
"828",79.80591,654.48145
"829",80.22827,654.4946
"830",80.723885,654.5078
"831",81.21706,654.5215
"832",81.619896,654.53516
"833",81.881134,654.54834
"834",81.986115,654.5615
"835",81.95438,654.5752
"836",81.829865,654.58887
"837",81.654076,654.60205
"838",81.46609,654.61523
"839",81.290306,654.6289
"840",81.143814,654.6426
"841",81.03151,654.65576
"842",80.94118,654.66895
"843",80.86305,654.6826
"844",80.77516,654.6963
"845",80.67017,654.7095
"846",80.5481,654.72266
"847",80.41627,654.7363
"848",80.291756,654.75
"849",80.19653,654.7632
"850",80.128174,654.77637
"851",80.09155,654.79004
"852",80.06958,654.8037
"853",80.05737,654.8169
"854",80.04028,654.8301
"855",80.01099,654.84375
"856",79.9646,654.8574
"857",79.903564,654.8706
"858",79.83032,654.8838
"859",79.7522,654.89746
"860",79.67895,654.91113
"861",79.61547,654.9243
"862",79.55932,654.9375
"863",79.50805,654.9512
"864",79.45922,654.96484
"865",79.412834,654.978
"866",79.37133,654.9912
"867",79.33715,655.0049
"868",79.310295,655.01855
"869",79.290764,655.03174
"870",79.27123,655.0449
"871",79.256584,655.0586
"872",79.24925,655.07227
"873",79.24437,655.08545
"874",79.24437,655.09863
"875",79.24681,655.1123
"876",79.24437,655.126
"877",79.24193,655.13916
"878",79.237045,655.15234
"879",79.23216,655.166
"880",79.22484,655.1797
"881",79.219955,655.1929
"882",79.21019,655.20605
"883",79.19798,655.2197
"884",79.185776,655.2334
"885",79.17357,655.2466
"886",79.17845,655.25977
"887",79.22972,655.27344
"888",79.36889,655.2871
"889",79.63012,655.3003
"890",80.02075,655.3135
"891",80.50416,655.32715
"892",81.00954,655.3408
"893",81.463646,655.354
"894",81.79324,655.3672
"895",81.96414,655.38086
"896",81.98367,655.39453
"897",81.88846,655.4077
"898",81.71511,655.4209
"899",81.50759,655.4346
"900",81.30251,655.44824
"901",81.13161,655.4614
"902",80.99733,655.4746
"903",80.902115,655.4883
"904",80.81911,655.50195
"905",80.73609,655.51514
"906",80.635994,655.5283
"907",80.51881,655.542
"908",80.39185,655.55566
"909",80.27711,655.56885
"910",80.18921,655.58203
"911",80.128174,655.5957
"912",80.10132,655.6094
"913",80.093994,655.62256
"914",80.096436,655.63574
"915",80.09155,655.6494
"916",80.07446,655.6631
"917",80.0354,655.6763
"918",79.97681,655.68945
"919",79.91089,655.7031
"920",79.84741,655.7168
"921",79.78882,655.73
"922",79.7351,655.74316
"923",79.68383,655.75684
"924",79.63012,655.7705
"925",79.57397,655.7837
"926",79.51537,655.7969
"927",79.46166,655.81055
"928",79.42016,655.8242
"929",79.3933,655.8374
"930",79.37377,655.8506
"931",79.364006,655.86426
"932",79.35912,655.8779
"933",79.361565,655.8911
"934",79.361565,655.9043
"935",79.35912,655.91797
"936",79.35912,655.93164
"937",79.361565,655.9448
"938",79.36645,655.958
"939",79.37377,655.9717
"940",79.38354,655.98535
"941",79.398186,655.99854
"942",79.41772,656.0117
"943",79.447014,656.0254
"944",79.48119,656.03906
"945",79.52514,656.05225
"946",79.571526,656.0654
"947",79.62035,656.0791
"948",79.68627,656.0928
"949",79.79126,656.10596
"950",79.974365,656.11914
"951",80.26246,656.1328
"952",80.655525,656.1465
"953",81.112076,656.15967
"954",81.57595,656.17285
"955",81.96414,656.1865
"956",82.21561,656.2002
"957",82.31571,656.2134
"958",82.2913,656.22656
"959",82.17166,656.24023
"960",82.005646,656.2539
"961",81.8201,656.2671
"962",81.651634,656.2803
"963",81.52468,656.29395
"964",81.45388,656.3076
"965",81.42214,656.3208
"966",81.40749,656.334
"967",81.38552,656.34766
"968",81.32693,656.3613
"969",81.22682,656.3745
"970",81.10475,656.3877
"971",80.990005,656.40137
"972",80.88991,656.41504
"973",80.8069,656.4282
"974",80.73853,656.4414
"975",80.68238,656.4551
"976",80.635994,656.46875
"977",80.604256,656.48193
"978",80.58228,656.4951
"979",80.56031,656.5088
"980",80.51392,656.52246
"981",80.428474,656.53564
"982",80.29664,656.5488
"983",80.15503,656.5625
"984",80.05005,656.5762
"985",80.025635,656.58936
"986",80.08911,656.60254
"987",80.20874,656.6162
"988",80.34058,656.6299
"989",80.430916,656.64307
"990",80.46021,656.65625
"991",80.44068,656.6699
"992",80.39918,656.6836
"993",80.36256,656.6968
"994",80.32838,656.70996
"995",80.27711,656.72363
"996",80.201416,656.7373
"997",80.08911,656.7505
"998",79.94507,656.7637
"999",79.77905,656.77734
"1000",79.60815,656.791
"1001",79.44213,656.8042
"1002",79.28832,656.8174
"1003",79.151596,656.83105
"1004",79.03197,656.8447
"1005",78.9099,656.8579
"1006",78.77074,656.8711
"1007",78.61204,656.88477
"1008",78.44846,656.89844
"1009",78.31663,656.9116
"1010",78.28245,656.9248
"1011",78.42405,656.9385
"1012",78.7805,656.95215
"1013",79.34203,656.96533
"1014",80.045166,656.9785
"1015",80.797134,656.9922
"1016",81.47585,657.00586
"1017",81.99344,657.01904
"1018",82.29862,657.0322
"1019",82.406044,657.0459
"1020",82.357216,657.0596
"1021",82.21805,657.07275
"1022",82.0325,657.08594
"1023",81.795685,657.0996
"1024",81.49294,657.1133
"1025",81.15602,657.12646
"1026",80.84352,657.13965
"1027",80.60914,657.1533
"1028",80.482185,657.167
"1029",80.46998,657.1802
"1030",80.52125,657.19336
"1031",80.57496,657.20703
"1032",80.59693,657.2207
"1033",80.584724,657.2339
"1034",80.56031,657.2471
"1035",80.54078,657.26074
"1036",80.52125,657.2744
"1037",80.48707,657.2876
"1038",80.41871,657.3008
"1039",80.32105,657.31445
"1040",80.201416,657.3281
"1041",80.0647,657.3413
"1042",79.937744,657.3545
"1043",79.84985,657.36816
"1044",79.815674,657.38184
"1045",79.79614,657.395
"1046",79.744865,657.4082
"1047",79.64965,657.4219
"1048",79.51049,657.43555
"1049",79.32494,657.4487
"1050",79.11986,657.4619
"1051",78.9099,657.4756
"1052",78.695045,657.48926
"1053",78.45823,657.50244
"1054",78.19699,657.5156
"1055",77.943085,657.5293
"1056",77.72823,657.54297
"1057",77.58175,657.55615
"1058",77.506065,657.56934
"1059",77.48409,657.583
"1060",77.471886,657.5967
"1061",77.435265,657.60986
"1062",77.35958,657.62305
"1063",77.24727,657.6367
"1064",77.10811,657.6504
"1065",76.961624,657.6636
"1066",76.82002,657.67676
"1067",76.700386,657.6904
"1068",76.646675,657.7041
"1069",76.72724,657.7173
"1070",76.995804,657.73047
"1071",77.46212,657.74414
"1072",78.08469,657.7578
"1073",78.76341,657.771
"1074",79.398186,657.7842
"1075",79.91333,657.79785
"1076",80.27955,657.8115
"1077",80.51148,657.8247
"1078",80.64332,657.8379
"1079",80.70435,657.85156
"1080",80.71656,657.86523
"1081",80.689705,657.8784
"1082",80.63355,657.8916
"1083",80.550545,657.9053
"1084",80.45289,657.91895
"1085",80.343025,657.9321
"1086",80.20874,657.9453
"1087",80.059814,657.959
"1088",79.8938,657.97266
"1089",79.72045,657.98584
"1090",79.54955,657.999
"1091",79.395744,658.0127
"1092",79.27856,658.02637
"1093",79.20531,658.03955
"1094",79.17601,658.05273
"1095",79.168686,658.0664
"1096",79.16136,658.0801
"1097",79.12962,658.09326
"1098",79.05882,658.10645
"1099",78.94896,658.1201
"1100",78.80736,658.1338
"1101",78.65354,658.147
"1102",78.502174,658.16016
"1103",78.35813,658.1738
"1104",78.22629,658.1875
"1105",78.1091,658.2007
"1106",78.011444,658.21387
"1107",77.94064,658.22754
"1108",77.89426,658.2412
"1109",77.86252,658.2544
"1110",77.84543,658.2676
"1111",77.840546,658.28125
"1112",77.840546,658.2949
"1113",77.85031,658.3081
"1114",77.86496,658.3213
"1115",77.88449,658.33496
"1116",77.891815,658.34863
"1117",77.87961,658.3618
"1118",77.84787,658.375
"1119",77.80148,658.3887
"1120",77.7551,658.40234
"1121",77.738,658.4155
"1122",77.80881,658.4287
"1123",78.03586,658.4424
"1124",78.470436,658.45605
"1125",79.114975,658.46924
"1126",79.90112,658.4824
"1127",80.72877,658.4961
"1128",81.46609,658.50977
"1129",82.020294,658.52295
"1130",82.35966,658.53613
"1131",82.49882,658.5498
"1132",82.49882,658.5635
"1133",82.41581,658.57666
"1134",82.30595,658.58984
"1135",82.20828,658.6035
"1136",82.14969,658.6172
"1137",82.13016,658.6304
"1138",82.13748,658.64355
"1139",82.13748,658.6572
"1140",82.10086,658.6709
"1141",82.01053,658.6841
"1142",81.8616,658.69727
"1143",81.65652,658.71094
"1144",81.42458,658.7246
"1145",81.197525,658.7378
"1146",81.004654,658.751
"1147",80.84596,658.76465
"1148",80.723885,658.7783
"1149",80.63111,658.7915
"1150",80.552986,658.8047
"1151",80.4773,658.81836
"1152",80.40894,658.83203
"1153",80.343025,658.8452
"1154",80.27955,658.8584
"1155",80.19653,658.8721
"1156",80.096436,658.88574
"1157",79.97681,658.8989
"1158",79.84741,658.9121
"1159",79.71801,658.9258
"1160",79.60082,658.93945
"1161",79.49584,658.95264
"1162",79.40307,658.9658
"1163",79.32494,658.9795
"1164",79.259026,658.99316
"1165",79.21019,659.00635
"1166",79.17357,659.01953
"1167",79.14427,659.0332
"1168",79.11742,659.0469
"1169",79.08812,659.06006
"1170",79.063705,659.07324
"1171",79.04173,659.0869
"1172",79.03197,659.1006
"1173",79.03929,659.1138
"1174",79.06615,659.12695
"1175",79.10277,659.1406
"1176",79.16136,659.1543
"1177",79.259026,659.1675
"1178",79.432365,659.18066
"1179",79.73022,659.19434
"1180",80.16235,659.208
"1181",80.69703,659.2212
"1182",81.2781,659.2344
"1183",81.829865,659.24805
"1184",82.27177,659.2617
"1185",82.56718,659.2749
"1186",82.71366,659.2881
"1187",82.73319,659.30176
"1188",82.65507,659.3154
"1189",82.52323,659.3286
"1190",82.38163,659.3418
"1191",82.266884,659.35547
"1192",82.193634,659.36914
"1193",82.16678,659.3823
"1194",82.16922,659.3955
"1195",82.176544,659.4092
"1196",82.16922,659.42285
"1197",82.142365,659.43604
"1198",82.11063,659.4492
"1199",82.08133,659.4629
"1200",82.07156,659.47656
"1201",82.08377,659.48975
"1202",82.1033,659.5029
"1203",82.108185,659.5166
"1204",82.06912,659.5303
"1205",81.9617,659.54346
"1206",81.7908,659.55664
"1207",81.57351,659.5703
"1208",81.324486,659.584
"1209",81.03883,659.59717
"1210",80.709236,659.61035
"1211",80.34058,659.624
"1212",79.94507,659.6377
"1213",79.54711,659.6509
"1214",79.19066,659.66406
"1215",78.9099,659.67773
"1216",78.69749,659.6914
"1217",78.53147,659.7046
"1218",78.39231,659.7178
"1219",78.26292,659.73145
"1220",78.14084,659.7451
"1221",78.03586,659.7583
"1222",77.95041,659.7715
"1223",77.88205,659.78516
"1224",77.82834,659.7988
"1225",77.786835,659.812
"1226",77.74044,659.8252
"1227",77.68917,659.83887
"1228",77.642784,659.85254
"1229",77.60128,659.8657
"1230",77.56954,659.8789
"1231",77.55978,659.8926
"1232",77.58419,659.90625
"1233",77.66476,659.91943
"1234",77.83322,659.9326
"1235",78.10666,659.9463
"1236",78.47776,659.95996
"1237",78.907455,659.97314
"1238",79.344475,659.9863
"1239",79.727776,660
"1240",80.01831,660.0137
"1241",80.2063,660.02686
"1242",80.308846,660.04004
"1243",80.34791,660.0537
"1244",80.34547,660.0674
"1245",80.31373,660.08057
"1246",80.272224,660.09375
"1247",80.22583,660.1074
"1248",80.177,660.1211
"1249",80.12085,660.1343
"1250",80.042725,660.14746
"1251",79.94507,660.16113
"1252",79.82788,660.1748
"1253",79.70092,660.188
"1254",79.56664,660.2012
"1255",79.44213,660.21484
"1256",79.33959,660.2285
"1257",79.27123,660.2417
"1258",79.237045,660.2549
"1259",79.23949,660.26855
"1260",79.26147,660.2822
"1261",79.28832,660.2954
"1262",79.29809,660.3086
"1263",79.293205,660.32227
"1264",79.276115,660.33594
"1265",79.26147,660.3491
"1266",79.24925,660.3623
"1267",79.234604,660.376
"1268",79.21019,660.38965
"1269",79.17845,660.40283
"1270",79.151596,660.416
"1271",79.13451,660.4297
"1272",79.132065,660.44336
"1273",79.14427,660.45654
"1274",79.1638,660.4697
"1275",79.17601,660.4834
"1276",79.18089,660.4971
"1277",79.18089,660.51025
"1278",79.19066,660.52344
"1279",79.21019,660.5371
"1280",79.24193,660.5508
"1281",79.28344,660.56396
"1282",79.3225,660.57715
"1283",79.35424,660.5908
"1284",79.37377,660.6045
"1285",79.38354,660.6177
"1286",79.39086,660.63086
"1287",79.40551,660.64453
"1288",79.447014,660.6582
"1289",79.55688,660.6714
"1290",79.76196,660.6846
"1291",80.08423,660.69824
"1292",80.5066,660.7119
"1293",80.98512,660.7251
"1294",81.45144,660.7383
"1295",81.84207,660.75195
"1296",82.11551,660.7656
"1297",82.25956,660.7788
"1298",82.29374,660.792
"1299",82.252235,660.80566
"1300",82.16922,660.81934
"1301",82.07156,660.8325
"1302",81.97635,660.8457
"1303",81.89578,660.8594
"1304",81.82254,660.87305
"1305",81.74441,660.8862
"1306",81.64919,660.8994
"1307",81.53445,660.9131
"1308",81.39529,660.92676
"1309",81.24391,660.93994
"1310",81.094986,660.9531
"1311",80.96803,660.9668
"1312",80.87038,660.98047
"1313",80.8069,660.99365
"1314",80.77272,661.00684
"1315",80.75319,661.0205
"1316",80.73609,661.0342
"1317",80.71168,661.04736
"1318",80.67017,661.06055
"1319",80.60914,661.0742
"1320",80.53101,661.0879
"1321",80.44312,661.1011
"1322",80.34547,661.11426
"1323",80.24536,661.1279
"1324",80.15015,661.1416
"1325",80.062256,661.1548
"1326",79.98413,661.16797
"1327",79.91333,661.18164
"1328",79.85718,661.1953
"1329",79.815674,661.2085
"1330",79.783936,661.2217
"1331",79.764404,661.23535
"1332",79.7522,661.249
"1333",79.74731,661.2622
"1334",79.742424,661.2754
"1335",79.73998,661.28906
"1336",79.73266,661.30273
"1337",79.725334,661.3159
"1338",79.71313,661.3291
"1339",79.691154,661.3428
"1340",79.6643,661.35645
"1341",79.635,661.3696
"1342",79.603264,661.3828
"1343",79.59594,661.3965
"1344",79.64721,661.41016
"1345",79.783936,661.42334
"1346",80.03784,661.4365
"1347",80.39918,661.4502
"1348",80.831314,661.46387
"1349",81.270775,661.47705
"1350",81.64675,661.49023
"1351",81.91287,661.5039
"1352",82.05203,661.5176
"1353",82.07645,661.53076
"1354",82.01541,661.54395
"1355",81.90799,661.5576
"1356",81.78836,661.5713
"1357",81.671165,661.5845
"1358",81.5613,661.59766
"1359",81.461205,661.6113
"1360",81.36599,661.625
"1361",81.25124,661.6382
"1362",81.11696,661.65137
"1363",80.96559,661.66504
"1364",80.80446,661.6787
"1365",80.64332,661.6919
"1366",80.50904,661.7051
"1367",80.411385,661.71875
"1368",80.35035,661.7324
"1369",80.323494,661.7456
"1370",80.31373,661.7588
"1371",80.30396,661.77246
"1372",80.28199,661.78613
"1373",80.23804,661.7993
"1374",80.177,661.8125
"1375",80.09888,661.8262
"1376",80.01099,661.83984
"1377",79.91577,661.853
"1378",79.823,661.8662
"1379",79.73266,661.8799
"1380",79.64721,661.89355
"1381",79.571526,661.90674
"1382",79.50317,661.9199
"1383",79.449455,661.9336
"1384",79.40307,661.94727
"1385",79.361565,661.96045
"1386",79.32494,661.97363
"1387",79.293205,661.9873
"1388",79.26147,662.001
"1389",79.234604,662.01416
"1390",79.21019,662.02734
"1391",79.19066,662.041
"1392",79.17357,662.0547
"1393",79.15648,662.0679
"1394",79.14427,662.08105
"1395",79.12962,662.0947
"1396",79.11986,662.1084
"1397",79.12962,662.1216
"1398",79.185776,662.13477
"1399",79.32006,662.14844
"1400",79.569084,662.1621
"1401",79.93042,662.1753
"1402",80.37476,662.1885
"1403",80.84108,662.20215
"1404",81.26345,662.2158
"1405",81.57595,662.229
"1406",81.75906,662.2422
"1407",81.8201,662.25586
"1408",81.78592,662.26953
"1409",81.70046,662.2827
"1410",81.5906,662.2959
"1411",81.48318,662.3096
"1412",81.39529,662.32324
"1413",81.324486,662.3364
"1414",81.25613,662.3496
"1415",81.17799,662.3633
"1416",81.07057,662.37695
"1417",80.93141,662.39014
"1418",80.762955,662.4033
"1419",80.58228,662.417
"1420",80.40894,662.43066
"1421",80.2649,662.44385
"1422",80.16235,662.45703
"1423",80.093994,662.4707
"1424",80.05005,662.4844
"1425",80.02075,662.49756
"1426",79.9939,662.51074
"1427",79.957275,662.5244
"1428",79.90845,662.5381
"1429",79.84741,662.5513
"1430",79.77417,662.56445
"1431",79.68871,662.5781
"1432",79.59838,662.5918
"1433",79.50561,662.605
"1434",79.412834,662.61816
"1435",79.32006,662.63184
"1436",79.237045,662.6455
"1437",79.168686,662.6587
"1438",79.11253,662.6719
"1439",79.07347,662.68555
"1440",79.044174,662.6992
"1441",79.0222,662.7124
"1442",79.00511,662.7256
"1443",78.995346,662.73926
"1444",78.98558,662.7529
"1445",78.975815,662.7661
"1446",78.96605,662.7793
"1447",78.95628,662.79297
"1448",78.9514,662.80664
"1449",78.94652,662.8198
"1450",78.94652,662.833
"1451",78.941635,662.8467
"1452",78.93675,662.86035
"1453",78.924545,662.87354
"1454",78.91234,662.8867
"1455",78.90257,662.9004
"1456",78.91478,662.91406
"1457",78.99046,662.92725
"1458",79.17357,662.9404
"1459",79.48852,662.9541
"1460",79.92798,662.9678
"1461",80.44312,662.98096
"1462",80.95827,662.99414
"1463",81.3904,663.0078
"1464",81.68337,663.0215
"1465",81.82742,663.03467
"1466",81.84451,663.04785
"1467",81.78104,663.0615
"1468",81.67849,663.0752
"1469",81.57107,663.0884
"1470",81.48806,663.10156
"1471",81.427025,663.11523
"1472",81.375755,663.1289
"1473",81.322044,663.1421
"1474",81.25124,663.1553
"1475",81.1487,663.16895
"1476",81.00954,663.1826
"1477",80.833755,663.1958
"1478",80.63355,663.209
"1479",80.43336,663.22266
"1480",80.2478,663.2363
"1481",80.09888,663.2495
"1482",79.9939,663.2627
"1483",79.92798,663.27637
"1484",79.888916,663.29004
"1485",79.85962,663.3032
"1486",79.82788,663.3164
"1487",79.78638,663.3301
"1488",79.725334,663.34375
"1489",79.64233,663.35693
"1490",79.53979,663.3701
"1491",79.42504,663.3838
"1492",79.290764,663.39746
"1493",79.14427,663.41064
"1494",78.995346,663.4238
"1495",78.853745,663.4375
"1496",78.72434,663.4512
"1497",78.6096,663.46436
"1498",78.51682,663.47754
"1499",78.450905,663.4912
"1500",78.4094,663.5049
"1501",78.39231,663.51807
"1502",78.40208,663.53125
"1503",78.433815,663.5449
"1504",78.47288,663.5586
"1505",78.50706,663.5718
"1506",78.52659,663.58496
"1507",78.53391,663.59863
"1508",78.53147,663.6123
"1509",78.519264,663.6255
"1510",78.50706,663.6387
"1511",78.49485,663.65234
"1512",78.485085,663.666
"1513",78.470436,663.6792
"1514",78.45823,663.6924
"1515",78.4387,663.70605
"1516",78.42649,663.7197
"1517",78.43626,663.7329
"1518",78.504616,663.7461
"1519",78.6804,663.75977
"1520",78.99046,663.77344
"1521",79.43481,663.7866
"1522",79.974365,663.7998
"1523",80.52857,663.8135
"1524",81.01198,663.82715
"1525",81.36111,663.84033
"1526",81.549095,663.8535
"1527",81.58572,663.8672
"1528",81.52468,663.88086
"1529",81.41482,663.89404
"1530",81.29763,663.9072
"1531",81.19264,663.9209
"1532",81.10719,663.9346
"1533",81.03151,663.94775
"1534",80.95094,663.96094
"1535",80.86061,663.9746
"1536",80.75807,663.9883
"1537",80.638435,664.00146
"1538",80.49439,664.01465
"1539",80.32838,664.0283
"1540",80.15503,664.042
"1541",79.98413,664.0552
"1542",79.835205,664.06836
"1543",79.72045,664.08203
"1544",79.64477,664.0957
"1545",79.603264,664.1089
"1546",79.586174,664.1221
"1547",79.58129,664.13574
"1548",79.571526,664.1494
"1549",79.54955,664.1626
"1550",79.50561,664.1758
"1551",79.43725,664.18945
"1552",79.3518,664.2031
"1553",79.26635,664.2163
"1554",79.1931,664.2295
"1555",79.12962,664.24316
"1556",79.080795,664.25684
"1557",79.044174,664.27
"1558",79.01488,664.2832
"1559",78.99046,664.2969
"1560",78.96605,664.31055
"1561",78.93919,664.3237
"1562",78.9099,664.3369
"1563",78.88548,664.3506
"1564",78.87816,664.36426
"1565",78.890366,664.37744
"1566",78.91722,664.3906
"1567",78.958725,664.4043
"1568",79.009995,664.41797
"1569",79.05638,664.43115
"1570",79.10033,664.44434
"1571",79.14427,664.458
"1572",79.18822,664.4717
"1573",79.22484,664.48486
"1574",79.25414,664.49805
"1575",79.276115,664.5117
"1576",79.290764,664.5254
"1577",79.30053,664.5386
"1578",79.30541,664.55176
"1579",79.31518,664.5654
"1580",79.35912,664.5791
"1581",79.47631,664.5923
"1582",79.708244,664.60547
"1583",80.07202,664.61914
"1584",80.550545,664.6328
"1585",81.08766,664.646
"1586",81.600365,664.6592
"1587",82.01785,664.67285
"1588",82.286415,664.6865
"1589",82.40116,664.6997
"1590",82.38163,664.7129
"1591",82.27421,664.72656
"1592",82.11795,664.74023
"1593",81.95438,664.7534
"1594",81.80545,664.7666
"1595",81.685814,664.7803
"1596",81.59548,664.79395
"1597",81.512474,664.8071
"1598",81.42214,664.8203
"1599",81.30984,664.834
"1600",81.17067,664.84766
"1601",81.00954,664.86084
"1602",80.83864,664.874
"1603",80.6775,664.8877
"1604",80.54322,664.90137
"1605",80.43824,664.91455
"1606",80.36256,664.92773
"1607",80.31129,664.9414
"1608",80.27955,664.9551
"1609",80.257576,664.96826
"1610",80.22339,664.98145
"1611",80.17944,664.9951
"1612",80.12085,665.0088
"1613",80.04761,665.022
"1614",79.957275,665.03516
"1615",79.85962,665.0488
"1616",79.75952,665.0625
"1617",79.66674,665.0757
"1618",79.58373,665.08887
"1619",79.51049,665.10254
"1620",79.4519,665.1162
"1621",79.40551,665.1294
"1622",79.36645,665.1426
"1623",79.32983,665.15625
"1624",79.29809,665.1699
"1625",79.26879,665.1831
"1626",79.23949,665.1963
"1627",79.21507,665.20996
"1628",79.19554,665.22363
"1629",79.18089,665.2368
"1630",79.17113,665.25
"1631",79.1638,665.2637
"1632",79.16136,665.27734
"1633",79.15892,665.2905
"1634",79.15648,665.3037
"1635",79.15892,665.3174
"1636",79.15892,665.33105
"1637",79.15404,665.34424
"1638",79.14427,665.3574
"1639",79.12962,665.3711
"1640",79.11009,665.38477
"1641",79.09056,665.39795
"1642",79.08324,665.41113
"1643",79.10033,665.4248
"1644",79.185776,665.4385
"1645",79.37621,665.45166
"1646",79.70336,665.46484
"1647",80.15747,665.4785
"1648",80.69215,665.4922
"1649",81.22926,665.5054
"1650",81.68337,665.51855
"1651",81.988556,665.5322
"1652",82.13016,665.5459
"1653",82.12283,665.5591
"1654",82.01053,665.57227
"1655",81.84451,665.58594
"1656",81.66628,665.5996
"1657",81.495384,665.6128
"1658",81.35378,665.626
"1659",81.24391,665.63965
"1660",81.15114,665.6533
"1661",81.058365,665.6665
"1662",80.953384,665.6797
"1663",80.82643,665.69336
"1664",80.67994,665.70703
"1665",80.52613,665.7202
"1666",80.37965,665.7334
"1667",80.26002,665.7471
"1668",80.16724,665.76074
"1669",80.10864,665.7739
"1670",80.07202,665.7871
"1671",80.045166,665.8008
"1672",80.02075,665.81445
"1673",79.98901,665.82764
"1674",79.940186,665.8408
"1675",79.88159,665.8545
"1676",79.81079,665.86816
"1677",79.73266,665.88135
"1678",79.64721,665.89453
"1679",79.5642,665.9082
"1680",79.48119,665.9219
"1681",79.40795,665.93506
"1682",79.344475,665.94824
"1683",79.290764,665.9619
"1684",79.24437,665.9756
"1685",79.20531,665.9888
"1686",79.17113,666.00195
"1687",79.14183,666.0156
"1688",79.11742,666.0293
"1689",79.097885,666.0425
"1690",79.078354,666.05566
"1691",79.06615,666.06934
"1692",79.05638,666.083
"1693",79.046616,666.0962
"1694",79.03441,666.1094
"1695",79.02464,666.12305
"1696",79.01488,666.1367
"1697",79.01488,666.1499
"1698",79.01976,666.1631
"1699",79.029526,666.17676
"1700",79.03197,666.1904
"1701",79.03197,666.2036
"1702",79.0222,666.2168
"1703",79.009995,666.23047
"1704",78.99779,666.24414
"1705",79.00023,666.2573
"1706",79.029526,666.2705
"1707",79.11986,666.2842
"1708",79.32494,666.29785
"1709",79.66674,666.31104
"1710",80.14038,666.3242
"1711",80.69215,666.3379
"1712",81.23903,666.35156
"1713",81.688255,666.36475
"1714",81.97879,666.3779
"1715",82.09842,666.3916
"1716",82.074005,666.4053
"1717",81.94705,666.41846
"1718",81.76639,666.43164
"1719",81.57351,666.4453
"1720",81.39529,666.459
"1721",81.23903,666.47217
"1722",81.109634,666.48535
"1723",81.004654,666.499
"1724",80.90456,666.5127
"1725",80.799576,666.5259
"1726",80.6775,666.53906
"1727",80.5481,666.55273
"1728",80.411385,666.5664
"1729",80.28199,666.5796
"1730",80.177,666.5928
"1731",80.096436,666.60645
"1732",80.04761,666.6201
"1733",80.02319,666.6333
"1734",80.008545,666.6465
"1735",79.9939,666.66016
"1736",79.96704,666.6738
"1737",79.923096,666.687
"1738",79.85718,666.7002
"1739",79.77905,666.71387
"1740",79.69604,666.72754
"1741",79.62035,666.7407
"1742",79.54711,666.7539
"1743",79.47875,666.7676
"1744",79.412834,666.78125
"1745",79.34936,666.79443
"1746",79.290764,666.8076
"1747",79.24193,666.8213
"1748",79.200424,666.83496
"1749",79.1638,666.84814
"1750",79.13451,666.8613
"1751",79.11009,666.875
"1752",79.09544,666.8887
"1753",79.08568,666.90186
"1754",79.08568,666.91504
"1755",79.08812,666.9287
"1756",79.08812,666.9424
"1757",79.08812,666.95557
"1758",79.08324,666.96875
"1759",79.07591,666.9824
"1760",79.07347,666.9961
"1761",79.07591,667.0093
"1762",79.080795,667.02246
"1763",79.08324,667.03613
"1764",79.078354,667.0498
"1765",79.06615,667.063
"1766",79.04906,667.0762
"1767",79.03197,667.08984
"1768",79.03197,667.1035
"1769",79.06859,667.1167
"1770",79.19066,667.1299
"1771",79.43481,667.14355
"1772",79.82544,667.1572
"1773",80.33814,667.1704
"1774",80.90944,667.1836
"1775",81.45632,667.19727
"1776",81.88846,667.21094
"1777",82.15457,667.2241
"1778",82.24246,667.2373
"1779",82.19119,667.251
"1780",82.039825,667.26465
"1781",81.83475,667.27783
"1782",81.61501,667.291
"1783",81.41238,667.3047
"1784",81.23903,667.31836
"1785",81.094986,667.33154
"1786",80.972916,667.3447
"1787",80.86305,667.3584
"1788",80.75319,667.3721
"1789",80.63355,667.38525
"1790",80.51148,667.39844
"1791",80.396736,667.4121
"1792",80.291756,667.4258
"1793",80.20874,667.43896
"1794",80.147705,667.45215
"1795",80.1062,667.4658
"1796",80.079346,667.4795
"1797",80.05737,667.4927
"1798",80.028076,667.50586
"1799",79.98657,667.51953
"1800",79.93042,667.5332
"1801",79.85962,667.5464
"1802",79.77905,667.5596
"1803",79.693596,667.57324
"1804",79.61059,667.5869
"1805",79.53002,667.6001
"1806",79.45434,667.6133
"1807",79.38354,667.62695
"1808",79.3225,667.6406
"1809",79.27123,667.6538
"1810",79.22484,667.667
"1811",79.185776,667.68066
"1812",79.151596,667.69434
"1813",79.1223,667.7075
"1814",79.10033,667.7207
"1815",79.080795,667.7344
"1816",79.07103,667.74805
"1817",79.063705,667.7612
"1818",79.05882,667.7744
"1819",79.05638,667.7881
"1820",79.05882,667.80176
"1821",79.063705,667.81494
"1822",79.07103,667.8281
"1823",79.080795,667.8418
"1824",79.08812,667.85547
"1825",79.08812,667.86865
"1826",79.08568,667.88184
"1827",79.080795,667.8955
"1828",79.06859,667.9092
"1829",79.05882,667.92236
"1830",79.04906,667.93555
"1831",79.0515,667.9492
"1832",79.09544,667.9629
"1833",79.2224,667.9761
"1834",79.48119,667.98926
"1835",79.89136,668.0029
"1836",80.41627,668.0166
"1837",80.99489,668.0298
"1838",81.532005,668.04297
"1839",81.94461,668.05664
"1840",82.18631,668.0703
"1841",82.252235,668.0835
"1842",82.176544,668.0967
"1843",82.01053,668.11035
"1844",81.80057,668.124
"1845",81.58083,668.1372
"1846",81.38064,668.1504
"1847",81.20973,668.16406
"1848",81.07301,668.17773
"1849",80.95094,668.1909
"1850",80.833755,668.2041
"1851",80.71168,668.2178
"1852",80.587166,668.23145
"1853",80.46021,668.2446
"1854",80.34058,668.2578
"1855",80.24292,668.2715
"1856",80.17456,668.28516
"1857",80.13306,668.29834
"1858",80.111084,668.3115
"1859",80.10132,668.3252
"1860",80.08667,668.33887
"1861",80.05737,668.35205
"1862",80.01587,668.36523
"1863",79.95239,668.3789
"1864",79.88159,668.3926
"1865",79.80591,668.40576
"1866",79.725334,668.41895
"1867",79.64721,668.4326
"1868",79.571526,668.4463
"1869",79.500725,668.4595
"1870",79.43481,668.47266
"1871",79.37621,668.4863
"1872",79.327385,668.5
"1873",79.28832,668.5132
"1874",79.256584,668.52637
"1875",79.22972,668.54004
"1876",79.21263,668.5537
"1877",79.19798,668.5669
"1878",79.18822,668.5801
"1879",79.17601,668.59375
"1880",79.17113,668.6074
"1881",79.166245,668.6206
"1882",79.1638,668.6338
"1883",79.16136,668.64746
"1884",79.16136,668.66113
"1885",79.1638,668.6743
"1886",79.166245,668.6875
"1887",79.17113,668.7012
"1888",79.17845,668.71484
"1889",79.18089,668.728
"1890",79.183334,668.7412
"1891",79.18089,668.7549
"1892",79.183334,668.76855
"1893",79.21019,668.78174
"1894",79.30053,668.7949
"1895",79.500725,668.8086
"1896",79.84009,668.82227
"1897",80.306404,668.83545
"1898",80.848404,668.84863
"1899",81.3904,668.8623
"1900",81.84451,668.876
"1901",82.14725,668.88916
"1902",82.27177,668.90234
"1903",82.247345,668.916
"1904",82.11063,668.9297
"1905",81.91043,668.9429
"1906",81.69314,668.95605
"1907",81.48806,668.9697
"1908",81.31228,668.9834
"1909",81.16823,668.9966
"1910",81.05104,669.00977
"1911",80.9485,669.02344
"1912",80.84352,669.0371
"1913",80.72877,669.0503
"1914",80.6067,669.0635
"1915",80.48463,669.07715
"1916",80.37476,669.0908
"1917",80.28687,669.104
"1918",80.22583,669.1172
"1919",80.19165,669.13086
"1920",80.177,669.14453
"1921",80.16724,669.1577
"1922",80.15015,669.1709
"1923",80.11841,669.1846
"1924",80.06958,669.19824
"1925",80.00122,669.2114
"1926",79.920654,669.2246
"1927",79.83276,669.2383
"1928",79.74731,669.25195
"1929",79.66674,669.26514
"1930",79.5935,669.2783
"1931",79.52514,669.292
"1932",79.466545,669.30566
"1933",79.415276,669.31885
"1934",79.36645,669.33203
"1935",79.3225,669.3457
"1936",79.28832,669.3594
"1937",79.256584,669.37256
"1938",79.23216,669.38574
"1939",79.21019,669.3994
"1940",79.200424,669.4131
"1941",79.18822,669.4263
"1942",79.18089,669.43945
"1943",79.17601,669.4531
"1944",79.168686,669.4668
"1945",79.16136,669.48
"1946",79.15404,669.49316
"1947",79.14183,669.50684
"1948",79.13451,669.5205
"1949",79.12962,669.5337
"1950",79.12474,669.5469
"1951",79.114975,669.56055
"1952",79.11253,669.5742
"1953",79.149155,669.5874
"1954",79.26391,669.6006
"1955",79.50805,669.61426
"1956",79.8938,669.6279
"1957",80.396736,669.6411
"1958",80.95094,669.6543
"1959",81.463646,669.66797
"1960",81.85672,669.68164
"1961",82.08621,669.6948
"1962",82.14725,669.708
"1963",82.074005,669.7217
"1964",81.91531,669.73535
"1965",81.71023,669.74854
"1966",81.50271,669.7617
"1967",81.31228,669.7754
"1968",81.15114,669.78906
"1969",81.02174,669.80225
"1970",80.90944,669.8154
"1971",80.80202,669.8291
"1972",80.689705,669.8428
"1973",80.570076,669.85596
"1974",80.448006,669.86914
"1975",80.3357,669.8828
"1976",80.24536,669.8965
"1977",80.17944,669.90967
"1978",80.13794,669.92285
"1979",80.11597,669.9365
"1980",80.1062,669.9502
"1981",80.09888,669.9634
"1982",80.076904,669.97656
"1983",80.042725,669.99023
"1984",79.98901,670.0039
"1985",79.91333,670.0171
"1986",79.82056,670.0303
"1987",79.725334,670.04395
"1988",79.639885,670.0576
"1989",79.56176,670.0708
"1990",79.49584,670.084
"1991",79.43725,670.09766
"1992",79.38598,670.1113
"1993",79.33715,670.1245
"1994",79.29565,670.1377
"1995",79.26147,670.15137
"1996",79.234604,670.16504
"1997",79.217514,670.1782
"1998",79.20531,670.1914
"1999",79.1931,670.2051
"2000",79.185776,670.21875
"2001",79.17845,670.23193
"2002",79.17601,670.2451
"2003",79.17113,670.2588
"2004",79.166245,670.27246
"2005",79.15892,670.28564
"2006",79.151596,670.2988
"2007",79.14427,670.3125
"2008",79.13451,670.3262
"2009",79.12718,670.33936
"2010",79.11742,670.35254
"2011",79.11742,670.3662
"2012",79.14183,670.3799
"2013",79.234604,670.39307
"2014",79.44213,670.40625
"2015",79.78882,670.4199
"2016",80.26002,670.4336
"2017",80.799576,670.4468
"2018",81.32937,670.45996
"2019",81.75906,670.47363
"2020",82.0325,670.4873
"2021",82.13748,670.5005
"2022",82.09354,670.5137
"2023",81.94705,670.52734
"2024",81.74929,670.541
"2025",81.54177,670.5542
"2026",81.3489,670.5674
"2027",81.19264,670.58105
"2028",81.06813,670.5947
"2029",80.96559,670.6079
"2030",80.87038,670.6211
"2031",80.76784,670.63477
"2032",80.65797,670.64844
"2033",80.53834,670.6616
"2034",80.41627,670.6748
"2035",80.308846,670.6885
"2036",80.22339,670.70215
"2037",80.16724,670.71533
"2038",80.1355,670.7285
"2039",80.12085,670.7422
"2040",80.11597,670.75586
"2041",80.10132,670.76904
"2042",80.07202,670.7822
"2043",80.02075,670.7959
"2044",79.94995,670.8096
"2045",79.85962,670.82275
"2046",79.764404,670.83594
"2047",79.66674,670.8496
"2048",79.57641,670.8633
"2049",79.51049,670.87646
"2050",79.46899,670.88965
"2051",79.45434,670.9033
"2052",79.45434,670.917
"2053",79.46166,670.9302
"2054",79.466545,670.94336
"2055",79.47387,670.95703
"2056",79.48608,670.9707
"2057",79.520256,670.9839
"2058",79.571526,670.9971
"2059",79.63256,671.01074
"2060",79.676506,671.0244
"2061",79.69604,671.0376
"2062",79.68627,671.0508
"2063",79.65209,671.06445
"2064",79.603264,671.0781
"2065",79.54955,671.0913
"2066",79.49584,671.1045
"2067",79.44457,671.11816
"2068",79.395744,671.13184
"2069",79.3518,671.145
"2070",79.31762,671.1582
"2071",79.3225,671.1719
"2072",79.398186,671.18555
"2073",79.57641,671.1987
"2074",79.87427,671.2119
"2075",80.26734,671.2256
"2076",80.709236,671.23926
"2077",81.11696,671.25244
"2078",81.41482,671.2656
"2079",81.55886,671.2793
"2080",81.54421,671.29297
"2081",81.40749,671.30615
"2082",81.197525,671.31934
"2083",80.96559,671.333
"2084",80.75807,671.3467
"2085",80.59449,671.35986
"2086",80.479744,671.37305
"2087",80.396736,671.3867
"2088",80.33326,671.4004
"2089",80.272224,671.4136
"2090",80.20386,671.42676
"2091",80.12573,671.4404
"2092",80.045166,671.4541
"2093",79.974365,671.4673
"2094",79.923096,671.48047
"2095",79.8938,671.49414
"2096",79.88159,671.5078
"2097",79.87915,671.521
"2098",79.88159,671.5342
"2099",79.87427,671.54785
"2100",79.85962,671.5615
"2101",79.82788,671.5747
"2102",79.78882,671.5879
"2103",79.7351,671.60156
"2104",79.67895,671.61523
"2105",79.61547,671.6284
"2106",79.551994,671.6416
"2107",79.49096,671.6553
"2108",79.432365,671.66895
"2109",79.378654,671.6821
"2110",79.33227,671.6953
"2111",79.290764,671.709
"2112",79.2517,671.72266
"2113",79.21507,671.73584
"2114",79.183334,671.749
"2115",79.15892,671.7627
"2116",79.14183,671.77637
"2117",79.132065,671.78955
"2118",79.12962,671.80273
"2119",79.13451,671.8164
"2120",79.14671,671.8301
"2121",79.15892,671.84326
"2122",79.17113,671.85645
"2123",79.17845,671.8701
"2124",79.185776,671.8838
"2125",79.183334,671.897
"2126",79.18089,671.91016
"2127",79.17845,671.9238
"2128",79.18822,671.9375
"2129",79.22728,671.9507
"2130",79.33471,671.96387
"2131",79.54467,671.97754
"2132",79.87915,671.9912
"2133",80.325935,672.0044
"2134",80.833755,672.0176
"2135",81.32937,672.03125
"2136",81.73708,672.0449
"2137",82.00076,672.0581
"2138",82.10574,672.0713
"2139",82.07645,672.08496
"2140",81.95682,672.09863
"2141",81.78836,672.1118
"2142",81.61013,672.125
"2143",81.446556,672.1387
"2144",81.31472,672.15234
"2145",81.20485,672.1655
"2146",81.109634,672.1787
"2147",81.0193,672.1924
"2148",80.919205,672.20605
"2149",80.799576,672.21924
"2150",80.67017,672.2324
"2151",80.54078,672.2461
"2152",80.43336,672.25977
"2153",80.35279,672.27295
"2154",80.30396,672.28613
"2155",80.28199,672.2998
"2156",80.26734,672.3135
"2157",80.25269,672.32666
"2158",80.22095,672.33984
"2159",80.177,672.3535
"2160",80.12085,672.3672
"2161",80.05249,672.3804
"2162",79.971924,672.39355
"2163",79.888916,672.4072
"2164",79.80591,672.4209
"2165",79.71557,672.4341
"2166",79.63256,672.44727
"2167",79.55688,672.46094
"2168",79.48852,672.4746
"2169",79.432365,672.4878
"2170",79.38598,672.501
"2171",79.3518,672.51465
"2172",79.32494,672.5283
"2173",79.30297,672.5415
"2174",79.28588,672.5547
"2175",79.276115,672.56836
"2176",79.26879,672.58203
"2177",79.26635,672.5952
"2178",79.26147,672.6084
"2179",79.256584,672.6221
"2180",79.256584,672.63574
"2181",79.25414,672.6489
"2182",79.2517,672.6621
"2183",79.24681,672.6758
"2184",79.23216,672.68945
"2185",79.21507,672.70264
"2186",79.202866,672.7158
"2187",79.2224,672.7295
"2188",79.31762,672.74316
"2189",79.53002,672.75635
"2190",79.869385,672.76953
"2191",80.31373,672.7832
"2192",80.80446,672.7969
"2193",81.26345,672.81006
"2194",81.617455,672.82324
"2195",81.8201,672.8369
"2196",81.87625,672.8506
"2197",81.815216,672.8638
"2198",81.67605,672.87695
"2199",81.50027,672.8906
"2200",81.32937,672.9043
"2201",81.17799,672.9175
"2202",81.05348,672.93066
"2203",80.953384,672.94434
"2204",80.86549,672.958
"2205",80.7776,672.9712
"2206",80.68482,672.9844
"2207",80.584724,672.99805
"2208",80.47486,673.0117
"2209",80.36988,673.0249
"2210",80.28199,673.0381
"2211",80.22095,673.05176
"2212",80.18677,673.0654
"2213",80.177,673.0786
"2214",80.181885,673.0918
"2215",80.19165,673.10547
"2216",80.18921,673.11914
"2217",80.16968,673.1323
"2218",80.128174,673.1455
"2219",80.07202,673.1592
"2220",80.00122,673.17285
"2221",79.92798,673.18604
"2222",79.85474,673.1992
"2223",79.781494,673.2129
"2224",79.7058,673.22656
"2225",79.635,673.23975
"2226",79.5642,673.2529
"2227",79.50317,673.2666
"2228",79.4519,673.2803
"2229",79.415276,673.29346
"2230",79.38842,673.30664
"2231",79.361565,673.3203
"2232",79.34203,673.334
"2233",79.3225,673.34717
"2234",79.30785,673.36035
"2235",79.293205,673.374
"2236",79.281,673.3877
"2237",79.26879,673.4009
"2238",79.256584,673.41406
"2239",79.23949,673.42773
"2240",79.21263,673.4414
"2241",79.183334,673.4546
"2242",79.14671,673.4678
"2243",79.11253,673.48145
"2244",79.10033,673.4951
"2245",79.14671,673.5083
"2246",79.28832,673.5215
"2247",79.54711,673.53516
"2248",79.92554,673.5488
"2249",80.38453,673.562
"2250",80.85817,673.5752
"2251",81.26833,673.58887
"2252",81.55642,673.60254
"2253",81.70046,673.6157
"2254",81.705345,673.6289
"2255",81.61013,673.6426
"2256",81.45876,673.65625
"2257",81.29275,673.66943
"2258",81.13405,673.6826
"2259",81.004654,673.6963
"2260",80.89967,673.70996
"2261",80.8069,673.72314
"2262",80.71656,673.7363
"2263",80.61646,673.75
"2264",80.50416,673.7637
"2265",80.38453,673.77686
"2266",80.27711,673.79004
"2267",80.19653,673.8037
"2268",80.147705,673.8174
"2269",80.128174,673.83057
"2270",80.130615,673.84375
"2271",80.1355,673.8574
"2272",80.13306,673.8711
"2273",80.113525,673.8843
"2274",80.07202,673.89746
"2275",80.01343,673.91113
"2276",79.94263,673.9248
"2277",79.8645,673.938
"2278",79.781494,673.9512
"2279",79.69848,673.96484
"2280",79.622795,673.9785
"2281",79.55688,673.9917
"2282",79.49828,674.0049
"2283",79.4519,674.01855
"2284",79.415276,674.0322
"2285",79.38598,674.0454
"2286",79.35424,674.0586
"2287",79.3225,674.07227
"2288",79.28832,674.08594
"2289",79.26147,674.0991
"2290",79.237045,674.1123
"2291",79.219955,674.126
"2292",79.20531,674.13965
"2293",79.1931,674.15283
"2294",79.17357,674.166
"2295",79.149155,674.1797
"2296",79.11742,674.19336
"2297",79.08324,674.20654
"2298",79.05638,674.2197
"2299",79.044174,674.2334
"2300",79.07103,674.2471
"2301",79.17601,674.26025
"2302",79.39086,674.27344
"2303",79.72289,674.2871
"2304",80.16235,674.3008
"2305",80.64576,674.31396
"2306",81.09743,674.32715
"2307",81.45144,674.3408
"2308",81.6614,674.3545
"2309",81.72488,674.3677
"2310",81.671165,674.38086
"2311",81.54665,674.39453
"2312",81.39529,674.4082
"2313",81.253685,674.4214
"2314",81.13649,674.4346
"2315",81.04616,674.44824
"2316",80.972916,674.4619
"2317",80.89723,674.4751
"2318",80.80446,674.4883
"2319",80.67506,674.50195
"2320",80.52369,674.5156
"2321",80.36256,674.5288
"2322",80.21118,674.542
"2323",80.08911,674.55566
"2324",80.00366,674.56934
"2325",79.94995,674.5825
"2326",79.920654,674.5957
"2327",79.89624,674.6094
"2328",79.8645,674.62305
"2329",79.82056,674.6362
"2330",79.75464,674.6494
"2331",79.67162,674.6631
"2332",79.569084,674.67676
"2333",79.45678,674.68994
"2334",79.344475,674.7031
"2335",79.237045,674.7168
"2336",79.13695,674.73047
"2337",79.05638,674.74365
"2338",78.995346,674.75684
"2339",78.95384,674.7705
"2340",78.92943,674.7842
"2341",78.91234,674.79736
"2342",78.90013,674.81055
"2343",78.88304,674.8242
"2344",78.86595,674.8379
"2345",78.84886,674.8511
"2346",78.839096,674.86426
"2347",78.83421,674.8779
"2348",78.84154,674.8916
"2349",78.85863,674.9048
"2350",78.8806,674.91797
"2351",78.90257,674.93164
"2352",78.92699,674.9453
"2353",78.94408,674.9585
"2354",78.958725,674.9717
"2355",78.96605,674.98535
"2356",78.975815,674.999
"2357",78.992905,675.0122
"2358",79.03685,675.0254
"2359",79.14671,675.03906
"2360",79.35668,675.05273
"2361",79.691154,675.0659
"2362",80.14526,675.0791
"2363",80.67506,675.0928
"2364",81.197525,675.10645
"2365",81.636986,675.1196
"2366",81.934845,675.1328
"2367",82.07645,675.1465
"2368",82.08377,675.16016
"2369",82.003204,675.17334
"2370",81.883575,675.1865
"2371",81.761505,675.2002
"2372",81.65652,675.21387
"2373",81.57107,675.22705
"2374",81.50271,675.24023
"2375",81.43923,675.2539
"2376",81.36599,675.2676
"2377",81.270775,675.28076
"2378",81.15358,675.29395
"2379",81.01442,675.3076
"2380",80.867935,675.3213
"2381",80.73121,675.3345
"2382",80.61402,675.34766
"2383",80.52125,675.3613
"2384",80.45045,675.375
"2385",80.396736,675.3882
"2386",80.35279,675.40137
"2387",80.31129,675.41504
"2388",80.26246,675.4287
"2389",80.20386,675.4419
"2390",80.13794,675.4551
"2391",80.05493,675.46875
"2392",79.9646,675.4824
"2393",79.871826,675.4956
"2394",79.783936,675.5088
"2395",79.7058,675.52246
"2396",79.64477,675.53613
"2397",79.588615,675.5493
"2398",79.54223,675.5625
"2399",79.49584,675.5762
"2400",79.4519,675.58984
"2401",79.40795,675.603
"2402",79.37133,675.6162
"2403",79.33715,675.6299
"2404",79.30541,675.64355
"2405",79.27856,675.65674
"2406",79.259026,675.6699
"2407",79.24925,675.6836
"2408",79.24193,675.69727
"2409",79.23949,675.71045
"2410",79.234604,675.72363
"2411",79.2224,675.7373
"2412",79.20775,675.751
"2413",79.19798,675.76416
"2414",79.19066,675.77734
"2415",79.18822,675.791
"2416",79.19066,675.8047
"2417",79.19554,675.8179
"2418",79.20775,675.83105
"2419",79.259026,675.8447
"2420",79.38354,675.8584
"2421",79.622795,675.8716
"2422",79.98413,675.88477
"2423",80.448006,675.89844
"2424",80.955826,675.9121
"2425",81.427025,675.9253
"2426",81.7908,675.9385
"2427",82.005646,675.95215
"2428",82.074005,675.9658
"2429",82.0325,675.979
"2430",81.92508,675.9922
"2431",81.795685,676.00586
"2432",81.67605,676.01953
"2433",81.58083,676.0327
"2434",81.51736,676.0459
"2435",81.47585,676.0596
"2436",81.43191,676.07324
"2437",81.37087,676.0864
"2438",81.27566,676.0996
"2439",81.15114,676.1133
"2440",81.01442,676.12695
"2441",80.902115,676.14014
"2442",80.84108,676.1533
"2443",80.848404,676.167
"2444",80.907,676.18066
"2445",80.990005,676.19385
"2446",81.06813,676.20703
"2447",81.10719,676.2207
"2448",81.09743,676.2344
"2449",81.03883,676.24756
"2450",80.938736,676.26074
"2451",80.82399,676.2744
"2452",80.71656,676.2881
"2453",80.62867,676.3013
"2454",80.56031,676.31445
"2455",80.50172,676.3281
"2456",80.445564,676.3418
"2457",80.37476,676.355
"2458",80.28687,676.36816
"2459",80.19165,676.38184
"2460",80.08911,676.3955
"2461",79.991455,676.4087
"2462",79.89868,676.4219
"2463",79.818115,676.43555
"2464",79.744865,676.4492
"2465",79.68383,676.4624
"2466",79.63012,676.4756
"2467",79.586174,676.48926
"2468",79.54467,676.5029
"2469",79.50561,676.5161
"2470",79.466545,676.5293
"2471",79.43969,676.54297
"2472",79.42504,676.55664
"2473",79.4226,676.5698
"2474",79.42504,676.583
"2475",79.43725,676.5967
"2476",79.449455,676.61035
"2477",79.449455,676.62354
"2478",79.44457,676.6367
"2479",79.43725,676.6504
"2480",79.42748,676.66406
"2481",79.42016,676.67725
"2482",79.447014,676.6904
"2483",79.54467,676.7041
"2484",79.7522,676.7178
"2485",80.08423,676.73096
"2486",80.52857,676.74414
"2487",81.02663,676.7578
"2488",81.49294,676.7715
"2489",81.85428,676.78467
"2490",82.07645,676.79785
"2491",82.16922,676.8115
"2492",82.1741,676.8252
"2493",82.13504,676.8384
"2494",82.091095,676.85156
"2495",82.05936,676.86523
"2496",82.04715,676.8789
"2497",82.04715,676.8921
"2498",82.04471,676.9053
"2499",82.02762,676.91895
"2500",81.97391,676.9326
"2501",81.87381,676.9458
"2502",81.72488,676.959
"2503",81.54177,676.97266
"2504",81.34646,676.9863
"2505",81.17311,676.9995
"2506",81.03639,677.0127
"2507",80.94362,677.02637
"2508",80.88747,677.04004
"2509",80.848404,677.0532
"2510",80.8069,677.0664
"2511",80.7483,677.0801
"2512",80.65797,677.09375
"2513",80.53834,677.10693
"2514",80.394295,677.1201
"2515",80.235596,677.1338
"2516",80.06958,677.14746
"2517",79.90845,677.16064
"2518",79.75952,677.1738
"2519",79.622795,677.1875
"2520",79.4934,677.2012
"2521",79.37133,677.21436
"2522",79.256584,677.22754
"2523",79.15404,677.2412
"2524",79.063705,677.2549
"2525",78.98558,677.26807
"2526",78.91722,677.28125
"2527",78.85863,677.2949
"2528",78.80492,677.3086
"2529",78.75853,677.3218
"2530",78.71702,677.33496
"2531",78.68528,677.34863
"2532",78.658424,677.3623
"2533",78.63401,677.3755
"2534",78.6096,677.3887
"2535",78.58518,677.40234
"2536",78.56321,677.416
"2537",78.538795,677.4292
"2538",78.51194,677.4424
"2539",78.48997,677.45605
"2540",78.470436,677.4697
"2541",78.44358,677.4829
"2542",78.42405,677.4961
"2543",78.40696,677.50977
"2544",78.40696,677.52344
"2545",78.44114,677.5366
"2546",78.553444,677.5498
"2547",78.77074,677.5635
"2548",79.10033,677.57715
"2549",79.5227,677.59033
"2550",79.98413,677.6035
"2551",80.40894,677.6172
"2552",80.73365,677.63086
"2553",80.92409,677.64404
"2554",80.9778,677.6572
"2555",80.921646,677.6709
"2556",80.799576,677.6846
"2557",80.65064,677.69775
"2558",80.5066,677.71094
"2559",80.38697,677.7246
"2560",80.306404,677.7383
"2561",80.255135,677.75146
"2562",80.216064,677.76465
"2563",80.164795,677.7783
"2564",80.08911,677.792
"2565",79.98413,677.8052
"2566",79.85962,677.81836
"2567",79.73998,677.83203
"2568",79.64233,677.8457
"2569",79.57885,677.8589
"2570",79.54223,677.8721
"2571",79.53002,677.88574
"2572",79.52514,677.8994
"2573",79.51537,677.9126
"2574",79.4934,677.9258
"2575",79.46166,677.93945
"2576",79.415276,677.9531
"2577",79.35424,677.9663
"2578",79.28344,677.9795
"2579",79.202866,677.99316
"2580",79.11986,678.00684
"2581",79.03929,678.02
"2582",78.96849,678.0332
"2583",78.907455,678.0469
"2584",78.85863,678.06055
"2585",78.81712,678.0737
"2586",78.78294,678.0869
"2587",78.75365,678.1006
"2588",78.72678,678.11426
"2589",78.70725,678.12744
"2590",78.695045,678.1406
"2591",78.68528,678.1543
"2592",78.675514,678.16797
"2593",78.67307,678.18115
"2594",78.66819,678.19434
"2595",78.658424,678.208
"2596",78.643776,678.2217
"2597",78.626686,678.23486
"2598",78.59739,678.24805
"2599",78.56565,678.2617
"2600",78.53391,678.2754
"2601",78.504616,678.2886
"2602",78.485085,678.30176
"2603",78.467995,678.3154
"2604",78.450905,678.3291
"2605",78.44358,678.3423
"2606",78.4802,678.35547
"2607",78.59983,678.36914
"2608",78.83177,678.3828
"2609",79.185776,678.396
"2610",79.62524,678.4092
"2611",80.08667,678.42285
"2612",80.49439,678.4365
"2613",80.78493,678.4497
"2614",80.938736,678.4629
"2615",80.96559,678.47656
"2616",80.89723,678.49023
"2617",80.77516,678.5034
"2618",80.635994,678.5166
"2619",80.5066,678.5303
"2620",80.40406,678.54395
"2621",80.325935,678.5571
"2622",80.2649,678.5703
"2623",80.2063,678.584
"2624",80.14526,678.59766
"2625",80.07202,678.61084
"2626",79.98657,678.624
"2627",79.90112,678.6377
"2628",79.82788,678.65137
"2629",79.77905,678.66455
"2630",79.75952,678.67773
"2631",79.766846,678.6914
"2632",79.78638,678.7051
"2633",79.80591,678.71826
"2634",79.80835,678.73145
"2635",79.783936,678.7451
"2636",79.742424,678.7588
"2637",79.68139,678.772
"2638",79.60815,678.78516
"2639",79.534904,678.7988
"2640",79.466545,678.8125
"2641",79.40063,678.8257
"2642",79.34203,678.83887
"2643",79.290764,678.85254
"2644",79.24681,678.8662
"2645",79.21019,678.8794
"2646",79.17601,678.8926
"2647",79.14671,678.90625
"2648",79.1223,678.9199
"2649",79.10277,678.9331
"2650",79.08568,678.9463
"2651",79.078354,678.95996
"2652",79.07103,678.97363
"2653",79.061264,678.9868
"2654",79.0515,679
"2655",79.03929,679.0137
"2656",79.01976,679.02734
"2657",78.99779,679.0405
"2658",78.97337,679.0537
"2659",78.94652,679.0674
"2660",78.924545,679.08105
"2661",78.905014,679.09424
"2662",78.890366,679.1074
"2663",78.88304,679.1211
"2664",78.88304,679.13477
"2665",78.90013,679.14795
"2666",78.96849,679.16113
"2667",79.13451,679.1748
"2668",79.4226,679.1885
"2669",79.835205,679.20166
"2670",80.33082,679.21484
"2671",80.84108,679.2285
"2672",81.2781,679.2422
"2673",81.58572,679.2554
"2674",81.739525,679.26855
"2675",81.75418,679.2822
"2676",81.67361,679.2959
"2677",81.53689,679.3091
"2678",81.38552,679.32227
"2679",81.24391,679.33594
"2680",81.13161,679.3496
"2681",81.05104,679.3628
"2682",80.987564,679.376
"2683",80.93385,679.38965
"2684",80.86549,679.4033
"2685",80.77516,679.4165
"2686",80.655525,679.4297
"2687",80.51881,679.44336
"2688",80.38453,679.45703
"2689",80.2649,679.4702
"2690",80.16724,679.4834
"2691",80.10132,679.4971
"2692",80.059814,679.51074
"2693",80.0354,679.5239
"2694",80.01831,679.5371
"2695",79.99634,679.5508
"2696",79.95972,679.56445
"2697",79.90845,679.57764
"2698",79.83765,679.5908
"2699",79.75464,679.6045
"2700",79.6643,679.61816
"2701",79.57641,679.63135
"2702",79.49096,679.64453
"2703",79.412834,679.6582
"2704",79.34203,679.6719
"2705",79.28344,679.68506
"2706",79.24437,679.69824
"2707",79.20775,679.7119
"2708",79.18089,679.7256
"2709",79.15892,679.7388
"2710",79.14183,679.75195
"2711",79.12474,679.7656
"2712",79.11253,679.7793
"2713",79.10277,679.7925
"2714",79.097885,679.80566
"2715",79.09056,679.81934
"2716",79.08812,679.833
"2717",79.08324,679.8462
"2718",79.07103,679.8594
"2719",79.05882,679.87305
"2720",79.044174,679.8867
"2721",79.02464,679.8999
"2722",79.00755,679.9131
"2723",78.995346,679.92676
"2724",78.98558,679.9404
"2725",78.992905,679.9536
"2726",79.044174,679.9668
"2727",79.17601,679.98047
"2728",79.41772,679.99414
"2729",79.783936,680.0073
"2730",80.24048,680.0205
"2731",80.73121,680.0342
"2732",81.180435,680.04785
"2733",81.514915,680.06104
"2734",81.69802,680.0742
"2735",81.73708,680.0879
"2736",81.65896,680.10156
"2737",81.512474,680.11475
"2738",81.33669,680.1279
"2739",81.160904,680.1416
"2740",81.004654,680.1553
"2741",80.87526,680.16846
"2742",80.77516,680.18164
"2743",80.689705,680.1953
"2744",80.59937,680.209
"2745",80.49439,680.22217
"2746",80.37232,680.23535
"2747",80.22827,680.249
"2748",80.07446,680.2627
"2749",79.93286,680.2759
"2750",79.818115,680.28906
"2751",79.7351,680.30273
"2752",79.676506,680.3164
"2753",79.64233,680.3296
"2754",79.62524,680.3428
"2755",79.61059,680.35645
"2756",79.5935,680.3701
"2757",79.571526,680.3833
"2758",79.534904,680.3965
"2759",79.48852,680.41016
"2760",79.429924,680.4238
"2761",79.36645,680.437
"2762",79.30541,680.4502
"2763",79.24925,680.46387
"2764",79.1931,680.47754
"2765",79.14183,680.4907
"2766",79.10033,680.5039
"2767",79.061264,680.5176
"2768",79.03197,680.53125
"2769",79.01488,680.54443
"2770",79.00023,680.5576
"2771",78.98314,680.5713
"2772",78.96605,680.58496
"2773",78.94896,680.59814
"2774",78.93431,680.6113
"2775",78.91234,680.625
"2776",78.88304,680.6387
"2777",78.84154,680.65186
"2778",78.77806,680.66504
"2779",78.695045,680.6787
"2780",78.590065,680.6924
"2781",78.470436,680.70557
"2782",78.34104,680.71875
"2783",78.21408,680.7324
"2784",78.09689,680.7461
"2785",78.00168,680.7593
"2786",77.95285,680.77246
"2787",77.99191,680.78613
"2788",78.14572,680.7998
"2789",78.433815,680.813
"2790",78.83421,680.8262
"2791",79.29565,680.83984
"2792",79.73754,680.8535
"2793",80.08911,680.8667
"2794",80.31617,680.8799
"2795",80.41627,680.89355
"2796",80.42115,680.9072
"2797",80.36988,680.9204
"2798",80.30152,680.9336
"2799",80.23071,680.94727
"2800",80.17456,680.96094
"2801",80.13794,680.9741
"2802",80.113525,680.9873
"2803",80.096436,681.001
"2804",80.07446,681.01465
"2805",80.03052,681.02783
"2806",79.957275,681.041
"2807",79.85718,681.0547
"2808",79.74731,681.06836
"2809",79.64721,681.08154
"2810",79.586174,681.0947
"2811",79.569084,681.1084
"2812",79.603264,681.1221
"2813",79.67162,681.13525
"2814",79.75464,681.14844
"2815",79.82544,681.1621
"2816",79.869385,681.1758
"2817",79.87671,681.18896
"2818",79.84253,681.20215
"2819",79.77905,681.2158
"2820",79.70092,681.2295
"2821",79.61791,681.2427
"2822",79.54223,681.25586
"2823",79.47875,681.26953
"2824",79.432365,681.2832
"2825",79.40307,681.2964
"2826",79.38842,681.3096
"2827",79.381096,681.32324
"2828",79.38842,681.3369
"2829",79.40551,681.3501
"2830",79.432365,681.3633
"2831",79.466545,681.37695
"2832",79.50805,681.3906
"2833",79.54955,681.4038
"2834",79.59106,681.417
"2835",79.62768,681.43066
"2836",79.6643,681.44434
"2837",79.69604,681.4575
"2838",79.725334,681.4707
"2839",79.744865,681.4844
"2840",79.75708,681.49805
"2841",79.75952,681.5112
"2842",79.75464,681.5244
"2843",79.744865,681.5381
"2844",79.73998,681.55176
"2845",79.7522,681.56494
"2846",79.81323,681.5781
"2847",79.96704,681.5918
"2848",80.25025,681.60547
"2849",80.66285,681.61865
"2850",81.16823,681.63184
"2851",81.69802,681.6455
"2852",82.16678,681.6592
"2853",82.50614,681.67236
"2854",82.67948,681.68555
"2855",82.69657,681.6992
"2856",82.59647,681.7129
"2857",82.425575,681.7261
"2858",82.22781,681.73926
"2859",82.037384,681.7529
"2860",81.87625,681.7666
"2861",81.74929,681.7798
"2862",81.64919,681.79297
"2863",81.55886,681.80664
"2864",81.46853,681.8203
"2865",81.36355,681.8335
"2866",81.23903,681.8467
"2867",81.10475,681.86035
"2868",80.97536,681.874
"2869",80.86549,681.8872
"2870",80.78493,681.9004
"2871",80.73365,681.91406
"2872",80.70191,681.92773
"2873",80.68238,681.9409
"2874",80.66041,681.9541
"2875",80.62867,681.9678
"2876",80.5774,681.98145
"2877",80.50416,681.9946
"2878",80.411385,682.0078
"2879",80.31129,682.0215
"2880",80.21118,682.03516
"2881",80.111084,682.04834
"2882",80.025635,682.0615
"2883",79.94751,682.0752
"2884",79.88159,682.08887
"2885",79.823,682.10205
"2886",79.77417,682.11523
"2887",79.7351,682.1289
"2888",79.70336,682.1426
"2889",79.676506,682.15576
"2890",79.64965,682.16895
"2891",79.62524,682.1826
"2892",79.60082,682.1963
"2893",79.586174,682.2095
"2894",79.57885,682.22266
"2895",79.569084,682.2363
"2896",79.55932,682.25
"2897",79.54467,682.2632
"2898",79.52514,682.27637
"2899",79.49828,682.29004
"2900",79.46899,682.3037
"2901",79.43725,682.3169
"2902",79.415276,682.3301
"2903",79.41772,682.34375
"2904",79.48852,682.3574
"2905",79.66674,682.3706
"2906",79.974365,682.3838
"2907",80.39918,682.39746
"2908",80.885025,682.41113
"2909",81.356224,682.4243
"2910",81.73708,682.4375
"2911",81.971466,682.4512
"2912",82.04715,682.46484
"2913",81.99344,682.478
"2914",81.85184,682.4912
"2915",81.6614,682.5049
"2916",81.46609,682.51855
"2917",81.287865,682.53174
"2918",81.13649,682.5449
"2919",81.01198,682.5586
"2920",80.902115,682.57227
"2921",80.797134,682.58545
"2922",80.689705,682.59863
"2923",80.5774,682.6123
"2924",80.47242,682.626
"2925",80.38453,682.63916
"2926",80.32105,682.65234
"2927",80.289314,682.666
"2928",80.28443,682.6797
"2929",80.2942,682.6929
"2930",80.30152,682.70605
"2931",80.29664,682.7197
"2932",80.26734,682.7334
"2933",80.21362,682.7466
"2934",80.1355,682.75977
"2935",80.045166,682.77344
"2936",79.95239,682.7871
"2937",79.86206,682.8003
"2938",79.781494,682.8135
"2939",79.710686,682.82715
"2940",79.64721,682.8408
"2941",79.588615,682.854
"2942",79.534904,682.8672
"2943",79.48852,682.88086
"2944",79.45434,682.89453
"2945",79.429924,682.9077
"2946",79.41039,682.9209
"2947",79.398186,682.9346
"2948",79.38598,682.94824
"2949",79.37621,682.9614
"2950",79.361565,682.9746
"2951",79.344475,682.9883
"2952",79.32494,683.00195
"2953",79.30053,683.01514
"2954",79.273674,683.0283
"2955",79.2517,683.042
"2956",79.2517,683.05566
"2957",79.31518,683.06885
"2958",79.47875,683.08203
"2959",79.76196,683.0957
"2960",80.15991,683.1094
"2961",80.62623,683.12256
"2962",81.08766,683.13574
"2963",81.45876,683.1494
"2964",81.6907,683.1631
"2965",81.77127,683.1763
"2966",81.722435,683.18945
"2967",81.58083,683.2031
"2968",81.392845,683.2168
"2969",81.19264,683.23
"2970",80.99733,683.24316
"2971",80.81911,683.25684
"2972",80.66285,683.2705
"2973",80.51881,683.2837
"2974",80.37965,683.2969
"2975",80.2478,683.31055
"2976",80.111084,683.3242
"2977",79.98657,683.3374
"2978",79.87915,683.3506
"2979",79.80591,683.36426
"2980",79.764404,683.3779
"2981",79.75464,683.3911
"2982",79.766846,683.4043
"2983",79.78882,683.41797
"2984",79.80347,683.43164
"2985",79.798584,683.4448
"2986",79.766846,683.458
"2987",79.710686,683.4717
"2988",79.63744,683.48535
"2989",79.55688,683.49854
"2990",79.47875,683.5117
"2991",79.40795,683.5254
"2992",79.34692,683.53906
"2993",79.30053,683.55225
"2994",79.26391,683.5654
"2995",79.237045,683.5791
"2996",79.2224,683.5928
"2997",79.21507,683.60596
"2998",79.21263,683.61914
"2999",79.21019,683.6328
"3000",79.20775,683.6465
"3001",79.20531,683.65967
"3002",79.200424,683.67285
"3003",79.19554,683.6865
"3004",79.18822,683.7002
"3005",79.19066,683.7134
"3006",79.219955,683.72656
"3007",79.30297,683.74023
"3008",79.47875,683.7539
"3009",79.764404,683.7671
"3010",80.15015,683.7803
"3011",80.59449,683.79395
"3012",81.03151,683.8076
"3013",81.38064,683.8208
"3014",81.59792,683.834
"3015",81.66628,683.84766
"3016",81.61257,683.8613
"3017",81.47097,683.8745
"3018",81.290306,683.8877
"3019",81.10475,683.90137
"3020",80.94362,683.91504
"3021",80.80446,683.9282
"3022",80.689705,683.9414
"3023",80.587166,683.9551
"3024",80.482185,683.96875
"3025",80.36256,683.98193
"3026",80.23071,683.9951
"3027",80.096436,684.0088
"3028",79.974365,684.02246
"3029",79.87671,684.03564
"3030",79.818115,684.0488
"3031",79.79126,684.0625
"3032",79.78882,684.0762
"3033",79.79614,684.08936
"3034",79.79614,684.10254
"3035",79.78638,684.1162
"3036",79.75708,684.1299
"3037",79.7058,684.14307
"3038",79.639885,684.15625
"3039",79.56176,684.1699
"3040",79.47631,684.1836
"3041",79.39086,684.1968
"3042",79.31518,684.20996
"3043",79.24925,684.22363
"3044",79.1931,684.2373
"3045",79.149155,684.2505
"3046",79.11742,684.2637
"3047",79.10033,684.27734
"3048",79.093,684.291
"3049",79.08812,684.3042
"3050",79.08812,684.3174
"3051",79.08324,684.33105
"3052",79.06859,684.3447
"3053",79.05394,684.3579
"3054",79.0515,684.3711
"3055",79.08324,684.38477
"3056",79.18822,684.39844
"3057",79.398186,684.4116
"3058",79.72045,684.4248
"3059",80.14038,684.4385
"3060",80.59937,684.45215
"3061",81.02663,684.46533
"3062",81.356224,684.4785
"3063",81.55154,684.4922
"3064",81.61013,684.50586
"3065",81.5613,684.51904
"3066",81.45144,684.5322
"3067",81.324486,684.5459
"3068",81.20241,684.5596
"3069",81.09987,684.57275
"3070",81.024185,684.58594
"3071",80.96315,684.5996
"3072",80.902115,684.6133
"3073",80.82643,684.62646
"3074",80.723885,684.63965
"3075",80.58961,684.6533
"3076",80.43336,684.667
"3077",80.272224,684.6802
"3078",80.128174,684.69336
"3079",80.01587,684.70703
"3080",79.94507,684.7207
"3081",79.91333,684.7339
"3082",79.903564,684.7471
"3083",79.90112,684.76074
"3084",79.8938,684.7744
"3085",79.87427,684.7876
"3086",79.83032,684.8008
"3087",79.76929,684.81445
"3088",79.68871,684.8281
"3089",79.60082,684.8413
"3090",79.51293,684.8545
"3091",79.429924,684.86816
"3092",79.35912,684.88184
"3093",79.30541,684.895
"3094",79.26635,684.9082
"3095",79.23949,684.9219
"3096",79.21507,684.93555
"3097",79.19798,684.9487
"3098",79.183334,684.9619
"3099",79.17113,684.9756
"3100",79.166245,684.98926
"3101",79.15892,685.00244
"3102",79.15404,685.0156
"3103",79.149155,685.0293
"3104",79.14183,685.04297
"3105",79.132065,685.05615
"3106",79.13939,685.06934
"3107",79.19066,685.083
"3108",79.327385,685.0967
"3109",79.58373,685.10986
"3110",79.9646,685.12305
"3111",80.4358,685.1367
"3112",80.92897,685.1504
"3113",81.36843,685.1636
"3114",81.688255,685.17676
"3115",81.8616,685.1904
"3116",81.90799,685.2041
"3117",81.866486,685.2173
"3118",81.78104,685.23047
"3119",81.69314,685.24414
"3120",81.62234,685.2578
"3121",81.57351,685.271
"3122",81.53689,685.2842
"3123",81.495384,685.29785
"3124",81.43923,685.3115
"3125",81.35134,685.3247
"3126",81.22438,685.3379
"3127",81.05592,685.35156
"3128",80.86061,685.36523
"3129",80.65308,685.3784
"3130",80.45289,685.3916
"3131",80.291756,685.4053
"3132",80.177,685.41895
"3133",80.113525,685.4321
"3134",80.08423,685.4453
"3135",80.07446,685.459
"3136",80.0647,685.47266
"3137",80.042725,685.48584
"3138",80.00122,685.499
"3139",79.9353,685.5127
"3140",79.85718,685.52637
"3141",79.77173,685.53955
"3142",79.691154,685.55273
"3143",79.61547,685.5664
"3144",79.54711,685.5801
"3145",79.48852,685.59326
"3146",79.43481,685.60645
"3147",79.37621,685.6201
"3148",79.32006,685.6338
"3149",79.27123,685.647
"3150",79.23216,685.66016
"3151",79.200424,685.6738
"3152",79.18089,685.6875
"3153",79.17113,685.7007
"3154",79.166245,685.71387
"3155",79.1638,685.72754
"3156",79.1638,685.7412
"3157",79.1638,685.7544
"3158",79.15892,685.7676
"3159",79.14427,685.78125
"3160",79.12474,685.7949
"3161",79.10033,685.8081
"3162",79.06859,685.8213
"3163",79.03929,685.83496
"3164",79.0222,685.84863
"3165",79.04173,685.8618
"3166",79.12962,685.875
"3167",79.327385,685.8887
"3168",79.65453,685.90234
"3169",80.093994,685.9155
"3170",80.58961,685.9287
"3171",81.06081,685.9424
"3172",81.43191,685.95605
"3173",81.65896,685.96924
"3174",81.73708,685.9824
"3175",81.70779,685.9961
"3176",81.62234,686.00977
"3177",81.52224,686.02295
"3178",81.43923,686.03613
"3179",81.38552,686.0498
"3180",81.358665,686.0635
"3181",81.341576,686.07666
"3182",81.31472,686.08984
"3183",81.25857,686.1035
"3184",81.15358,686.1172
"3185",80.99977,686.1304
"3186",80.799576,686.14355
"3187",80.57984,686.1572
"3188",80.365,686.1709
"3189",80.184326,686.1841
"3190",80.04761,686.19727
"3191",79.954834,686.21094
"3192",79.906006,686.2246
"3193",79.88159,686.2378
"3194",79.86694,686.251
"3195",79.84741,686.26465
"3196",79.818115,686.2783
"3197",79.77417,686.2915
"3198",79.710686,686.3047
"3199",79.63256,686.31836
"3200",79.54711,686.33203
"3201",79.45922,686.3452
"3202",79.37621,686.3584
"3203",79.30297,686.3721
"3204",79.23949,686.38574
"3205",79.18822,686.3989
"3206",79.151596,686.4121
"3207",79.1223,686.4258
"3208",79.097885,686.43945
"3209",79.078354,686.45264
"3210",79.061264,686.4658
"3211",79.044174,686.4795
"3212",79.02464,686.49316
"3213",79.009995,686.50635
"3214",78.99779,686.51953
"3215",78.98558,686.5332
"3216",78.97826,686.5469
"3217",78.97337,686.56006
"3218",78.97093,686.57324
"3219",78.97093,686.5869
"3220",78.97337,686.6006
"3221",78.9807,686.6138
"3222",78.992905,686.62695
"3223",79.00511,686.6406
"3224",79.012436,686.6543
"3225",79.01488,686.6675
"3226",79.01488,686.68066
"3227",79.01488,686.69434
"3228",79.01732,686.708
"3229",79.03929,686.7212
"3230",79.10521,686.7344
"3231",79.26391,686.74805
"3232",79.534904,686.7617
"3233",79.93042,686.7749
"3234",80.41627,686.7881
"3235",80.92897,686.80176
"3236",81.38796,686.8154
"3237",81.722435,686.8286
"3238",81.90555,686.8418
"3239",81.94705,686.85547
"3240",81.88602,686.86914
"3241",81.76883,686.8823
"3242",81.64431,686.8955
"3243",81.53689,686.9092
"3244",81.463646,686.92285
"3245",81.4197,686.93604
"3246",81.3904,686.9492
"3247",81.34646,686.9629
"3248",81.27566,686.97656
"3249",81.160904,686.98975
"3250",80.99977,687.0029
"3251",80.80934,687.0166
"3252",80.61402,687.0303
"3253",80.430916,687.04346
"3254",80.28443,687.05664
"3255",80.184326,687.0703
"3256",80.11841,687.084
"3257",80.08667,687.09717
"3258",80.07202,687.11035
"3259",80.05249,687.124
"3260",80.02319,687.1377
"3261",79.98169,687.1509
"3262",79.920654,687.16406
"3263",79.84497,687.17773
"3264",79.764404,687.1914
"3265",79.68139,687.2046
"3266",79.603264,687.2178
"3267",79.53246,687.23145
"3268",79.47143,687.2451
"3269",79.41772,687.2583
"3270",79.37133,687.2715
"3271",79.33227,687.28516
"3272",79.30053,687.2988
"3273",79.26879,687.312
"3274",79.23949,687.3252
"3275",79.21263,687.33887
"3276",79.19066,687.35254
"3277",79.17113,687.3657
"3278",79.15648,687.3789
"3279",79.14183,687.3926
"3280",79.12718,687.40625
"3281",79.11253,687.41943
"3282",79.097885,687.4326
"3283",79.09056,687.4463
"3284",79.08568,687.45996
"3285",79.08568,687.47314
"3286",79.08324,687.4863
"3287",79.080795,687.5
"3288",79.07347,687.5137
"3289",79.06615,687.52686
"3290",79.05882,687.54004
"3291",79.04906,687.5537
"3292",79.03929,687.5674
"3293",79.03441,687.58057
"3294",79.029526,687.59375
"3295",79.029526,687.6074
"3296",79.044174,687.6211
"3297",79.08812,687.6343
"3298",79.200424,687.64746
"3299",79.42016,687.66113
"3300",79.766846,687.6748
"3301",80.22339,687.688
"3302",80.73365,687.7012
"3303",81.21217,687.71484
"3304",81.58572,687.7285
"3305",81.80301,687.7417
"3306",81.86893,687.7549
"3307",81.81766,687.76855
"3308",81.69314,687.7822
"3309",81.54177,687.7954
"3310",81.40261,687.8086
"3311",81.29763,687.82227
"3312",81.22682,687.83594
"3313",81.18532,687.8491
"3314",81.15114,687.8623
"3315",81.10475,687.876
"3316",81.024185,687.88965
"3317",80.907,687.90283
"3318",80.75807,687.916
"3319",80.59449,687.9297
"3320",80.430916,687.94336
"3321",80.291756,687.95654
"3322",80.181885,687.9697
"3323",80.113525,687.9834
"3324",80.07202,687.9971
"3325",80.05005,688.01025
"3326",80.03296,688.02344
"3327",80.00366,688.0371
"3328",79.95239,688.0508
"3329",79.88403,688.06396
"3330",79.80347,688.07715
"3331",79.71801,688.0908
"3332",79.63012,688.1045
"3333",79.54955,688.1177
"3334",79.47387,688.13086
"3335",79.40307,688.14453
"3336",79.33715,688.1582
"3337",79.281,688.1714
"3338",79.23216,688.1846
"3339",79.1931,688.19824
"3340",79.15404,688.2119
"3341",79.11986,688.2251
"3342",79.09056,688.2383
"3343",79.06615,688.25195
"3344",79.044174,688.2656
"3345",79.029526,688.2788
"3346",79.01976,688.292
"3347",79.01732,688.30566
"3348",79.01488,688.31934
"3349",79.00267,688.3325
"3350",78.98558,688.3457
"3351",78.96361,688.3594
"3352",78.93431,688.37305
"3353",78.905014,688.3862
"3354",78.8806,688.3994
"3355",78.86107,688.4131
"3356",78.84886,688.42676
"3357",78.836655,688.43994
"3358",78.82933,688.4531
"3359",78.819565,688.4668
"3360",78.802475,688.48047
"3361",78.77318,688.49365
"3362",78.7219,688.50684
"3363",78.660866,688.5205
"3364",78.58274,688.5342
"3365",78.504616,688.54736
"3366",78.46067,688.56055
"3367",78.502174,688.5742
"3368",78.66331,688.5879
"3369",78.96605,688.6011
"3370",79.38842,688.61426
"3371",79.86694,688.6279
"3372",80.31861,688.6416
"3373",80.66773,688.6548
"3374",80.87526,688.66797
"3375",80.9485,688.68164
"3376",80.919205,688.6953
"3377",80.831314,688.7085
"3378",80.73121,688.7217
"3379",80.64332,688.73535
"3380",80.584724,688.749
"3381",80.55543,688.7622
"3382",80.54566,688.7754
"3383",80.5359,688.78906
"3384",80.50904,688.80273
"3385",80.46021,688.8159
"3386",80.37965,688.8291
"3387",80.28199,688.8428
"3388",80.184326,688.85645
"3389",80.09888,688.8696
"3390",80.03784,688.8828
"3391",80.0061,688.8965
"3392",79.99878,688.91016
"3393",80.008545,688.92334
"3394",80.02319,688.9365
"3395",80.03296,688.9502
"3396",80.025635,688.96387
"3397",80.0061,688.97705
"3398",79.971924,688.99023
"3399",79.92798,689.0039
"3400",79.886475,689.0176
"3401",79.84985,689.03076
"3402",79.815674,689.04395
"3403",79.783936,689.0576
"3404",79.75708,689.0713
"3405",79.73022,689.0845
"3406",79.7058,689.09766
"3407",79.691154,689.1113
"3408",79.69604,689.125
"3409",79.72289,689.1382
"3410",79.766846,689.15137
"3411",79.82056,689.16504
"3412",79.87915,689.1787
"3413",79.92798,689.1919
"3414",79.9646,689.2051
"3415",79.98657,689.21875
"3416",79.9939,689.2324
"3417",79.98413,689.2456
"3418",79.95972,689.2588
"3419",79.93042,689.27246
"3420",79.89624,689.28613
"3421",79.86206,689.2993
"3422",79.835205,689.3125
"3423",79.82056,689.3262
"3424",79.818115,689.33984
"3425",79.82788,689.353
"3426",79.84741,689.3662
"3427",79.86206,689.3799
"3428",79.852295,689.39355
"3429",79.80835,689.40674
"3430",79.72289,689.4199
"3431",79.60815,689.4336
"3432",79.500725,689.44727
"3433",79.4519,689.46045
"3434",79.51537,689.47363
"3435",79.74731,689.4873
"3436",80.14282,689.501
"3437",80.655525,689.51416
"3438",81.20241,689.52734
"3439",81.685814,689.541
"3440",82.037384,689.5547
"3441",82.22781,689.5679
"3442",82.27909,689.58105
"3443",82.2449,689.5947
"3444",82.178986,689.6084
"3445",82.11795,689.6216
"3446",82.08133,689.63477
"3447",82.06424,689.64844
"3448",82.04471,689.6621
"3449",82.00809,689.6753
"3450",81.93973,689.6885
"3451",81.84207,689.70215
"3452",81.71511,689.7158
"3453",81.57839,689.729
"3454",81.444115,689.7422
"3455",81.31472,689.75586
"3456",81.1902,689.76953
"3457",81.07301,689.7827
"3458",80.96803,689.7959
"3459",80.87038,689.8096
"3460",80.7776,689.82324
"3461",80.68726,689.8364
"3462",80.601814,689.8496
"3463",80.52857,689.8633
"3464",80.47486,689.87695
"3465",80.46021,689.89014
"3466",80.48463,689.9033
"3467",80.5359,689.917
"3468",80.58228,689.93066
"3469",80.59449,689.94385
"3470",80.55787,689.95703
"3471",80.46998,689.9707
"3472",80.34547,689.9844
"3473",80.20386,689.99756
"3474",80.06714,690.01074
"3475",79.94263,690.0244
"3476",79.83032,690.0381
"3477",79.7351,690.0513
"3478",79.64477,690.06445
"3479",79.55932,690.0781
"3480",79.47387,690.0918
"3481",79.3933,690.105
"3482",79.31518,690.11816
"3483",79.24193,690.13184
"3484",79.17845,690.1455
"3485",79.12474,690.1587
"3486",79.078354,690.1719
"3487",79.04173,690.18555
"3488",79.00755,690.1992
"3489",78.9807,690.2124
"3490",78.95384,690.2256
"3491",78.92699,690.23926
"3492",78.90013,690.2529
"3493",78.873276,690.2661
"3494",78.84642,690.2793
"3495",78.82445,690.29297
"3496",78.8098,690.30664
"3497",78.81224,690.3198
"3498",78.85863,690.333
"3499",78.98314,690.3467
"3500",79.22728,690.36035
"3501",79.59594,690.37354
"3502",80.062256,690.3867
"3503",80.570076,690.4004
"3504",81.03883,690.41406
"3505",81.392845,690.42725
"3506",81.5906,690.4404
"3507",81.64187,690.4541
"3508",81.56863,690.4678
"3509",81.41726,690.48096
"3510",81.22682,690.49414
"3511",81.04372,690.5078
"3512",80.87526,690.5215
"3513",80.743416,690.53467
"3514",80.64088,690.54785
"3515",80.550545,690.5615
"3516",80.465096,690.5752
"3517",80.37476,690.5884
"3518",80.272224,690.60156
"3519",80.15747,690.61523
"3520",80.045166,690.6289
"3521",79.94507,690.6421
"3522",79.86694,690.6553
"3523",79.818115,690.66895
"3524",79.7937,690.6826
"3525",79.79126,690.6958
"3526",79.7937,690.709
"3527",79.78882,690.72266
"3528",79.77417,690.7363
"3529",79.73998,690.7495
"3530",79.68627,690.7627
"3531",79.61791,690.77637
"3532",79.54467,690.79004
"3533",79.466545,690.8032
"3534",79.3933,690.8164
"3535",79.327385,690.8301
"3536",79.273674,690.84375
"3537",79.219955,690.85693
"3538",79.17357,690.8701
"3539",79.132065,690.8838
"3540",79.097885,690.89746
"3541",79.07591,690.91064
"3542",79.063705,690.9238
"3543",79.05882,690.9375
"3544",79.05882,690.9512
"3545",79.05882,690.96436
"3546",79.063705,690.97754
"3547",79.07103,690.9912
"3548",79.078354,691.0049
"3549",79.08568,691.01807
"3550",79.093,691.03125
"3551",79.10033,691.0449
"3552",79.114975,691.0586
"3553",79.13695,691.0718
"3554",79.166245,691.08496
"3555",79.19798,691.09863
"3556",79.219955,691.1123
"3557",79.23216,691.1255
"3558",79.237045,691.1387
"3559",79.234604,691.15234
"3560",79.23949,691.166
"3561",79.276115,691.1792
"3562",79.3933,691.1924
"3563",79.62524,691.20605
"3564",80.0061,691.2197
"3565",80.516365,691.2329
"3566",81.09743,691.2461
"3567",81.6614,691.25977
"3568",82.12039,691.27344
"3569",82.41093,691.2866
"3570",82.513466,691.2998
"3571",82.45487,691.3135
"3572",82.28397,691.32715
"3573",82.05203,691.34033
"3574",81.79813,691.3535
"3575",81.55154,691.3672
"3576",81.33181,691.38086
"3577",81.14137,691.39404
"3578",80.972916,691.4072
"3579",80.81911,691.4209
"3580",80.66529,691.4346
"3581",80.50416,691.44775
"3582",80.3357,691.46094
"3583",80.17456,691.4746
"3584",80.0354,691.4883
"3585",79.923096,691.50146
"3586",79.84497,691.51465
"3587",79.79614,691.5283
"3588",79.766846,691.542
"3589",79.73998,691.5552
"3590",79.70336,691.56836
"3591",79.64965,691.58203
"3592",79.57885,691.5957
"3593",79.49584,691.6089
"3594",79.41039,691.6221
"3595",79.33471,691.63574
"3596",79.26635,691.6494
"3597",79.19554,691.6626
"3598",79.10521,691.6758
"3599",78.992905,691.68945
"3600",78.8513,691.7031
"3601",78.695045,691.7163
"3602",78.52659,691.7295
"3603",78.35569,691.74316
"3604",78.18967,691.75684
"3605",78.04074,691.77
"3606",77.90158,691.7832
"3607",77.77463,691.7969
"3608",77.659874,691.81055
"3609",77.574425,691.8237
"3610",77.5256,691.8369
"3611",77.53536,691.8506
"3612",77.60372,691.86426
"3613",77.71847,691.87744
"3614",77.86252,691.8906
"3615",78.01877,691.9043
"3616",78.170135,691.91797
"3617",78.31663,691.93115
"3618",78.45335,691.94434
"3619",78.58274,691.958
"3620",78.70237,691.9717
"3621",78.81224,691.98486
"3622",78.92699,691.99805
"3623",79.080795,692.0117
"3624",79.32006,692.0254
"3625",79.68383,692.0386
"3626",80.16968,692.05176
"3627",80.743416,692.0654
"3628",81.33181,692.0791
"3629",81.85428,692.0923
"3630",82.23514,692.10547
"3631",82.442665,692.11914
"3632",82.49149,692.1328
"3633",82.41825,692.146
"3634",82.26444,692.1592
"3635",82.074005,692.17285
"3636",81.87869,692.1865
"3637",81.705345,692.1997
"3638",81.55886,692.2129
"3639",81.444115,692.22656
"3640",81.34402,692.24023
"3641",81.25124,692.2534
"3642",81.15358,692.2666
"3643",81.0486,692.2803
"3644",80.938736,692.29395
"3645",80.8362,692.3071
"3646",80.75075,692.3203
"3647",80.689705,692.334
"3648",80.6482,692.34766
"3649",80.62379,692.36084
"3650",80.604256,692.374
"3651",80.58228,692.3877
"3652",80.5481,692.40137
"3653",80.49439,692.41455
"3654",80.42359,692.42773
"3655",80.33814,692.4414
"3656",80.24536,692.4551
"3657",80.147705,692.46826
"3658",80.05737,692.48145
"3659",79.97681,692.4951
"3660",79.90112,692.5088
"3661",79.835205,692.522
"3662",79.77173,692.53516
"3663",79.71557,692.5488
"3664",79.6643,692.5625
"3665",79.62768,692.5757
"3666",79.59106,692.58887
"3667",79.56664,692.60254
"3668",79.53979,692.6162
"3669",79.51537,692.6294
"3670",79.49096,692.6426
"3671",79.47631,692.65625
"3672",79.45922,692.6699
"3673",79.447014,692.6831
"3674",79.43481,692.6963
"3675",79.4226,692.70996
"3676",79.40307,692.72363
"3677",79.38354,692.7368
"3678",79.35912,692.75
"3679",79.32983,692.7637
"3680",79.29809,692.77734
"3681",79.276115,692.7905
"3682",79.28588,692.8037
"3683",79.361565,692.8174
"3684",79.54711,692.83105
"3685",79.8645,692.84424
"3686",80.29908,692.8574
"3687",80.8069,692.8711
"3688",81.30007,692.88477
"3689",81.7029,692.89795
"3690",81.95438,692.91113
"3691",82.04227,692.9248
"3692",81.991,692.9385
"3693",81.83719,692.95166
"3694",81.62966,692.96484
"3695",81.40505,692.9785
"3696",81.18776,692.9922
"3697",80.99489,693.0054
"3698",80.833755,693.01855
"3699",80.69947,693.0322
"3700",80.58228,693.0459
"3701",80.47242,693.0591
"3702",80.360115,693.07227
"3703",80.24536,693.08594
"3704",80.14038,693.0996
"3705",80.04761,693.1128
"3706",79.97925,693.126
"3707",79.937744,693.13965
"3708",79.923096,693.1533
"3709",79.920654,693.1665
"3710",79.923096,693.1797
"3711",79.923096,693.19336
"3712",79.906006,693.20703
"3713",79.869385,693.2202
"3714",79.815674,693.2334
"3715",79.74731,693.2471
"3716",79.66918,693.26074
"3717",79.59106,693.2739
"3718",79.517815,693.2871
"3719",79.4519,693.3008
"3720",79.398186,693.31445
"3721",79.35668,693.32764
"3722",79.32006,693.3408
"3723",79.290764,693.3545
"3724",79.26635,693.36816
"3725",79.24681,693.38135
"3726",79.234604,693.39453
"3727",79.2224,693.4082
"3728",79.217514,693.4219
"3729",79.21507,693.43506
"3730",79.21263,693.44824
"3731",79.20775,693.4619
"3732",79.20531,693.4756
"3733",79.19554,693.4888
"3734",79.185776,693.50195
"3735",79.17601,693.5156
"3736",79.166245,693.5293
"3737",79.15648,693.5425
"3738",79.14671,693.55566
"3739",79.13451,693.56934
"3740",79.151596,693.583
"3741",79.2224,693.5962
"3742",79.40063,693.6094
"3743",79.7058,693.62305
"3744",80.12573,693.6367
"3745",80.604256,693.6499
"3746",81.07301,693.6631
"3747",81.449,693.67676
"3748",81.67605,693.6904
"3749",81.74685,693.7036
"3750",81.68337,693.7168
"3751",81.52468,693.73047
"3752",81.31472,693.74414
"3753",81.0901,693.7573
"3754",80.8777,693.7705
"3755",80.69459,693.7842
"3756",80.54078,693.79785
"3757",80.4065,693.81104
"3758",80.28687,693.8242
"3759",80.17456,693.8379
"3760",80.0647,693.85156
"3761",79.96216,693.86475
"3762",79.88159,693.8779
"3763",79.82788,693.8916
"3764",79.81079,693.9053
"3765",79.818115,693.91846
"3766",79.84253,693.93164
"3767",79.869385,693.9453
"3768",79.88403,693.959
"3769",79.871826,693.97217
"3770",79.835205,693.98535
"3771",79.77417,693.999
"3772",79.70092,694.0127
"3773",79.62035,694.0259
"3774",79.53979,694.03906
"3775",79.4641,694.05273
"3776",79.395744,694.0664
"3777",79.33227,694.0796
"3778",79.27856,694.0928
"3779",79.234604,694.10645
"3780",79.200424,694.1201
"3781",79.17357,694.1333
"3782",79.151596,694.1465
"3783",79.14183,694.16016
"3784",79.13695,694.1738
"3785",79.13939,694.187
"3786",79.14671,694.2002
"3787",79.15892,694.21387
"3788",79.16136,694.22754
"3789",79.15892,694.2407
"3790",79.149155,694.2539
"3791",79.13695,694.2676
"3792",79.12962,694.28125
"3793",79.149155,694.29443
"3794",79.22728,694.3076
"3795",79.40063,694.3213
"3796",79.68627,694.33496
"3797",80.076904,694.34814
"3798",80.52857,694.3613
"3799",80.97536,694.375
"3800",81.339134,694.3887
"3801",81.56863,694.40186
"3802",81.64919,694.41504
"3803",81.59792,694.4287
"3804",81.45388,694.4424
"3805",81.26101,694.45557
"3806",81.05592,694.46875
"3807",80.86061,694.4824
"3808",80.69215,694.4961
"3809",80.5481,694.5093
"3810",80.42359,694.52246
"3811",80.308846,694.53613
"3812",80.201416,694.5498
"3813",80.09888,694.563
"3814",80.01343,694.5762
"3815",79.94995,694.58984
"3816",79.91577,694.6035
"3817",79.90845,694.6167
"3818",79.92554,694.6299
"3819",79.94751,694.64355
"3820",79.9646,694.6572
"3821",79.96704,694.6704
"3822",79.94751,694.6836
"3823",79.906006,694.69727
"3824",79.84253,694.71094
"3825",79.764404,694.7241
"3826",79.67895,694.7373
"3827",79.59594,694.751
"3828",79.5227,694.76465
"3829",79.45922,694.77783
"3830",79.40551,694.791
"3831",79.36645,694.8047
"3832",79.33227,694.81836
"3833",79.30297,694.83154
"3834",79.276115,694.8447
"3835",79.259026,694.8584
"3836",79.24925,694.8721
"3837",79.24925,694.88525
"3838",79.25414,694.89844
"3839",79.26391,694.9121
"3840",79.26391,694.9258
"3841",79.259026,694.93896
"3842",79.24925,694.95215
"3843",79.25414,694.9658
"3844",79.29809,694.9795
"3845",79.429924,694.9927
"3846",79.68139,695.00586
"3847",80.05737,695.01953
"3848",80.53101,695.0332
"3849",81.04372,695.0464
"3850",81.51736,695.0596
"3851",81.881134,695.07324
"3852",82.1033,695.0869
"3853",82.178986,695.1001
"3854",82.13992,695.1133
"3855",82.01541,695.12695
"3856",81.84451,695.1406
"3857",81.65896,695.1538
"3858",81.480736,695.167
"3859",81.32693,695.18066
"3860",81.20241,695.19434
"3861",81.09987,695.2075
"3862",81.00221,695.2207
"3863",80.88991,695.2344
"3864",80.75319,695.24805
"3865",80.59693,695.2612
"3866",80.44312,695.2744
"3867",80.308846,695.2881
"3868",80.216064,695.30176
"3869",80.16724,695.31494
"3870",80.15503,695.3281
"3871",80.16235,695.3418
"3872",80.17944,695.35547
"3873",80.18921,695.36865
"3874",80.181885,695.38184
"3875",80.15747,695.3955
"3876",80.11597,695.4092
"3877",80.059814,695.42236
"3878",79.99878,695.43555
"3879",79.93286,695.4492
"3880",79.869385,695.4629
"3881",79.81079,695.4761
"3882",79.76196,695.48926
"3883",79.72045,695.5029
"3884",79.68627,695.5166
"3885",79.656975,695.5298
"3886",79.63012,695.54297
"3887",79.60082,695.55664
"3888",79.57885,695.5703
"3889",79.55932,695.5835
"3890",79.54711,695.5967
"3891",79.537346,695.61035
"3892",79.534904,695.624
"3893",79.53002,695.6372
"3894",79.520256,695.6504
"3895",79.50805,695.66406
"3896",79.49828,695.67773
"3897",79.50805,695.6909
"3898",79.58373,695.7041
"3899",79.76196,695.7178
"3900",80.059814,695.73145
"3901",80.4773,695.7446
"3902",80.970474,695.7578
"3903",81.461205,695.7715
"3904",81.87869,695.78516
"3905",82.16678,695.79834
"3906",82.30595,695.8115
"3907",82.31327,695.8252
"3908",82.230255,695.83887
"3909",82.09842,695.85205
"3910",81.9617,695.86523
"3911",81.84207,695.8789
"3912",81.74929,695.8926
"3913",81.67849,695.90576
"3914",81.62234,695.91895
"3915",81.55642,695.9326
"3916",81.46853,695.9463
"3917",81.3489,695.9595
"3918",81.19997,695.97266
"3919",81.03883,695.9863
"3920",80.8777,696
"3921",80.740974,696.0132
"3922",80.63355,696.02637
"3923",80.55543,696.04004
"3924",80.49439,696.0537
"3925",80.45533,696.0669
"3926",80.42359,696.0801
"3927",80.394295,696.09375
"3928",80.35523,696.1074
"3929",80.30152,696.1206
"3930",80.22827,696.1338
"3931",80.13794,696.14746
"3932",80.04028,696.16113
"3933",79.9353,696.1743
"3934",79.835205,696.1875
"3935",79.73998,696.2012
"3936",79.65209,696.21484
"3937",79.57397,696.228
"3938",79.500725,696.2412
"3939",79.43481,696.2549
"3940",79.37621,696.26855
"3941",79.32494,696.28174
"3942",79.28344,696.2949
"3943",79.2517,696.3086
"3944",79.22728,696.32227
"3945",79.20775,696.33545
"3946",79.19066,696.34863
"3947",79.17113,696.3623
"3948",79.14671,696.376
"3949",79.12474,696.38916
"3950",79.10277,696.40234
"3951",79.080795,696.416
"3952",79.061264,696.4297
"3953",79.04173,696.4429
"3954",79.03197,696.45605
"3955",79.05638,696.4697
"3956",79.151596,696.4834
"3957",79.35668,696.4966
"3958",79.68871,696.50977
"3959",80.128174,696.52344
"3960",80.618904,696.5371
"3961",81.08278,696.5503
"3962",81.446556,696.5635
"3963",81.67361,696.57715
"3964",81.76883,696.5908
"3965",81.75418,696.604
"3966",81.67605,696.6172
"3967",81.57107,696.63086
"3968",81.46853,696.64453
"3969",81.38552,696.6577
"3970",81.32693,696.6709
"3971",81.290306,696.6846
"3972",81.253685,696.69824
"3973",81.197525,696.7114
"3974",81.10719,696.7246
"3975",80.972916,696.7383
"3976",80.799576,696.75195
"3977",80.61402,696.76514
"3978",80.44068,696.7783
"3979",80.29908,696.792
"3980",80.19653,696.80566
"3981",80.130615,696.81885
"3982",80.093994,696.83203
"3983",80.062256,696.8457
"3984",80.03296,696.8594
"3985",79.98901,696.87256
"3986",79.92798,696.88574
"3987",79.852295,696.8994
"3988",79.764404,696.9131
"3989",79.66674,696.9263
"3990",79.569084,696.93945
"3991",79.48119,696.9531
"3992",79.398186,696.9668
"3993",79.32494,696.98
"3994",79.256584,696.99316
"3995",79.19066,697.00684
"3996",79.13451,697.0205
"3997",79.08568,697.0337
"3998",79.046616,697.0469
"3999",79.02464,697.06055
"4000",79.00755,697.0742
"4001",78.995346,697.0874
"4002",78.98558,697.1006
"4003",78.975815,697.11426
"4004",78.96361,697.1279
"4005",78.94652,697.1411
"4006",78.92943,697.1543
"4007",78.9099,697.16797
"4008",78.89525,697.18164
"4009",78.88304,697.1948
"4010",78.87816,697.208
"4011",78.873276,697.2217
"4012",78.86595,697.23535
"4013",78.856186,697.24854
"4014",78.84642,697.2617
"4015",78.83177,697.2754
"4016",78.81712,697.28906
"4017",78.80736,697.30225
"4018",78.82201,697.3154
"4019",78.890366,697.3291
"4020",79.05638,697.3428
"4021",79.34936,697.35596
"4022",79.75464,697.36914
"4023",80.235596,697.3828
"4024",80.71656,697.3965
"4025",81.1194,697.40967
"4026",81.38796,697.42285
"4027",81.512474,697.4365
"4028",81.51736,697.4502
"4029",81.43679,697.4634
"4030",81.322044,697.47656
"4031",81.20973,697.49023
"4032",81.126724,697.5039
"4033",81.07301,697.5171
"4034",81.05104,697.5303
"4035",81.04616,697.54395
"4036",81.03639,697.5576
"4037",80.99489,697.5708
"4038",80.919205,697.584
"4039",80.80202,697.59766
"4040",80.66041,697.6113
"4041",80.50904,697.6245
"4042",80.37476,697.6377
"4043",80.26734,697.65137
"4044",80.19409,697.66504
"4045",80.15259,697.6782
"4046",80.12573,697.6914
"4047",80.10132,697.7051
"4048",80.06958,697.71875
"4049",80.02075,697.73193
"4050",79.954834,697.7451
"4051",79.869385,697.7588
"4052",79.77661,697.77246
"4053",79.676506,697.78564
"4054",79.57641,697.7988
"4055",79.48119,697.8125
"4056",79.40063,697.8262
"4057",79.32983,697.83936
"4058",79.26879,697.85254
"4059",79.217514,697.8662
"4060",79.168686,697.8799
"4061",79.12474,697.89307
"4062",79.09056,697.90625
"4063",79.061264,697.9199
"4064",79.03929,697.9336
"4065",79.02464,697.9468
"4066",79.009995,697.95996
"4067",78.99779,697.97363
"4068",78.98558,697.9873
"4069",78.97337,698.0005
"4070",78.96361,698.0137
"4071",78.95628,698.02734
"4072",78.95384,698.041
"4073",78.95628,698.0542
"4074",78.96117,698.0674
"4075",78.96605,698.08105
"4076",78.97337,698.0947
"4077",78.97826,698.1079
"4078",78.98314,698.1211
"4079",78.99046,698.13477
"4080",79.00023,698.14844
"4081",79.00755,698.1616
"4082",79.009995,698.1748
"4083",79.01976,698.1885
"4084",79.0515,698.20215
"4085",79.151596,698.21533
"4086",79.34936,698.2285
"4087",79.676506,698.2422
"4088",80.113525,698.25586
"4089",80.61158,698.26904
"4090",81.092545,698.2822
"4091",81.47585,698.2959
"4092",81.71267,698.3096
"4093",81.795685,698.32275
"4094",81.75174,698.33594
"4095",81.62966,698.3496
"4096",81.48318,698.3633
"4097",81.341576,698.37646
"4098",81.22926,698.38965
"4099",81.15358,698.4033
"4100",81.10475,698.417
"4101",81.07057,698.4302
"4102",81.02907,698.44336
"4103",80.96071,698.45703
"4104",80.85817,698.4707
"4105",80.723885,698.4839
"4106",80.57496,698.4971
"4107",80.4358,698.51074
"4108",80.32105,698.5244
"4109",80.23804,698.5376
"4110",80.17944,698.5508
"4111",80.13794,698.56445
"4112",80.10132,698.5781
"4113",80.0647,698.5913
"4114",80.02075,698.6045
"4115",79.96704,698.61816
"4116",79.89624,698.63184
"4117",79.82056,698.645
"4118",79.7351,698.6582
"4119",79.64965,698.6719
"4120",79.571526,698.68555
"4121",79.49828,698.6987
"4122",79.429924,698.7119
"4123",79.361565,698.7256
"4124",79.30053,698.73926
"4125",79.24681,698.75244
"4126",79.202866,698.7656
"4127",79.1638,698.7793
"4128",79.13451,698.79297
"4129",79.11009,698.80615
"4130",79.09056,698.81934
"4131",79.07347,698.833
"4132",79.05638,698.8467
"4133",79.03685,698.85986
"4134",79.012436,698.87305
"4135",78.98802,698.8867
"4136",78.96605,698.9004
"4137",78.94652,698.9136
"4138",78.93187,698.92676
"4139",78.92699,698.9404
"4140",78.924545,698.9541
"4141",78.924545,698.9673
"4142",78.924545,698.98047
"4143",78.92699,698.99414
"4144",78.922104,699.0078
"4145",78.91234,699.021
"4146",78.90257,699.0342
"4147",78.89525,699.04785
"4148",78.887924,699.0615
"4149",78.89281,699.0747
"4150",78.93187,699.0879
"4151",79.04173,699.10156
"4152",79.25414,699.11523
"4153",79.586174,699.1284
"4154",80.01343,699.1416
"4155",80.48707,699.1553
"4156",80.92897,699.16895
"4157",81.26589,699.1821
"4158",81.463646,699.1953
"4159",81.529564,699.209
"4160",81.48562,699.22266
"4161",81.36843,699.23584
"4162",81.2195,699.249
"4163",81.07301,699.2627
"4164",80.9485,699.27637
"4165",80.85329,699.28955
"4166",80.782486,699.30273
"4167",80.73121,699.3164
"4168",80.67506,699.3301
"4169",80.59693,699.34326
"4170",80.49195,699.35645
"4171",80.37476,699.3701
"4172",80.25269,699.3838
"4173",80.14282,699.397
"4174",80.05493,699.41016
"4175",79.99878,699.4238
"4176",79.96704,699.4375
"4177",79.94995,699.4507
"4178",79.937744,699.46387
"4179",79.920654,699.47754
"4180",79.89868,699.4912
"4181",79.86206,699.5044
"4182",79.80835,699.5176
"4183",79.742424,699.53125
"4184",79.66918,699.5449
"4185",79.5935,699.5581
"4186",79.51537,699.5713
"4187",79.44213,699.58496
"4188",79.378654,699.59863
"4189",79.327385,699.6118
"4190",79.28588,699.625
"4191",79.25414,699.6387
"4192",79.234604,699.65234
"4193",79.2224,699.6655
"4194",79.21019,699.6787
"4195",79.19554,699.6924
"4196",79.17601,699.70605
"4197",79.151596,699.71924
"4198",79.1223,699.7324
"4199",79.093,699.7461
"4200",79.07103,699.75977
"4201",79.05638,699.77295
"4202",79.046616,699.78613
"4203",79.044174,699.7998
"4204",79.046616,699.8135
"4205",79.04906,699.82666
"4206",79.046616,699.83984
"4207",79.04173,699.8535
"4208",79.03197,699.8672
"4209",79.01732,699.8804
"4210",79.00511,699.89355
"4211",78.99779,699.9072
"4212",78.995346,699.9209
"4213",79.009995,699.9341
"4214",79.07347,699.94727
"4215",79.217514,699.96094
"4216",79.47143,699.9746
"4217",79.83765,699.9878
"4218",80.28443,700.001
"4219",80.7483,700.01465
"4220",81.15602,700.0283
"4221",81.43679,700.0415
"4222",81.566185,700.0547
"4223",81.5613,700.06836
"4224",81.449,700.08203
"4225",81.2781,700.0952
"4226",81.08522,700.1084
"4227",80.89967,700.1221
"4228",80.73121,700.13574
"4229",80.584724,700.1489
"4230",80.45533,700.1621
"4231",80.34058,700.1758
"4232",80.23071,700.18945
"4233",80.11597,700.20264
"4234",79.99634,700.2158
"4235",79.87915,700.2295
"4236",79.77173,700.24316
"4237",79.68627,700.25635
"4238",79.63256,700.26953
"4239",79.61059,700.2832
"4240",79.61547,700.2969
"4241",79.63744,700.31006
"4242",79.66186,700.32324
"4243",79.68139,700.3369
"4244",79.68627,700.3506
"4245",79.66918,700.3638
"4246",79.63256,700.37695
"4247",79.58373,700.3906
"4248",79.53002,700.4043
"4249",79.47387,700.4175
"4250",79.4226,700.43066
"4251",79.37377,700.44434
"4252",79.327385,700.458
"4253",79.281,700.4712
"4254",79.23216,700.4844
"4255",79.183334,700.49805
"4256",79.132065,700.5117
"4257",79.09056,700.5249
"4258",79.061264,700.5381
"4259",79.04173,700.55176
"4260",79.027084,700.5654
"4261",79.0222,700.5786
"4262",79.012436,700.5918
"4263",79.00023,700.60547
"4264",78.98558,700.61914
"4265",78.97337,700.6323
"4266",78.97093,700.6455
"4267",78.9807,700.6592
"4268",79.00023,700.67285
"4269",79.027084,700.68604
"4270",79.05394,700.6992
"4271",79.07347,700.7129
"4272",79.080795,700.72656
"4273",79.078354,700.73975
"4274",79.06859,700.7529
"4275",79.05882,700.7666
"4276",79.0515,700.7803
"4277",79.06615,700.79346
"4278",79.13695,700.80664
"4279",79.30297,700.8203
"4280",79.57885,700.834
"4281",79.94995,700.84717
"4282",80.36256,700.86035
"4283",80.723885,700.874
"4284",80.94362,700.8877
"4285",80.96071,700.9009
"4286",80.765396,700.91406
"4287",80.39918,700.92773
"4288",79.94507,700.9414
"4289",79.49828,700.9546
"4290",79.14671,700.9678
"4291",78.924545,700.98145
"4292",78.83177,700.9951
"4293",78.84398,701.0083
"4294",78.91234,701.0215
"4295",78.99046,701.03516
"4296",79.04906,701.0488
"4297",79.08324,701.062
"4298",79.09544,701.0752
"4299",79.093,701.08887
"4300",79.08324,701.10254
"4301",79.09056,701.1157
"4302",79.114975,701.1289
"4303",79.166245,701.1426
"4304",79.234604,701.15625
"4305",79.32006,701.16943
"4306",79.40795,701.1826
"4307",79.49096,701.1963
"4308",79.55932,701.20996
"4309",79.61303,701.22314
"4310",79.64477,701.2363
"4311",79.656975,701.25
"4312",79.6643,701.2637
"4313",79.6643,701.27686
"4314",79.6643,701.29004
"4315",79.6643,701.3037
"4316",79.67162,701.3174
"4317",79.67895,701.33057
"4318",79.693596,701.34375
"4319",79.710686,701.3574
"4320",79.7351,701.3711
"4321",79.76196,701.3843
"4322",79.79126,701.39746
"4323",79.82056,701.41113
"4324",79.84741,701.4248
"4325",79.871826,701.438
"4326",79.89624,701.4512
"4327",79.91333,701.46484
"4328",79.92554,701.4785
"4329",79.93286,701.4917
"4330",79.940186,701.5049
"4331",79.94263,701.51855
"4332",79.94263,701.5322
"4333",79.94507,701.5454
"4334",79.95239,701.5586
"4335",79.954834,701.57227
"4336",79.95239,701.58594
"4337",79.937744,701.5991
"4338",79.906006,701.6123
"4339",79.8645,701.626
"4340",79.815674,701.63965
"4341",79.79126,701.65283
"4342",79.82788,701.666
"4343",79.97925,701.6797
"4344",80.2649,701.69336
"4345",80.672615,701.70654
"4346",81.15846,701.7197
"4347",81.6321,701.7334
"4348",82.005646,701.7471
"4349",82.21561,701.76025
"4350",82.24979,701.77344
"4351",82.1326,701.7871
"4352",81.917755,701.8008
"4353",81.65652,701.81396
"4354",81.392845,701.82715
"4355",81.15846,701.8408
"4356",80.96803,701.8545
"4357",80.814224,701.8677
"4358",80.69215,701.88086
"4359",80.5774,701.89453
"4360",80.45289,701.9082
"4361",80.31861,701.9214
"4362",80.177,701.9346
"4363",80.03296,701.94824
"4364",79.91333,701.9619
"4365",79.823,701.9751
"4366",79.766846,701.9883
"4367",79.7351,702.00195
"4368",79.725334,702.0156
"4369",79.71801,702.0288
"4370",79.710686,702.042
"4371",79.68871,702.05566
"4372",79.656975,702.06934
"4373",79.61791,702.0825
"4374",79.571526,702.0957
"4375",79.5227,702.1094
"4376",79.47387,702.12305
"4377",79.42748,702.1362
"4378",79.378654,702.1494
"4379",79.33471,702.1631
"4380",79.28832,702.17676
"4381",79.23949,702.18994
"4382",79.19798,702.2031
"4383",79.1638,702.2168
"4384",79.13939,702.23047
"4385",79.12962,702.24365
"4386",79.13451,702.25684
"4387",79.14671,702.2705
"4388",79.15892,702.2842
"4389",79.17113,702.29736
"4390",79.183334,702.31055
"4391",79.200424,702.3242
"4392",79.21507,702.3379
"4393",79.23216,702.3511
"4394",79.2517,702.36426
"4395",79.26879,702.3779
"4396",79.290764,702.3916
"4397",79.31274,702.4048
"4398",79.33715,702.41797
"4399",79.35668,702.43164
"4400",79.37133,702.4453
"4401",79.381096,702.4585
"4402",79.38842,702.4717
"4403",79.40063,702.48535
"4404",79.43969,702.499
"4405",79.54467,702.5122
"4406",79.76196,702.5254
"4407",80.111084,702.53906
"4408",80.57252,702.55273
"4409",81.10231,702.5659
"4410",81.617455,702.5791
"4411",82.03006,702.5928
"4412",82.286415,702.60645
"4413",82.37919,702.6196
"4414",82.32792,702.6328
"4415",82.18143,702.6465
"4416",81.98367,702.66016
"4417",81.77615,702.67334
"4418",81.59548,702.6865
"4419",81.449,702.7002
"4420",81.341576,702.71387
"4421",81.25613,702.72705
"4422",81.17799,702.74023
"4423",81.09987,702.7539
"4424",81.01198,702.7676
"4425",80.91188,702.78076
"4426",80.81178,702.79395
"4427",80.719,702.8076
"4428",80.64576,702.8213
"4429",80.59449,702.8345
"4430",80.56519,702.84766
"4431",80.552986,702.8613
"4432",80.54566,702.875
"4433",80.533455,702.8882
"4434",80.51148,702.90137
"4435",80.47486,702.91504
"4436",80.430916,702.9287
"4437",80.37965,702.9419
"4438",80.323494,702.9551
"4439",80.2649,702.96875
"4440",80.2063,702.9824
"4441",80.15015,702.9956
"4442",80.096436,703.0088
"4443",80.04761,703.02246
"4444",80.0061,703.03613
"4445",79.971924,703.0493
"4446",79.94507,703.0625
"4447",79.92798,703.0762
"4448",79.91821,703.08984
"4449",79.91577,703.103
"4450",79.920654,703.1162
"4451",79.93042,703.1299
"4452",79.94263,703.14355
"4453",79.954834,703.15674
"4454",79.96216,703.1699
"4455",79.96948,703.1836
"4456",79.971924,703.19727
"4457",79.974365,703.21045
"4458",79.971924,703.22363
"4459",79.96704,703.2373
"4460",79.957275,703.251
"4461",79.937744,703.26416
"4462",79.91333,703.27734
"4463",79.886475,703.291
"4464",79.8645,703.3047
"4465",79.869385,703.3179
"4466",79.94263,703.33105
"4467",80.12329,703.3447
"4468",80.430916,703.3584
"4469",80.85329,703.3716
"4470",81.33181,703.38477
"4471",81.78592,703.39844
"4472",82.13748,703.4121
"4473",82.3328,703.4253
"4474",82.374306,703.4385
"4475",82.27909,703.45215
"4476",82.1033,703.4658
"4477",81.88602,703.479
"4478",81.66628,703.4922
"4479",81.463646,703.50586
"4480",81.29275,703.51953
"4481",81.1487,703.5327
"4482",81.02663,703.5459
"4483",80.907,703.5596
"4484",80.78981,703.57324
"4485",80.66285,703.5864
"4486",80.53101,703.5996
"4487",80.40406,703.6133
"4488",80.291756,703.62695
"4489",80.20386,703.64014
"4490",80.14282,703.6533
"4491",80.10864,703.667
"4492",80.09155,703.68066
"4493",80.076904,703.69385
"4494",80.05493,703.70703
"4495",80.01831,703.7207
"4496",79.96704,703.7344
"4497",79.903564,703.74756
"4498",79.83276,703.76074
"4499",79.75708,703.7744
"4500",79.68139,703.7881
"4501",79.60815,703.8013
"4502",79.53979,703.81445
"4503",79.47875,703.8281
"4504",79.42504,703.8418
"4505",79.38354,703.855
"4506",79.34203,703.86816
"4507",79.310295,703.88184
"4508",79.28588,703.8955
"4509",79.26391,703.9087
"4510",79.24437,703.9219
"4511",79.22728,703.93555
"4512",79.21019,703.9492
"4513",79.185776,703.9624
"4514",79.15648,703.9756
"4515",79.11986,703.98926
"4516",79.080795,704.0029
"4517",79.03929,704.0161
"4518",79.00023,704.0293
"4519",78.96849,704.04297
"4520",78.941635,704.05664
"4521",78.91966,704.0698
"4522",78.90257,704.083
"4523",78.89525,704.0967
"4524",78.91722,704.11035
"4525",79.00267,704.12354
"4526",79.185776,704.1367
"4527",79.48608,704.1504
"4528",79.89624,704.16406
"4529",80.365,704.17725
"4530",80.82643,704.1904
"4531",81.20973,704.2041
"4532",81.45144,704.2178
"4533",81.54421,704.23096
"4534",81.50027,704.24414
"4535",81.36355,704.2578
"4536",81.17555,704.2715
"4537",80.98268,704.28467
"4538",80.80934,704.29785
"4539",80.66529,704.3115
"4540",80.552986,704.3252
"4541",80.45777,704.3384
"4542",80.36988,704.35156
"4543",80.28199,704.36523
"4544",80.18677,704.3789
"4545",80.09155,704.3921
"4546",80.00366,704.4053
"4547",79.93286,704.41895
"4548",79.888916,704.4326
"4549",79.87427,704.4458
"4550",79.88403,704.459
"4551",79.90112,704.47266
"4552",79.91821,704.4863
"4553",79.92554,704.4995
"4554",79.906006,704.5127
"4555",79.869385,704.52637
"4556",79.815674,704.54004
"4557",79.75464,704.5532
"4558",79.68383,704.5664
"4559",79.61547,704.5801
"4560",79.551994,704.59375
"4561",79.4934,704.60693
"4562",79.43725,704.6201
"4563",79.39086,704.6338
"4564",79.35424,704.64746
"4565",79.32983,704.66064
"4566",79.31762,704.6738
"4567",79.31762,704.6875
"4568",79.32494,704.7012
"4569",79.33715,704.71436
"4570",79.344475,704.72754
"4571",79.35424,704.7412
"4572",79.35424,704.7549
"4573",79.34692,704.76807
"4574",79.34203,704.78125
