"","ppg","time"
"1",79.183334,690.72095
"2",79.16136,690.73425
"3",79.151596,690.74756
"4",79.151596,690.76086
"5",79.16136,690.7742
"6",79.17357,690.7875
"7",79.183334,690.8008
"8",79.185776,690.8141
"9",79.17845,690.8274
"10",79.16136,690.8407
"11",79.14183,690.854
"12",79.12474,690.8673
"13",79.10765,690.8806
"14",79.10033,690.8939
"15",79.09544,690.9072
"16",79.09544,690.92053
"17",79.09544,690.93384
"18",79.097885,690.94714
"19",79.093,690.96045
"20",79.08324,690.97375
"21",79.06859,690.98706
"22",79.04906,691.00037
"23",79.03197,691.0137
"24",79.01976,691.027
"25",79.01732,691.0403
"26",79.01732,691.0536
"27",79.0222,691.0669
"28",79.02464,691.0802
"29",79.029526,691.0935
"30",79.03197,691.1068
"31",79.03929,691.1201
"32",79.04906,691.1334
"33",79.05882,691.1467
"34",79.07103,691.16003
"35",79.08812,691.17334
"36",79.11009,691.18665
"37",79.13695,691.19995
"38",79.168686,691.21326
"39",79.19554,691.22656
"40",79.20775,691.23987
"41",79.202866,691.2532
"42",79.183334,691.2665
"43",79.15892,691.2798
"44",79.13695,691.2931
"45",79.12718,691.3064
"46",79.14183,691.3197
"47",79.19554,691.333
"48",79.32494,691.3463
"49",79.57397,691.3596
"50",79.96216,691.3729
"51",80.48707,691.3862
"52",81.109634,691.39954
"53",81.75418,691.41284
"54",82.340126,691.42615
"55",82.791794,691.43945
"56",83.072556,691.45276
"57",83.175095,691.46606
"58",83.11894,691.4794
"59",82.94316,691.4927
"60",82.69657,691.506
"61",82.42069,691.5193
"62",82.15213,691.5326
"63",81.91043,691.5459
"64",81.69802,691.5592
"65",81.51003,691.5725
"66",81.33181,691.5858
"67",81.15114,691.5991
"68",80.96315,691.6124
"69",80.780045,691.62573
"70",80.61646,691.63904
"71",80.48951,691.65234
"72",80.40894,691.66565
"73",80.37476,691.67896
"74",80.377205,691.69226
"75",80.40406,691.70557
"76",80.4358,691.7189
"77",80.45777,691.7322
"78",80.46021,691.7455
"79",80.428474,691.7588
"80",80.35523,691.7721
"81",80.24536,691.7854
"82",80.113525,691.7987
"83",79.96704,691.812
"84",79.818115,691.8253
"85",79.68139,691.8386
"86",79.55932,691.8519
"87",79.45678,691.86523
"88",79.378654,691.87854
"89",79.3225,691.89185
"90",79.28588,691.90515
"91",79.26391,691.91846
"92",79.2517,691.93176
"93",79.24681,691.94507
"94",79.24437,691.9584
"95",79.24193,691.9717
"96",79.24193,691.985
"97",79.237045,691.9983
"98",79.22728,692.0116
"99",79.219955,692.0249
"100",79.217514,692.0382
"101",79.21263,692.0515
"102",79.20775,692.0648
"103",79.200424,692.0781
"104",79.19066,692.09143
"105",79.17113,692.10474
"106",79.149155,692.11804
"107",79.12474,692.13135
"108",79.097885,692.14465
"109",79.07103,692.15796
"110",79.04906,692.17126
"111",79.03441,692.1846
"112",79.02464,692.1979
"113",79.01732,692.2112
"114",79.01488,692.2245
"115",79.00755,692.2378
"116",79.00023,692.2511
"117",78.99779,692.2644
"118",79.00023,692.2777
"119",79.00755,692.291
"120",79.01976,692.3043
"121",79.03929,692.3176
"122",79.05638,692.33093
"123",79.07591,692.34424
"124",79.09544,692.35754
"125",79.11742,692.37085
"126",79.13695,692.38416
"127",79.15648,692.39746
"128",79.17113,692.41077
"129",79.185776,692.4241
"130",79.200424,692.4374
"131",79.21019,692.4507
"132",79.21507,692.464
"133",79.217514,692.4773
"134",79.217514,692.4906
"135",79.219955,692.5039
"136",79.24193,692.5172
"137",79.3225,692.5305
"138",79.50561,692.5438
"139",79.835205,692.5571
"140",80.323494,692.57043
"141",80.953384,692.58374
"142",81.6614,692.59705
"143",82.354774,692.61035
"144",82.9456,692.62366
"145",83.36797,692.63696
"146",83.595024,692.65027
"147",83.63409,692.6636
"148",83.52178,692.6769
"149",83.30938,692.6902
"150",83.05058,692.7035
"151",82.791794,692.7168
"152",82.55985,692.7301
"153",82.36454,692.7434
"154",82.20828,692.7567
"155",82.06668,692.77
"156",81.92752,692.7833
"157",81.76639,692.79663
"158",81.58083,692.80994
"159",81.36599,692.82324
"160",81.146255,692.83655
"161",80.938736,692.84985
"162",80.76784,692.86316
"163",80.64332,692.87646
"164",80.567635,692.8898
"165",80.52857,692.9031
"166",80.50904,692.9164
"167",80.49439,692.9297
"168",80.46998,692.943
"169",80.42115,692.9563
"170",80.34547,692.9696
"171",80.24292,692.9829
"172",80.12329,692.9962
"173",79.9939,693.0095
"174",79.86206,693.0228
"175",79.73754,693.03613
"176",79.62768,693.04944
"177",79.52514,693.06274
"178",79.432365,693.07605
"179",79.3518,693.08936
"180",79.28588,693.10266
"181",79.23216,693.11597
"182",79.1931,693.1293
"183",79.168686,693.1426
"184",79.149155,693.1559
"185",79.13451,693.1692
"186",79.12474,693.1825
"187",79.11742,693.1958
"188",79.11009,693.2091
"189",79.10033,693.2224
"190",79.093,693.2357
"191",79.080795,693.249
"192",79.06859,693.2623
"193",79.05638,693.27563
"194",79.04173,693.28894
"195",79.029526,693.30225
"196",79.01732,693.31555
"197",79.00023,693.32886
"198",78.9807,693.34216
"199",78.958725,693.35547
"200",78.93187,693.3688
"201",78.91234,693.3821
"202",78.90013,693.3954
"203",78.89769,693.4087
"204",78.90013,693.422
"205",78.907455,693.4353
"206",78.9099,693.4486
"207",78.9099,693.4619
"208",78.9099,693.4752
"209",78.91234,693.4885
"210",78.91478,693.50183
"211",78.922104,693.51514
"212",78.93187,693.52844
"213",78.93919,693.54175
"214",78.95384,693.55505
"215",78.97093,693.56836
"216",78.992905,693.58167
"217",79.01732,693.595
"218",79.046616,693.6083
"219",79.07103,693.6216
"220",79.093,693.6349
"221",79.11009,693.6482
"222",79.11986,693.6615
"223",79.12474,693.6748
"224",79.12718,693.6881
"225",79.12962,693.7014
"226",79.12962,693.7147
"227",79.14183,693.728
"228",79.185776,693.74133
"229",79.30053,693.75464
"230",79.537346,693.76794
"231",79.93286,693.78125
"232",80.48951,693.79456
"233",81.17555,693.80786
"234",81.91531,693.82117
"235",82.61356,693.8345
"236",83.18486,693.8478
"237",83.57305,693.8611
"238",83.76349,693.8744
"239",83.775696,693.8877
"240",83.64629,693.901
"241",83.42901,693.9143
"242",83.17265,693.9276
"243",82.916306,693.9409
"244",82.68192,693.9542
"245",82.493935,693.9675
"246",82.340126,693.98083
"247",82.20584,693.99414
"248",82.06912,694.00745
"249",81.90799,694.02075
"250",81.71755,694.03406
"251",81.50027,694.04736
"252",81.27322,694.06067
"253",81.06081,694.074
"254",80.88747,694.0873
"255",80.76051,694.1006
"256",80.68482,694.1139
"257",80.64332,694.1272
"258",80.621346,694.1405
"259",80.59937,694.1538
"260",80.55787,694.1671
"261",80.49439,694.1804
"262",80.411385,694.1937
"263",80.306404,694.20703
"264",80.19165,694.22034
"265",80.07202,694.23364
"266",79.95239,694.24695
"267",79.83765,694.26025
"268",79.727776,694.27356
"269",79.622795,694.28687
"270",79.52758,694.3002
"271",79.44213,694.3135
"272",79.37133,694.3268
"273",79.31518,694.3401
"274",79.27123,694.3534
"275",79.237045,694.3667
"276",79.21263,694.38
"277",79.19066,694.3933
"278",79.17357,694.4066
"279",79.15648,694.4199
"280",79.14183,694.4332
"281",79.12962,694.44653
"282",79.11742,694.45984
"283",79.10033,694.47314
"284",79.08324,694.48645
"285",79.06615,694.49976
"286",79.044174,694.51306
"287",79.01732,694.52637
"288",78.99046,694.5397
"289",78.96849,694.553
"290",78.94652,694.5663
"291",78.92699,694.5796
"292",78.907455,694.5929
"293",78.890366,694.6062
"294",78.87816,694.6195
"295",78.86839,694.6328
"296",78.86351,694.6461
"297",78.86107,694.6594
"298",78.86595,694.6727
"299",78.86839,694.68604
"300",78.87572,694.69934
"301",78.8806,694.71265
"302",78.89281,694.72595
"303",78.905014,694.73926
"304",78.91966,694.75256
"305",78.93431,694.76587
"306",78.9514,694.7792
"307",78.96605,694.7925
"308",78.975815,694.8058
"309",78.98314,694.8191
"310",78.99046,694.8324
"311",78.992905,694.8457
"312",78.99046,694.859
"313",78.98314,694.8723
"314",78.975815,694.8856
"315",78.96849,694.8989
"316",78.96849,694.91223
"317",78.99779,694.92554
"318",79.08568,694.93884
"319",79.27123,694.95215
"320",79.59106,694.96545
"321",80.062256,694.97876
"322",80.66773,694.99207
"323",81.34646,695.0054
"324",82.01541,695.0187
"325",82.58915,695.032
"326",83.01152,695.0453
"327",83.250786,695.0586
"328",83.31182,695.0719
"329",83.22148,695.0852
"330",83.03349,695.0985
"331",82.791794,695.1118
"332",82.53788,695.1251
"333",82.30595,695.1384
"334",82.108185,695.15173
"335",81.93973,695.16504
"336",81.78348,695.17834
"337",81.617455,695.19165
"338",81.43435,695.20496
"339",81.23903,695.21826
"340",81.041275,695.23157
"341",80.86061,695.2449
"342",80.71412,695.2582
"343",80.60914,695.2715
"344",80.552986,695.2848
"345",80.53101,695.2981
"346",80.5359,695.3114
"347",80.550545,695.3247
"348",80.55543,695.338
"349",80.533455,695.3513
"350",80.4773,695.3646
"351",80.38209,695.3779
"352",80.255135,695.39124
"353",80.111084,695.40454
"354",79.95972,695.41785
"355",79.815674,695.43115
"356",79.68383,695.44446
"357",79.571526,695.45776
"358",79.47875,695.47107
"359",79.398186,695.4844
"360",79.33471,695.4977
"361",79.28344,695.511
"362",79.23949,695.5243
"363",79.20531,695.5376
"364",79.185776,695.5509
"365",79.168686,695.5642
"366",79.15648,695.5775
"367",79.14427,695.5908
"368",79.13451,695.6041
"369",79.1223,695.61743
"370",79.11253,695.63074
"371",79.10033,695.64404
"372",79.09056,695.65735
"373",79.07591,695.67065
"374",79.061264,695.68396
"375",79.04173,695.69727
"376",79.01732,695.7106
"377",78.99046,695.7239
"378",78.96361,695.7372
"379",78.93675,695.7505
"380",78.91234,695.7638
"381",78.89281,695.7771
"382",78.8806,695.7904
"383",78.870834,695.8037
"384",78.86351,695.817
"385",78.85863,695.8303
"386",78.85863,695.8436
"387",78.856186,695.85693
"388",78.85863,695.87024
"389",78.86595,695.88354
"390",78.873276,695.89685
"391",78.88548,695.91016
"392",78.90013,695.92346
"393",78.91966,695.93677
"394",78.941635,695.9501
"395",78.96117,695.9634
"396",78.98314,695.9767
"397",78.995346,695.99
"398",79.00023,696.0033
"399",79.00511,696.0166
"400",79.00511,696.0299
"401",79.00023,696.0432
"402",78.992905,696.0565
"403",78.98314,696.0698
"404",78.9807,696.0831
"405",79.00023,696.09644
"406",79.06859,696.10974
"407",79.22484,696.12305
"408",79.50561,696.13635
"409",79.9353,696.14966
"410",80.5066,696.16296
"411",81.17311,696.1763
"412",81.85428,696.1896
"413",82.4622,696.2029
"414",82.92363,696.2162
"415",83.20683,696.2295
"416",83.3045,696.2428
"417",83.24834,696.2561
"418",83.08476,696.2694
"419",82.865036,696.2827
"420",82.62821,696.296
"421",82.41337,696.3093
"422",82.24002,696.32263
"423",82.108185,696.33594
"424",82.00076,696.34924
"425",81.89578,696.36255
"426",81.76883,696.37585
"427",81.602806,696.38916
"428",81.40749,696.40247
"429",81.19264,696.4158
"430",80.98024,696.4291
"431",80.799576,696.4424
"432",80.66041,696.4557
"433",80.56519,696.469
"434",80.516365,696.4823
"435",80.49195,696.4956
"436",80.4773,696.5089
"437",80.45533,696.5222
"438",80.411385,696.5355
"439",80.33814,696.5488
"440",80.235596,696.56213
"441",80.111084,696.57544
"442",79.98169,696.58875
"443",79.84497,696.60205
"444",79.71313,696.61536
"445",79.59838,696.62866
"446",79.49584,696.64197
"447",79.40795,696.6553
"448",79.33227,696.6686
"449",79.27123,696.6819
"450",79.21507,696.6952
"451",79.168686,696.7085
"452",79.132065,696.7218
"453",79.10277,696.7351
"454",79.080795,696.7484
"455",79.07103,696.7617
"456",79.063705,696.775
"457",79.05638,696.7883
"458",79.046616,696.80164
"459",79.03441,696.81494
"460",79.0222,696.82825
"461",79.00755,696.84155
"462",78.99046,696.85486
"463",78.97337,696.86816
"464",78.95628,696.8815
"465",78.93919,696.8948
"466",78.924545,696.9081
"467",78.91478,696.9214
"468",78.90257,696.9347
"469",78.89281,696.948
"470",78.88304,696.9613
"471",78.870834,696.9746
"472",78.856186,696.9879
"473",78.84642,697.0012
"474",78.836655,697.0145
"475",78.83177,697.02783
"476",78.836655,697.04114
"477",78.84642,697.05444
"478",78.853745,697.06775
"479",78.86595,697.08105
"480",78.87572,697.09436
"481",78.88304,697.10767
"482",78.88548,697.121
"483",78.890366,697.1343
"484",78.90257,697.1476
"485",78.91234,697.1609
"486",78.922104,697.1742
"487",78.92943,697.1875
"488",78.941635,697.2008
"489",78.95384,697.2141
"490",78.96361,697.2274
"491",78.97337,697.2407
"492",78.97826,697.254
"493",78.97826,697.26733
"494",78.975815,697.28064
"495",78.97093,697.29395
"496",78.96605,697.30725
"497",78.96849,697.32056
"498",78.9807,697.33386
"499",79.01732,697.34717
"500",79.11253,697.3605
"501",79.30541,697.3738
"502",79.64233,697.3871
"503",80.13306,697.4004
"504",80.75075,697.4137
"505",81.43191,697.427
"506",82.091095,697.4403
"507",82.63554,697.4536
"508",83.01152,697.4669
"509",83.19707,697.4802
"510",83.209274,697.4935
"511",83.087204,697.50684
"512",82.882126,697.52014
"513",82.65507,697.53345
"514",82.43778,697.54675
"515",82.24979,697.56006
"516",82.108185,697.57336
"517",82.003204,697.5867
"518",81.91287,697.6
"519",81.81766,697.6133
"520",81.69314,697.6266
"521",81.53689,697.6399
"522",81.341576,697.6532
"523",81.129166,697.6665
"524",80.91676,697.6798
"525",80.73609,697.6931
"526",80.59937,697.7064
"527",80.51148,697.7197
"528",80.465096,697.73303
"529",80.44312,697.74634
"530",80.430916,697.75964
"531",80.40894,697.77295
"532",80.36744,697.78625
"533",80.29908,697.79956
"534",80.20386,697.81287
"535",80.08423,697.8262
"536",79.954834,697.8395
"537",79.823,697.8528
"538",79.69604,697.8661
"539",79.58373,697.8794
"540",79.49096,697.8927
"541",79.412834,697.906
"542",79.344475,697.9193
"543",79.28588,697.9326
"544",79.234604,697.9459
"545",79.19066,697.9592
"546",79.151596,697.97253
"547",79.1223,697.98584
"548",79.097885,697.99915
"549",79.08324,698.01245
"550",79.07347,698.02576
"551",79.07347,698.03906
"552",79.07591,698.05237
"553",79.080795,698.0657
"554",79.078354,698.079
"555",79.06615,698.0923
"556",79.044174,698.1056
"557",79.01976,698.1189
"558",78.99046,698.1322
"559",78.96605,698.1455
"560",78.94652,698.1588
"561",78.93675,698.1721
"562",78.92943,698.1854
"563",78.924545,698.1987
"564",78.91966,698.21204
"565",78.91234,698.22534
"566",78.90013,698.23865
"567",78.887924,698.25195
"568",78.87816,698.26526
"569",78.873276,698.27856
"570",78.87572,698.2919
"571",78.87816,698.3052
"572",78.88548,698.3185
"573",78.89281,698.3318
"574",78.90257,698.3451
"575",78.91234,698.3584
"576",78.924545,698.3717
"577",78.93431,698.385
"578",78.941635,698.3983
"579",78.9514,698.4116
"580",78.96117,698.4249
"581",78.97337,698.43823
"582",78.98558,698.45154
"583",78.995346,698.46484
"584",79.00023,698.47815
"585",79.00023,698.49146
"586",79.00023,698.50476
"587",78.99779,698.51807
"588",79.00023,698.5314
"589",79.01732,698.5447
"590",79.06615,698.558
"591",79.1931,698.5713
"592",79.43481,698.5846
"593",79.818115,698.5979
"594",80.33082,698.6112
"595",80.93385,698.6245
"596",81.54665,698.6378
"597",82.08865,698.6511
"598",82.493935,698.6644
"599",82.73075,698.67773
"600",82.804,698.69104
"601",82.74296,698.70435
"602",82.59403,698.71765
"603",82.4036,698.73096
"604",82.20584,698.74426
"605",82.02518,698.75757
"606",81.87137,698.7709
"607",81.74441,698.7842
"608",81.634544,698.7975
"609",81.52224,698.8108
"610",81.392845,698.8241
"611",81.24147,698.8374
"612",81.06813,698.8507
"613",80.88747,698.864
"614",80.723885,698.8773
"615",80.58961,698.8906
"616",80.50172,698.90393
"617",80.45289,698.91724
"618",80.43824,698.93054
"619",80.44068,698.94385
"620",80.44312,698.95715
"621",80.43336,698.97046
"622",80.394295,698.98376
"623",80.32838,698.9971
"624",80.233154,699.0104
"625",80.12329,699.0237
"626",80.01099,699.037
"627",79.903564,699.0503
"628",79.798584,699.0636
"629",79.70092,699.0769
"630",79.61059,699.0902
"631",79.52758,699.1035
"632",79.4519,699.1168
"633",79.38842,699.1301
"634",79.34203,699.14343
"635",79.310295,699.15674
"636",79.290764,699.17004
"637",79.281,699.18335
"638",79.273674,699.19666
"639",79.26879,699.20996
"640",79.25414,699.22327
"641",79.23949,699.2366
"642",79.22484,699.2499
"643",79.21507,699.2632
"644",79.20775,699.2765
"645",79.20775,699.2898
"646",79.20775,699.3031
"647",79.20775,699.3164
"648",79.200424,699.3297
"649",79.18822,699.343
"650",79.166245,699.3563
"651",79.14183,699.3696
"652",79.11986,699.38293
"653",79.10033,699.39624
"654",79.08812,699.40955
"655",79.08324,699.42285
"656",79.08812,699.43616
"657",79.09544,699.44946
"658",79.10033,699.46277
"659",79.10521,699.4761
"660",79.10521,699.4894
"661",79.10521,699.5027
"662",79.10521,699.516
"663",79.11253,699.5293
"664",79.12474,699.5426
"665",79.13939,699.5559
"666",79.15648,699.5692
"667",79.17357,699.5825
"668",79.1931,699.5958
"669",79.20531,699.60913
"670",79.21263,699.62244
"671",79.21263,699.63574
"672",79.202866,699.64905
"673",79.183334,699.66235
"674",79.1638,699.67566
"675",79.149155,699.68896
"676",79.149155,699.7023
"677",79.18089,699.7156
"678",79.281,699.7289
"679",79.47875,699.7422
"680",79.80591,699.7555
"681",80.26246,699.7688
"682",80.82155,699.7821
"683",81.41726,699.7954
"684",81.97879,699.8087
"685",82.4329,699.822
"686",82.735634,699.8353
"687",82.87724,699.84863
"688",82.87724,699.86194
"689",82.76982,699.87524
"690",82.598915,699.88855
"691",82.40116,699.90186
"692",82.22049,699.91516
"693",82.0618,699.92847
"694",81.94217,699.9418
"695",81.85184,699.9551
"696",81.77371,699.9684
"697",81.68337,699.9817
"698",81.566185,699.995
"699",81.41238,700.0083
"700",81.231705,700.0216
"701",81.03639,700.0349
"702",80.85817,700.0482
"703",80.71412,700.0615
"704",80.61646,700.0748
"705",80.55787,700.08813
"706",80.533455,700.10144
"707",80.52125,700.11475
"708",80.50416,700.12805
"709",80.47242,700.14136
"710",80.41627,700.15466
"711",80.33082,700.16797
"712",80.22339,700.1813
"713",80.096436,700.1946
"714",79.96704,700.2079
"715",79.83765,700.2212
"716",79.72289,700.2345
"717",79.622795,700.2478
"718",79.54467,700.2611
"719",79.48119,700.2744
"720",79.429924,700.2877
"721",79.3933,700.301
"722",79.361565,700.31433
"723",79.34203,700.32764
"724",79.3225,700.34094
"725",79.30785,700.35425
"726",79.293205,700.36755
"727",79.28344,700.38086
"728",79.276115,700.39417
"729",79.273674,700.4075
"730",79.27123,700.4208
"731",79.276115,700.4341
"732",79.273674,700.4474
"733",79.26391,700.4607
"734",79.24925,700.474
"735",79.22972,700.4873
"736",79.20531,700.5006
"737",79.17845,700.5139
"738",79.15404,700.5272
"739",79.132065,700.5405
"740",79.114975,700.55383
"741",79.10277,700.56714
"742",79.09544,700.58044
"743",79.08568,700.59375
"744",79.078354,700.60706
"745",79.07103,700.62036
"746",79.06615,700.63367
"747",79.063705,700.647
"748",79.06615,700.6603
"749",79.07103,700.6736
"750",79.078354,700.6869
"751",79.08568,700.7002
"752",79.09056,700.7135
"753",79.093,700.7268
"754",79.097885,700.7401
"755",79.10765,700.7534
"756",79.11986,700.7667
"757",79.13695,700.78
"758",79.15648,700.79333
"759",79.17357,700.80664
"760",79.185776,700.81995
"761",79.19066,700.83325
"762",79.19554,700.84656
"763",79.19798,700.85986
"764",79.19798,700.87317
"765",79.19798,700.8865
"766",79.200424,700.8998
"767",79.202866,700.9131
"768",79.21507,700.9264
"769",79.2517,700.9397
"770",79.34936,700.953
"771",79.54711,700.9663
"772",79.87915,700.9796
"773",80.35523,700.9929
"774",80.95094,701.0062
"775",81.600365,701.01953
"776",82.22049,701.03284
"777",82.738075,701.04614
"778",83.09697,701.05945
"779",83.284966,701.07275
"780",83.31426,701.08606
"781",83.22148,701.09937
"782",83.0457,701.1127
"783",82.83574,701.126
"784",82.62821,701.1393
"785",82.44511,701.1526
"786",82.30106,701.1659
"787",82.19119,701.1792
"788",82.09842,701.1925
"789",82.00076,701.2058
"790",81.87869,701.2191
"791",81.71755,701.2324
"792",81.5198,701.2457
"793",81.304955,701.25903
"794",81.08766,701.27234
"795",80.89723,701.28564
"796",80.75319,701.29895
"797",80.66041,701.31226
"798",80.60914,701.32556
"799",80.59449,701.33887
"800",80.584724,701.3522
"801",80.56519,701.3655
"802",80.51881,701.3788
"803",80.45045,701.3921
"804",80.35279,701.4054
"805",80.235596,701.4187
"806",80.111084,701.432
"807",79.98657,701.4453
"808",79.8645,701.4586
"809",79.7522,701.4719
"810",79.65209,701.4852
"811",79.56664,701.49854
"812",79.49096,701.51184
"813",79.4226,701.52515
"814",79.36645,701.53845
"815",79.32006,701.55176
"816",79.28588,701.56506
"817",79.26147,701.57837
"818",79.24193,701.5917
"819",79.22972,701.605
"820",79.219955,701.6183
"821",79.20775,701.6316
"822",79.1931,701.6449
"823",79.17845,701.6582
"824",79.1638,701.6715
"825",79.14183,701.6848
"826",79.114975,701.6981
"827",79.08812,701.7114
"828",79.06615,701.72473
"829",79.044174,701.73804
"830",79.03441,701.75134
"831",79.027084,701.76465
"832",79.0222,701.77795
"833",79.009995,701.79126
"834",79.00023,701.80457
"835",78.98802,701.8179
"836",78.97093,701.8312
"837",78.96117,701.8445
"838",78.95628,701.8578
"839",78.95384,701.8711
"840",78.95384,701.8844
"841",78.95384,701.8977
"842",78.95384,701.911
"843",78.95628,701.9243
"844",78.95628,701.9376
"845",78.96361,701.9509
"846",78.975815,701.96423
"847",78.992905,701.97754
"848",79.00755,701.99084
"849",79.0222,702.00415
"850",79.03441,702.01746
"851",79.044174,702.03076
"852",79.0515,702.04407
"853",79.05394,702.0574
"854",79.05394,702.0707
"855",79.0515,702.084
"856",79.046616,702.0973
"857",79.046616,702.1106
"858",79.05638,702.1239
"859",79.08324,702.1372
"860",79.15404,702.1505
"861",79.31274,702.1638
"862",79.59594,702.1771
"863",80.03052,702.1904
"864",80.59937,702.20374
"865",81.24391,702.21704
"866",81.88846,702.23035
"867",82.44755,702.24365
"868",82.85527,702.25696
"869",83.087204,702.27026
"870",83.15312,702.28357
"871",83.08232,702.2969
"872",82.92607,702.3102
"873",82.72343,702.3235
"874",82.511024,702.3368
"875",82.320595,702.3501
"876",82.161896,702.3634
"877",82.02518,702.3767
"878",81.898224,702.39
"879",81.76639,702.4033
"880",81.60769,702.4166
"881",81.42214,702.42993
"882",81.214615,702.44324
"883",81.01442,702.45654
"884",80.84108,702.46985
"885",80.709236,702.48315
"886",80.62623,702.49646
"887",80.587166,702.50977
"888",80.5774,702.5231
"889",80.5774,702.5364
"890",80.57252,702.5497
"891",80.54078,702.563
"892",80.482185,702.5763
"893",80.38941,702.5896
"894",80.26978,702.6029
"895",80.1355,702.6162
"896",79.99634,702.6295
"897",79.85962,702.6428
"898",79.73266,702.6561
"899",79.61547,702.66943
"900",79.51537,702.68274
"901",79.43481,702.69604
"902",79.37133,702.70935
"903",79.3225,702.72266
"904",79.28832,702.73596
"905",79.26391,702.74927
"906",79.24437,702.7626
"907",79.22972,702.7759
"908",79.21507,702.7892
"909",79.202866,702.8025
"910",79.1931,702.8158
"911",79.17845,702.8291
"912",79.1638,702.8424
"913",79.149155,702.8557
"914",79.13451,702.869
"915",79.1223,702.8823
"916",79.11253,702.8956
"917",79.10277,702.90894
"918",79.09056,702.92224
"919",79.07591,702.93555
"920",79.05638,702.94885
"921",79.03197,702.96216
"922",79.012436,702.97546
"923",79.00023,702.9888
"924",78.995346,703.0021
"925",78.99046,703.0154
"926",78.995346,703.0287
"927",79.00511,703.042
"928",79.01976,703.0553
"929",79.03441,703.0686
"930",79.05394,703.0819
"931",79.07347,703.0952
"932",79.09056,703.1085
"933",79.10033,703.1218
"934",79.11009,703.13513
"935",79.114975,703.14844
"936",79.114975,703.16174
"937",79.10521,703.17505
"938",79.093,703.18835
"939",79.078354,703.20166
"940",79.05882,703.21497
"941",79.03929,703.2283
"942",79.029526,703.2416
"943",79.04906,703.2549
"944",79.12718,703.2682
"945",79.30541,703.2815
"946",79.62035,703.2948
"947",80.07202,703.3081
"948",80.638435,703.3214
"949",81.26345,703.3347
"950",81.86893,703.348
"951",82.38163,703.3613
"952",82.74784,703.37463
"953",82.948044,703.38794
"954",82.99199,703.40125
"955",82.916306,703.41455
"956",82.7625,703.42786
"957",82.579384,703.44116
"958",82.40116,703.45447
"959",82.2449,703.4678
"960",82.12039,703.4811
"961",82.01541,703.4944
"962",81.9202,703.5077
"963",81.80057,703.521
"964",81.651634,703.5343
"965",81.46609,703.5476
"966",81.253685,703.5609
"967",81.03639,703.5742
"968",80.84352,703.5875
"969",80.69459,703.6008
"970",80.604256,703.61414
"971",80.56275,703.62744
"972",80.55543,703.64075
"973",80.55787,703.65405
"974",80.552986,703.66736
"975",80.52369,703.68066
"976",80.462654,703.694
"977",80.37232,703.7073
"978",80.2649,703.7206
"979",80.14282,703.7339
"980",80.01587,703.7472
"981",79.89624,703.7605
"982",79.78638,703.7738
"983",79.68871,703.7871
"984",79.603264,703.8004
"985",79.52758,703.8137
"986",79.45922,703.827
"987",79.40307,703.84033
"988",79.361565,703.85364
"989",79.33227,703.86694
"990",79.31274,703.88025
"991",79.30785,703.89355
"992",79.30785,703.90686
"993",79.30541,703.92017
"994",79.293205,703.9335
"995",79.27123,703.9468
"996",79.23949,703.9601
"997",79.20531,703.9734
"998",79.168686,703.9867
"999",79.14183,704
"1000",79.11986,704.0133
"1001",79.10033,704.0266
"1002",79.080795,704.0399
"1003",79.05882,704.0532
"1004",79.029526,704.0665
"1005",78.99779,704.07983
"1006",78.96605,704.09314
"1007",78.93431,704.10645
"1008",78.907455,704.11975
"1009",78.89281,704.13306
"1010",78.890366,704.14636
"1011",78.89281,704.15967
"1012",78.89769,704.173
"1013",78.907455,704.1863
"1014",78.91478,704.1996
"1015",78.922104,704.2129
"1016",78.92699,704.2262
"1017",78.93187,704.2395
"1018",78.941635,704.2528
"1019",78.96117,704.2661
"1020",78.992905,704.2794
"1021",79.04906,704.2927
"1022",79.12718,704.306
"1023",79.21507,704.31934
"1024",79.29565,704.33264
"1025",79.35668,704.34595
"1026",79.39086,704.35925
"1027",79.40063,704.37256
"1028",79.39086,704.38586
"1029",79.37133,704.3992
"1030",79.344475,704.4125
"1031",79.30785,704.4258
"1032",79.26391,704.4391
"1033",79.22728,704.4524
"1034",79.22972,704.4657
"1035",79.310295,704.479
"1036",79.50805,704.4923
"1037",79.85474,704.5056
"1038",80.34547,704.5189
"1039",80.938736,704.5322
"1040",81.56374,704.54553
"1041",82.14725,704.55884
"1042",82.61356,704.57214
"1043",82.92851,704.58545
"1044",83.07744,704.59875
"1045",83.08476,704.61206
"1046",82.98222,704.62537
"1047",82.82353,704.6387
"1048",82.650185,704.652
"1049",82.493935,704.6653
"1050",82.36698,704.6786
"1051",82.269325,704.6919
"1052",82.18631,704.7052
"1053",82.09842,704.7185
"1054",81.986115,704.7318
"1055",81.83963,704.7451
"1056",81.64919,704.7584
"1057",81.43191,704.7717
"1058",81.20485,704.78503
"1059",80.990005,704.79834
"1060",80.81911,704.81165
"1061",80.69703,704.82495
"1062",80.62379,704.83826
"1063",80.58961,704.85156
"1064",80.5774,704.86487
"1065",80.56031,704.8782
"1066",80.53101,704.8915
"1067",80.47486,704.9048
"1068",80.39185,704.9181
"1069",80.289314,704.9314
"1070",80.17456,704.9447
"1071",80.059814,704.958
"1072",79.954834,704.9713
"1073",79.869385,704.9846
"1074",79.798584,704.9979
"1075",79.73754,705.0112
"1076",79.68627,705.02454
"1077",79.63256,705.03784
"1078",79.571526,705.05115
"1079",79.50805,705.06445
"1080",79.447014,705.07776
"1081",79.39086,705.09106
"1082",79.34692,705.1044
"1083",79.310295,705.1177
"1084",79.28588,705.131
"1085",79.259026,705.1443
"1086",79.23216,705.1576
"1087",79.202866,705.1709
"1088",79.168686,705.1842
"1089",79.12962,705.1975
"1090",79.093,705.2108
"1091",79.05394,705.2241
"1092",79.01488,705.2374
"1093",78.9807,705.25073
"1094",78.94408,705.26404
"1095",78.91234,705.27734
"1096",78.887924,705.29065
"1097",78.86351,705.30396
"1098",78.83421,705.31726
"1099",78.80492,705.33057
"1100",78.77074,705.3439
"1101",78.73655,705.3572
"1102",78.70481,705.3705
"1103",78.677956,705.3838
"1104",78.65598,705.3971
"1105",78.63645,705.4104
"1106",78.6218,705.4237
"1107",78.61448,705.437
"1108",78.61204,705.4503
"1109",78.61448,705.4636
"1110",78.61692,705.4769
"1111",78.61936,705.49023
"1112",78.6218,705.50354
"1113",78.6218,705.51685
"1114",78.624245,705.53015
"1115",78.63157,705.54346
"1116",78.63889,705.55676
"1117",78.64622,705.57007
"1118",78.65354,705.5834
"1119",78.65354,705.5967
"1120",78.6511,705.61
"1121",78.64866,705.6233
"1122",78.64866,705.6366
"1123",78.64866,705.6499
"1124",78.658424,705.6632
"1125",78.68772,705.6765
"1126",78.75609,705.6898
"1127",78.9099,705.7031
"1128",79.18822,705.71643
"1129",79.61303,705.72974
"1130",80.16968,705.74304
"1131",80.814224,705.75635
"1132",81.478294,705.76965
"1133",82.08133,705.78296
"1134",82.55497,705.79626
"1135",82.86992,705.8096
"1136",83.01396,705.8229
"1137",83.018845,705.8362
"1138",82.92363,705.8495
"1139",82.76738,705.8628
"1140",82.59403,705.8761
"1141",82.43534,705.8894
"1142",82.30106,705.9027
"1143",82.193634,705.916
"1144",82.10086,705.9293
"1145",82.005646,705.9426
"1146",81.883575,705.95593
"1147",81.722435,705.96924
"1148",81.52468,705.98254
"1149",81.304955,705.99585
"1150",81.08278,706.00916
"1151",80.88747,706.02246
"1152",80.73853,706.03577
"1153",80.638435,706.0491
"1154",80.584724,706.0624
"1155",80.56519,706.0757
"1156",80.55543,706.089
"1157",80.54322,706.1023
"1158",80.516365,706.1156
"1159",80.46754,706.1289
"1160",80.38697,706.1422
"1161",80.28199,706.1555
"1162",80.15747,706.1688
"1163",80.02319,706.1821
"1164",79.888916,706.19543
"1165",79.76196,706.20874
"1166",79.64965,706.22205
"1167",79.55688,706.23535
"1168",79.47143,706.24866
"1169",79.40063,706.26196
"1170",79.33959,706.27527
"1171",79.28832,706.2886
"1172",79.24681,706.3019
"1173",79.21507,706.3152
"1174",79.19066,706.3285
"1175",79.17113,706.3418
"1176",79.15404,706.3551
"1177",79.13695,706.3684
"1178",79.1223,706.3817
"1179",79.10765,706.395
"1180",79.09544,706.4083
"1181",79.080795,706.42163
"1182",79.06615,706.43494
"1183",79.04906,706.44824
"1184",79.027084,706.46155
"1185",79.00023,706.47485
"1186",78.97093,706.48816
"1187",78.93919,706.50146
"1188",78.907455,706.5148
"1189",78.8806,706.5281
"1190",78.86107,706.5414
"1191",78.8513,706.5547
"1192",78.84398,706.568
"1193",78.839096,706.5813
"1194",78.83421,706.5946
"1195",78.82689,706.6079
"1196",78.819565,706.6212
"1197",78.81712,706.6345
"1198",78.81712,706.6478
"1199",78.82445,706.66113
"1200",78.83421,706.67444
"1201",78.84398,706.68774
"1202",78.856186,706.70105
"1203",78.86595,706.71436
"1204",78.873276,706.72766
"1205",78.87572,706.74097
"1206",78.86595,706.7543
"1207",78.853745,706.7676
"1208",78.839096,706.7809
"1209",78.82933,706.7942
"1210",78.83177,706.8075
"1211",78.853745,706.8208
"1212",78.90013,706.8341
"1213",78.99779,706.8474
"1214",79.183334,706.8607
"1215",79.483635,706.874
"1216",79.91577,706.8873
"1217",80.462654,706.90063
"1218",81.075455,706.91394
"1219",81.67361,706.92725
"1220",82.18631,706.94055
"1221",82.55497,706.95386
"1222",82.760056,706.96716
"1223",82.811325,706.98047
"1224",82.74052,706.9938
"1225",82.59159,707.0071
"1226",82.408485,707.0204
"1227",82.22537,707.0337
"1228",82.05936,707.047
"1229",81.92508,707.0603
"1230",81.812775,707.0736
"1231",81.70779,707.0869
"1232",81.58572,707.1002
"1233",81.43923,707.1135
"1234",81.26345,707.12683
"1235",81.07301,707.14014
"1236",80.88991,707.15344
"1237",80.73365,707.16675
"1238",80.621346,707.18005
"1239",80.550545,707.19336
"1240",80.52125,707.20667
"1241",80.52125,707.22
"1242",80.53101,707.2333
"1243",80.533455,707.2466
"1244",80.51148,707.2599
"1245",80.45777,707.2732
"1246",80.36744,707.2865
"1247",80.25269,707.2998
"1248",80.11841,707.3131
"1249",79.98169,707.3264
"1250",79.84497,707.3397
"1251",79.72045,707.353
"1252",79.61059,707.36633
"1253",79.517815,707.37964
"1254",79.43969,707.39294
"1255",79.37621,707.40625
"1256",79.3225,707.41956
"1257",79.276115,707.43286
"1258",79.237045,707.44617
"1259",79.21019,707.4595
"1260",79.19066,707.4728
"1261",79.17601,707.4861
"1262",79.166245,707.4994
"1263",79.15648,707.5127
"1264",79.14671,707.526
"1265",79.13451,707.5393
"1266",79.1223,707.5526
"1267",79.11009,707.5659
"1268",79.09544,707.5792
"1269",79.07591,707.5925
"1270",79.0515,707.60583
"1271",79.02464,707.61914
"1272",79.00023,707.63245
"1273",78.97826,707.64575
"1274",78.95628,707.65906
"1275",78.93919,707.67236
"1276",78.92699,707.68567
"1277",78.91234,707.699
"1278",78.89769,707.7123
"1279",78.88304,707.7256
"1280",78.873276,707.7389
"1281",78.86351,707.7522
"1282",78.856186,707.7655
"1283",78.84886,707.7788
"1284",78.84886,707.7921
"1285",78.84886,707.8054
"1286",78.84642,707.8187
"1287",78.8513,707.83203
"1288",78.86107,707.84534
"1289",78.870834,707.85864
"1290",78.88304,707.87195
"1291",78.89525,707.88525
"1292",78.907455,707.89856
"1293",78.91722,707.91187
"1294",78.924545,707.9252
"1295",78.92943,707.9385
"1296",78.92699,707.9518
"1297",78.91722,707.9651
"1298",78.9099,707.9784
"1299",78.90257,707.9917
"1300",78.905014,708.005
"1301",78.93431,708.0183
"1302",79.01976,708.0316
"1303",79.19554,708.0449
"1304",79.50317,708.0582
"1305",79.954834,708.07153
"1306",80.533455,708.08484
"1307",81.17555,708.09814
"1308",81.80545,708.11145
"1309",82.34501,708.12476
"1310",82.735634,708.13806
"1311",82.96025,708.15137
"1312",83.03105,708.1647
"1313",82.97978,708.178
"1314",82.85039,708.1913
"1315",82.684364,708.2046
"1316",82.51835,708.2179
"1317",82.371864,708.2312
"1318",82.24979,708.2445
"1319",82.15457,708.2578
"1320",82.06668,708.2711
"1321",81.969025,708.2844
"1322",81.846954,708.2977
"1323",81.69558,708.31104
"1324",81.51003,708.32434
"1325",81.30251,708.33765
"1326",81.09743,708.35095
"1327",80.91432,708.36426
"1328",80.77272,708.37756
"1329",80.67994,708.39087
"1330",80.63111,708.4042
"1331",80.604256,708.4175
"1332",80.587166,708.4308
"1333",80.56031,708.4441
"1334",80.516365,708.4574
"1335",80.45045,708.4707
"1336",80.360115,708.484
"1337",80.24536,708.4973
"1338",80.11841,708.5106
"1339",79.991455,708.5239
"1340",79.869385,708.53723
"1341",79.75464,708.55054
"1342",79.65453,708.56384
"1343",79.56664,708.57715
"1344",79.48119,708.59045
"1345",79.41039,708.60376
"1346",79.35668,708.61707
"1347",79.31274,708.6304
"1348",79.281,708.6437
"1349",79.259026,708.657
"1350",79.237045,708.6703
"1351",79.21263,708.6836
"1352",79.185776,708.6969
"1353",79.15892,708.7102
"1354",79.12718,708.7235
"1355",79.10033,708.7368
"1356",79.07347,708.7501
"1357",79.0515,708.7634
"1358",79.027084,708.77673
"1359",79.00023,708.79004
"1360",78.97337,708.80334
"1361",78.94408,708.81665
"1362",78.91478,708.82996
"1363",78.88548,708.84326
"1364",78.853745,708.85657
"1365",78.82689,708.8699
"1366",78.80492,708.8832
"1367",78.78783,708.8965
"1368",78.77806,708.9098
"1369",78.77074,708.9231
"1370",78.77074,708.9364
"1371",78.77074,708.9497
"1372",78.768295,708.963
"1373",78.765854,708.9763
"1374",78.765854,708.9896
"1375",78.765854,709.0029
"1376",78.77074,709.01624
"1377",78.77806,709.02954
"1378",78.79271,709.04285
"1379",78.8098,709.05615
"1380",78.83177,709.06946
"1381",78.84886,709.08276
"1382",78.856186,709.09607
"1383",78.86595,709.1094
"1384",78.870834,709.1227
"1385",78.87572,709.136
"1386",78.8806,709.1493
"1387",78.89525,709.1626
"1388",78.91478,709.1759
"1389",78.93675,709.1892
"1390",78.958725,709.2025
"1391",78.9807,709.2158
"1392",78.99779,709.2291
"1393",79.01488,709.24243
"1394",79.05882,709.25574
"1395",79.15892,709.26904
"1396",79.361565,709.28235
"1397",79.69604,709.29565
"1398",80.16724,709.30896
"1399",80.740974,709.32227
"1400",81.356224,709.3356
"1401",81.93729,709.3489
"1402",82.41093,709.3622
"1403",82.735634,709.3755
"1404",82.9041,709.3888
"1405",82.930954,709.4021
"1406",82.85283,709.4154
"1407",82.70878,709.4287
"1408",82.545204,709.442
"1409",82.39384,709.4553
"1410",82.269325,709.4686
"1411",82.176544,709.48193
"1412",82.1033,709.49524
"1413",82.03006,709.50854
"1414",81.93729,709.52185
"1415",81.80545,709.53516
"1416",81.6321,709.54846
"1417",81.42947,709.56177
"1418",81.2195,709.5751
"1419",81.02907,709.5884
"1420",80.8777,709.6017
"1421",80.782486,709.615
"1422",80.73365,709.6283
"1423",80.71656,709.6416
"1424",80.709236,709.6549
"1425",80.69215,709.6682
"1426",80.65797,709.6815
"1427",80.59449,709.6948
"1428",80.51148,709.7081
"1429",80.4065,709.72144
"1430",80.28687,709.73474
"1431",80.15747,709.74805
"1432",80.028076,709.76135
"1433",79.903564,709.77466
"1434",79.78638,709.78796
"1435",79.68383,709.8013
"1436",79.5935,709.8146
"1437",79.51537,709.8279
"1438",79.447014,709.8412
"1439",79.39086,709.8545
"1440",79.34936,709.8678
"1441",79.32006,709.8811
"1442",79.30297,709.8944
"1443",79.293205,709.9077
"1444",79.28588,709.921
"1445",79.273674,709.9343
"1446",79.256584,709.94763
"1447",79.237045,709.96094
"1448",79.21507,709.97424
"1449",79.19554,709.98755
"1450",79.17845,710.00085
"1451",79.166245,710.01416
"1452",79.15648,710.02747
"1453",79.149155,710.0408
"1454",79.13695,710.0541
"1455",79.11986,710.0674
"1456",79.09544,710.0807
"1457",79.06615,710.094
"1458",79.03685,710.1073
"1459",79.009995,710.1206
"1460",78.99046,710.1339
"1461",78.97826,710.1472
"1462",78.97093,710.1605
"1463",78.96605,710.1738
"1464",78.958725,710.18713
"1465",78.9514,710.20044
"1466",78.94408,710.21375
"1467",78.93919,710.22705
"1468",78.93675,710.24036
"1469",78.93675,710.25366
"1470",78.93919,710.26697
"1471",78.9514,710.2803
"1472",78.96849,710.2936
"1473",78.992905,710.3069
"1474",79.027084,710.3202
"1475",79.063705,710.3335
"1476",79.09056,710.3468
"1477",79.10033,710.3601
"1478",79.10277,710.3734
"1479",79.09056,710.3867
"1480",79.07347,710.4
"1481",79.04906,710.4133
"1482",79.02464,710.42664
"1483",79.00267,710.43994
"1484",78.9807,710.45325
"1485",78.96605,710.46655
"1486",78.97093,710.47986
"1487",79.01488,710.49316
"1488",79.132065,710.5065
"1489",79.35668,710.5198
"1490",79.71313,710.5331
"1491",80.19165,710.5464
"1492",80.75563,710.5597
"1493",81.33181,710.573
"1494",81.85428,710.5863
"1495",82.25956,710.5996
"1496",82.513466,710.6129
"1497",82.616005,710.6262
"1498",82.59403,710.6395
"1499",82.48173,710.65283
"1500",82.31815,710.66614
"1501",82.13992,710.67944
"1502",81.97391,710.69275
"1503",81.832306,710.70605
"1504",81.71267,710.71936
"1505",81.60769,710.73267
"1506",81.50271,710.746
"1507",81.375755,710.7593
"1508",81.22682,710.7726
"1509",81.05592,710.7859
"1510",80.885025,710.7992
"1511",80.73121,710.8125
"1512",80.61646,710.8258
"1513",80.5481,710.8391
"1514",80.52369,710.8524
"1515",80.533455,710.8657
"1516",80.56031,710.879
"1517",80.584724,710.89233
"1518",80.584724,710.90564
"1519",80.54566,710.91895
"1520",80.47242,710.93225
"1521",80.365,710.94556
"1522",80.24292,710.95886
"1523",80.11841,710.97217
"1524",80.0061,710.9855
"1525",79.906006,710.9988
"1526",79.82056,711.0121
"1527",79.744865,711.0254
"1528",79.68139,711.0387
"1529",79.622795,711.052
"1530",79.5642,711.0653
"1531",79.517815,711.0786
"1532",79.47875,711.0919
"1533",79.4519,711.1052
"1534",79.432365,711.1185
"1535",79.42016,711.13184
"1536",79.41039,711.14514
"1537",79.40063,711.15845
"1538",79.39086,711.17175
"1539",79.37621,711.18506
"1540",79.35668,711.19836
"1541",79.33471,711.2117
"1542",79.30785,711.225
"1543",79.28588,711.2383
"1544",79.26879,711.2516
"1545",79.259026,711.2649
"1546",79.2517,711.2782
"1547",79.24681,711.2915
"1548",79.234604,711.3048
"1549",79.219955,711.3181
"1550",79.200424,711.3314
"1551",79.18089,711.3447
"1552",79.168686,711.35803
"1553",79.15892,711.37134
"1554",79.15648,711.38464
"1555",79.15648,711.39795
"1556",79.15404,711.41125
"1557",79.151596,711.42456
"1558",79.151596,711.43787
"1559",79.149155,711.4512
"1560",79.151596,711.4645
"1561",79.15648,711.4778
"1562",79.16136,711.4911
"1563",79.16136,711.5044
"1564",79.15892,711.5177
"1565",79.16136,711.531
"1566",79.166245,711.5443
"1567",79.17357,711.5576
"1568",79.183334,711.5709
"1569",79.19798,711.5842
"1570",79.21019,711.59753
"1571",79.219955,711.61084
"1572",79.22728,711.62415
"1573",79.22972,711.63745
"1574",79.22728,711.65076
"1575",79.2224,711.66406
"1576",79.217514,711.67737
"1577",79.21507,711.6907
"1578",79.2224,711.704
"1579",79.256584,711.7173
"1580",79.344475,711.7306
"1581",79.52758,711.7439
"1582",79.83032,711.7572
"1583",80.26246,711.7705
"1584",80.80202,711.7838
"1585",81.40017,711.7971
"1586",81.97879,711.8104
"1587",82.46708,711.8237
"1588",82.81377,711.83704
"1589",83.001755,711.85034
"1590",83.04082,711.86365
"1591",82.96269,711.87695
"1592",82.81621,711.89026
"1593",82.64286,711.90356
"1594",82.476845,711.9169
"1595",82.33524,711.9302
"1596",82.22537,711.9435
"1597",82.13748,711.9568
"1598",82.05203,711.9701
"1599",81.94461,711.9834
"1600",81.80789,711.9967
"1601",81.636986,712.01
"1602",81.44167,712.0233
"1603",81.24147,712.0366
"1604",81.05348,712.0499
"1605",80.89967,712.06323
"1606",80.78981,712.07654
"1607",80.72144,712.08984
"1608",80.68482,712.10315
"1609",80.66529,712.11646
"1610",80.64576,712.12976
"1611",80.61158,712.14307
"1612",80.55543,712.1564
"1613",80.4773,712.1697
"1614",80.37965,712.183
"1615",80.26734,712.1963
"1616",80.15015,712.2096
"1617",80.028076,712.2229
"1618",79.90845,712.2362
"1619",79.80347,712.2495
"1620",79.708244,712.2628
"1621",79.62768,712.2761
"1622",79.5642,712.2894
"1623",79.51293,712.30273
"1624",79.46899,712.31604
"1625",79.43481,712.32935
"1626",79.40551,712.34265
"1627",79.378654,712.35596
"1628",79.35424,712.36926
"1629",79.33715,712.38257
"1630",79.3225,712.3959
"1631",79.30297,712.4092
"1632",79.28344,712.4225
"1633",79.26147,712.4358
"1634",79.237045,712.4491
"1635",79.21019,712.4624
"1636",79.185776,712.4757
"1637",79.166245,712.489
"1638",79.149155,712.5023
"1639",79.132065,712.5156
"1640",79.114975,712.52893
"1641",79.093,712.54224
"1642",79.07103,712.55554
"1643",79.0515,712.56885
"1644",79.03197,712.58215
"1645",79.012436,712.59546
"1646",79.00023,712.60876
"1647",78.99046,712.6221
"1648",78.98314,712.6354
"1649",78.9807,712.6487
"1650",78.9807,712.662
"1651",78.97826,712.6753
"1652",78.97826,712.6886
"1653",78.97826,712.7019
"1654",78.97826,712.7152
"1655",78.9807,712.7285
"1656",78.98558,712.7418
"1657",78.98802,712.7551
"1658",78.995346,712.76843
"1659",79.00755,712.78174
"1660",79.0222,712.79504
"1661",79.03685,712.80835
"1662",79.05394,712.82166
"1663",79.07103,712.83496
"1664",79.080795,712.84827
"1665",79.09056,712.8616
"1666",79.10277,712.8749
"1667",79.114975,712.8882
"1668",79.12474,712.9015
"1669",79.12718,712.9148
"1670",79.12962,712.9281
"1671",79.12962,712.9414
"1672",79.12474,712.9547
"1673",79.1223,712.968
"1674",79.12718,712.9813
"1675",79.13939,712.9946
"1676",79.17845,713.00793
"1677",79.27856,713.02124
"1678",79.48119,713.03455
"1679",79.80835,713.04785
"1680",80.26978,713.06116
"1681",80.8362,713.07446
"1682",81.45144,713.08777
"1683",82.03494,713.1011
"1684",82.52079,713.1144
"1685",82.865036,713.1277
"1686",83.04814,713.141
"1687",83.087204,713.1543
"1688",83.01152,713.1676
"1689",82.86748,713.1809
"1690",82.69169,713.1942
"1691",82.52567,713.2075
"1692",82.38407,713.2208
"1693",82.28153,713.23413
"1694",82.2034,713.24744
"1695",82.127716,713.26074
"1696",82.02518,713.27405
"1697",81.88846,713.28735
"1698",81.71267,713.30066
"1699",81.50759,713.31396
"1700",81.29519,713.3273
"1701",81.09743,713.3406
"1702",80.938736,713.3539
"1703",80.82155,713.3672
"1704",80.7483,713.3805
"1705",80.709236,713.3938
"1706",80.69459,713.4071
"1707",80.67994,713.4204
"1708",80.65064,713.4337
"1709",80.59937,713.447
"1710",80.51881,713.4603
"1711",80.41627,713.47363
"1712",80.291756,713.48694
"1713",80.16235,713.50024
"1714",80.03052,713.51355
"1715",79.90112,713.52686
"1716",79.781494,713.54016
"1717",79.674065,713.55347
"1718",79.586174,713.5668
"1719",79.520256,713.5801
"1720",79.46899,713.5934
"1721",79.429924,713.6067
"1722",79.398186,713.62
"1723",79.37621,713.6333
"1724",79.35668,713.6466
"1725",79.34203,713.6599
"1726",79.33715,713.6732
"1727",79.33471,713.6865
"1728",79.32494,713.6998
"1729",79.30785,713.71313
"1730",79.28588,713.72644
"1731",79.256584,713.73975
"1732",79.22972,713.75305
"1733",79.200424,713.76636
"1734",79.18089,713.77966
"1735",79.15404,713.79297
"1736",79.12962,713.8063
"1737",79.10277,713.8196
"1738",79.08324,713.8329
"1739",79.063705,713.8462
"1740",79.04906,713.8595
"1741",79.03441,713.8728
"1742",79.01976,713.8861
"1743",78.99779,713.8994
"1744",78.9807,713.9127
"1745",78.97093,713.926
"1746",78.96605,713.93933
"1747",78.97093,713.95264
"1748",78.975815,713.96594
"1749",78.9807,713.97925
"1750",78.99046,713.99255
"1751",79.00267,714.00586
"1752",79.01488,714.01917
"1753",79.0222,714.0325
"1754",79.027084,714.0458
"1755",79.0222,714.0591
"1756",79.01732,714.0724
"1757",79.009995,714.0857
"1758",79.00755,714.099
"1759",79.00755,714.1123
"1760",79.00023,714.1256
"1761",78.992905,714.1389
"1762",78.98558,714.1522
"1763",78.99046,714.1655
"1764",79.01488,714.17883
"1765",79.08568,714.19214
"1766",79.22728,714.20544
"1767",79.47631,714.21875
"1768",79.84009,714.23206
"1769",80.31373,714.24536
"1770",80.85573,714.25867
"1771",81.40505,714.272
"1772",81.89578,714.2853
"1773",82.27421,714.2986
"1774",82.50614,714.3119
"1775",82.59159,714.3252
"1776",82.55741,714.3385
"1777",82.43534,714.3518
"1778",82.25956,714.3651
"1779",82.074005,714.3784
"1780",81.90799,714.3917
"1781",81.761505,714.405
"1782",81.62966,714.41833
"1783",81.495384,714.43164
"1784",81.3489,714.44495
"1785",81.180435,714.45825
"1786",80.99977,714.47156
"1787",80.82399,714.48486
"1788",80.67506,714.49817
"1789",80.57252,714.5115
"1790",80.516365,714.5248
"1791",80.5066,714.5381
"1792",80.53101,714.5514
"1793",80.57252,714.5647
"1794",80.61402,714.578
"1795",80.62867,714.5913
"1796",80.6067,714.6046
"1797",80.54322,714.6179
"1798",80.445564,714.6312
"1799",80.32105,714.64453
"1800",80.184326,714.65784
"1801",80.045166,714.67114
"1802",79.920654,714.68445
"1803",79.80835,714.69775
"1804",79.710686,714.71106
"1805",79.635,714.72437
"1806",79.57397,714.7377
"1807",79.52514,714.751
"1808",79.483635,714.7643
"1809",79.45434,714.7776
"1810",79.432365,714.7909
"1811",79.4226,714.8042
"1812",79.41772,714.8175
"1813",79.41772,714.8308
"1814",79.412834,714.8441
"1815",79.40551,714.8574
"1816",79.39086,714.8707
"1817",79.37621,714.88403
"1818",79.35912,714.89734
"1819",79.33471,714.91064
"1820",79.30785,714.92395
"1821",79.27856,714.93726
"1822",79.2517,714.95056
"1823",79.22972,714.96387
"1824",79.21263,714.9772
"1825",79.19798,714.9905
"1826",79.185776,715.0038
"1827",79.168686,715.0171
"1828",79.149155,715.0304
"1829",79.132065,715.0437
"1830",79.11742,715.057
"1831",79.11009,715.0703
"1832",79.11009,715.0836
"1833",79.1223,715.0969
"1834",79.13695,715.1102
"1835",79.151596,715.12354
"1836",79.15892,715.13684
"1837",79.15648,715.15015
"1838",79.14427,715.16345
"1839",79.132065,715.17676
"1840",79.1223,715.19006
"1841",79.10765,715.20337
"1842",79.093,715.2167
"1843",79.08568,715.23
"1844",79.09056,715.2433
"1845",79.12962,715.2566
"1846",79.22972,715.2699
"1847",79.42504,715.2832
"1848",79.73022,715.2965
"1849",80.15015,715.3098
"1850",80.655525,715.3231
"1851",81.197525,715.3364
"1852",81.71023,715.34973
"1853",82.13748,715.36304
"1854",82.43778,715.37634
"1855",82.59647,715.38965
"1856",82.63065,715.40295
"1857",82.564735,715.41626
"1858",82.442665,715.42957
"1859",82.29862,715.4429
"1860",82.15701,715.4562
"1861",82.03006,715.4695
"1862",81.9202,715.4828
"1863",81.815216,715.4961
"1864",81.70046,715.5094
"1865",81.55886,715.5227
"1866",81.3904,715.536
"1867",81.197525,715.5493
"1868",80.99733,715.5626
"1869",80.814224,715.5759
"1870",80.67506,715.58923
"1871",80.584724,715.60254
"1872",80.54322,715.61584
"1873",80.53834,715.62915
"1874",80.552986,715.64246
"1875",80.567635,715.65576
"1876",80.567635,715.66907
"1877",80.54078,715.6824
"1878",80.48463,715.6957
"1879",80.396736,715.709
"1880",80.28199,715.7223
"1881",80.15015,715.7356
"1882",80.01587,715.7489
"1883",79.87915,715.7622
"1884",79.75952,715.7755
"1885",79.65942,715.7888
"1886",79.57641,715.8021
"1887",79.51049,715.8154
"1888",79.45678,715.82874
"1889",79.41772,715.84204
"1890",79.38598,715.85535
"1891",79.361565,715.86865
"1892",79.34203,715.88196
"1893",79.327385,715.89526
"1894",79.30785,715.90857
"1895",79.28588,715.9219
"1896",79.26147,715.9352
"1897",79.237045,715.9485
"1898",79.21019,715.9618
"1899",79.183334,715.9751
"1900",79.15404,715.9884
"1901",79.12718,716.0017
"1902",79.10033,716.015
"1903",79.078354,716.0283
"1904",79.0515,716.0416
"1905",79.027084,716.05493
"1906",78.99779,716.06824
"1907",78.97093,716.08154
"1908",78.94652,716.09485
"1909",78.92943,716.10815
"1910",78.91722,716.12146
"1911",78.91234,716.13477
"1912",78.91234,716.1481
"1913",78.91478,716.1614
"1914",78.91722,716.1747
"1915",78.91722,716.188
"1916",78.91478,716.2013
"1917",78.905014,716.2146
"1918",78.89281,716.2279
"1919",78.88304,716.2412
"1920",78.873276,716.2545
"1921",78.86839,716.2678
"1922",78.873276,716.2811
"1923",78.89281,716.29443
"1924",78.94896,716.30774
"1925",79.07103,716.32104
"1926",79.28832,716.33435
"1927",79.622795,716.34766
"1928",80.076904,716.36096
"1929",80.61402,716.37427
"1930",81.17555,716.3876
"1931",81.69558,716.4009
"1932",82.11795,716.4142
"1933",82.406044,716.4275
"1934",82.55497,716.4408
"1935",82.58671,716.4541
"1936",82.528114,716.4674
"1937",82.423134,716.4807
"1938",82.30106,716.494
"1939",82.19119,716.5073
"1940",82.10574,716.5206
"1941",82.039825,716.53394
"1942",81.97635,716.54724
"1943",81.900665,716.56055
"1944",81.78836,716.57385
"1945",81.62478,716.58716
"1946",81.4197,716.60046
"1947",81.197525,716.6138
"1948",80.98512,716.6271
"1949",80.80446,716.6404
"1950",80.67994,716.6537
"1951",80.61158,716.667
"1952",80.584724,716.6803
"1953",80.58228,716.6936
"1954",80.58228,716.7069
"1955",80.57252,716.7202
"1956",80.5359,716.7335
"1957",80.47486,716.7468
"1958",80.38453,716.76013
"1959",80.272224,716.77344
"1960",80.14526,716.78674
"1961",80.01587,716.80005
"1962",79.8938,716.81335
"1963",79.783936,716.82666
"1964",79.68627,716.83997
"1965",79.60082,716.8533
"1966",79.52514,716.8666
"1967",79.45678,716.8799
"1968",79.3933,716.8932
"1969",79.34203,716.9065
"1970",79.30053,716.9198
"1971",79.26879,716.9331
"1972",79.24681,716.9464
"1973",79.22728,716.9597
"1974",79.21263,716.973
"1975",79.1931,716.9863
"1976",79.17113,716.99963
"1977",79.13939,717.01294
"1978",79.10521,717.02625
"1979",79.06859,717.03955
"1980",79.03197,717.05286
"1981",78.99779,717.06616
"1982",78.96849,717.07947
"1983",78.94408,717.0928
"1984",78.924545,717.1061
"1985",78.905014,717.1194
"1986",78.8806,717.1327
"1987",78.856186,717.146
"1988",78.82689,717.1593
"1989",78.802475,717.1726
"1990",78.78294,717.1859
"1991",78.768295,717.1992
"1992",78.76097,717.2125
"1993",78.75853,717.2258
"1994",78.75853,717.23914
"1995",78.76097,717.25244
"1996",78.768295,717.26575
"1997",78.77318,717.27905
"1998",78.77806,717.29236
"1999",78.77806,717.30566
"2000",78.77318,717.319
"2001",78.765854,717.3323
"2002",78.76097,717.3456
"2003",78.75609,717.3589
"2004",78.75609,717.3722
"2005",78.76097,717.3855
"2006",78.79027,717.3988
"2007",78.86839,717.4121
"2008",79.029526,717.4254
"2009",79.310295,717.4387
"2010",79.725334,717.452
"2011",80.26246,717.46533
"2012",80.8777,717.47864
"2013",81.497826,717.49194
"2014",82.04959,717.50525
"2015",82.4744,717.51855
"2016",82.7454,717.53186
"2017",82.86992,717.54517
"2018",82.86992,717.5585
"2019",82.794235,717.5718
"2020",82.67704,717.5851
"2021",82.55497,717.5984
"2022",82.44511,717.6117
"2023",82.36454,717.625
"2024",82.30106,717.6383
"2025",82.24246,717.6516
"2026",82.161896,717.6649
"2027",82.039825,717.6782
"2028",81.85916,717.6915
"2029",81.634544,717.70483
"2030",81.38308,717.71814
"2031",81.13161,717.73145
"2032",80.919205,717.74475
"2033",80.75563,717.75806
"2034",80.6482,717.77136
"2035",80.584724,717.78467
"2036",80.550545,717.798
"2037",80.52613,717.8113
"2038",80.499275,717.8246
"2039",80.448006,717.8379
"2040",80.37476,717.8512
"2041",80.28199,717.8645
"2042",80.16724,717.8778
"2043",80.042725,717.8911
"2044",79.91577,717.9044
"2045",79.79614,717.9177
"2046",79.67895,717.931
"2047",79.569084,717.94434
"2048",79.46899,717.95764
"2049",79.37621,717.97095
"2050",79.29565,717.98425
"2051",79.22728,717.99756
"2052",79.17113,718.01086
"2053",79.12718,718.0242
"2054",79.09544,718.0375
"2055",79.07347,718.0508
"2056",79.05638,718.0641
"2057",79.044174,718.0774
"2058",79.027084,718.0907
"2059",79.00267,718.104
"2060",78.97093,718.1173
"2061",78.93187,718.1306
"2062",78.890366,718.1439
"2063",78.84398,718.1572
"2064",78.79515,718.17053
"2065",78.74876,718.18384
"2066",78.70725,718.19714
"2067",78.67063,718.21045
"2068",78.63645,718.22375
"2069",78.60471,718.23706
"2070",78.57542,718.25037
"2071",78.54612,718.2637
"2072",78.521706,718.277
"2073",78.502174,718.2903
"2074",78.48997,718.3036
"2075",78.48264,718.3169
"2076",78.4802,718.3302
"2077",78.47532,718.3435
"2078",78.47532,718.3568
"2079",78.470436,718.3701
"2080",78.47288,718.3834
"2081",78.4802,718.3967
"2082",78.49973,718.41003
"2083",78.52415,718.42334
"2084",78.555885,718.43665
"2085",78.58274,718.44995
"2086",78.607155,718.46326
"2087",78.61692,718.47656
"2088",78.61448,718.48987
"2089",78.60471,718.5032
"2090",78.59983,718.5165
"2091",78.607155,718.5298
"2092",78.63889,718.5431
"2093",78.72678,718.5564
"2094",78.89281,718.5697
"2095",79.166245,718.583
"2096",79.569084,718.5963
"2097",80.093994,718.6096
"2098",80.70191,718.6229
"2099",81.33181,718.6362
"2100",81.91043,718.64954
"2101",82.37675,718.66284
"2102",82.69169,718.67615
"2103",82.862595,718.68945
"2104",82.90898,718.70276
"2105",82.8748,718.71606
"2106",82.794235,718.7294
"2107",82.703896,718.7427
"2108",82.62577,718.756
"2109",82.55985,718.7693
"2110",82.511024,718.7826
"2111",82.47196,718.7959
"2112",82.41825,718.8092
"2113",82.33036,718.8225
"2114",82.19852,718.8358
"2115",82.020294,718.8491
"2116",81.80057,718.8624
"2117",81.56374,718.87573
"2118",81.33669,718.88904
"2119",81.13893,718.90234
"2120",80.98512,718.91565
"2121",80.88014,718.92896
"2122",80.814224,718.94226
"2123",80.7776,718.95557
"2124",80.7483,718.9689
"2125",80.70435,718.9822
"2126",80.64332,718.9955
"2127",80.55787,719.0088
"2128",80.448006,719.0221
"2129",80.31617,719.0354
"2130",80.17212,719.0487
"2131",80.025635,719.062
"2132",79.88403,719.0753
"2133",79.7522,719.0886
"2134",79.63744,719.1019
"2135",79.54223,719.11523
"2136",79.46166,719.12854
"2137",79.3933,719.14185
"2138",79.32983,719.15515
"2139",79.281,719.16846
"2140",79.237045,719.18176
"2141",79.19554,719.19507
"2142",79.15404,719.2084
"2143",79.11742,719.2217
"2144",79.080795,719.235
"2145",79.046616,719.2483
"2146",79.01732,719.2616
"2147",78.995346,719.2749
"2148",78.975815,719.2882
"2149",78.95384,719.3015
"2150",78.92943,719.3148
"2151",78.90257,719.3281
"2152",78.870834,719.34143
"2153",78.83421,719.35474
"2154",78.80003,719.36804
"2155",78.77318,719.38135
"2156",78.746315,719.39465
"2157",78.72434,719.40796
"2158",78.712135,719.42126
"2159",78.70481,719.4346
"2160",78.70481,719.4479
"2161",78.70481,719.4612
"2162",78.709694,719.4745
"2163",78.70725,719.4878
"2164",78.70237,719.5011
"2165",78.692604,719.5144
"2166",78.677956,719.5277
"2167",78.66819,719.541
"2168",78.66575,719.5543
"2169",78.67063,719.5676
"2170",78.68284,719.58093
"2171",78.69993,719.59424
"2172",78.71946,719.60754
"2173",78.73411,719.62085
"2174",78.74143,719.63416
"2175",78.74143,719.64746
"2176",78.73655,719.66077
"2177",78.72678,719.6741
"2178",78.71946,719.6874
"2179",78.7219,719.7007
"2180",78.73655,719.714
"2181",78.78294,719.7273
"2182",78.89769,719.7406
"2183",79.10765,719.7539
"2184",79.43969,719.7672
"2185",79.903564,719.7805
"2186",80.47486,719.7938
"2187",81.0901,719.8071
"2188",81.685814,719.82043
"2189",82.18875,719.83374
"2190",82.55741,719.84705
"2191",82.77226,719.86035
"2192",82.845505,719.87366
"2193",82.80644,719.88696
"2194",82.69901,719.90027
"2195",82.56718,719.9136
"2196",82.44022,719.9269
"2197",82.340126,719.9402
"2198",82.269325,719.9535
"2199",82.22049,719.9668
"2200",82.17166,719.9801
"2201",82.10574,719.9934
"2202",81.99344,720.0067
"2203",81.82742,720.02
"2204",81.61501,720.0333
"2205",81.373314,720.04663
"2206",81.129166,720.05994
"2207",80.91676,720.07324
"2208",80.75075,720.08655
"2209",80.64332,720.09985
"2210",80.57984,720.11316
"2211",80.552986,720.12646
"2212",80.5359,720.1398
"2213",80.51392,720.1531
"2214",80.47242,720.1664
"2215",80.4065,720.1797
"2216",80.31129,720.193
"2217",80.19653,720.2063
"2218",80.07202,720.2196
"2219",79.94263,720.2329
"2220",79.815674,720.2462
"2221",79.70336,720.2595
"2222",79.603264,720.2728
"2223",79.51293,720.28613
"2224",79.43481,720.29944
"2225",79.36645,720.31274
"2226",79.30785,720.32605
"2227",79.256584,720.33936
"2228",79.21507,720.35266
"2229",79.17601,720.36597
"2230",79.14183,720.3793
"2231",79.11742,720.3926
"2232",79.097885,720.4059
"2233",79.07347,720.4192
"2234",79.04906,720.4325
"2235",79.0222,720.4458
"2236",78.995346,720.4591
"2237",78.96117,720.4724
"2238",78.93187,720.4857
"2239",78.905014,720.499
"2240",78.88304,720.5123
"2241",78.86595,720.52563
"2242",78.8513,720.53894
"2243",78.84398,720.55225
"2244",78.839096,720.56555
"2245",78.83421,720.57886
"2246",78.82445,720.59216
"2247",78.81224,720.60547
"2248",78.79271,720.6188
"2249",78.768295,720.6321
"2250",78.746315,720.6454
"2251",78.729225,720.6587
"2252",78.71946,720.672
"2253",78.71702,720.6853
"2254",78.71702,720.6986
"2255",78.7219,720.7119
"2256",78.7219,720.7252
"2257",78.71458,720.7385
"2258",78.709694,720.75183
"2259",78.69993,720.76514
"2260",78.69016,720.77844
"2261",78.6804,720.79175
"2262",78.67307,720.80505
"2263",78.66819,720.81836
"2264",78.66819,720.83167
"2265",78.677956,720.845
"2266",78.70237,720.8583
"2267",78.75853,720.8716
"2268",78.87816,720.8849
"2269",79.093,720.8982
"2270",79.42748,720.9115
"2271",79.87671,720.9248
"2272",80.411385,720.9381
"2273",80.970474,720.9514
"2274",81.478294,720.9647
"2275",81.87869,720.978
"2276",82.13992,720.99133
"2277",82.26444,721.00464
"2278",82.266884,721.01794
"2279",82.18387,721.03125
"2280",82.056915,721.04456
"2281",81.917755,721.05786
"2282",81.78592,721.07117
"2283",81.67605,721.0845
"2284",81.5906,721.0978
"2285",81.50515,721.1111
"2286",81.41238,721.1244
"2287",81.287865,721.1377
"2288",81.13161,721.151
"2289",80.94606,721.1643
"2290",80.75807,721.1776
"2291",80.587166,721.1909
"2292",80.46021,721.2042
"2293",80.38453,721.2175
"2294",80.35523,721.23083
"2295",80.360115,721.24414
"2296",80.38453,721.25745
"2297",80.40406,721.27075
"2298",80.40162,721.28406
"2299",80.36744,721.29736
"2300",80.2942,721.31067
"2301",80.19165,721.324
"2302",80.07202,721.3373
"2303",79.94263,721.3506
"2304",79.818115,721.3639
"2305",79.710686,721.3772
"2306",79.61303,721.3905
"2307",79.53246,721.4038
"2308",79.4641,721.4171
"2309",79.40795,721.4304
"2310",79.361565,721.4437
"2311",79.32006,721.45703
"2312",79.28344,721.47034
"2313",79.25414,721.48364
"2314",79.22728,721.49695
"2315",79.20775,721.51025
"2316",79.17357,721.5502
"2317",79.15892,721.5635
"2318",79.13939,721.5768
"2319",79.11986,721.5901
"2320",79.10033,721.6034
"2321",79.078354,721.6167
"2322",79.05882,721.63
"2323",79.03685,721.6433
"2324",79.01488,721.6566
"2325",78.992905,721.6699
"2326",78.97093,721.6832
"2327",78.9514,721.69653
"2328",78.93187,721.70984
"2329",78.91478,721.72314
"2330",78.90257,721.73645
"2331",78.89281,721.74976
"2332",78.887924,721.76306
"2333",78.890366,721.77637
"2334",78.90013,721.7897
"2335",78.907455,721.803
"2336",78.91478,721.8163
"2337",78.91966,721.8296
"2338",78.91966,721.8429
"2339",78.91966,721.8562
"2340",78.91966,721.8695
"2341",78.92943,721.8828
"2342",78.96361,721.8961
"2343",79.046616,721.9094
"2344",79.20775,721.9227
"2345",79.47143,721.93604
"2346",79.84497,721.94934
"2347",80.30396,721.96265
"2348",80.797134,721.97595
"2349",81.26589,721.98926
"2350",81.651634,722.00256
"2351",81.9202,722.01587
"2352",82.05936,722.0292
"2353",82.08621,722.0425
"2354",82.02518,722.0558
"2355",81.91531,722.0691
"2356",81.778595,722.0824
"2357",81.64187,722.0957
"2358",81.51736,722.109
"2359",81.40505,722.1223
"2360",81.29763,722.1356
"2361",81.180435,722.1489
"2362",81.04616,722.16223
"2363",80.88747,722.17554
"2364",80.723885,722.18884
"2365",80.56519,722.20215
"2366",80.430916,722.21545
"2367",80.34058,722.22876
"2368",80.291756,722.24207
"2369",80.28199,722.2554
"2370",80.2942,722.2687
"2371",80.31861,722.282
"2372",80.34058,722.2953
"2373",80.34791,722.3086
"2374",80.33082,722.3219
"2375",80.291756,722.3352
"2376",80.22827,722.3485
"2377",80.14282,722.3618
"2378",80.042725,722.3751
"2379",79.93286,722.3884
"2380",79.823,722.40173
"2381",79.71557,722.41504
"2382",79.61791,722.42834
"2383",79.534904,722.44165
"2384",79.466545,722.45496
"2385",79.412834,722.46826
"2386",79.37133,722.48157
"2387",79.344475,722.4949
"2388",79.327385,722.5082
"2389",79.30785,722.5215
"2390",79.290764,722.5348
"2391",79.27123,722.5481
"2392",79.2517,722.5614
"2393",79.23949,722.5747
"2394",79.237045,722.588
"2395",79.24193,722.6013
"2396",79.259026,722.6146
"2397",79.27856,722.6279
"2398",79.290764,722.64124
"2399",79.293205,722.65454
"2400",79.28344,722.66785
"2401",79.26147,722.68115
"2402",79.234604,722.69446
"2403",79.20531,722.70776
"2404",79.183334,722.72107
"2405",79.1638,722.7344
"2406",79.15404,722.7477
"2407",79.151596,722.761
"2408",79.149155,722.7743
"2409",79.151596,722.7876
"2410",79.15404,722.8009
"2411",79.15404,722.8142
"2412",79.14671,722.8275
"2413",79.132065,722.8408
"2414",79.114975,722.8541
"2415",79.10277,722.86743
"2416",79.097885,722.88074
"2417",79.093,722.89404
"2418",79.09544,722.90735
"2419",79.10765,722.92065
"2420",79.14671,722.93396
"2421",79.234604,722.94727
"2422",79.41039,722.9606
"2423",79.69604,722.9739
"2424",80.093994,722.9872
"2425",80.57984,723.0005
"2426",81.09743,723.0138
"2427",81.583275,723.0271
"2428",81.98123,723.0404
"2429",82.252235,723.0537
"2430",82.38407,723.067
"2431",82.39628,723.0803
"2432",82.32792,723.0936
"2433",82.20584,723.10693
"2434",82.06668,723.12024
"2435",81.9324,723.13354
"2436",81.82254,723.14685
"2437",81.739525,723.16016
"2438",81.67361,723.17346
"2439",81.60525,723.18677
"2440",81.51736,723.2001
"2441",81.3904,723.2134
"2442",81.22682,723.2267
"2443",81.03395,723.24
"2444",80.83864,723.2533
"2445",80.66285,723.2666
"2446",80.52125,723.2799
"2447",80.42603,723.2932
"2448",80.36988,723.3065
"2449",80.34791,723.3198
"2450",80.3357,723.3331
"2451",80.325935,723.34644
"2452",80.30152,723.35974
"2453",80.25269,723.37305
"2454",80.177,723.38635
"2455",80.08179,723.39966
"2456",79.97681,723.41296
"2457",79.869385,723.4263
"2458",79.75952,723.4396
"2459",79.65942,723.4529
"2460",79.569084,723.4662
"2461",79.48852,723.4795
"2462",79.42016,723.4928
"2463",79.361565,723.5061
"2464",79.31518,723.5194
"2465",79.27856,723.5327
"2466",79.24681,723.546
"2467",79.22484,723.5593
"2468",79.21019,723.57263
"2469",79.200424,723.58594
"2470",79.19554,723.59924
"2471",79.19066,723.61255
"2472",79.183334,723.62585
"2473",79.17357,723.63916
"2474",79.1638,723.65247
"2475",79.15404,723.6658
"2476",79.14427,723.6791
"2477",79.13939,723.6924
"2478",79.132065,723.7057
"2479",79.12718,723.719
"2480",79.1223,723.7323
"2481",79.11742,723.7456
"2482",79.11009,723.7589
"2483",79.10521,723.7722
"2484",79.093,723.7855
"2485",79.08568,723.7988
"2486",79.07591,723.81213
"2487",79.07591,723.82544
"2488",79.08568,723.83875
"2489",79.10521,723.85205
"2490",79.12718,723.86536
"2491",79.151596,723.87866
"2492",79.17113,723.89197
"2493",79.183334,723.9053
"2494",79.183334,723.9186
"2495",79.17845,723.9319
"2496",79.166245,723.9452
"2497",79.15648,723.9585
"2498",79.149155,723.9718
"2499",79.14427,723.9851
"2500",79.14183,723.9984
"2501",79.14427,724.0117
"2502",79.149155,724.025
"2503",79.168686,724.0383
"2504",79.22728,724.05164
"2505",79.3518,724.06494
"2506",79.57641,724.07825
"2507",79.920654,724.09155
"2508",80.37232,724.10486
"2509",80.89235,724.11816
"2510",81.42458,724.1315
"2511",81.90311,724.1448
"2512",82.27421,724.1581
"2513",82.513466,724.1714
"2514",82.62333,724.1847
"2515",82.616005,724.198
"2516",82.52567,724.2113
"2517",82.39384,724.2246
"2518",82.25468,724.2379
"2519",82.127716,724.2512
"2520",82.02762,724.2645
"2521",81.95682,724.27783
"2522",81.900665,724.29114
"2523",81.83475,724.30444
"2524",81.73708,724.31775
"2525",81.59548,724.33105
"2526",81.41726,724.34436
"2527",81.21217,724.35767
"2528",81.004654,724.371
"2529",80.82155,724.3843
"2530",80.67994,724.3976
"2531",80.57984,724.4109
"2532",80.52125,724.4242
"2533",80.48951,724.4375
"2534",80.47242,724.4508
"2535",80.45045,724.4641
"2536",80.413826,724.4774
"2537",80.360115,724.4907
"2538",80.28687,724.504
"2539",80.198975,724.51733
"2540",80.1062,724.53064
"2541",80.01099,724.54395
"2542",79.91577,724.55725
"2543",79.818115,724.57056
"2544",79.725334,724.58386
"2545",79.635,724.59717
"2546",79.54955,724.6105
"2547",79.47631,724.6238
"2548",79.415276,724.6371
"2549",79.37133,724.6504
"2550",79.34203,724.6637
"2551",79.32494,724.677
"2552",79.31762,724.6903
"2553",79.31274,724.7036
"2554",79.30297,724.7169
"2555",79.290764,724.7302
"2556",79.276115,724.7435
"2557",79.26635,724.75684
"2558",79.25414,724.77014
"2559",79.24193,724.78345
"2560",79.22484,724.79675
"2561",79.20775,724.81006
"2562",79.185776,724.82336
"2563",79.166245,724.8367
"2564",79.149155,724.85
"2565",79.13695,724.8633
"2566",79.12474,724.8766
"2567",79.11253,724.8899
"2568",79.097885,724.9032
"2569",79.08324,724.9165
"2570",79.06615,724.9298
"2571",79.061264,724.9431
"2572",79.063705,724.9564
"2573",79.07103,724.9697
"2574",79.08568,724.98303
"2575",79.10765,724.99634
"2576",79.12474,725.00964
"2577",79.13939,725.02295
"2578",79.14671,725.03625
"2579",79.149155,725.04956
"2580",79.14427,725.06287
"2581",79.13451,725.0762
"2582",79.11986,725.0895
"2583",79.10521,725.1028
"2584",79.09056,725.1161
"2585",79.078354,725.1294
"2586",79.07103,725.1427
"2587",79.093,725.156
"2588",79.168686,725.1693
"2589",79.33471,725.1826
"2590",79.61791,725.1959
"2591",80.02319,725.2092
"2592",80.52613,725.22253
"2593",81.077896,725.23584
"2594",81.602806,725.24915
"2595",82.04227,725.26245
"2596",82.35233,725.27576
"2597",82.528114,725.28906
"2598",82.57694,725.30237
"2599",82.528114,725.3157
"2600",82.42069,725.329
"2601",82.286415,725.3423
"2602",82.15213,725.3556
"2603",82.04227,725.3689
"2604",81.95682,725.3822
"2605",81.88602,725.3955
"2606",81.80789,725.4088
"2607",81.71267,725.4221
"2608",81.58572,725.4354
"2609",81.42458,725.4487
"2610",81.234146,725.46204
"2611",81.03151,725.47534
"2612",80.83864,725.48865
"2613",80.67017,725.50195
"2614",80.54566,725.51526
"2615",80.46754,725.52856
"2616",80.430916,725.5419
"2617",80.41871,725.5552
"2618",80.411385,725.5685
"2619",80.38941,725.5818
"2620",80.35035,725.5951
"2621",80.28687,725.6084
"2622",80.19653,725.6217
"2623",80.093994,725.635
"2624",79.98657,725.6483
"2625",79.87915,725.6616
"2626",79.77905,725.6749
"2627",79.691154,725.68823
"2628",79.61303,725.70154
"2629",79.54467,725.71484
"2630",79.48119,725.72815
"2631",79.42016,725.74146
"2632",79.36889,725.75476
"2633",79.327385,725.76807
"2634",79.293205,725.7814
"2635",79.26635,725.7947
"2636",79.24925,725.808
"2637",79.24193,725.8213
"2638",79.234604,725.8346
"2639",79.22728,725.8479
"2640",79.217514,725.8612
"2641",79.202866,725.8745
"2642",79.18089,725.8878
"2643",79.15648,725.9011
"2644",79.132065,725.9144
"2645",79.11009,725.92773
"2646",79.09056,725.94104
"2647",79.080795,725.95435
"2648",79.07103,725.96765
"2649",79.06615,725.98096
"2650",79.05638,725.99426
"2651",79.044174,726.00757
"2652",79.03197,726.0209
"2653",79.01732,726.0342
"2654",79.00755,726.0475
"2655",79.00023,726.0608
"2656",78.99779,726.0741
"2657",78.99779,726.0874
"2658",79.00267,726.1007
"2659",79.009995,726.114
"2660",79.027084,726.1273
"2661",79.04906,726.1406
"2662",79.06615,726.15393
"2663",79.078354,726.16724
"2664",79.08324,726.18054
"2665",79.078354,726.19385
"2666",79.07591,726.20715
"2667",79.080795,726.22046
"2668",79.09056,726.23376
"2669",79.10765,726.2471
"2670",79.14671,726.2604
"2671",79.22484,726.2737
"2672",79.37133,726.287
"2673",79.62035,726.3003
"2674",79.97925,726.3136
"2675",80.448006,726.3269
"2676",80.97536,726.3402
"2677",81.50515,726.3535
"2678",81.9617,726.3668
"2679",82.30595,726.3801
"2680",82.50614,726.39343
"2681",82.562294,726.40674
"2682",82.50614,726.42004
"2683",82.37919,726.43335
"2684",82.21561,726.44666
"2685",82.054474,726.45996
"2686",81.91531,726.47327
"2687",81.80057,726.4866
"2688",81.705345,726.4999
"2689",81.60769,726.5132
"2690",81.49294,726.5265
"2691",81.34402,726.5398
"2692",81.15846,726.5531
"2693",80.953384,726.5664
"2694",80.75319,726.5797
"2695",80.584724,726.593
"2696",80.462654,726.6063
"2697",80.396736,726.6196
"2698",80.37965,726.63293
"2699",80.396736,726.64624
"2700",80.42115,726.65955
"2701",80.43824,726.67285
"2702",80.428474,726.68616
"2703",80.39185,726.69946
"2704",80.32105,726.71277
"2705",80.22827,726.7261
"2706",80.11841,726.7394
"2707",80.00122,726.7527
"2708",79.886475,726.766
"2709",79.783936,726.7793
"2710",79.691154,726.7926
"2711",79.61547,726.8059
"2712",79.551994,726.8192
"2713",79.49584,726.8325
"2714",79.43969,726.8458
"2715",79.39086,726.85913
"2716",79.34692,726.87244
"2717",79.31762,726.88574
"2718",79.30053,726.89905
"2719",79.30297,726.91235
"2720",79.31518,726.92566
"2721",79.327385,726.93896
"2722",79.32983,726.9523
"2723",79.31762,726.9656
"2724",79.29565,726.9789
"2725",79.26635,726.9922
"2726",79.234604,727.0055
"2727",79.21263,727.0188
"2728",79.19554,727.0321
"2729",79.18089,727.0454
"2730",79.15892,727.0587
"2731",79.132065,727.072
"2732",79.10033,727.0853
"2733",79.06615,727.09863
"2734",79.03685,727.11194
"2735",79.01488,727.12524
"2736",78.99779,727.13855
"2737",78.98802,727.15186
"2738",78.98314,727.16516
"2739",78.98558,727.17847
"2740",78.99046,727.1918
"2741",78.99779,727.2051
"2742",79.00511,727.2184
"2743",79.009995,727.2317
"2744",79.009995,727.245
"2745",79.012436,727.2583
"2746",79.009995,727.2716
"2747",79.009995,727.2849
"2748",79.012436,727.2982
"2749",79.01488,727.3115
"2750",79.029526,727.3248
"2751",79.061264,727.33813
"2752",79.12962,727.35144
"2753",79.26635,727.36475
"2754",79.4934,727.37805
"2755",79.83276,727.39136
"2756",80.27955,727.40466
"2757",80.79469,727.41797
"2758",81.32693,727.4313
"2759",81.815216,727.4446
"2760",82.20584,727.4579
"2761",82.46708,727.4712
"2762",82.60136,727.4845
"2763",82.61845,727.4978
"2764",82.545204,727.5111
"2765",82.41581,727.5244
"2766",82.27177,727.5377
"2767",82.13016,727.551
"2768",82.01297,727.56433
"2769",81.91531,727.57764
"2770",81.832306,727.59094
"2771",81.739525,727.60425
"2772",81.62234,727.61755
"2773",81.46853,727.63086
"2774",81.287865,727.64417
"2775",81.0901,727.6575
"2776",80.89967,727.6708
"2777",80.73853,727.6841
"2778",80.61402,727.6974
"2779",80.53834,727.7107
"2780",80.5066,727.724
"2781",80.50416,727.7373
"2782",80.51148,727.7506
"2783",80.51881,727.7639
"2784",80.50416,727.7772
"2785",80.46021,727.7905
"2786",80.38941,727.80383
"2787",80.2942,727.81714
"2788",80.181885,727.83044
"2789",80.062256,727.84375
"2790",79.940186,727.85706
"2791",79.82056,727.87036
"2792",79.710686,727.88367
"2793",79.61547,727.897
"2794",79.534904,727.9103
"2795",79.46899,727.9236
"2796",79.415276,727.9369
"2797",79.37133,727.9502
"2798",79.33471,727.9635
"2799",79.30297,727.9768
"2800",79.281,727.9901
"2801",79.26635,728.0034
"2802",79.2517,728.0167
"2803",79.237045,728.03
"2804",79.217514,728.04333
"2805",79.19798,728.05664
"2806",79.17845,728.06995
"2807",79.15648,728.08325
"2808",79.13939,728.09656
"2809",79.11986,728.10986
"2810",79.097885,728.12317
"2811",79.078354,728.1365
"2812",79.063705,728.1498
"2813",79.0515,728.1631
"2814",79.044174,728.1764
"2815",79.03685,728.1897
"2816",79.029526,728.203
"2817",79.01976,728.2163
"2818",79.00755,728.2296
"2819",79.00267,728.2429
"2820",79.00267,728.2562
"2821",79.00023,728.26953
"2822",79.00267,728.28284
"2823",79.00511,728.29614
"2824",79.00511,728.30945
"2825",79.00023,728.32275
"2826",78.99779,728.33606
"2827",78.995346,728.34937
"2828",78.99046,728.3627
"2829",78.98802,728.376
"2830",79.00023,728.3893
"2831",79.044174,728.4026
"2832",79.14427,728.4159
"2833",79.33959,728.4292
"2834",79.64721,728.4425
"2835",80.06958,728.4558
"2836",80.57252,728.4691
"2837",81.109634,728.4824
"2838",81.61013,728.4957
"2839",82.022736,728.50903
"2840",82.30595,728.52234
"2841",82.45487,728.53564
"2842",82.48905,728.54895
"2843",82.4329,728.56226
"2844",82.32548,728.57556
"2845",82.196075,728.58887
"2846",82.06912,728.6022
"2847",81.95926,728.6155
"2848",81.864044,728.6288
"2849",81.78104,728.6421
"2850",81.685814,728.6554
"2851",81.56374,728.6687
"2852",81.40749,728.682
"2853",81.21706,728.6953
"2854",81.007095,728.7086
"2855",80.797134,728.7219
"2856",80.61402,728.7352
"2857",80.46998,728.74854
"2858",80.37476,728.76184
"2859",80.32105,728.77515
"2860",80.30396,728.78845
"2861",80.306404,728.80176
"2862",80.308846,728.81506
"2863",80.2942,728.82837
"2864",80.25269,728.8417
"2865",80.17944,728.855
"2866",80.08179,728.8683
"2867",79.96704,728.8816
"2868",79.84497,728.8949
"2869",79.725334,728.9082
"2870",79.61547,728.9215
"2871",79.517815,728.9348
"2872",79.432365,728.9481
"2873",79.364006,728.9614
"2874",79.31274,728.97473
"2875",79.276115,728.98804
"2876",79.24925,729.00134
"2877",79.237045,729.01465
"2878",79.22972,729.02795
"2879",79.219955,729.04126
"2880",79.21507,729.05457
"2881",79.20775,729.0679
"2882",79.19798,729.0812
"2883",79.18089,729.0945
"2884",79.1638,729.1078
"2885",79.14671,729.1211
"2886",79.12962,729.1344
"2887",79.11253,729.1477
"2888",79.097885,729.161
"2889",79.08568,729.1743
"2890",79.07103,729.1876
"2891",79.05394,729.2009
"2892",79.03441,729.21423
"2893",79.012436,729.22754
"2894",78.992905,729.24084
"2895",78.97337,729.25415
"2896",78.95384,729.26746
"2897",78.93431,729.28076
"2898",78.91722,729.29407
"2899",78.90257,729.3074
"2900",78.890366,729.3207
"2901",78.8806,729.334
"2902",78.87572,729.3473
"2903",78.8806,729.3606
"2904",78.88548,729.3739
"2905",78.89525,729.3872
"2906",78.9099,729.4005
"2907",78.92699,729.4138
"2908",78.94408,729.4271
"2909",78.96361,729.4404
"2910",78.9807,729.45374
"2911",78.99046,729.46704
"2912",78.992905,729.48035
"2913",78.99046,729.49365
"2914",78.992905,729.50696
"2915",79.01488,729.52026
"2916",79.09544,729.53357
"2917",79.26635,729.5469
"2918",79.554436,729.5602
"2919",79.96704,729.5735
"2920",80.482185,729.5868
"2921",81.0486,729.6001
"2922",81.59792,729.6134
"2923",82.05936,729.6267
"2924",82.39384,729.64
"2925",82.579384,729.6533
"2926",82.63554,729.6666
"2927",82.59159,729.67993
"2928",82.48905,729.69324
"2929",82.3621,729.70654
"2930",82.23758,729.71985
"2931",82.13016,729.73315
"2932",82.04471,729.74646
"2933",81.971466,729.75977
"2934",81.898224,729.7731
"2935",81.81033,729.7864
"2936",81.688255,729.7997
"2937",81.52224,729.813
"2938",81.31716,729.8263
"2939",81.092545,729.8396
"2940",80.87038,729.8529
"2941",80.6775,729.8662
"2942",80.52857,729.8795
"2943",80.430916,729.8928
"2944",80.36988,729.9061
"2945",80.33326,729.91943
"2946",80.31129,729.93274
"2947",80.28687,729.94604
"2948",80.25025,729.95935
"2949",80.19653,729.97266
"2950",80.12573,729.98596
"2951",80.0354,729.99927
"2952",79.937744,730.0126
"2953",79.82788,730.0259
"2954",79.72045,730.0392
"2955",79.61547,730.0525
"2956",79.520256,730.0658
"2957",79.432365,730.0791
"2958",79.35912,730.0924
"2959",79.29809,730.1057
"2960",79.24925,730.119
"2961",79.21263,730.1323
"2962",79.19066,730.1456
"2963",79.18089,730.15894
"2964",79.17113,730.17224
"2965",79.1638,730.18555
"2966",79.151596,730.19885
"2967",79.132065,730.21216
"2968",79.11253,730.22546
"2969",79.093,730.2388
"2970",79.07591,730.2521
"2971",79.05882,730.2654
"2972",79.04173,730.2787
"2973",79.027084,730.292
"2974",79.00755,730.3053
"2975",78.99046,730.3186
"2976",78.97093,730.3319
"2977",78.95384,730.3452
"2978",78.93675,730.3585
"2979",78.924545,730.3718
"2980",78.91722,730.38513
"2981",78.91234,730.39844
"2982",78.907455,730.41174
"2983",78.907455,730.42505
"2984",78.9099,730.43835
"2985",78.9099,730.45166
"2986",78.9099,730.46497
"2987",78.9099,730.4783
"2988",78.9099,730.4916
"2989",78.91234,730.5049
"2990",78.91966,730.5182
"2991",78.93187,730.5315
"2992",78.94652,730.5448
"2993",78.96117,730.5581
"2994",78.97337,730.5714
"2995",78.9807,730.5847
"2996",78.98314,730.598
"2997",78.9807,730.6113
"2998",78.97826,730.62463
"2999",78.97826,730.63794
"3000",78.98314,730.65125
"3001",79.00511,730.66455
"3002",79.05882,730.67786
"3003",79.18089,730.69116
"3004",79.40551,730.70447
"3005",79.744865,730.7178
"3006",80.201416,730.7311
"3007",80.73853,730.7444
"3008",81.30007,730.7577
"3009",81.812775,730.771
"3010",82.22293,730.7843
"3011",82.496376,730.7976
"3012",82.62821,730.8109
"3013",82.63554,730.8242
"3014",82.547646,730.8375
"3015",82.408485,730.8508
"3016",82.252235,730.86414
"3017",82.10574,730.87744
"3018",81.988556,730.89075
"3019",81.898224,730.90405
"3020",81.82498,730.91736
"3021",81.74929,730.93066
"3022",81.64675,730.944
"3023",81.50759,730.9573
"3024",81.32693,730.9706
"3025",81.11696,730.9839
"3026",80.89967,730.9972
"3027",80.69215,731.0105
"3028",80.52125,731.0238
"3029",80.40406,731.0371
"3030",80.33082,731.0504
"3031",80.29664,731.0637
"3032",80.28443,731.077
"3033",80.27955,731.09033
"3034",80.26246,731.10364
"3035",80.23071,731.11694
"3036",80.177,731.13025
"3037",80.10132,731.14355
"3038",80.00366,731.15686
"3039",79.89136,731.17017
"3040",79.77661,731.1835
"3041",79.66674,731.1968
"3042",79.57885,731.2101
"3043",79.50805,731.2234
"3044",79.45678,731.2367
"3045",79.41772,731.25
"3046",79.38354,731.2633
"3047",79.34936,731.2766
"3048",79.31274,731.2899
"3049",79.27856,731.3032
"3050",79.24681,731.3165
"3051",79.219955,731.32983
"3052",79.19798,731.34314
"3053",79.17845,731.35645
"3054",79.15892,731.36975
"3055",79.14183,731.38306
"3056",79.12718,731.39636
"3057",79.10765,731.40967
"3058",79.09056,731.423
"3059",79.07103,731.4363
"3060",79.05394,731.4496
"3061",79.03441,731.4629
"3062",79.01976,731.4762
"3063",79.00511,731.4895
"3064",78.99779,731.5028
"3065",78.992905,731.5161
"3066",78.992905,731.5294
"3067",78.99779,731.5427
"3068",78.99779,731.556
"3069",78.99779,731.56934
"3070",78.995346,731.58264
"3071",78.992905,731.59595
"3072",78.99046,731.60925
"3073",78.992905,731.62256
"3074",79.00023,731.63586
"3075",79.009995,731.6492
"3076",79.029526,731.6625
"3077",79.05394,731.6758
"3078",79.078354,731.6891
"3079",79.097885,731.7024
"3080",79.11742,731.7157
"3081",79.12718,731.729
"3082",79.12962,731.7423
"3083",79.132065,731.7556
"3084",79.12962,731.7689
"3085",79.12474,731.7822
"3086",79.11986,731.79553
"3087",79.11253,731.80884
"3088",79.10765,731.82214
"3089",79.10033,731.83545
"3090",79.097885,731.84875
"3091",79.097885,731.86206
"3092",79.12474,731.87537
"3093",79.202866,731.8887
"3094",79.37377,731.902
"3095",79.66186,731.9153
"3096",80.07202,731.9286
"3097",80.58228,731.9419
"3098",81.13161,731.9552
"3099",81.651634,731.9685
"3100",82.07645,731.9818
"3101",82.374306,731.9951
"3102",82.528114,732.0084
"3103",82.55009,732.0217
"3104",82.47196,732.03503
"3105",82.337685,732.04834
"3106",82.176544,732.06165
"3107",82.020294,732.07495
"3108",81.88846,732.08826
"3109",81.78348,732.10156
"3110",81.69314,732.11487
"3111",81.59792,732.1282
"3112",81.48562,732.1415
"3113",81.34402,732.1548
"3114",81.17799,732.1681
"3115",80.990005,732.1814
"3116",80.799576,732.1947
"3117",80.62867,732.208
"3118",80.48951,732.2213
"3119",80.38697,732.2346
"3120",80.32838,732.2479
"3121",80.29908,732.2612
"3122",80.28687,732.27454
"3123",80.27955,732.28784
"3124",80.257576,732.30115
"3125",80.22339,732.31445
"3126",80.16724,732.32776
"3127",80.096436,732.34106
"3128",80.01099,732.3544
"3129",79.91821,732.3677
"3130",79.818115,732.381
"3131",79.72045,732.3943
"3132",79.62768,732.4076
"3133",79.54223,732.4209
"3134",79.466545,732.4342
"3135",79.40795,732.4475
"3136",79.36645,732.4608
"3137",79.33959,732.4741
"3138",79.31762,732.4874
"3139",79.30541,732.50073
"3140",79.290764,732.51404
"3141",79.273674,732.52734
"3142",79.256584,732.54065
"3143",79.24437,732.55396
"3144",79.22972,732.56726
"3145",79.217514,732.58057
"3146",79.20531,732.5939
"3147",79.1931,732.6072
"3148",79.185776,732.6205
"3149",79.17845,732.6338
"3150",79.17601,732.6471
"3151",79.17113,732.6604
"3152",79.166245,732.6737
"3153",79.15404,732.687
"3154",79.14183,732.7003
"3155",79.12718,732.7136
"3156",79.114975,732.7269
"3157",79.10765,732.74023
"3158",79.10033,732.75354
"3159",79.09544,732.76685
"3160",79.093,732.78015
"3161",79.097885,732.79346
"3162",79.10033,732.80676
"3163",79.10521,732.82007
"3164",79.11009,732.8334
"3165",79.11742,732.8467
"3166",79.11986,732.86
"3167",79.12718,732.8733
"3168",79.13939,732.8866
"3169",79.151596,732.8999
"3170",79.16136,732.9132
"3171",79.1638,732.9265
"3172",79.15892,732.9398
"3173",79.14671,732.9531
"3174",79.13939,732.96643
"3175",79.13939,732.97974
"3176",79.15648,732.99304
"3177",79.20531,733.00635
"3178",79.310295,733.01965
"3179",79.49828,733.03296
"3180",79.78882,733.04626
"3181",80.17212,733.0596
"3182",80.62623,733.0729
"3183",81.09743,733.0862
"3184",81.52712,733.0995
"3185",81.8616,733.1128
"3186",82.07645,733.1261
"3187",82.16434,733.1394
"3188",82.142365,733.1527
"3189",82.039825,733.166
"3190",81.88846,733.1793
"3191",81.71755,733.1926
"3192",81.54177,733.20593
"3193",81.3782,733.21924
"3194",81.22438,733.23254
"3195",81.075455,733.24585
"3196",80.92409,733.25916
"3197",80.77028,733.27246
"3198",80.61402,733.28577
"3199",80.46754,733.2991
"3200",80.343025,733.3124
"3201",80.25269,733.3257
"3202",80.20386,733.339
"3203",80.18921,733.3523
"3204",80.2063,733.3656
"3205",80.23804,733.3789
"3206",80.274666,733.3922
"3207",80.291756,733.4055
"3208",80.289314,733.4188
"3209",80.25269,733.4321
"3210",80.18921,733.44543
"3211",80.10132,733.45874
"3212",80.0061,733.47205
"3213",79.906006,733.48535
"3214",79.81079,733.49866
"3215",79.727776,733.51196
"3216",79.65453,733.52527
"3217",79.59106,733.5386
"3218",79.54467,733.5519
"3219",79.51049,733.5652
"3220",79.49096,733.5785
"3221",79.47875,733.5918
"3222",79.47631,733.6051
"3223",79.47631,733.6184
"3224",79.47387,733.6317
"3225",79.47143,733.645
"3226",79.46899,733.6583
"3227",79.46899,733.67163
"3228",79.4641,733.68494
"3229",79.45922,733.69824
"3230",79.447014,733.71155
"3231",79.429924,733.72485
"3232",79.412834,733.73816
"3233",79.38842,733.75146
"3234",79.364006,733.7648
"3235",79.344475,733.7781
"3236",79.327385,733.7914
"3237",79.31274,733.8047
"3238",79.30541,733.818
"3239",79.30297,733.8313
"3240",79.30053,733.8446
"3241",79.29565,733.8579
"3242",79.28832,733.8712
"3243",79.281,733.8845
"3244",79.273674,733.8978
"3245",79.26879,733.91113
"3246",79.273674,733.92444
"3247",79.281,733.93774
"3248",79.28832,733.95105
"3249",79.29565,733.96436
"3250",79.30541,733.97766
"3251",79.31274,733.99097
"3252",79.32006,734.0043
"3253",79.32983,734.0176
"3254",79.33959,734.0309
"3255",79.34936,734.0442
"3256",79.35668,734.0575
"3257",79.37133,734.0708
"3258",79.41772,734.0841
"3259",79.53002,734.0974
"3260",79.73754,734.1107
"3261",80.05737,734.124
"3262",80.479744,734.1373
"3263",80.970474,734.15063
"3264",81.46609,734.16394
"3265",81.90311,734.17725
"3266",82.23758,734.19055
"3267",82.44755,734.20386
"3268",82.533,734.21716
"3269",82.50858,734.23047
"3270",82.408485,734.2438
"3271",82.266884,734.2571
"3272",82.108185,734.2704
"3273",81.951935,734.2837
"3274",81.815216,734.297
"3275",81.69314,734.3103
"3276",81.57595,734.3236
"3277",81.45632,734.3369
"3278",81.324486,734.3502
"3279",81.17067,734.3635
"3280",81.007095,734.37683
"3281",80.84108,734.39014
"3282",80.69215,734.40344
"3283",80.57252,734.41675
"3284",80.48951,734.43005
"3285",80.43824,734.44336
"3286",80.413826,734.45667
"3287",80.40406,734.47
"3288",80.396736,734.4833
"3289",80.38453,734.4966
"3290",80.35523,734.5099
"3291",80.306404,734.5232
"3292",80.24048,734.5365
"3293",80.15991,734.5498
"3294",80.07202,734.5631
"3295",79.98657,734.5764
"3296",79.906006,734.5897
"3297",79.82788,734.603
"3298",79.75464,734.61633
"3299",79.68871,734.62964
"3300",79.62768,734.64294
"3301",79.57397,734.65625
"3302",79.537346,734.66956
"3303",79.50805,734.68286
"3304",79.48608,734.69617
"3305",79.47387,734.7095
"3306",79.46166,734.7228
"3307",79.447014,734.7361
"3308",79.42748,734.7494
"3309",79.40795,734.7627
"3310",79.38354,734.776
"3311",79.364006,734.7893
"3312",79.3518,734.8026
"3313",79.34936,734.8159
"3314",79.34936,734.8292
"3315",79.3518,734.8425
"3316",79.3518,734.85583
"3317",79.34936,734.86914
"3318",79.33959,734.88245
"3319",79.327385,734.89575
"3320",79.30785,734.90906
"3321",79.28832,734.92236
"3322",79.27123,734.93567
"3323",79.26147,734.949
"3324",79.26147,734.9623
"3325",79.256584,734.9756
"3326",79.25414,734.9889
"3327",79.24925,735.0022
"3328",79.24681,735.0155
"3329",79.23949,735.0288
"3330",79.234604,735.0421
"3331",79.237045,735.0554
"3332",79.24681,735.0687
"3333",79.26147,735.08203
"3334",79.281,735.09534
"3335",79.30297,735.10864
"3336",79.3225,735.12195
"3337",79.33471,735.13525
"3338",79.33715,735.14856
"3339",79.33959,735.16187
"3340",79.34692,735.1752
"3341",79.38842,735.1885
"3342",79.49096,735.2018
"3343",79.691154,735.2151
"3344",80.00366,735.2284
"3345",80.42115,735.2417
"3346",80.90456,735.255
"3347",81.40017,735.2683
"3348",81.83963,735.2816
"3349",82.1741,735.2949
"3350",82.38407,735.3082
"3351",82.46464,735.32153
"3352",82.43778,735.33484
"3353",82.34501,735.34814
"3354",82.213165,735.36145
"3355",82.07889,735.37476
"3356",81.95926,735.38806
"3357",81.866486,735.40137
"3358",81.78836,735.4147
"3359",81.71511,735.428
"3360",81.62966,735.4413
"3361",81.51736,735.4546
"3362",81.36599,735.4679
"3363",81.1902,735.4812
"3364",81.00221,735.4945
"3365",80.82643,735.5078
"3366",80.67506,735.5211
"3367",80.56275,735.5344
"3368",80.49683,735.5477
"3369",80.46754,735.56104
"3370",80.45777,735.57434
"3371",80.45533,735.58765
"3372",80.445564,735.60095
"3373",80.41627,735.61426
"3374",80.365,735.62756
"3375",80.291756,735.64087
"3376",80.2063,735.6542
"3377",80.11597,735.6675
"3378",80.028076,735.6808
"3379",79.940186,735.6941
"3380",79.85718,735.7074
"3381",79.77905,735.7207
"3382",79.70336,735.734
"3383",79.62768,735.7473
"3384",79.56176,735.7606
"3385",79.50561,735.7739
"3386",79.45678,735.78723
"3387",79.42016,735.80054
"3388",79.3933,735.81384
"3389",79.37621,735.82715
"3390",79.361565,735.84045
"3391",79.344475,735.85376
"3392",79.3225,735.86707
"3393",79.29565,735.8804
"3394",79.26635,735.8937
"3395",79.24437,735.907
"3396",79.22484,735.9203
"3397",79.21507,735.9336
"3398",79.20531,735.9469
"3399",79.19798,735.9602
"3400",79.183334,735.9735
"3401",79.166245,735.9868
"3402",79.149155,736.0001
"3403",79.13451,736.0134
"3404",79.11986,736.02673
"3405",79.10765,736.04004
"3406",79.10033,736.05334
"3407",79.09056,736.06665
"3408",79.080795,736.07996
"3409",79.07103,736.09326
"3410",79.061264,736.10657
"3411",79.05394,736.1199
"3412",79.0515,736.1332
"3413",79.0515,736.1465
"3414",79.06859,736.1598
"3415",79.11742,736.1731
"3416",79.22484,736.1864
"3417",79.41772,736.1997
"3418",79.7058,736.213
"3419",80.08423,736.2263
"3420",80.516365,736.2396
"3421",80.95094,736.2529
"3422",81.33425,736.26624
"3423",81.62722,736.27954
"3424",81.812775,736.29285
"3425",81.89334,736.30615
"3426",81.88602,736.31946
"3427",81.8201,736.33276
"3428",81.71755,736.34607
"3429",81.600365,736.3594
"3430",81.480736,736.3727
"3431",81.36111,736.386
"3432",81.234146,736.3993
"3433",81.092545,736.4126
"3434",80.93385,736.4259
"3435",80.762955,736.4392
"3436",80.587166,736.4525
"3437",80.43336,736.4658
"3438",80.31373,736.4791
"3439",80.24536,736.49243
"3440",80.22827,736.50574
"3441",80.255135,736.51904
"3442",80.306404,736.53235
"3443",80.35767,736.54565
"3444",80.38697,736.55896
"3445",80.38453,736.57227
"3446",80.343025,736.5856
"3447",80.26734,736.5989
"3448",80.17212,736.6122
"3449",80.0647,736.6255
"3450",79.954834,736.6388
"3451",79.84985,736.6521
"3452",79.7522,736.6654
"3453",79.66186,736.6787
"3454",79.57885,736.692
"3455",79.51293,736.7053
"3456",79.45922,736.7186
"3457",79.41772,736.73193
"3458",79.38598,736.74524
"3459",79.36889,736.75854
"3460",79.364006,736.77185
"3461",79.36645,736.78516
"3462",79.37621,736.79846
"3463",79.381096,736.81177
"3464",79.381096,736.8251
"3465",79.37377,736.8384
"3466",79.35912,736.8517
"3467",79.34203,736.865
"3468",79.32006,736.8783
"3469",79.293205,736.8916
"3470",79.26635,736.9049
"3471",79.24437,736.9182
"3472",79.22972,736.9315
"3473",79.219955,736.9448
"3474",79.21263,736.9581
"3475",79.202866,736.97144
"3476",79.18822,736.98474
"3477",79.17113,736.99805
"3478",79.15892,737.01135
"3479",79.151596,737.02466
"3480",79.151596,737.03796
"3481",79.15404,737.0513
"3482",79.16136,737.0646
"3483",79.1638,737.0779
"3484",79.16136,737.0912
"3485",79.15648,737.1045
"3486",79.16136,737.1178
"3487",79.1931,737.1311
"3488",79.27123,737.1444
"3489",79.432365,737.1577
"3490",79.68383,737.171
"3491",80.0354,737.1843
"3492",80.46021,737.19763
"3493",80.92653,737.21094
"3494",81.375755,737.22424
"3495",81.75906,737.23755
"3496",82.039825,737.25085
"3497",82.20096,737.26416
"3498",82.247345,737.27747
"3499",82.210724,737.2908
"3500",82.11551,737.3041
"3501",82.00076,737.3174
"3502",81.89334,737.3307
"3503",81.79813,737.344
"3504",81.71511,737.3573
"3505",81.634544,737.3706
"3506",81.54177,737.3839
"3507",81.4197,737.3972
"3508",81.26589,737.4105
"3509",81.08278,737.4238
"3510",80.88991,737.43713
"3511",80.70435,737.45044
"3512",80.5481,737.46375
"3513",80.4358,737.47705
"3514",80.36988,737.49036
"3515",80.34547,737.50366
"3516",80.34547,737.51697
"3517",80.35767,737.5303
"3518",80.360115,737.5436
"3519",80.34547,737.5569
"3520",80.30152,737.5702
"3521",80.235596,737.5835
"3522",80.15259,737.5968
"3523",80.05493,737.6101
"3524",79.954834,737.6234
"3525",79.852295,737.6367
"3526",79.75708,737.65
"3527",79.6643,737.6633
"3528",79.58129,737.67664
"3529",79.50317,737.68994
"3530",79.43969,737.70325
"3531",79.38842,737.71655
"3532",79.3518,737.72986
"3533",79.327385,737.74316
"3534",79.310295,737.7565
"3535",79.29809,737.7698
"3536",79.28588,737.7831
"3537",79.27123,737.7964
"3538",79.25414,737.8097
"3539",79.234604,737.823
"3540",79.21507,737.8363
"3541",79.1931,737.8496
"3542",79.17113,737.8629
"3543",79.15404,737.8762
"3544",79.13939,737.8895
"3545",79.1223,737.90283
"3546",79.10765,737.91614
"3547",79.093,737.92944
"3548",79.080795,737.94275
"3549",79.06859,737.95605
"3550",79.05882,737.96936
"3551",79.04906,737.98267
"3552",79.04173,737.996
"3553",79.03685,738.0093
"3554",79.03197,738.0226
"3555",79.03197,738.0359
"3556",79.029526,738.0492
"3557",79.029526,738.0625
"3558",79.027084,738.0758
"3559",79.027084,738.0891
"3560",79.02464,738.1024
"3561",79.01488,738.1157
"3562",79.00267,738.129
"3563",78.992905,738.14233
"3564",78.99779,738.15564
"3565",79.03441,738.16895
"3566",79.13451,738.18225
"3567",79.31518,738.19556
"3568",79.5935,738.20886
"3569",79.96704,738.22217
"3570",80.41871,738.2355
"3571",80.907,738.2488
"3572",81.375755,738.2621
"3573",81.77371,738.2754
"3574",82.05936,738.2887
"3575",82.22293,738.302
"3576",82.27421,738.3153
"3577",82.24979,738.3286
"3578",82.18387,738.3419
"3579",82.1033,738.3552
"3580",82.02762,738.3685
"3581",81.969025,738.38184
"3582",81.92264,738.39514
"3583",81.87869,738.40845
"3584",81.8201,738.42175
"3585",81.7322,738.43506
"3586",81.602806,738.44836
"3587",81.42947,738.4617
"3588",81.214615,738.475
"3589",80.990005,738.4883
"3590",80.7776,738.5016
"3591",80.604256,738.5149
"3592",80.479744,738.5282
"3593",80.4065,738.5415
"3594",80.377205,738.5548
"3595",80.36988,738.5681
"3596",80.365,738.5814
"3597",80.35279,738.5947
"3598",80.32105,738.60803
"3599",80.26734,738.62134
"3600",80.19165,738.63464
"3601",80.096436,738.64795
"3602",79.991455,738.66125
"3603",79.88159,738.67456
"3604",79.77173,738.68787
"3605",79.66674,738.7012
"3606",79.571526,738.7145
"3607",79.48608,738.7278
"3608",79.412834,738.7411
"3609",79.34936,738.7544
"3610",79.30053,738.7677
"3611",79.259026,738.781
"3612",79.22484,738.7943
"3613",79.19798,738.8076
"3614",79.17601,738.8209
"3615",79.15648,738.8342
"3616",79.13939,738.84753
"3617",79.1223,738.86084
"3618",79.10521,738.87415
"3619",79.08568,738.88745
"3620",79.06859,738.90076
"3621",79.04906,738.91406
"3622",79.029526,738.92737
"3623",79.009995,738.9407
"3624",78.99046,738.954
"3625",78.97337,738.9673
"3626",78.958725,738.9806
"3627",78.94652,738.9939
"3628",78.93187,739.0072
"3629",78.91478,739.0205
"3630",78.89281,739.0338
"3631",78.86839,739.0471
"3632",78.84886,739.0604
"3633",78.84154,739.0737
"3634",78.839096,739.08704
"3635",78.836655,739.10034
"3636",78.83177,739.11365
"3637",78.82445,739.12695
"3638",78.819565,739.14026
"3639",78.82201,739.15356
"3640",78.839096,739.1669
"3641",78.86595,739.1802
"3642",78.89525,739.1935
"3643",78.91966,739.2068
"3644",78.93675,739.2201
"3645",78.94652,739.2334
"3646",78.94896,739.2467
"3647",78.94652,739.26
"3648",78.93919,739.2733
"3649",78.93675,739.2866
"3650",78.93675,739.2999
"3651",78.94652,739.31323
"3652",78.96849,739.32654
"3653",79.0222,739.33984
"3654",79.1223,739.35315
"3655",79.30297,739.36646
"3656",79.588615,739.37976
"3657",79.98657,739.39307
"3658",80.46998,739.4064
"3659",80.99489,739.4197
"3660",81.497826,739.433
"3661",81.9202,739.4463
"3662",82.22049,739.4596
"3663",82.39384,739.4729
"3664",82.44999,739.4862
"3665",82.41825,739.4995
"3666",82.3328,739.5128
"3667",82.22781,739.5261
"3668",82.127716,739.5394
"3669",82.039825,739.55273
"3670",81.971466,739.56604
"3671",81.91531,739.57935
"3672",81.85428,739.59265
"3673",81.77371,739.60596
"3674",81.651634,739.61926
"3675",81.4905,739.63257
"3676",81.29275,739.6459
"3677",81.077896,739.6592
"3678",80.87282,739.6725
"3679",80.70191,739.6858
"3680",80.57496,739.6991
"3681",80.49439,739.7124
"3682",80.448006,739.7257
"3683",80.41871,739.739
"3684",80.394295,739.7523
"3685",80.36744,739.7656
"3686",80.325935,739.77893
"3687",80.26246,739.79224
"3688",80.177,739.80554
"3689",80.076904,739.81885
"3690",79.96216,739.83215
"3691",79.84253,739.84546
"3692",79.727776,739.85876
"3693",79.622795,739.8721
"3694",79.53002,739.8854
"3695",79.4519,739.8987
"3696",79.39086,739.912
"3697",79.34203,739.9253
"3698",79.30053,739.9386
"3699",79.26391,739.9519
"3700",79.22484,739.9652
"3701",79.19066,739.9785
"3702",79.1638,739.9918
"3703",79.13939,740.0051
"3704",79.11986,740.01843
"3705",79.10765,740.03174
"3706",79.09544,740.04504
"3707",79.08568,740.05835
"3708",79.07347,740.07166
"3709",79.063705,740.08496
"3710",79.05394,740.09827
"3711",79.03929,740.1116
"3712",79.027084,740.1249
"3713",79.012436,740.1382
"3714",79.00511,740.1515
"3715",79.00023,740.1648
"3716",79.00023,740.1781
"3717",78.995346,740.1914
"3718",78.99046,740.2047
"3719",78.98314,740.218
"3720",78.97337,740.2313
"3721",78.96117,740.2446
"3722",78.95384,740.25793
"3723",78.95628,740.27124
"3724",78.96605,740.28455
"3725",78.98314,740.29785
"3726",79.00755,740.31116
"3727",79.03441,740.32446
"3728",79.05394,740.33777
"3729",79.06859,740.3511
"3730",79.078354,740.3644
"3731",79.080795,740.3777
"3732",79.080795,740.391
"3733",79.07591,740.4043
"3734",79.063705,740.4176
"3735",79.05394,740.4309
"3736",79.04906,740.4442
"3737",79.04906,740.4575
"3738",79.0515,740.4708
"3739",79.05638,740.48413
"3740",79.06859,740.49744
"3741",79.10521,740.51074
"3742",79.19798,740.52405
"3743",79.38354,740.53735
"3744",79.68383,740.55066
"3745",80.09888,740.56396
"3746",80.59693,740.5773
"3747",81.12184,740.5906
"3748",81.60525,740.6039
"3749",81.99588,740.6172
"3750",82.25712,740.6305
"3751",82.388954,740.6438
"3752",82.41093,740.6571
"3753",82.34745,740.6704
"3754",82.24002,740.6837
"3755",82.11795,740.697
"3756",82.00809,740.7103
"3757",81.9202,740.72363
"3758",81.85428,740.73694
"3759",81.79324,740.75024
"3760",81.72488,740.76355
"3761",81.62966,740.77686
"3762",81.495384,740.79016
"3763",81.324486,740.80347
"3764",81.12428,740.8168
"3765",80.91676,740.8301
"3766",80.723885,740.8434
"3767",80.570076,740.8567
"3768",80.45777,740.87
"3769",80.39185,740.8833
"3770",80.360115,740.8966
"3771",80.35035,740.9099
"3772",80.33814,740.9232
"3773",80.32105,740.9365
"3774",80.28443,740.9498
"3775",80.22583,740.96313
"3776",80.147705,740.97644
"3777",80.05493,740.98975
"3778",79.954834,741.00305
"3779",79.85474,741.01636
"3780",79.76196,741.02966
"3781",79.67162,741.04297
"3782",79.588615,741.0563
"3783",79.517815,741.0696
"3784",79.4519,741.0829
"3785",79.395744,741.0962
"3786",79.35424,741.1095
"3787",79.3225,741.1228
"3788",79.30053,741.1361
"3789",79.28344,741.1494
"3790",79.26879,741.1627
"3791",79.256584,741.176
"3792",79.24681,741.18933
"3793",79.237045,741.20264
"3794",79.22972,741.21594
"3795",79.22484,741.22925
"3796",79.217514,741.24255
"3797",79.20531,741.25586
"3798",79.18822,741.26917
"3799",79.168686,741.2825
"3800",79.14671,741.2958
"3801",79.1223,741.3091
"3802",79.10033,741.3224
"3803",79.080795,741.3357
"3804",79.05638,741.349
"3805",79.03685,741.3623
"3806",79.02464,741.3756
"3807",79.01488,741.3889
"3808",79.012436,741.4022
"3809",79.01732,741.4155
"3810",79.02464,741.42883
"3811",79.03441,741.44214
"3812",79.044174,741.45544
"3813",79.05394,741.46875
"3814",79.06859,741.48206
"3815",79.080795,741.49536
"3816",79.093,741.50867
"3817",79.10277,741.522
"3818",79.11253,741.5353
"3819",79.11986,741.5486
"3820",79.12962,741.5619
"3821",79.13939,741.5752
"3822",79.149155,741.5885
"3823",79.15648,741.6018
"3824",79.15648,741.6151
"3825",79.15404,741.6284
"3826",79.151596,741.6417
"3827",79.151596,741.655
"3828",79.168686,741.66833
"3829",79.23216,741.68164
"3830",79.364006,741.69495
"3831",79.59838,741.70825
"3832",79.94751,741.72156
"3833",80.38697,741.73486
"3834",80.88014,741.74817
"3835",81.36843,741.7615
"3836",81.795685,741.7748
"3837",82.11307,741.7881
"3838",82.30595,741.8014
"3839",82.38163,741.8147
"3840",82.36698,741.828
"3841",82.286415,741.8413
"3842",82.18143,741.8546
"3843",82.07645,741.8679
"3844",81.98123,741.8812
"3845",81.90555,741.89453
"3846",81.83963,741.90784
"3847",81.77371,741.92114
"3848",81.6907,741.93445
"3849",81.583275,741.94775
"3850",81.43923,741.96106
"3851",81.26101,741.97437
"3852",81.06325,741.9877
"3853",80.86305,742.001
"3854",80.68238,742.0143
"3855",80.53834,742.0276
"3856",80.4358,742.0409
"3857",80.37476,742.0542
"3858",80.34791,742.0675
"3859",80.34058,742.0808
"3860",80.33326,742.0941
"3861",80.31617,742.1074
"3862",80.27711,742.1207
"3863",80.218506,742.13403
"3864",80.14038,742.14734
"3865",80.05249,742.16064
"3866",79.957275,742.17395
"3867",79.86206,742.18726
"3868",79.76929,742.20056
"3869",79.68383,742.21387
"3870",79.60815,742.2272
"3871",79.54711,742.2405
"3872",79.500725,742.2538
"3873",79.46899,742.2671
"3874",79.44457,742.2804
"3875",79.42504,742.2937
"3876",79.40551,742.307
"3877",79.38842,742.3203
"3878",79.36889,742.3336
"3879",79.34936,742.3469
"3880",79.327385,742.3602
"3881",79.310295,742.37354
"3882",79.293205,742.38684
"3883",79.28344,742.40015
"3884",79.27856,742.41345
"3885",79.27123,742.42676
"3886",79.26147,742.44006
"3887",79.24925,742.45337
"3888",79.22484,742.4667
"3889",79.19554,742.48
"3890",79.166245,742.4933
"3891",79.14427,742.5066
"3892",79.12718,742.5199
"3893",79.11742,742.5332
"3894",79.114975,742.5465
"3895",79.11253,742.5598
"3896",79.10765,742.5731
"3897",79.10521,742.5864
"3898",79.10521,742.59973
"3899",79.11009,742.61304
"3900",79.11009,742.62634
"3901",79.11253,742.63965
"3902",79.11986,742.65295
"3903",79.12718,742.66626
"3904",79.13451,742.67957
"3905",79.14427,742.6929
"3906",79.15404,742.7062
"3907",79.16136,742.7195
"3908",79.16136,742.7328
"3909",79.15648,742.7461
"3910",79.151596,742.7594
"3911",79.14427,742.7727
"3912",79.13695,742.786
"3913",79.13451,742.7993
"3914",79.13939,742.8126
"3915",79.16136,742.8259
"3916",79.217514,742.83923
"3917",79.32983,742.85254
"3918",79.52514,742.86584
"3919",79.82544,742.87915
"3920",80.218506,742.89246
"3921",80.67994,742.90576
"3922",81.15846,742.91907
"3923",81.59792,742.9324
"3924",81.94949,742.9457
"3925",82.18387,742.959
"3926",82.29618,742.9723
"3927",82.30595,742.9856
"3928",82.2327,742.9989
"3929",82.11551,743.0122
"3930",81.97879,743.0255
"3931",81.846954,743.0388
"3932",81.73708,743.0521
"3933",81.64675,743.0654
"3934",81.566185,743.07874
"3935",81.478294,743.09204
"3936",81.36599,743.10535
"3937",81.22194,743.11865
"3938",81.04372,743.13196
"3939",80.85329,743.14526
"3940",80.67017,743.15857
"3941",80.51392,743.1719
"3942",80.4065,743.1852
"3943",80.343025,743.1985
"3944",80.32838,743.2118
"3945",80.33814,743.2251
"3946",80.360115,743.2384
"3947",80.36744,743.2517
"3948",80.35279,743.265
"3949",80.308846,743.2783
"3950",80.23804,743.2916
"3951",80.147705,743.30493
"3952",80.04761,743.31824
"3953",79.94507,743.33154
"3954",79.84985,743.34485
"3955",79.766846,743.35815
"3956",79.691154,743.37146
"3957",79.622795,743.38477
"3958",79.5642,743.3981
"3959",79.51293,743.4114
"3960",79.46899,743.4247
"3961",79.43481,743.438
"3962",79.40795,743.4513
"3963",79.38842,743.4646
"3964",79.36889,743.4779
"3965",79.3518,743.4912
"3966",79.33959,743.5045
"3967",79.33471,743.5178
"3968",79.32983,743.5311
"3969",79.33227,743.54443
"3970",79.32983,743.55774
"3971",79.32006,743.57104
"3972",79.30297,743.58435
"3973",79.28344,743.59766
"3974",79.26147,743.61096
"3975",79.237045,743.62427
"3976",79.2224,743.6376
"3977",79.21263,743.6509
"3978",79.20531,743.6642
"3979",79.200424,743.6775
"3980",79.19798,743.6908
"3981",79.19066,743.7041
"3982",79.17601,743.7174
"3983",79.15892,743.7307
"3984",79.13695,743.744
"3985",79.11986,743.7573
"3986",79.11986,743.7706
"3987",79.12962,743.78394
"3988",79.151596,743.79724
"3989",79.17845,743.81055
"3990",79.200424,743.82385
"3991",79.21507,743.83716
"3992",79.217514,743.85046
"3993",79.21263,743.8638
"3994",79.20531,743.8771
"3995",79.19798,743.8904
"3996",79.19554,743.9037
"3997",79.200424,743.917
"3998",79.21019,743.9303
"3999",79.234604,743.9436
"4000",79.29565,743.9569
"4001",79.41772,743.9702
"4002",79.62768,743.9835
"4003",79.9353,743.9968
"4004",80.32838,744.01013
"4005",80.7776,744.02344
"4006",81.231705,744.03674
"4007",81.636986,744.05005
"4008",81.94949,744.06335
"4009",82.15213,744.07666
"4010",82.23758,744.08997
"4011",82.230255,744.1033
"4012",82.15213,744.1166
"4013",82.04715,744.1299
"4014",81.92996,744.1432
"4015",81.82498,744.1565
"4016",81.72488,744.1698
"4017",81.6321,744.1831
"4018",81.53689,744.1964
"4019",81.43435,744.2097
"4020",81.307396,744.223
"4021",81.15846,744.2363
"4022",80.98268,744.24963
"4023",80.79469,744.26294
"4024",80.61646,744.27625
"4025",80.462654,744.28955
"4026",80.34791,744.30286
"4027",80.28443,744.31616
"4028",80.257576,744.32947
"4029",80.255135,744.3428
"4030",80.26246,744.3561
"4031",80.26002,744.3694
"4032",80.24048,744.3827
"4033",80.19653,744.396
"4034",80.128174,744.4093
"4035",80.042725,744.4226
"4036",79.94263,744.4359
"4037",79.84253,744.4492
"4038",79.74731,744.4625
"4039",79.66186,744.4758
"4040",79.5935,744.48914
"4041",79.54467,744.50244
"4042",79.49828,744.51575
"4043",79.46166,744.52905
"4044",79.429924,744.54236
"4045",79.40063,744.55566
"4046",79.37621,744.569
"4047",79.35424,744.5823
"4048",79.33959,744.5956
"4049",79.32983,744.6089
"4050",79.32494,744.6222
"4051",79.32006,744.6355
"4052",79.31518,744.6488
"4053",79.31274,744.6621
"4054",79.30541,744.6754
"4055",79.293205,744.6887
"4056",79.27856,744.702
"4057",79.26147,744.71533
"4058",79.24193,744.72864
"4059",79.2224,744.74194
"4060",79.20775,744.75525
"4061",79.19554,744.76855
"4062",79.185776,744.78186
"4063",79.17113,744.79517
"4064",79.15648,744.8085
"4065",79.13695,744.8218
"4066",79.1223,744.8351
"4067",79.11253,744.8484
"4068",79.10521,744.8617
"4069",79.10521,744.875
"4070",79.10765,744.8883
"4071",79.11253,744.9016
"4072",79.12474,744.9149
"4073",79.13451,744.9282
"4074",79.14183,744.9415
"4075",79.149155,744.95483
"4076",79.15648,744.96814
"4077",79.16136,744.98145
"4078",79.1638,744.99475
"4079",79.168686,745.00806
"4080",79.17357,745.02136
"4081",79.17357,745.03467
"4082",79.17601,745.048
"4083",79.17845,745.0613
"4084",79.19066,745.0746
"4085",79.217514,745.0879
"4086",79.281,745.1012
"4087",79.41039,745.1145
"4088",79.622795,745.1278
"4089",79.93286,745.1411
"4090",80.32838,745.1544
"4091",80.7776,745.1677
"4092",81.22194,745.181
"4093",81.60525,745.19434
"4094",81.89334,745.20764
"4095",82.07156,745.22095
"4096",82.13992,745.23425
"4097",82.12039,745.24756
"4098",82.04959,745.26086
"4099",81.94949,745.2742
"4100",81.84451,745.2875
"4101",81.75174,745.3008
"4102",81.67849,745.3141
"4103",81.619896,745.3274
"4104",81.57351,745.3407
"4105",81.514915,745.354
"4106",81.427025,745.3673
"4107",81.307396,745.3806
"4108",81.15114,745.3939
"4109",80.970474,745.4072
"4110",80.78493,745.42053
"4111",80.61646,745.43384
"4112",80.48463,745.44714
"4113",80.396736,745.46045
"4114",80.35035,745.47375
"4115",80.3357,745.48706
"4116",80.3357,745.50037
"4117",80.33326,745.5137
"4118",80.31129,745.527
"4119",80.26734,745.5403
"4120",80.198975,745.5536
"4121",80.113525,745.5669
"4122",80.01831,745.5802
"4123",79.920654,745.5935
"4124",79.823,745.6068
"4125",79.73266,745.6201
"4126",79.65453,745.6334
"4127",79.588615,745.6467
"4128",79.53246,745.66003
"4129",79.48608,745.67334
"4130",79.4519,745.68665
"4131",79.42016,745.69995
"4132",79.3933,745.71326
"4133",79.37133,745.72656
"4134",79.35668,745.73987
"4135",79.34692,745.7532
"4136",79.344475,745.7665
"4137",79.33959,745.7798
"4138",79.33471,745.7931
"4139",79.32983,745.8064
"4140",79.31518,745.8197
"4141",79.293205,745.833
"4142",79.26879,745.8463
"4143",79.24925,745.8596
"4144",79.22728,745.8729
"4145",79.21263,745.8862
"4146",79.20531,745.89954
"4147",79.200424,745.91284
"4148",79.19798,745.92615
"4149",79.19554,745.93945
"4150",79.1931,745.95276
"4151",79.19066,745.96606
"4152",79.19066,745.9794
"4153",79.18822,745.9927
"4154",79.18822,746.006
"4155",79.185776,746.0193
"4156",79.183334,746.0326
"4157",79.18822,746.0459
"4158",79.1931,746.0592
"4159",79.20531,746.0725
"4160",79.217514,746.0858
"4161",79.23216,746.0991
"4162",79.24437,746.1124
"4163",79.24925,746.12573
"4164",79.24925,746.13904
"4165",79.24437,746.15234
"4166",79.23949,746.16565
"4167",79.234604,746.17896
"4168",79.23216,746.19226
"4169",79.237045,746.20557
"4170",79.259026,746.2189
"4171",79.310295,746.2322
"4172",79.412834,746.2455
"4173",79.588615,746.2588
"4174",79.85474,746.2721
"4175",80.20874,746.2854
"4176",80.62623,746.2987
"4177",81.058365,746.312
"4178",81.45876,746.3253
"4179",81.78104,746.3386
"4180",81.99588,746.3519
"4181",82.1033,746.36523
"4182",82.11307,746.37854
"4183",82.05203,746.39185
"4184",81.951935,746.40515
"4185",81.84207,746.41846
"4186",81.739525,746.43176
"4187",81.6614,746.44507
"4188",81.600365,746.4584
"4189",81.53933,746.4717
"4190",81.463646,746.485
"4191",81.36355,746.4983
"4192",81.22682,746.5116
"4193",81.06813,746.5249
"4194",80.89723,746.5382
"4195",80.73609,746.5515
"4196",80.6067,746.5648
"4197",80.50904,746.5781
"4198",80.448006,746.59143
"4199",80.413826,746.60474
"4200",80.40162,746.61804
"4201",80.39185,746.63135
"4202",80.38453,746.64465
"4203",80.36744,746.65796
"4204",80.32838,746.67126
"4205",80.26978,746.6846
"4206",80.19409,746.6979
"4207",80.1062,746.7112
"4208",80.008545,746.7245
"4209",79.91333,746.7378
"4210",79.82544,746.7511
"4211",79.74975,746.7644
"4212",79.68627,746.7777
"4213",79.635,746.791
"4214",79.59106,746.8043
"4215",79.55688,746.8176
"4216",79.5227,746.83093
"4217",79.4934,746.84424
"4218",79.47143,746.85754
"4219",79.45434,746.87085
"4220",79.44213,746.88416
"4221",79.432365,746.89746
"4222",79.42016,746.91077
"4223",79.41039,746.9241
"4224",79.40063,746.9374
"4225",79.3933,746.9507
"4226",79.38354,746.964
"4227",79.37133,746.9773
"4228",79.361565,746.9906
"4229",79.3518,747.0039
"4230",79.33471,747.0172
"4231",79.31518,747.0305
"4232",79.29809,747.0438
"4233",79.27856,747.0571
"4234",79.26391,747.07043
"4235",79.259026,747.08374
"4236",79.259026,747.09705
"4237",79.26391,747.11035
"4238",79.26879,747.12366
"4239",79.276115,747.13696
"4240",79.27856,747.15027
"4241",79.27856,747.1636
"4242",79.276115,747.1769
"4243",79.27123,747.1902
"4244",79.26391,747.2035
"4245",79.259026,747.2168
"4246",79.256584,747.2301
"4247",79.25414,747.2434
"4248",79.256584,747.2567
"4249",79.256584,747.27
"4250",79.273674,747.2833
"4251",79.32006,747.29663
"4252",79.42016,747.30994
"4253",79.59838,747.32324
"4254",79.86694,747.33655
"4255",80.218506,747.34985
"4256",80.62379,747.36316
"4257",81.041275,747.37646
"4258",81.4197,747.3898
"4259",81.71999,747.4031
"4260",81.91531,747.4164
"4261",82.005646,747.4297
"4262",82.01297,747.443
"4263",81.95682,747.4563
"4264",81.87137,747.4696
"4265",81.78348,747.4829
"4266",81.705345,747.4962
"4267",81.636986,747.5095
"4268",81.57595,747.5228
"4269",81.50759,747.53613
"4270",81.41726,747.54944
"4271",81.29519,747.56274
"4272",81.14137,747.57605
"4273",80.96559,747.58936
"4274",80.78737,747.60266
"4275",80.62623,747.61597
"4276",80.499275,747.6293
"4277",80.42115,747.6426
"4278",80.38697,747.6559
"4279",80.38941,747.6692
"4280",80.40406,747.6825
"4281",80.41627,747.6958
"4282",80.40894,747.7091
"4283",80.37476,747.7224
"4284",80.31861,747.7357
"4285",80.23804,747.749
"4286",80.14526,747.7623
"4287",80.05005,747.77563
"4288",79.957275,747.78894
"4289",79.871826,747.80225
"4290",79.7937,747.81555
"4291",79.727776,747.82886
"4292",79.66674,747.84216
"4293",79.62035,747.85547
"4294",79.58129,747.8688
"4295",79.551994,747.8821
"4296",79.53002,747.8954
"4297",79.51537,747.9087
"4298",79.49828,747.922
"4299",79.483635,747.9353
"4300",79.47143,747.9486
"4301",79.46166,747.9619
"4302",79.4519,747.9752
"4303",79.44457,747.9885
"4304",79.43725,748.00183
"4305",79.42504,748.01514
"4306",79.40795,748.02844
"4307",79.3933,748.04175
"4308",79.37621,748.05505
"4309",79.35668,748.06836
"4310",79.33715,748.08167
"4311",79.32006,748.095
"4312",79.30053,748.1083
"4313",79.28344,748.1216
"4314",79.26879,748.1349
"4315",79.26147,748.1482
"4316",79.26147,748.1615
"4317",79.26391,748.1748
"4318",79.26879,748.1881
"4319",79.27123,748.2014
"4320",79.273674,748.2147
"4321",79.273674,748.228
"4322",79.26879,748.24133
"4323",79.26147,748.25464
"4324",79.25414,748.26794
"4325",79.24437,748.28125
"4326",79.23949,748.29456
"4327",79.237045,748.30786
"4328",79.24193,748.32117
"4329",79.26391,748.3345
"4330",79.32983,748.3478
"4331",79.46166,748.3611
"4332",79.68139,748.3744
"4333",79.991455,748.3877
"4334",80.37965,748.401
"4335",80.80446,748.4143
"4336",81.21706,748.4276
"4337",81.57107,748.4409
"4338",81.832306,748.4542
"4339",81.99344,748.4675
"4340",82.056915,748.48083
"4341",82.054474,748.49414
"4342",82.01541,748.50745
"4343",81.9617,748.52075
"4344",81.91287,748.53406
"4345",81.87381,748.54736
"4346",81.84207,748.56067
"4347",81.81033,748.574
"4348",81.76395,748.5873
"4349",81.68093,748.6006
"4350",81.55642,748.6139
"4351",81.38796,748.6272
"4352",81.19264,748.6405
"4353",80.99489,748.6538
"4354",80.82155,748.6671
"4355",80.69459,748.6804
"4356",80.618904,748.6937
"4357",80.584724,748.70703
"4358",80.57252,748.72034
"4359",80.57252,748.73364
"4360",80.56275,748.74695
"4361",80.54078,748.76025
"4362",80.49439,748.77356
"4363",80.42359,748.78687
"4364",80.3357,748.8002
"4365",80.233154,748.8135
"4366",80.128174,748.8268
"4367",80.03052,748.8401
"4368",79.9353,748.8534
"4369",79.84985,748.8667
"4370",79.77417,748.88
"4371",79.708244,748.8933
"4372",79.65209,748.9066
"4373",79.60815,748.9199
"4374",79.57397,748.9332
"4375",79.54711,748.94653
"4376",79.517815,748.95984
"4377",79.4934,748.97314
"4378",79.47143,748.98645
"4379",79.449455,748.99976
"4380",79.42748,749.01306
"4381",79.40551,749.02637
"4382",79.38598,749.0397
"4383",79.36645,749.053
"4384",79.344475,749.0663
"4385",79.3225,749.0796
"4386",79.30541,749.0929
"4387",79.28588,749.1062
"4388",79.26147,749.1195
"4389",79.237045,749.1328
"4390",79.21263,749.1461
"4391",79.18822,749.1594
"4392",79.166245,749.1727
"4393",79.151596,749.18604
"4394",79.14183,749.19934
"4395",79.13939,749.21265
"4396",79.13939,749.22595
"4397",79.14427,749.23926
"4398",79.149155,749.25256
"4399",79.151596,749.26587
"4400",79.14671,749.2792
"4401",79.13695,749.2925
"4402",79.11986,749.3058
"4403",79.10033,749.3191
"4404",79.080795,749.3324
"4405",79.06859,749.3457
"4406",79.061264,749.359
"4407",79.05882,749.3723
"4408",79.06859,749.3856
"4409",79.10277,749.3989
"4410",79.17601,749.41223
"4411",79.30541,749.42554
"4412",79.51537,749.43884
"4413",79.80591,749.45215
"4414",80.164795,749.46545
"4415",80.56275,749.47876
"4416",80.955826,749.49207
"4417",81.304955,749.5054
"4418",81.57351,749.5187
"4419",81.74929,749.532
"4420",81.832306,749.5453
"4421",81.84207,749.5586
"4422",81.80789,749.5719
"4423",81.75418,749.5852
"4424",81.69558,749.5985
"4425",81.64675,749.6118
"4426",81.59792,749.6251
"4427",81.54665,749.6384
"4428",81.46853,749.65173
"4429",81.35134,749.66504
"4430",81.19508,749.67834
"4431",81.007095,749.69165
"4432",80.8069,749.70496
"4433",80.62623,749.71826
"4434",80.48707,749.73157
"4435",80.40162,749.7449
"4436",80.36988,749.7582
"4437",80.377205,749.7715
"4438",80.40162,749.7848
"4439",80.42115,749.7981
"4440",80.42603,749.8114
"4441",80.40162,749.8247
"4442",80.343025,749.838
"4443",80.2649,749.8513
"4444",80.16968,749.8646
"4445",80.0647,749.8779
"4446",79.957275,749.89124
"4447",79.85474,749.90454
"4448",79.76196,749.91785
"4449",79.68139,749.93115
"4450",79.60815,749.94446
"4451",79.54955,749.95776
"4452",79.49828,749.97107
"4453",79.4519,749.9844
"4454",79.41039,749.9977
"4455",79.381096,750.011
"4456",79.35668,750.0243
"4457",79.33959,750.0376
"4458",79.327385,750.0509
"4459",79.310295,750.0642
"4460",79.290764,750.0775
"4461",79.26879,750.0908
"4462",79.23949,750.1041
"4463",79.21263,750.11743
"4464",79.18822,750.13074
"4465",79.168686,750.14404
"4466",79.14671,750.15735
"4467",79.12962,750.17065
"4468",79.11009,750.18396
"4469",79.09056,750.19727
"4470",79.06859,750.2106
"4471",79.046616,750.2239
"4472",79.029526,750.2372
"4473",79.01976,750.2505
"4474",79.012436,750.2638
"4475",79.00755,750.2771
"4476",79.00511,750.2904
"4477",78.99779,750.3037
"4478",78.99046,750.317
"4479",78.9807,750.3303
"4480",78.96849,750.3436
"4481",78.95384,750.35693
"4482",78.94408,750.37024
"4483",78.93919,750.38354
"4484",78.94652,750.39685
"4485",78.96605,750.41016
"4486",79.01732,750.42346
"4487",79.11253,750.43677
"4488",79.28344,750.4501
"4489",79.537346,750.4634
"4490",79.871826,750.4767
"4491",80.26246,750.49
"4492",80.672615,750.5033
"4493",81.0486,750.5166
"4494",81.35378,750.5299
"4495",81.56863,750.5432
"4496",81.688255,750.5565
"4497",81.7322,750.5698
"4498",81.71511,750.5831
"4499",81.66628,750.59644
"4500",81.60525,750.60974
"4501",81.54177,750.62305
"4502",81.47097,750.63635
"4503",81.392845,750.64966
"4504",81.29519,750.66296
"4505",81.16823,750.6763
"4506",81.01442,750.6896
"4507",80.84352,750.7029
"4508",80.66773,750.7162
"4509",80.51148,750.7295
"4510",80.39185,750.7428
"4511",80.31861,750.7561
"4512",80.291756,750.7694
"4513",80.30152,750.7827
"4514",80.33082,750.796
"4515",80.36256,750.8093
"4516",80.377205,750.82263
"4517",80.36744,750.83594
"4518",80.32105,750.84924
"4519",80.24536,750.86255
"4520",80.147705,750.87585
"4521",80.04028,750.88916
"4522",79.93042,750.90247
"4523",79.82788,750.9158
"4524",79.7351,750.9291
"4525",79.65453,750.9424
"4526",79.57885,750.9557
"4527",79.51537,750.969
"4528",79.46166,750.9823
"4529",79.41772,750.9956
"4530",79.381096,751.0089
"4531",79.35668,751.0222
"4532",79.33959,751.0355
"4533",79.32983,751.0488
"4534",79.32006,751.06213
"4535",79.31274,751.07544
"4536",79.30297,751.08875
"4537",79.290764,751.10205
"4538",79.26879,751.11536
"4539",79.23949,751.12866
"4540",79.20775,751.14197
"4541",79.17845,751.1553
"4542",79.149155,751.1686
"4543",79.11986,751.1819
"4544",79.097885,751.1952
"4545",79.07591,751.2085
"4546",79.05394,751.2218
"4547",79.03197,751.2351
"4548",79.01488,751.2484
"4549",79.00023,751.2617
"4550",78.992905,751.275
"4551",78.99046,751.2883
"4552",78.992905,751.30164
"4553",78.99779,751.31494
"4554",79.00511,751.32825
"4555",79.00755,751.34155
"4556",79.00511,751.35486
"4557",78.99779,751.36816
"4558",78.98558,751.3815
"4559",78.96849,751.3948
"4560",78.95384,751.4081
"4561",78.94652,751.4214
"4562",78.9514,751.4347
"4563",78.97093,751.448
"4564",79.0222,751.4613
"4565",79.12474,751.4746
"4566",79.29809,751.4879
"4567",79.5642,751.5012
"4568",79.920654,751.5145
"4569",80.34547,751.52783
"4570",80.799576,751.54114
"4571",81.22682,751.55444
"4572",81.57839,751.56775
"4573",81.83475,751.58105
