"","ppg","time"
"1",81.60769,11.829193
"2",81.40017,11.842529
"3",81.23903,11.8558655
"4",81.126724,11.869202
"5",81.06569,11.882538
"6",81.03639,11.895874
"7",81.02174,11.90921
"8",80.99733,11.922546
"9",80.953384,11.935883
"10",80.8777,11.949219
"11",80.765396,11.962555
"12",80.62379,11.975891
"13",80.465096,11.989227
"14",80.2942,12.002563
"15",80.113525,12.0159
"16",79.937744,12.029236
"17",79.76929,12.042572
"18",79.622795,12.055908
"19",79.4934,12.069244
"20",79.378654,12.082581
"21",79.259026,12.095917
"22",79.12474,12.109253
"23",78.97093,12.122589
"24",78.802475,12.135925
"25",78.624245,12.149261
"26",78.45579,12.162598
"27",78.311745,12.175934
"28",78.19699,12.18927
"29",78.116425,12.202606
"30",78.065155,12.215942
"31",78.03342,12.229279
"32",78.009,12.242615
"33",77.977264,12.255951
"34",77.93576,12.269287
"35",77.89426,12.282623
"36",77.86252,12.295959
"37",77.84299,12.309296
"38",77.84299,12.322632
"39",77.85275,12.335968
"40",77.86984,12.349304
"41",77.87961,12.36264
"42",77.88449,12.375977
"43",77.891815,12.389313
"44",77.90646,12.402649
"45",77.93332,12.415985
"46",77.96994,12.429321
"47",78.013885,12.442657
"48",78.065155,12.455994
"49",78.116425,12.46933
"50",78.16525,12.482666
"51",78.21164,12.496002
"52",78.260475,12.509338
"53",78.30198,12.522675
"54",78.34104,12.536011
"55",78.37278,12.549347
"56",78.40208,12.562683
"57",78.42893,12.576019
"58",78.45335,12.589355
"59",78.4802,12.602692
"60",78.519264,12.616028
"61",78.56809,12.629364
"62",78.643776,12.6427
"63",78.77562,12.656036
"64",79.00023,12.669373
"65",79.361565,12.682709
"66",79.87915,12.696045
"67",80.54566,12.709381
"68",81.31472,12.722717
"69",82.108185,12.736053
"70",82.85039,12.74939
"71",83.48272,12.762726
"72",83.97589,12.776062
"73",84.32014,12.789398
"74",84.52766,12.802734
"75",84.62043,12.816071
"76",84.63264,12.829407
"77",84.596016,12.842743
"78",84.542305,12.856079
"79",84.49348,12.869415
"80",84.44953,12.882751
"81",84.39338,12.896088
"82",84.298164,12.909424
"83",84.14923,12.92276
"84",83.93927,12.936096
"85",83.67559,12.949432
"86",83.37774,12.962769
"87",83.072556,12.976105
"88",82.77959,12.989441
"89",82.51835,13.002777
"90",82.286415,13.016113
"91",82.07889,13.029449
"92",81.900665,13.042786
"93",81.7322,13.056122
"94",81.56863,13.069458
"95",81.40017,13.082794
"96",81.231705,13.09613
"97",81.058365,13.109467
"98",80.867935,13.122803
"99",80.6482,13.136139
"100",80.40162,13.149475
"101",80.128174,13.162811
"102",79.84741,13.176147
"103",79.58373,13.189484
"104",79.364006,13.20282
"105",79.19066,13.216156
"106",79.05882,13.229492
"107",78.94896,13.242828
"108",78.853745,13.256165
"109",78.768295,13.269501
"110",78.695045,13.282837
"111",78.641335,13.296173
"112",78.6096,13.309509
"113",78.58274,13.322845
"114",78.553444,13.336182
"115",78.5095,13.349518
"116",78.450905,13.362854
"117",78.380104,13.37619
"118",78.294655,13.389526
"119",78.19211,13.402863
"120",78.09201,13.416199
"121",77.98947,13.429535
"122",77.87961,13.442871
"123",77.75998,13.456207
"124",77.642784,13.469543
"125",77.52804,13.48288
"126",77.420616,13.496216
"127",77.34005,13.509552
"128",77.30099,13.522888
"129",77.29366,13.536224
"130",77.298546,13.549561
"131",77.28878,13.562897
"132",77.261925,13.576233
"133",77.21553,13.589569
"134",77.16914,13.602905
"135",77.137405,13.616241
"136",77.13985,13.629578
"137",77.17891,13.642914
"138",77.23506,13.65625
"139",77.29122,13.669586
"140",77.330284,13.682922
"141",77.34493,13.696259
"142",77.330284,13.709595
"143",77.29366,13.722931
"144",77.239944,13.736267
"145",77.188675,13.749603
"146",77.15694,13.762939
"147",77.17647,13.776276
"148",77.28878,13.789612
"149",77.54757,13.802948
"150",77.977264,13.816284
"151",78.5803,13.82962
"152",79.31518,13.842957
"153",80.113525,13.856293
"154",80.88014,13.869629
"155",81.54421,13.882965
"156",82.056915,13.896301
"157",82.41093,13.909637
"158",82.61112,13.922974
"159",82.69413,13.93631
"160",82.69169,13.949646
"161",82.64286,13.962982
"162",82.562294,13.976318
"163",82.4744,13.989655
"164",82.38407,14.002991
"165",82.28886,14.016327
"166",82.18875,14.029663
"167",82.074005,14.042999
"168",81.93973,14.056335
"169",81.78836,14.069672
"170",81.62722,14.083008
"171",81.46853,14.096344
"172",81.322044,14.10968
"173",81.19997,14.123016
"174",81.112076,14.136353
"175",81.0486,14.149689
"176",81.01198,14.163025
"177",80.987564,14.176361
"178",80.95827,14.189697
"179",80.91188,14.203033
"180",80.84108,14.21637
"181",80.74586,14.229706
"182",80.62379,14.243042
"183",80.482185,14.256378
"184",80.33326,14.269714
"185",80.181885,14.283051
"186",80.028076,14.296387
"187",79.88403,14.309723
"188",79.75708,14.323059
"189",79.65209,14.336395
"190",79.569084,14.349731
"191",79.50317,14.363068
"192",79.4519,14.376404
"193",79.40795,14.38974
"194",79.36645,14.403076
"195",79.32983,14.416412
"196",79.29565,14.429749
"197",79.26879,14.443085
"198",79.24925,14.456421
"199",79.23949,14.469757
"200",79.234604,14.483093
"201",79.23216,14.496429
"202",79.2224,14.509766
"203",79.200424,14.523102
"204",79.16136,14.536438
"205",79.10033,14.549774
"206",79.029526,14.56311
"207",78.941635,14.576447
"208",78.84642,14.589783
"209",78.74876,14.603119
"210",78.658424,14.616455
"211",78.57542,14.629791
"212",78.504616,14.643127
"213",78.450905,14.656464
"214",78.41428,14.6698
"215",78.38987,14.683136
"216",78.38499,14.696472
"217",78.40452,14.709808
"218",78.4387,14.723145
"219",78.48264,14.736481
"220",78.519264,14.749817
"221",78.54124,14.763153
"222",78.53391,14.776489
"223",78.502174,14.789825
"224",78.450905,14.803162
"225",78.399635,14.816498
"226",78.37034,14.829834
"227",78.40696,14.84317
"228",78.54612,14.856506
"229",78.82689,14.869843
"230",79.256584,14.883179
"231",79.80835,14.896515
"232",80.42115,14.909851
"233",81.02663,14.923187
"234",81.55154,14.936523
"235",81.951935,14.94986
"236",82.22293,14.963196
"237",82.37675,14.976532
"238",82.4329,14.989868
"239",82.41337,15.003204
"240",82.340126,15.016541
"241",82.2327,15.029877
"242",82.10086,15.043213
"243",81.96414,15.056549
"244",81.82254,15.069885
"245",81.67605,15.083221
"246",81.51003,15.096558
"247",81.324486,15.109894
"248",81.109634,15.12323
"249",80.8777,15.136566
"250",80.635994,15.149902
"251",80.396736,15.163239
"252",80.17212,15.176575
"253",79.97925,15.189911
"254",79.82056,15.203247
"255",79.693596,15.216583
"256",79.60082,15.229919
"257",79.534904,15.243256
"258",79.4934,15.256592
"259",79.46899,15.269928
"260",79.45922,15.283264
"261",79.45434,15.2966
"262",79.44457,15.309937
"263",79.4226,15.323273
"264",79.38598,15.336609
"265",79.33715,15.349945
"266",79.281,15.363281
"267",79.2224,15.376617
"268",79.17113,15.389954
"269",79.12962,15.40329
"270",79.097885,15.416626
"271",79.078354,15.429962
"272",79.06859,15.443298
"273",79.063705,15.4566345
"274",79.061264,15.469971
"275",79.05638,15.483307
"276",79.046616,15.496643
"277",79.03929,15.509979
"278",79.03685,15.523315
"279",79.03441,15.536652
"280",79.03685,15.549988
"281",79.04173,15.563324
"282",79.04173,15.57666
"283",79.03441,15.589996
"284",79.0222,15.6033325
"285",79.00511,15.616669
"286",78.98558,15.630005
"287",78.96117,15.643341
"288",78.93675,15.656677
"289",78.91966,15.670013
"290",78.907455,15.68335
"291",78.907455,15.696686
"292",78.91478,15.710022
"293",78.924545,15.723358
"294",78.924545,15.736694
"295",78.91234,15.7500305
"296",78.88304,15.763367
"297",78.836655,15.776703
"298",78.78294,15.790039
"299",78.73167,15.803375
"300",78.692604,15.816711
"301",78.66331,15.830048
"302",78.6511,15.843384
"303",78.64622,15.85672
"304",78.64622,15.870056
"305",78.64866,15.883392
"306",78.6511,15.8967285
"307",78.65354,15.910065
"308",78.65598,15.923401
"309",78.66331,15.936737
"310",78.692604,15.950073
"311",78.765854,15.963409
"312",78.92699,15.976746
"313",79.219955,15.990082
"314",79.66186,16.003418
"315",80.24292,16.016754
"316",80.91676,16.03009
"317",81.61257,16.043427
"318",82.247345,16.056763
"319",82.760056,16.070099
"320",83.11406,16.083435
"321",83.30694,16.096771
"322",83.35821,16.110107
"323",83.30938,16.123444
"324",83.194626,16.13678
"325",83.04814,16.150116
"326",82.90166,16.163452
"327",82.76738,16.176788
"328",82.64042,16.190125
"329",82.513466,16.20346
"330",82.38163,16.216797
"331",82.22781,16.230133
"332",82.04471,16.24347
"333",81.832306,16.256805
"334",81.600365,16.270142
"335",81.358665,16.283478
"336",81.126724,16.296814
"337",80.921646,16.31015
"338",80.75075,16.323486
"339",80.621346,16.336823
"340",80.53101,16.350159
"341",80.46998,16.363495
"342",80.42603,16.376831
"343",80.38941,16.390167
"344",80.35035,16.403503
"345",80.30152,16.41684
"346",80.23804,16.430176
"347",80.15747,16.443512
"348",80.062256,16.456848
"349",79.95239,16.470184
"350",79.83765,16.48352
"351",79.725334,16.496857
"352",79.61547,16.510193
"353",79.517815,16.52353
"354",79.432365,16.536865
"355",79.35668,16.550201
"356",79.29565,16.563538
"357",79.23949,16.576874
"358",79.18822,16.59021
"359",79.14427,16.603546
"360",79.10521,16.616882
"361",79.06615,16.630219
"362",79.03685,16.643555
"363",79.009995,16.65689
"364",78.992905,16.670227
"365",78.98314,16.683563
"366",78.9807,16.6969
"367",78.97826,16.710236
"368",78.975815,16.723572
"369",78.97337,16.736908
"370",78.96361,16.750244
"371",78.9514,16.76358
"372",78.93919,16.776917
"373",78.93431,16.790253
"374",78.93187,16.803589
"375",78.93919,16.816925
"376",78.9514,16.830261
"377",78.96117,16.843597
"378",78.96605,16.856934
"379",78.96361,16.87027
"380",78.95384,16.883606
"381",78.93675,16.896942
"382",78.922104,16.910278
"383",78.9099,16.923615
"384",78.90013,16.93695
"385",78.90013,16.950287
"386",78.89769,16.963623
"387",78.89281,16.97696
"388",78.88548,16.990295
"389",78.873276,17.003632
"390",78.86107,17.016968
"391",78.84642,17.030304
"392",78.839096,17.04364
"393",78.83421,17.056976
"394",78.83177,17.070312
"395",78.84154,17.083649
"396",78.88304,17.096985
"397",78.98802,17.110321
"398",79.19798,17.123657
"399",79.537346,17.136993
"400",80.00366,17.15033
"401",80.56031,17.163666
"402",81.146255,17.177002
"403",81.6907,17.190338
"404",82.13504,17.203674
"405",82.44755,17.21701
"406",82.61845,17.230347
"407",82.64774,17.243683
"408",82.55985,17.257019
"409",82.391396,17.270355
"410",82.16922,17.283691
"411",81.92996,17.297028
"412",81.7029,17.310364
"413",81.497826,17.3237
"414",81.31716,17.337036
"415",81.1487,17.350372
"416",80.98268,17.363708
"417",80.814224,17.377045
"418",80.638435,17.39038
"419",80.45533,17.403717
"420",80.274666,17.417053
"421",80.1062,17.43039
"422",79.96216,17.443726
"423",79.85474,17.457062
"424",79.781494,17.470398
"425",79.744865,17.483734
"426",79.73022,17.49707
"427",79.71557,17.510406
"428",79.68627,17.523743
"429",79.63256,17.537079
"430",79.551994,17.550415
"431",79.4519,17.563751
"432",79.33471,17.577087
"433",79.2224,17.590424
"434",79.1223,17.60376
"435",79.044174,17.617096
"436",78.99046,17.630432
"437",78.97093,17.643768
"438",78.97093,17.657104
"439",78.9807,17.67044
"440",78.99046,17.683777
"441",79.00267,17.697113
"442",79.012436,17.71045
"443",79.027084,17.723785
"444",79.05394,17.737122
"445",79.10033,17.750458
"446",79.1638,17.763794
"447",79.23216,17.77713
"448",79.29809,17.790466
"449",79.34936,17.803802
"450",79.381096,17.817139
"451",79.38354,17.830475
"452",79.36889,17.843811
"453",79.344475,17.857147
"454",79.31518,17.870483
"455",79.281,17.88382
"456",79.24681,17.897156
"457",79.21263,17.910492
"458",79.17845,17.923828
"459",79.14183,17.937164
"460",79.097885,17.9505
"461",79.04906,17.963837
"462",78.992905,17.977173
"463",78.93431,17.990509
"464",78.870834,18.003845
"465",78.819565,18.017181
"466",78.77806,18.030518
"467",78.74876,18.043854
"468",78.73411,18.05719
"469",78.74143,18.070526
"470",78.76341,18.083862
"471",78.80003,18.097198
"472",78.84886,18.110535
"473",78.91478,18.12387
"474",78.99779,18.137207
"475",79.10521,18.150543
"476",79.27123,18.16388
"477",79.52758,18.177216
"478",79.90845,18.190552
"479",80.42115,18.203888
"480",81.04372,18.217224
"481",81.71511,18.23056
"482",82.357216,18.243896
"483",82.899216,18.257233
"484",83.29473,18.270569
"485",83.53155,18.283905
"486",83.62432,18.297241
"487",83.59991,18.310577
"488",83.492485,18.323914
"489",83.33135,18.33725
"490",83.140915,18.350586
"491",82.93828,18.363922
"492",82.735634,18.377258
"493",82.53788,18.390594
"494",82.34501,18.40393
"495",82.15701,18.417267
"496",81.969025,18.430603
"497",81.77371,18.44394
"498",81.56863,18.457275
"499",81.36111,18.470612
"500",81.160904,18.483948
"501",80.98024,18.497284
"502",80.833755,18.51062
"503",80.73121,18.523956
"504",80.66285,18.537292
"505",80.62867,18.550629
"506",80.618904,18.563965
"507",80.62379,18.577301
"508",80.63111,18.590637
"509",80.62623,18.603973
"510",80.59693,18.61731
"511",80.533455,18.630646
"512",80.43824,18.643982
"513",80.31861,18.657318
"514",80.17944,18.670654
"515",80.03784,18.68399
"516",79.906006,18.697327
"517",79.783936,18.710663
"518",79.676506,18.723999
"519",79.588615,18.737335
"520",79.51537,18.750671
"521",79.4519,18.764008
"522",79.40063,18.777344
"523",79.35668,18.79068
"524",79.31518,18.804016
"525",79.27856,18.817352
"526",79.24681,18.830688
"527",79.219955,18.844025
"528",79.200424,18.85736
"529",79.18822,18.870697
"530",79.18822,18.884033
"531",79.1931,18.89737
"532",79.19798,18.910706
"533",79.19798,18.924042
"534",79.185776,18.937378
"535",79.15648,18.950714
"536",79.11742,18.96405
"537",79.078354,18.977386
"538",79.05394,18.990723
"539",79.046616,19.004059
"540",79.05638,19.017395
"541",79.078354,19.030731
"542",79.097885,19.044067
"543",79.11253,19.057404
"544",79.11742,19.07074
"545",79.11742,19.084076
"546",79.11742,19.097412
"547",79.11986,19.110748
"548",79.12718,19.124084
"549",79.14183,19.13742
"550",79.168686,19.150757
"551",79.20531,19.164093
"552",79.24437,19.17743
"553",79.276115,19.190765
"554",79.28832,19.204102
"555",79.273674,19.217438
"556",79.24193,19.230774
"557",79.202866,19.24411
"558",79.183334,19.257446
"559",79.21507,19.270782
"560",79.33471,19.284119
"561",79.57397,19.297455
"562",79.954834,19.310791
"563",80.46021,19.324127
"564",81.05348,19.337463
"565",81.66384,19.3508
"566",82.22293,19.364136
"567",82.65995,19.377472
"568",82.948044,19.390808
"569",83.089645,19.404144
"570",83.10185,19.41748
"571",83.02373,19.430817
"572",82.896774,19.444153
"573",82.74296,19.457489
"574",82.581825,19.470825
"575",82.425575,19.484161
"576",82.27909,19.497498
"577",82.13748,19.510834
"578",82.003204,19.52417
"579",81.864044,19.537506
"580",81.71755,19.550842
"581",81.55642,19.564178
"582",81.3904,19.577515
"583",81.22682,19.59085
"584",81.07057,19.604187
"585",80.92653,19.617523
"586",80.80446,19.63086
"587",80.70435,19.644196
"588",80.62379,19.657532
"589",80.56031,19.670868
"590",80.51392,19.684204
"591",80.47242,19.69754
"592",80.42603,19.710876
"593",80.365,19.724213
"594",80.27955,19.737549
"595",80.17456,19.750885
"596",80.05737,19.764221
"597",79.9353,19.777557
"598",79.815674,19.790894
"599",79.710686,19.80423
"600",79.61547,19.817566
"601",79.534904,19.830902
"602",79.46899,19.844238
"603",79.4226,19.857574
"604",79.395744,19.87091
"605",79.38842,19.884247
"606",79.395744,19.897583
"607",79.41039,19.91092
"608",79.42016,19.924255
"609",79.4226,19.937592
"610",79.415276,19.950928
"611",79.40307,19.964264
"612",79.39086,19.9776
"613",79.381096,19.990936
"614",79.37621,20.004272
"615",79.37377,20.017609
"616",79.36889,20.030945
"617",79.35668,20.044281
"618",79.33227,20.057617
"619",79.29565,20.070953
"620",79.24925,20.08429
"621",79.1931,20.097626
"622",79.13451,20.110962
"623",79.07347,20.124298
"624",79.012436,20.137634
"625",78.94896,20.15097
"626",78.887924,20.164307
"627",78.82445,20.177643
"628",78.76341,20.190979
"629",78.709694,20.204315
"630",78.660866,20.217651
"631",78.62913,20.230988
"632",78.6218,20.244324
"633",78.6511,20.25766
"634",78.746315,20.270996
"635",78.941635,20.284332
"636",79.259026,20.297668
"637",79.69848,20.311005
"638",80.23804,20.32434
"639",80.814224,20.337677
"640",81.36355,20.351013
"641",81.829865,20.36435
"642",82.178986,20.377686
"643",82.40116,20.391022
"644",82.51591,20.404358
"645",82.545204,20.417694
"646",82.51591,20.43103
"647",82.45487,20.444366
"648",82.37919,20.457703
"649",82.30106,20.471039
"650",82.22049,20.484375
"651",82.13016,20.497711
"652",82.02518,20.511047
"653",81.8909,20.524384
"654",81.722435,20.53772
"655",81.52468,20.551056
"656",81.31228,20.564392
"657",81.10719,20.577728
"658",80.92409,20.591064
"659",80.7776,20.6044
"660",80.67506,20.617737
"661",80.61402,20.631073
"662",80.57496,20.64441
"663",80.55543,20.657745
"664",80.53834,20.671082
"665",80.51881,20.684418
"666",80.479744,20.697754
"667",80.42115,20.71109
"668",80.34058,20.724426
"669",80.2478,20.737762
"670",80.15015,20.751099
"671",80.05005,20.764435
"672",79.954834,20.777771
"673",79.869385,20.791107
"674",79.79126,20.804443
"675",79.710686,20.81778
"676",79.63744,20.831116
"677",79.569084,20.844452
"678",79.50561,20.857788
"679",79.447014,20.871124
"680",79.395744,20.88446
"681",79.34936,20.897797
"682",79.30541,20.911133
"683",79.26391,20.924469
"684",79.22728,20.937805
"685",79.1931,20.951141
"686",79.16136,20.964478
"687",79.13451,20.977814
"688",79.10765,20.99115
"689",79.078354,21.004486
"690",79.046616,21.017822
"691",79.00755,21.031158
"692",78.96849,21.044495
"693",78.92699,21.05783
"694",78.887924,21.071167
"695",78.84886,21.084503
"696",78.819565,21.09784
"697",78.80003,21.111176
"698",78.79271,21.124512
"699",78.80003,21.137848
"700",78.819565,21.151184
"701",78.84398,21.16452
"702",78.86595,21.177856
"703",78.87572,21.191193
"704",78.86839,21.204529
"705",78.8513,21.217865
"706",78.84642,21.231201
"707",78.87572,21.244537
"708",78.98314,21.257874
"709",79.202866,21.27121
"710",79.554436,21.284546
"711",80.025635,21.297882
"712",80.57984,21.311218
"713",81.1487,21.324554
"714",81.67849,21.33789
"715",82.108185,21.351227
"716",82.41825,21.364563
"717",82.60624,21.3779
"718",82.69413,21.391235
"719",82.70878,21.404572
"720",82.686806,21.417908
"721",82.652626,21.431244
"722",82.62821,21.44458
"723",82.62577,21.457916
"724",82.63065,21.471252
"725",82.63065,21.484589
"726",82.6038,21.497925
"727",82.528114,21.511261
"728",82.39872,21.524597
"729",82.22049,21.537933
"730",82.01541,21.55127
"731",81.80301,21.564606
"732",81.61013,21.577942
"733",81.449,21.591278
"734",81.32693,21.604614
"735",81.231705,21.61795
"736",81.15602,21.631287
"737",81.092545,21.644623
"738",81.03151,21.657959
"739",80.96315,21.671295
"740",80.88258,21.684631
"741",80.78981,21.697968
"742",80.68726,21.711304
"743",80.57984,21.72464
"744",80.46754,21.737976
"745",80.360115,21.751312
"746",80.257576,21.764648
"747",80.147705,21.777985
"748",80.0354,21.79132
"749",79.923096,21.804657
"750",79.815674,21.817993
"751",79.71801,21.83133
"752",79.64233,21.844666
"753",79.57885,21.858002
"754",79.53246,21.871338
"755",79.4934,21.884674
"756",79.45434,21.89801
"757",79.42016,21.911346
"758",79.3933,21.924683
"759",79.36889,21.938019
"760",79.34936,21.951355
"761",79.33227,21.964691
"762",79.30541,21.978027
"763",79.26879,21.991364
"764",79.2224,22.0047
"765",79.17113,22.018036
"766",79.12474,22.031372
"767",79.08568,22.044708
"768",79.0515,22.058044
"769",79.012436,22.07138
"770",78.96117,22.084717
"771",78.89281,22.098053
"772",78.81468,22.11139
"773",78.729225,22.124725
"774",78.641335,22.138062
"775",78.54856,22.151398
"776",78.45823,22.164734
"777",78.3679,22.17807
"778",78.294655,22.191406
"779",78.24338,22.204742
"780",78.21652,22.218079
"781",78.2092,22.231415
"782",78.23605,22.244751
"783",78.31663,22.258087
"784",78.4802,22.271423
"785",78.77074,22.28476
"786",79.202866,22.298096
"787",79.77173,22.311432
"788",80.4358,22.324768
"789",81.126724,22.338104
"790",81.77615,22.35144
"791",82.32548,22.364777
"792",82.74052,22.378113
"793",83.018845,22.391449
"794",83.177536,22.404785
"795",83.24101,22.418121
"796",83.23857,22.431458
"797",83.20683,22.444794
"798",83.16289,22.45813
"799",83.1165,22.471466
"800",83.070114,22.484802
"801",83.018845,22.498138
"802",82.94072,22.511475
"803",82.81377,22.52481
"804",82.63798,22.538147
"805",82.41581,22.551483
"806",82.16434,22.56482
"807",81.90799,22.578156
"808",81.68093,22.591492
"809",81.497826,22.604828
"810",81.358665,22.618164
"811",81.26345,22.6315
"812",81.19508,22.644836
"813",81.13405,22.658173
"814",81.07057,22.671509
"815",80.99245,22.684845
"816",80.89479,22.698181
"817",80.77028,22.711517
"818",80.62623,22.724854
"819",80.46998,22.73819
"820",80.306404,22.751526
"821",80.147705,22.764862
"822",79.99634,22.778198
"823",79.852295,22.791534
"824",79.71313,22.80487
"825",79.57885,22.818207
"826",79.44457,22.831543
"827",79.310295,22.84488
"828",79.168686,22.858215
"829",79.01732,22.871552
"830",78.856186,22.884888
"831",78.692604,22.898224
"832",78.53147,22.91156
"833",78.382545,22.924896
"834",78.24826,22.938232
"835",78.135956,22.951569
"836",78.04318,22.964905
"837",77.97238,22.978241
"838",77.92355,22.991577
"839",77.88937,23.004913
"840",77.8674,23.01825
"841",77.84787,23.031586
"842",77.8259,23.044922
"843",77.79416,23.058258
"844",77.752655,23.071594
"845",77.70626,23.08493
"846",77.662315,23.098267
"847",77.628136,23.111603
"848",77.60128,23.124939
"849",77.58663,23.138275
"850",77.58175,23.151611
"851",77.58175,23.164948
"852",77.58175,23.178284
"853",77.58175,23.19162
"854",77.58663,23.204956
"855",77.58907,23.218292
"856",77.58419,23.231628
"857",77.57198,23.244965
"858",77.55978,23.2583
"859",77.55001,23.271637
"860",77.557335,23.284973
"861",77.59884,23.29831
"862",77.69894,23.311646
"863",77.88693,23.324982
"864",78.18234,23.338318
"865",78.59495,23.351654
"866",79.114975,23.36499
"867",79.708244,23.378326
"868",80.31373,23.391663
"869",80.87282,23.404999
"870",81.341576,23.418335
"871",81.6907,23.431671
"872",81.917755,23.445007
"873",82.04471,23.458344
"874",82.09842,23.47168
"875",82.09842,23.485016
"876",82.07156,23.498352
"877",82.022736,23.511688
"878",81.95926,23.525024
"879",81.87381,23.53836
"880",81.761505,23.551697
"881",81.617455,23.565033
"882",81.44167,23.57837
"883",81.248795,23.591705
"884",81.058365,23.605042
"885",80.89235,23.618378
"886",80.75807,23.631714
"887",80.66285,23.64505
"888",80.59449,23.658386
"889",80.552986,23.671722
"890",80.51392,23.685059
"891",80.46754,23.698395
"892",80.40894,23.711731
"893",80.33326,23.725067
"894",80.22827,23.738403
"895",80.10864,23.75174
"896",79.96948,23.765076
"897",79.82544,23.778412
"898",79.676506,23.791748
"899",79.53246,23.805084
"900",79.38842,23.81842
"901",79.24437,23.831757
"902",79.09544,23.845093
"903",78.94408,23.858429
"904",78.79515,23.871765
"905",78.65354,23.885101
"906",78.52903,23.898438
"907",78.42161,23.911774
"908",78.328835,23.92511
"909",78.25071,23.938446
"910",78.1799,23.951782
"911",78.11398,23.965118
"912",78.05051,23.978455
"913",77.99191,23.99179
"914",77.93332,24.005127
"915",77.87717,24.018463
"916",77.82834,24.0318
"917",77.786835,24.045135
"918",77.75754,24.058472
"919",77.73556,24.071808
"920",77.72579,24.085144
"921",77.733116,24.09848
"922",77.747765,24.111816
"923",77.77219,24.125153
"924",77.81125,24.138489
"925",77.855194,24.151825
"926",77.90402,24.165161
"927",77.95529,24.178497
"928",78.00656,24.191833
"929",78.06027,24.20517
"930",78.10666,24.218506
"931",78.14572,24.231842
"932",78.18234,24.245178
"933",78.21652,24.258514
"934",78.26292,24.27185
"935",78.35325,24.285187
"936",78.51682,24.298523
"937",78.78294,24.31186
"938",79.16136,24.325195
"939",79.63256,24.338531
"940",80.16235,24.351868
"941",80.69459,24.365204
"942",81.17799,24.37854
"943",81.57595,24.391876
"944",81.87381,24.405212
"945",82.091095,24.418549
"946",82.25712,24.431885
"947",82.388954,24.44522
"948",82.49149,24.458557
"949",82.562294,24.471893
"950",82.59403,24.48523
"951",82.581825,24.498566
"952",82.533,24.511902
"953",82.459755,24.525238
"954",82.374306,24.538574
"955",82.262,24.55191
"956",82.125275,24.565247
"957",81.96414,24.578583
"958",81.79324,24.591919
"959",81.62478,24.605255
"960",81.478294,24.618591
"961",81.36599,24.631927
"962",81.29275,24.645264
"963",81.25124,24.6586
"964",81.23903,24.671936
"965",81.24147,24.685272
"966",81.24391,24.698608
"967",81.22438,24.711945
"968",81.17067,24.72528
"969",81.08278,24.738617
"970",80.96071,24.751953
"971",80.80934,24.76529
"972",80.638435,24.778625
"973",80.46021,24.791962
"974",80.274666,24.805298
"975",80.08423,24.818634
"976",79.90112,24.83197
"977",79.73266,24.845306
"978",79.586174,24.858643
"979",79.466545,24.871979
"980",79.37377,24.885315
"981",79.30053,24.898651
"982",79.23949,24.911987
"983",79.183334,24.925323
"984",79.13451,24.93866
"985",79.08568,24.951996
"986",79.03441,24.965332
"987",78.97826,24.978668
"988",78.92699,24.992004
"989",78.88548,25.00534
"990",78.853745,25.018677
"991",78.83421,25.032013
"992",78.82689,25.04535
"993",78.819565,25.058685
"994",78.80492,25.072021
"995",78.77562,25.085358
"996",78.74143,25.098694
"997",78.69993,25.11203
"998",78.65598,25.125366
"999",78.61692,25.138702
"1000",78.5803,25.152039
"1001",78.54856,25.165375
"1002",78.51438,25.17871
"1003",78.487526,25.192047
"1004",78.47776,25.205383
"1005",78.51682,25.21872
"1006",78.63157,25.232056
"1007",78.853745,25.245392
"1008",79.200424,25.258728
"1009",79.656975,25.272064
"1010",80.184326,25.2854
"1011",80.723885,25.298737
"1012",81.21706,25.312073
"1013",81.62234,25.325409
"1014",81.90799,25.338745
"1015",82.07645,25.352081
"1016",82.144806,25.365417
"1017",82.1326,25.378754
"1018",82.074005,25.39209
"1019",81.99588,25.405426
"1020",81.92264,25.418762
"1021",81.8616,25.432098
"1022",81.812775,25.445435
"1023",81.75906,25.45877
"1024",81.68093,25.472107
"1025",81.55642,25.485443
"1026",81.38064,25.49878
"1027",81.16823,25.512115
"1028",80.936295,25.525452
"1029",80.719,25.538788
"1030",80.53834,25.552124
"1031",80.41627,25.56546
"1032",80.34791,25.578796
"1033",80.325935,25.592133
"1034",80.33082,25.605469
"1035",80.343025,25.618805
"1036",80.35035,25.632141
"1037",80.33082,25.645477
"1038",80.28443,25.658813
"1039",80.2063,25.67215
"1040",80.10132,25.685486
"1041",79.97925,25.698822
"1042",79.84741,25.712158
"1043",79.71313,25.725494
"1044",79.58373,25.73883
"1045",79.4641,25.752167
"1046",79.35912,25.765503
"1047",79.26635,25.77884
"1048",79.185776,25.792175
"1049",79.11253,25.805511
"1050",79.03685,25.818848
"1051",78.97093,25.832184
"1052",78.92699,25.84552
"1053",78.91966,25.858856
"1054",78.96117,25.872192
"1055",79.04173,25.885529
"1056",79.13939,25.898865
"1057",79.2224,25.9122
"1058",79.26635,25.925537
"1059",79.26147,25.938873
"1060",79.21507,25.95221
"1061",79.14183,25.965546
"1062",79.063705,25.978882
"1063",78.98558,25.992218
"1064",78.91722,26.005554
"1065",78.856186,26.01889
"1066",78.80492,26.032227
"1067",78.75365,26.045563
"1068",78.709694,26.058899
"1069",78.66819,26.072235
"1070",78.6218,26.085571
"1071",78.57053,26.098907
"1072",78.5095,26.112244
"1073",78.4387,26.12558
"1074",78.365456,26.138916
"1075",78.30442,26.152252
"1076",78.28001,26.165588
"1077",78.32151,26.178925
"1078",78.46555,26.19226
"1079",78.73167,26.205597
"1080",79.11009,26.218933
"1081",79.56664,26.23227
"1082",80.05737,26.245605
"1083",80.516365,26.258942
"1084",80.90944,26.272278
"1085",81.20729,26.285614
"1086",81.409935,26.29895
"1087",81.52712,26.312286
"1088",81.57595,26.325623
"1089",81.56863,26.338959
"1090",81.53445,26.352295
"1091",81.4905,26.365631
"1092",81.45144,26.378967
"1093",81.41482,26.392303
"1094",81.3782,26.40564
"1095",81.32937,26.418976
"1096",81.26101,26.432312
"1097",81.16579,26.445648
"1098",81.05592,26.458984
"1099",80.95094,26.47232
"1100",80.86061,26.485657
"1101",80.78737,26.498993
"1102",80.723885,26.51233
"1103",80.65308,26.525665
"1104",80.570076,26.539001
"1105",80.47242,26.552338
"1106",80.36256,26.565674
"1107",80.25269,26.57901
"1108",80.14526,26.592346
"1109",80.028076,26.605682
"1110",79.89868,26.619019
"1111",79.764404,26.632355
"1112",79.639885,26.64569
"1113",79.54711,26.659027
"1114",79.4934,26.672363
"1115",79.466545,26.6857
"1116",79.432365,26.699036
"1117",79.364006,26.712372
"1118",79.24437,26.725708
"1119",79.06859,26.739044
"1120",78.85863,26.75238
"1121",78.643776,26.765717
"1122",78.450905,26.779053
"1123",78.28489,26.792389
"1124",78.150604,26.805725
"1125",78.04562,26.819061
"1126",77.97238,26.832397
"1127",77.93332,26.845734
"1128",77.91867,26.85907
"1129",77.91867,26.872406
"1130",77.92111,26.885742
"1131",77.90646,26.899078
"1132",77.87717,26.912415
"1133",77.838104,26.92575
"1134",77.79904,26.939087
"1135",77.75021,26.952423
"1136",77.68917,26.96576
"1137",77.608604,26.979095
"1138",77.5256,26.992432
"1139",77.452354,27.005768
"1140",77.39864,27.019104
"1141",77.36935,27.03244
"1142",77.34249,27.045776
"1143",77.313194,27.059113
"1144",77.27657,27.072449
"1145",77.2375,27.085785
"1146",77.21309,27.099121
"1147",77.22774,27.112457
"1148",77.28878,27.125793
"1149",77.41573,27.13913
"1150",77.63058,27.152466
"1151",77.95773,27.165802
"1152",78.41917,27.179138
"1153",79.012436,27.192474
"1154",79.70336,27.20581
"1155",80.44068,27.219147
"1156",81.15114,27.232483
"1157",81.77615,27.24582
"1158",82.266884,27.259155
"1159",82.61112,27.272491
"1160",82.81621,27.285828
"1161",82.91142,27.299164
"1162",82.92607,27.3125
"1163",82.89433,27.325836
"1164",82.845505,27.339172
"1165",82.794235,27.352509
"1166",82.75273,27.365845
"1167",82.718544,27.37918
"1168",82.6746,27.392517
"1169",82.60136,27.405853
"1170",82.48417,27.41919
"1171",82.31815,27.432526
"1172",82.11307,27.445862
"1173",81.8909,27.459198
"1174",81.67849,27.472534
"1175",81.495384,27.48587
"1176",81.3489,27.499207
"1177",81.25124,27.512543
"1178",81.1902,27.525879
"1179",81.15114,27.539215
"1180",81.112076,27.552551
"1181",81.05348,27.565887
"1182",80.953384,27.579224
"1183",80.80934,27.59256
"1184",80.621346,27.605896
"1185",80.40406,27.619232
"1186",80.17456,27.632568
"1187",79.94507,27.645905
"1188",79.73266,27.65924
"1189",79.54955,27.672577
"1190",79.38842,27.685913
"1191",79.25414,27.69925
"1192",79.14183,27.712585
"1193",79.04173,27.725922
"1194",78.95628,27.739258
"1195",78.890366,27.752594
"1196",78.84886,27.76593
"1197",78.82933,27.779266
"1198",78.83421,27.792603
"1199",78.85863,27.805939
"1200",78.89281,27.819275
"1201",78.93187,27.832611
"1202",78.975815,27.845947
"1203",79.027084,27.859283
"1204",79.08324,27.87262
"1205",79.149155,27.885956
"1206",79.217514,27.899292
"1207",79.28344,27.912628
"1208",79.33959,27.925964
"1209",79.38354,27.9393
"1210",79.41772,27.952637
"1211",79.447014,27.965973
"1212",79.46899,27.97931
"1213",79.49096,27.992645
"1214",79.51049,28.005981
"1215",79.52758,28.019318
"1216",79.54223,28.032654
"1217",79.55688,28.04599
"1218",79.57641,28.059326
"1219",79.61059,28.072662
"1220",79.676506,28.085999
"1221",79.79614,28.099335
"1222",80.00122,28.11267
"1223",80.323494,28.126007
"1224",80.77272,28.139343
"1225",81.339134,28.15268
"1226",81.98123,28.166016
"1227",82.63065,28.179352
"1228",83.21416,28.192688
"1229",83.685356,28.206024
"1230",84.01251,28.21936
"1231",84.190735,28.232697
"1232",84.242004,28.246033
"1233",84.19318,28.259369
"1234",84.08087,28.272705
"1235",83.93439,28.286041
"1236",83.78546,28.299377
"1237",83.65118,28.312714
"1238",83.53399,28.32605
"1239",83.42901,28.339386
"1240",83.30938,28.352722
"1241",83.158005,28.366058
"1242",82.96269,28.379395
"1243",82.7161,28.39273
"1244",82.43046,28.406067
"1245",82.13504,28.419403
"1246",81.85916,28.43274
"1247",81.62478,28.446075
"1248",81.444115,28.459412
"1249",81.3196,28.472748
"1250",81.23903,28.486084
"1251",81.18288,28.49942
"1252",81.13405,28.512756
"1253",81.075455,28.526093
"1254",81.00954,28.539429
"1255",80.92897,28.552765
"1256",80.833755,28.566101
"1257",80.726326,28.579437
"1258",80.61402,28.592773
"1259",80.48951,28.60611
"1260",80.35279,28.619446
"1261",80.20386,28.632782
"1262",80.04761,28.646118
"1263",79.88159,28.659454
"1264",79.71801,28.67279
"1265",79.569084,28.686127
"1266",79.43725,28.699463
"1267",79.327385,28.7128
"1268",79.237045,28.726135
"1269",79.166245,28.739471
"1270",79.10521,28.752808
"1271",79.04906,28.766144
"1272",78.99779,28.77948
"1273",78.94896,28.792816
"1274",78.89525,28.806152
"1275",78.83421,28.819489
"1276",78.77318,28.832825
"1277",78.712135,28.84616
"1278",78.66331,28.859497
"1279",78.626686,28.872833
"1280",78.607155,28.88617
"1281",78.59495,28.899506
"1282",78.590065,28.912842
"1283",78.58762,28.926178
"1284",78.590065,28.939514
"1285",78.59251,28.95285
"1286",78.60227,28.966187
"1287",78.61936,28.979523
"1288",78.641335,28.992859
"1289",78.67063,29.006195
"1290",78.70237,29.019531
"1291",78.73167,29.032867
"1292",78.75609,29.046204
"1293",78.77074,29.05954
"1294",78.77318,29.072876
"1295",78.75853,29.086212
"1296",78.73411,29.099548
"1297",78.71702,29.112885
"1298",78.73411,29.12622
"1299",78.82689,29.139557
"1300",79.04173,29.152893
"1301",79.40307,29.16623
"1302",79.89868,29.179565
"1303",80.499275,29.192902
"1304",81.13649,29.206238
"1305",81.739525,29.219574
"1306",82.23514,29.23291
"1307",82.59403,29.246246
"1308",82.80156,29.259583
"1309",82.87236,29.272919
"1310",82.8333,29.286255
"1311",82.72343,29.299591
"1312",82.5745,29.312927
"1313",82.41581,29.326263
"1314",82.25712,29.3396
"1315",82.11063,29.352936
"1316",81.97635,29.366272
"1317",81.84207,29.379608
"1318",81.6907,29.392944
"1319",81.5198,29.40628
"1320",81.322044,29.419617
"1321",81.10475,29.432953
"1322",80.88014,29.44629
"1323",80.66773,29.459625
"1324",80.479744,29.472961
"1325",80.325935,29.486298
"1326",80.20874,29.499634
"1327",80.130615,29.51297
"1328",80.09155,29.526306
"1329",80.076904,29.539642
"1330",80.076904,29.552979
"1331",80.076904,29.566315
"1332",80.062256,29.57965
"1333",80.025635,29.592987
"1334",79.95972,29.606323
"1335",79.871826,29.61966
"1336",79.764404,29.632996
"1337",79.64965,29.646332
"1338",79.537346,29.659668
"1339",79.429924,29.673004
"1340",79.32983,29.68634
"1341",79.23949,29.699677
"1342",79.15404,29.713013
"1343",79.07347,29.726349
"1344",78.99779,29.739685
"1345",78.92943,29.753021
"1346",78.86839,29.766357
"1347",78.81468,29.779694
"1348",78.77074,29.79303
"1349",78.73655,29.806366
"1350",78.712135,29.819702
"1351",78.69993,29.833038
"1352",78.692604,29.846375
"1353",78.695045,29.85971
"1354",78.69749,29.873047
"1355",78.695045,29.886383
"1356",78.695045,29.89972
"1357",78.692604,29.913055
"1358",78.68772,29.926392
"1359",78.6804,29.939728
"1360",78.675514,29.953064
"1361",78.67063,29.9664
"1362",78.67063,29.979736
"1363",78.675514,29.993073
"1364",78.68528,30.006409
"1365",78.695045,30.019745
"1366",78.69993,30.033081
"1367",78.69993,30.046417
"1368",78.69749,30.059753
"1369",78.69016,30.07309
"1370",78.6804,30.086426
"1371",78.68284,30.099762
"1372",78.692604,30.113098
"1373",78.70481,30.126434
"1374",78.71458,30.13977
"1375",78.72678,30.153107
"1376",78.72678,30.166443
"1377",78.71458,30.17978
"1378",78.70725,30.193115
"1379",78.7219,30.206451
"1380",78.80492,30.219788
"1381",79.00023,30.233124
"1382",79.344475,30.24646
"1383",79.83765,30.259796
"1384",80.45289,30.273132
"1385",81.11696,30.286469
"1386",81.739525,30.299805
"1387",82.25468,30.31314
"1388",82.61845,30.326477
"1389",82.82353,30.339813
"1390",82.882126,30.35315
"1391",82.83574,30.366486
"1392",82.7161,30.379822
"1393",82.564735,30.393158
"1394",82.408485,30.406494
"1395",82.25956,30.41983
"1396",82.125275,30.433167
"1397",81.99832,30.446503
"1398",81.85916,30.459839
"1399",81.70046,30.473175
"1400",81.52224,30.486511
"1401",81.324486,30.499847
"1402",81.126724,30.513184
"1403",80.95094,30.52652
"1404",80.80934,30.539856
"1405",80.709236,30.553192
"1406",80.6482,30.566528
"1407",80.61646,30.579865
"1408",80.59937,30.5932
"1409",80.58228,30.606537
"1410",80.55787,30.619873
"1411",80.52369,30.63321
"1412",80.4773,30.646545
"1413",80.42115,30.659882
"1414",80.34791,30.673218
"1415",80.257576,30.686554
"1416",80.14282,30.69989
"1417",80.0061,30.713226
"1418",79.85474,30.726562
"1419",79.69848,30.739899
"1420",79.54711,30.753235
"1421",79.412834,30.766571
"1422",79.31274,30.779907
"1423",79.24437,30.793243
"1424",79.200424,30.80658
"1425",79.17845,30.819916
"1426",79.15892,30.833252
"1427",79.12962,30.846588
"1428",79.080795,30.859924
"1429",79.01732,30.87326
"1430",78.941635,30.886597
"1431",78.86351,30.899933
"1432",78.78783,30.913269
"1433",78.72434,30.926605
"1434",78.67063,30.939941
"1435",78.63157,30.953278
"1436",78.60471,30.966614
"1437",78.58274,30.97995
"1438",78.55833,30.993286
"1439",78.53391,31.006622
"1440",78.51194,31.019958
"1441",78.48997,31.033295
"1442",78.470436,31.04663
"1443",78.46311,31.059967
"1444",78.467995,31.073303
"1445",78.4802,31.08664
"1446",78.504616,31.099976
"1447",78.53147,31.113312
"1448",78.55833,31.126648
"1449",78.57786,31.139984
"1450",78.59251,31.15332
"1451",78.59739,31.166656
"1452",78.59495,31.179993
"1453",78.58762,31.193329
"1454",78.57542,31.206665
"1455",78.56321,31.220001
"1456",78.55833,31.233337
"1457",78.56077,31.246674
"1458",78.59251,31.26001
"1459",78.68528,31.273346
"1460",78.87572,31.286682
"1461",79.19554,31.300018
"1462",79.65942,31.313354
"1463",80.24292,31.32669
"1464",80.88258,31.340027
"1465",81.50515,31.353363
"1466",82.04715,31.3667
"1467",82.45731,31.380035
"1468",82.720985,31.393372
"1469",82.85039,31.406708
"1470",82.8748,31.420044
"1471",82.82597,31.43338
"1472",82.738075,31.446716
"1473",82.63798,31.460052
"1474",82.54032,31.473389
"1475",82.45243,31.486725
"1476",82.36454,31.500061
"1477",82.269325,31.513397
"1478",82.14969,31.526733
"1479",81.99344,31.54007
"1480",81.80545,31.553406
"1481",81.59304,31.566742
"1482",81.375755,31.580078
"1483",81.180435,31.593414
"1484",81.024185,31.60675
"1485",80.91188,31.620087
"1486",80.83864,31.633423
"1487",80.797134,31.646759
"1488",80.77028,31.660095
"1489",80.740974,31.673431
"1490",80.69947,31.686768
"1491",80.638435,31.700104
"1492",80.55543,31.71344
"1493",80.45289,31.726776
"1494",80.34547,31.740112
"1495",80.233154,31.753448
"1496",80.12329,31.766785
"1497",80.01831,31.78012
"1498",79.90845,31.793457
"1499",79.798584,31.806793
"1500",79.68139,31.82013
"1501",79.5642,31.833466
"1502",79.45678,31.846802
"1503",79.36645,31.860138
"1504",79.290764,31.873474
"1505",79.22728,31.88681
"1506",79.17601,31.900146
"1507",79.12718,31.913483
"1508",79.08324,31.926819
"1509",79.03929,31.940155
"1510",79.00023,31.953491
"1511",78.95384,31.966827
"1512",78.9099,31.980164
"1513",78.86351,31.9935
"1514",78.81712,32.006836
"1515",78.7805,32.020172
"1516",78.75609,32.03351
"1517",78.73655,32.046844
"1518",78.71702,32.06018
"1519",78.69993,32.073517
"1520",78.68284,32.086853
"1521",78.66331,32.10019
"1522",78.64622,32.113525
"1523",78.63401,32.12686
"1524",78.624245,32.140198
"1525",78.61692,32.153534
"1526",78.61936,32.16687
"1527",78.626686,32.180206
"1528",78.63401,32.193542
"1529",78.641335,32.20688
"1530",78.64622,32.220215
"1531",78.6511,32.23355
"1532",78.65598,32.246887
"1533",78.66575,32.260223
"1534",78.68772,32.27356
"1535",78.71702,32.286896
"1536",78.751205,32.300232
"1537",78.78783,32.31357
"1538",78.82445,32.326904
"1539",78.85863,32.34024
"1540",78.89769,32.353577
"1541",78.941635,32.366913
"1542",79.00023,32.38025
"1543",79.10521,32.393585
"1544",79.28344,32.40692
"1545",79.5642,32.420258
"1546",79.95972,32.433594
"1547",80.465096,32.44693
"1548",81.03639,32.460266
"1549",81.60769,32.473602
"1550",82.125275,32.48694
"1551",82.530556,32.500275
"1552",82.79912,32.51361
"1553",82.930954,32.526947
"1554",82.95781,32.540283
"1555",82.90654,32.55362
"1556",82.81865,32.566956
"1557",82.72343,32.58029
"1558",82.63798,32.593628
"1559",82.56718,32.606964
"1560",82.513466,32.6203
"1561",82.46464,32.633636
"1562",82.406044,32.646973
"1563",82.320595,32.66031
"1564",82.2034,32.673645
"1565",82.04715,32.68698
"1566",81.864044,32.700317
"1567",81.668724,32.713654
"1568",81.48562,32.72699
"1569",81.33669,32.740326
"1570",81.23659,32.753662
"1571",81.180435,32.767
"1572",81.163345,32.780334
"1573",81.16579,32.79367
"1574",81.16579,32.807007
"1575",81.13405,32.820343
"1576",81.058365,32.83368
"1577",80.938736,32.847015
"1578",80.78493,32.86035
"1579",80.60914,32.873688
"1580",80.43824,32.887024
"1581",80.27711,32.90036
"1582",80.13794,32.913696
"1583",80.01587,32.927032
"1584",79.91089,32.94037
"1585",79.81079,32.953705
"1586",79.710686,32.96704
"1587",79.605705,32.980377
"1588",79.49584,32.993713
"1589",79.39086,33.00705
"1590",79.30541,33.020386
"1591",79.24437,33.033722
"1592",79.21019,33.04706
"1593",79.19066,33.060394
"1594",79.17357,33.07373
"1595",79.15648,33.087067
"1596",79.13451,33.100403
"1597",79.11253,33.11374
"1598",79.093,33.127075
"1599",79.080795,33.14041
"1600",79.06859,33.153748
"1601",79.06615,33.167084
"1602",79.06859,33.18042
"1603",79.07591,33.193756
"1604",79.08812,33.207092
"1605",79.10277,33.22043
"1606",79.10765,33.233765
"1607",79.10033,33.2471
"1608",79.06859,33.260437
"1609",79.01732,33.273773
"1610",78.94896,33.28711
"1611",78.870834,33.300446
"1612",78.79759,33.31378
"1613",78.74143,33.327118
"1614",78.70481,33.340454
"1615",78.692604,33.35379
"1616",78.69993,33.367126
"1617",78.72434,33.380463
"1618",78.76097,33.3938
"1619",78.80492,33.407135
"1620",78.84886,33.42047
"1621",78.8806,33.433807
"1622",78.89525,33.447144
"1623",78.89769,33.46048
"1624",78.887924,33.473816
"1625",78.86839,33.487152
"1626",78.84154,33.50049
"1627",78.82445,33.513824
"1628",78.84398,33.52716
"1629",78.93919,33.540497
"1630",79.149155,33.553833
"1631",79.50317,33.56717
"1632",80.00122,33.580505
"1633",80.604256,33.59384
"1634",81.248795,33.607178
"1635",81.866486,33.620514
"1636",82.39628,33.63385
"1637",82.80156,33.647186
"1638",83.06523,33.660522
"1639",83.194626,33.67386
"1640",83.22148,33.687195
"1641",83.17265,33.70053
"1642",83.087204,33.713867
"1643",82.98222,33.727203
"1644",82.87724,33.74054
"1645",82.77226,33.753876
"1646",82.66239,33.767212
"1647",82.530556,33.78055
"1648",82.3621,33.793884
"1649",82.15457,33.80722
"1650",81.91531,33.820557
"1651",81.66628,33.833893
"1652",81.43191,33.84723
"1653",81.23903,33.860565
"1654",81.10231,33.8739
"1655",81.01686,33.887238
"1656",80.970474,33.900574
"1657",80.94362,33.91391
"1658",80.91432,33.927246
"1659",80.867935,33.940582
"1660",80.79469,33.95392
"1661",80.689705,33.967255
"1662",80.552986,33.98059
"1663",80.396736,33.993927
"1664",80.22827,34.007263
"1665",80.05737,34.0206
"1666",79.89136,34.033936
"1667",79.73754,34.04727
"1668",79.586174,34.060608
"1669",79.44213,34.073944
"1670",79.30541,34.08728
"1671",79.18089,34.100616
"1672",79.07347,34.113953
"1673",78.98314,34.12729
"1674",78.9099,34.140625
"1675",78.853745,34.15396
"1676",78.80492,34.167297
"1677",78.76097,34.180634
"1678",78.712135,34.19397
"1679",78.66331,34.207306
"1680",78.61204,34.220642
"1681",78.55833,34.23398
"1682",78.504616,34.247314
"1683",78.45579,34.26065
"1684",78.41917,34.273987
"1685",78.38499,34.287323
"1686",78.36057,34.30066
"1687",78.34104,34.313995
"1688",78.328835,34.32733
"1689",78.32151,34.340668
"1690",78.31907,34.354004
"1691",78.32395,34.36734
"1692",78.328835,34.380676
"1693",78.33372,34.394012
"1694",78.34104,34.40735
"1695",78.345924,34.420685
"1696",78.35081,34.43402
"1697",78.35325,34.447357
"1698",78.348366,34.460693
"1699",78.33372,34.47403
"1700",78.31907,34.487366
"1701",78.32395,34.5007
"1702",78.38743,34.514038
"1703",78.538795,34.527374
"1704",78.8098,34.54071
"1705",79.200424,34.554047
"1706",79.691154,34.567383
"1707",80.22583,34.58072
"1708",80.75563,34.594055
"1709",81.21217,34.60739
"1710",81.5613,34.620728
"1711",81.7908,34.634064
"1712",81.91043,34.6474
"1713",81.93729,34.660736
"1714",81.90311,34.674072
"1715",81.83719,34.68741
"1716",81.74685,34.700745
"1717",81.636986,34.71408
"1718",81.50027,34.727417
"1719",81.32693,34.740753
"1720",81.11452,34.75409
"1721",80.88014,34.767426
"1722",80.64576,34.78076
"1723",80.45045,34.794098
"1724",80.31861,34.807434
"1725",80.26246,34.82077
"1726",80.26978,34.834106
"1727",80.31617,34.847443
"1728",80.37476,34.86078
"1729",80.41627,34.874115
"1730",80.42603,34.88745
"1731",80.396736,34.900787
"1732",80.33082,34.914124
"1733",80.233154,34.92746
"1734",80.11841,34.940796
"1735",79.99878,34.954132
"1736",79.88403,34.96747
"1737",79.77417,34.980804
"1738",79.66918,34.99414
"1739",79.56664,35.007477
"1740",79.4641,35.020813
"1741",79.35912,35.03415
"1742",79.2517,35.047485
"1743",79.15648,35.06082
"1744",79.07103,35.074158
"1745",79.00511,35.087494
"1746",78.958725,35.10083
"1747",78.93187,35.114166
"1748",78.922104,35.127502
"1749",78.922104,35.14084
"1750",78.92699,35.154175
"1751",78.924545,35.16751
"1752",78.91722,35.180847
"1753",78.89769,35.194183
"1754",78.870834,35.20752
"1755",78.84398,35.220856
"1756",78.81468,35.23419
"1757",78.79271,35.247528
"1758",78.7805,35.260864
"1759",78.768295,35.2742
"1760",78.746315,35.287537
"1761",78.71946,35.300873
"1762",78.68284,35.31421
"1763",78.63645,35.327545
"1764",78.590065,35.34088
"1765",78.551,35.354218
"1766",78.52415,35.367554
"1767",78.5095,35.38089
"1768",78.502174,35.394226
"1769",78.49241,35.407562
"1770",78.47532,35.4209
"1771",78.44846,35.434235
"1772",78.41184,35.44757
"1773",78.37034,35.460907
"1774",78.34104,35.474243
"1775",78.34104,35.48758
"1776",78.56321,35.51425
"1777",78.853745,35.527588
"1778",79.28344,35.540924
"1779",79.83032,35.55426
"1780",80.445564,35.567596
"1781",81.06325,35.580933
"1782",81.619896,35.59427
"1783",82.06912,35.607605
"1784",82.39628,35.62094
"1785",82.60136,35.634277
"1786",82.703896,35.647614
"1787",82.72831,35.66095
"1788",82.69901,35.674286
"1789",82.63798,35.687622
"1790",82.562294,35.70096
"1791",82.47929,35.714294
"1792",82.391396,35.72763
"1793",82.30106,35.740967
"1794",82.193634,35.754303
"1795",82.06912,35.76764
"1796",81.917755,35.780975
"1797",81.74441,35.79431
"1798",81.5613,35.807648
"1799",81.38308,35.820984
"1800",81.22438,35.83432
"1801",81.09987,35.847656
"1802",81.01198,35.860992
"1803",80.96071,35.87433
"1804",80.936295,35.887665
"1805",80.921646,35.901
"1806",80.907,35.914337
"1807",80.88258,35.927673
"1808",80.833755,35.94101
"1809",80.762955,35.954346
"1810",80.672615,35.96768
"1811",80.567635,35.981018
"1812",80.45533,35.994354
"1813",80.343025,36.00769
"1814",80.24536,36.021027
"1815",80.16235,36.034363
"1816",80.096436,36.0477
"1817",80.04761,36.061035
"1818",80.01343,36.07437
"1819",79.97681,36.087708
"1820",79.93286,36.101044
"1821",79.87671,36.11438
"1822",79.80347,36.127716
"1823",79.71801,36.141052
"1824",79.62035,36.15439
"1825",79.5227,36.167725
"1826",79.429924,36.18106
"1827",79.344475,36.194397
"1828",79.26635,36.207733
"1829",79.19554,36.22107
"1830",79.12962,36.234406
"1831",79.061264,36.24774
"1832",78.995346,36.261078
"1833",78.92699,36.274414
"1834",78.853745,36.28775
"1835",78.785385,36.301086
"1836",78.7219,36.314423
"1837",78.66331,36.32776
"1838",78.61448,36.341095
"1839",78.5803,36.35443
"1840",78.555885,36.367767
"1841",78.54368,36.381104
"1842",78.53391,36.39444
"1843",78.52659,36.407776
"1844",78.519264,36.421112
"1845",78.5095,36.43445
"1846",78.49973,36.447784
"1847",78.49241,36.46112
"1848",78.49485,36.474457
"1849",78.51194,36.487793
"1850",78.555885,36.50113
"1851",78.64622,36.514465
"1852",78.819565,36.5278
"1853",79.10277,36.541138
"1854",79.50317,36.554474
"1855",80.01099,36.56781
"1856",80.587166,36.581146
"1857",81.17555,36.594482
"1858",81.71755,36.60782
"1859",82.16678,36.621155
"1860",82.493935,36.63449
"1861",82.69657,36.647827
"1862",82.791794,36.661163
"1863",82.804,36.6745
"1864",82.76738,36.687836
"1865",82.70878,36.70117
"1866",82.650185,36.714508
"1867",82.59647,36.727844
"1868",82.55009,36.74118
"1869",82.496376,36.754517
"1870",82.423134,36.767853
"1871",82.31327,36.78119
"1872",82.15701,36.794525
"1873",81.95682,36.80786
"1874",81.722435,36.821198
"1875",81.48318,36.834534
"1876",81.26101,36.84787
"1877",81.08522,36.861206
"1878",80.96315,36.874542
"1879",80.89235,36.88788
"1880",80.86549,36.901215
"1881",80.85817,36.91455
"1882",80.84596,36.927887
"1883",80.81178,36.941223
"1884",80.7483,36.95456
"1885",80.64332,36.967896
"1886",80.50904,36.98123
"1887",80.35767,36.994568
"1888",80.2063,37.007904
"1889",80.05737,37.02124
"1890",79.91821,37.034576
"1891",79.79126,37.047913
"1892",79.67162,37.06125
"1893",79.551994,37.074585
"1894",79.43481,37.08792
"1895",79.31762,37.101257
"1896",79.202866,37.114594
"1897",79.09056,37.12793
"1898",78.992905,37.141266
"1899",78.9099,37.154602
"1900",78.84642,37.16794
"1901",78.79759,37.181274
"1902",78.75853,37.19461
"1903",78.71458,37.207947
"1904",78.660866,37.221283
"1905",78.60227,37.23462
"1906",78.538795,37.247955
"1907",78.47288,37.26129
"1908",78.4094,37.274628
"1909",78.35813,37.287964
"1910",78.311745,37.3013
"1911",78.27512,37.314636
"1912",78.25315,37.327972
"1913",78.238495,37.34131
"1914",78.22385,37.354645
"1915",78.2092,37.36798
"1916",78.18967,37.381317
"1917",78.16525,37.394653
"1918",78.14328,37.40799
"1919",78.12131,37.421326
"1920",78.11154,37.43466
"1921",78.116425,37.447998
"1922",78.12619,37.461334
"1923",78.1384,37.47467
"1924",78.14816,37.488007
"1925",78.14816,37.501343
"1926",78.14328,37.51468
"1927",78.1384,37.528015
"1928",78.1384,37.54135
"1929",78.14084,37.554688
"1930",78.153046,37.568024
"1931",78.170135,37.58136
"1932",78.187225,37.594696
"1933",78.204315,37.608032
"1934",78.221405,37.62137
"1935",78.238495,37.634705
"1936",78.25315,37.64804
"1937",78.26292,37.661377
"1938",78.27512,37.674713
"1939",78.30442,37.68805
"1940",78.37034,37.701385
"1941",78.51194,37.71472
"1942",78.765854,37.728058
"1943",79.151596,37.741394
"1944",79.656975,37.75473
"1945",80.24536,37.768066
"1946",80.85817,37.781403
"1947",81.427025,37.79474
"1948",81.90311,37.808075
"1949",82.25712,37.82141
"1950",82.49149,37.834747
"1951",82.62577,37.848083
"1952",82.69169,37.86142
"1953",82.71366,37.874756
"1954",82.73075,37.888092
"1955",82.75273,37.90143
"1956",82.78203,37.914764
"1957",82.82109,37.9281
"1958",82.85283,37.941437
"1959",82.86015,37.954773
"1960",82.83086,37.96811
"1961",82.74784,37.981445
"1962",82.61112,37.99478
"1963",82.42802,38.008118
"1964",82.21805,38.021454
"1965",82.005646,38.03479
"1966",81.81766,38.048126
"1967",81.66384,38.061462
"1968",81.5613,38.0748
"1969",81.50271,38.088135
"1970",81.480736,38.10147
"1971",81.478294,38.114807
"1972",81.48318,38.128143
"1973",81.480736,38.14148
"1974",81.45632,38.154816
"1975",81.40505,38.16815
"1976",81.32937,38.181488
"1977",81.22926,38.194824
"1978",81.11452,38.20816
"1979",80.990005,38.221497
"1980",80.867935,38.234833
"1981",80.75075,38.24817
"1982",80.638435,38.261505
"1983",80.533455,38.27484
"1984",80.430916,38.288177
"1985",80.33326,38.301514
"1986",80.24292,38.31485
"1987",80.15991,38.328186
"1988",80.079346,38.341522
"1989",80.00366,38.35486
"1990",79.93286,38.368195
"1991",79.86206,38.38153
"1992",79.7937,38.394867
"1993",79.73022,38.408203
"1994",79.67162,38.42154
"1995",79.605705,38.434875
"1996",79.534904,38.44821
"1997",79.45678,38.461548
"1998",79.36889,38.474884
"1999",79.273674,38.48822
"2000",79.17601,38.501556
"2001",79.080795,38.514893
"2002",78.992905,38.52823
"2003",78.9099,38.541565
"2004",78.83421,38.5549
"2005",78.76341,38.568237
"2006",78.69993,38.581573
"2007",78.63889,38.59491
"2008",78.57786,38.608246
"2009",78.519264,38.621582
"2010",78.46067,38.63492
"2011",78.40208,38.648254
"2012",78.34348,38.66159
"2013",78.29221,38.674927
"2014",78.24338,38.688263
"2015",78.20676,38.7016
"2016",78.17746,38.714935
"2017",78.15549,38.72827
"2018",78.14084,38.741608
"2019",78.12863,38.754944
"2020",78.12131,38.76828
"2021",78.116425,38.781616
"2022",78.11154,38.794952
"2023",78.10666,38.80829
"2024",78.10666,38.821625
"2025",78.10666,38.83496
"2026",78.11154,38.848297
"2027",78.116425,38.861633
"2028",78.12619,38.87497
"2029",78.14084,38.888306
"2030",78.16525,38.90164
"2031",78.19699,38.914978
"2032",78.24338,38.928314
"2033",78.30198,38.94165
"2034",78.37034,38.954987
"2035",78.44846,38.968323
"2036",78.52659,38.98166
"2037",78.590065,38.994995
"2038",78.63157,39.00833
"2039",78.643776,39.021667
"2040",78.6218,39.035004
"2041",78.58518,39.04834
"2042",78.56077,39.061676
"2043",78.590065,39.075012
"2044",78.7219,39.08835
"2045",78.992905,39.101685
"2046",79.40307,39.11502
"2047",79.9353,39.128357
"2048",80.52857,39.141693
"2049",81.1194,39.15503
"2050",81.64919,39.168365
"2051",82.07645,39.1817
"2052",82.38651,39.195038
"2053",82.598915,39.208374
"2054",82.72587,39.22171
"2055",82.80156,39.235046
"2056",82.85527,39.248383
"2057",82.9041,39.26172
"2058",82.96025,39.275055
"2059",83.02617,39.28839
"2060",83.09941,39.301727
"2061",83.17265,39.315063
"2062",83.226364,39.3284
"2063",83.24834,39.341736
"2064",83.22392,39.355072
"2065",83.15068,39.36841
"2066",83.03105,39.381744
"2067",82.88457,39.39508
"2068",82.72587,39.408417
"2069",82.56962,39.421753
"2070",82.425575,39.43509
"2071",82.303505,39.448425
"2072",82.20096,39.46176
"2073",82.12039,39.475098
"2074",82.04715,39.488434
"2075",81.971466,39.50177
"2076",81.87869,39.515106
"2077",81.75906,39.528442
"2078",81.602806,39.54178
"2079",81.42214,39.555115
"2080",81.22194,39.56845
"2081",81.01442,39.581787
"2082",80.80446,39.595123
"2083",80.6067,39.60846
"2084",80.430916,39.621796
"2085",80.27711,39.63513
"2086",80.15015,39.648468
"2087",80.042725,39.661804
"2088",79.94263,39.67514
"2089",79.84985,39.688477
"2090",79.75708,39.701813
"2091",79.66918,39.71515
"2092",79.588615,39.728485
"2093",79.520256,39.74182
"2094",79.47143,39.755157
"2095",79.432365,39.768494
"2096",79.40795,39.78183
"2097",79.38598,39.795166
"2098",79.36645,39.808502
"2099",79.33959,39.82184
"2100",79.29809,39.835175
"2101",79.23216,39.84851
"2102",79.14427,39.861847
"2103",79.04173,39.875183
"2104",78.92699,39.88852
"2105",78.80492,39.901855
"2106",78.692604,39.91519
"2107",78.58762,39.928528
"2108",78.49973,39.941864
"2109",78.42893,39.9552
"2110",78.37278,39.968536
"2111",78.328835,39.981873
"2112",78.2971,39.99521
"2113",78.28245,40.008545
"2114",78.28489,40.02188
"2115",78.30198,40.035217
"2116",78.32639,40.048553
"2117",78.35325,40.06189
"2118",78.37034,40.075226
"2119",78.380104,40.088562
"2120",78.380104,40.1019
"2121",78.37034,40.115234
"2122",78.363014,40.12857
"2123",78.36057,40.141907
"2124",78.36057,40.155243
"2125",78.37278,40.16858
"2126",78.40208,40.181915
"2127",78.43626,40.19525
"2128",78.47288,40.208588
"2129",78.50706,40.221924
"2130",78.52659,40.23526
"2131",78.53147,40.248596
"2132",78.519264,40.261932
"2133",78.49485,40.27527
"2134",78.467995,40.288605
"2135",78.45335,40.30194
"2136",78.46311,40.315277
"2137",78.519264,40.328613
"2138",78.643776,40.34195
"2139",78.85863,40.355286
"2140",79.18089,40.36862
"2141",79.605705,40.381958
"2142",80.11841,40.395294
"2143",80.67994,40.40863
"2144",81.23659,40.421967
"2145",81.739525,40.435303
"2146",82.161896,40.44864
"2147",82.47929,40.461975
"2148",82.69169,40.47531
"2149",82.80888,40.488647
"2150",82.85283,40.501984
"2151",82.84062,40.51532
"2152",82.791794,40.528656
"2153",82.735634,40.541992
"2154",82.6746,40.55533
"2155",82.61356,40.568665
"2156",82.55009,40.582
"2157",82.46952,40.595337
"2158",82.36454,40.608673
"2159",82.22537,40.62201
"2160",82.06424,40.635345
"2161",81.88846,40.64868
"2162",81.71999,40.662018
"2163",81.57107,40.675354
"2164",81.45144,40.68869
"2165",81.36599,40.702026
"2166",81.307396,40.715363
"2167",81.27322,40.7287
"2168",81.248795,40.742035
"2169",81.21706,40.75537
"2170",81.163345,40.768707
"2171",81.08278,40.782043
"2172",80.96559,40.79538
"2173",80.81911,40.808716
"2174",80.66285,40.822052
"2175",80.50172,40.83539
"2176",80.35279,40.848724
"2177",80.216064,40.86206
"2178",80.10132,40.875397
"2179",79.9939,40.888733
"2180",79.89136,40.90207
"2181",79.783936,40.915405
"2182",79.66918,40.92874
"2183",79.54955,40.942078
"2184",79.43969,40.955414
"2185",79.33959,40.96875
"2186",79.256584,40.982086
"2187",79.1931,40.995422
"2188",79.14183,41.00876
"2189",79.09544,41.022095
"2190",79.05394,41.03543
"2191",79.00755,41.048767
"2192",78.9514,41.062103
"2193",78.88304,41.07544
"2194",78.79759,41.088776
"2195",78.69993,41.10211
"2196",78.59983,41.115448
"2197",78.5095,41.128784
"2198",78.433815,41.14212
"2199",78.37522,41.155457
"2200",78.33616,41.168793
"2201",78.30442,41.18213
"2202",78.27268,41.195465
"2203",78.238495,41.2088
"2204",78.20187,41.222137
"2205",78.16281,41.235474
"2206",78.12619,41.24881
"2207",78.10422,41.262146
"2208",78.09689,41.275482
"2209",78.10666,41.28882
"2210",78.12619,41.302155
"2211",78.14816,41.31549
"2212",78.167694,41.328827
"2213",78.17258,41.342163
"2214",78.170135,41.3555
"2215",78.15549,41.368835
"2216",78.14572,41.38217
"2217",78.1384,41.395508
"2218",78.14816,41.408844
"2219",78.17258,41.42218
"2220",78.2092,41.435516
"2221",78.24582,41.448853
"2222",78.27024,41.46219
"2223",78.27268,41.475525
"2224",78.260475,41.48886
"2225",78.23605,41.502197
"2226",78.2092,41.515533
"2227",78.187225,41.52887
"2228",78.17746,41.542206
"2229",78.17502,41.555542
"2230",78.18234,41.56888
"2231",78.20187,41.582214
"2232",78.23361,41.59555
"2233",78.27268,41.608887
"2234",78.32639,41.622223
"2235",78.40208,41.63556
"2236",78.53147,41.648895
"2237",78.75609,41.66223
"2238",79.10521,41.675568
"2239",79.588615,41.688904
"2240",80.18677,41.70224
"2241",80.84596,41.715576
"2242",81.50759,41.728912
"2243",82.09598,41.74225
"2244",82.56962,41.755585
"2245",82.90654,41.76892
"2246",83.11162,41.782257
"2247",83.21416,41.795593
"2248",83.245895,41.80893
"2249",83.25567,41.822266
"2250",83.26299,41.8356
"2251",83.28741,41.848938
"2252",83.32891,41.862274
"2253",83.38018,41.87561
"2254",83.4168,41.888947
"2255",83.424126,41.902283
"2256",83.372856,41.91562
"2257",83.26299,41.928955
"2258",83.09453,41.94229
"2259",82.88945,41.955627
"2260",82.67948,41.968964
"2261",82.49149,41.9823
"2262",82.337685,41.995636
"2263",82.22049,42.008972
"2264",82.13016,42.02231
"2265",82.05203,42.035645
"2266",81.96658,42.04898
"2267",81.87137,42.062317
"2268",81.761505,42.075653
"2269",81.64187,42.08899
"2270",81.50759,42.102325
"2271",81.36355,42.11566
"2272",81.2195,42.128998
"2273",81.06813,42.142334
"2274",80.91188,42.15567
"2275",80.7483,42.169006
"2276",80.57984,42.182343
"2277",80.411385,42.19568
"2278",80.24536,42.209015
"2279",80.08667,42.22235
"2280",79.94507,42.235687
"2281",79.823,42.249023
"2282",79.71313,42.26236
"2283",79.61791,42.275696
"2284",79.53002,42.289032
"2285",79.449455,42.30237
"2286",79.36889,42.315704
"2287",79.28588,42.32904
"2288",79.19798,42.342377
"2289",79.10277,42.355713
"2290",79.00511,42.36905
"2291",78.91478,42.382385
"2292",78.83421,42.39572
"2293",78.77074,42.409058
"2294",78.72434,42.422394
"2295",78.68772,42.43573
"2296",78.6511,42.449066
"2297",78.61204,42.462402
"2298",78.57053,42.47574
"2299",78.52659,42.489075
"2300",78.47532,42.50241
"2301",78.42893,42.515747
"2302",78.38499,42.529083
"2303",78.35081,42.54242
"2304",78.32639,42.555756
"2305",78.314186,42.56909
"2306",78.31663,42.582428
"2307",78.31907,42.595764
"2308",78.32395,42.6091
"2309",78.32395,42.622437
"2310",78.32151,42.635773
"2311",78.3093,42.64911
"2312",78.30198,42.662445
"2313",78.2971,42.67578
"2314",78.29221,42.689117
"2315",78.28733,42.702454
"2316",78.28489,42.71579
"2317",78.28245,42.729126
"2318",78.28245,42.742462
"2319",78.28245,42.7558
"2320",78.28489,42.769135
"2321",78.28733,42.78247
"2322",78.28489,42.795807
"2323",78.277565,42.809143
"2324",78.27268,42.82248
"2325",78.27512,42.835815
"2326",78.28245,42.84915
"2327",78.29221,42.862488
"2328",78.29954,42.875824
"2329",78.30686,42.88916
"2330",78.32151,42.902496
"2331",78.37522,42.915833
"2332",78.49973,42.92917
"2333",78.73655,42.942505
"2334",79.11009,42.95584
"2335",79.622795,42.969177
"2336",80.2478,42.982513
"2337",80.92897,42.99585
"2338",81.600365,43.009186
"2339",82.20096,43.022522
"2340",82.684364,43.03586
"2341",83.03105,43.049194
"2342",83.250786,43.06253
"2343",83.36309,43.075867
"2344",83.39727,43.089203
"2345",83.389946,43.10254
"2346",83.372856,43.115875
"2347",83.36309,43.12921
"2348",83.36553,43.142548
"2349",83.36797,43.155884
"2350",83.346,43.16922
"2351",83.28741,43.182556
"2352",83.175095,43.195892
"2353",83.01152,43.20923
"2354",82.81377,43.222565
"2355",82.60136,43.2359
"2356",82.39872,43.249237
"2357",82.21805,43.262573
"2358",82.06912,43.27591
"2359",81.94949,43.289246
"2360",81.85916,43.30258
"2361",81.78592,43.315918
"2362",81.71755,43.329254
"2363",81.64187,43.34259
"2364",81.549095,43.355927
"2365",81.43191,43.369263
"2366",81.29275,43.3826
"2367",81.13161,43.395935
"2368",80.96315,43.40927
"2369",80.78981,43.422607
"2370",80.62379,43.435944
"2371",80.465096,43.44928
"2372",80.31129,43.462616
"2373",80.16235,43.475952
"2374",80.01831,43.48929
"2375",79.88159,43.502625
"2376",79.75464,43.51596
"2377",79.64965,43.529297
"2378",79.55932,43.542633
"2379",79.483635,43.55597
"2380",79.412834,43.569305
"2381",79.34692,43.58264
"2382",79.276115,43.595978
"2383",79.200424,43.609314
"2384",79.12718,43.62265
"2385",79.05394,43.635986
"2386",78.98802,43.649323
"2387",78.92943,43.66266
"2388",78.87816,43.675995
"2389",78.82445,43.68933
"2390",78.768295,43.702667
"2391",78.709694,43.716003
"2392",78.64622,43.72934
"2393",78.58274,43.742676
"2394",78.519264,43.756012
"2395",78.46311,43.76935
"2396",78.40696,43.782684
"2397",78.35813,43.79602
"2398",78.314186,43.809357
"2399",78.277565,43.822693
"2400",78.24582,43.83603
"2401",78.21896,43.849365
"2402",78.19455,43.8627
"2403",78.17502,43.876038
"2404",78.15793,43.889374
"2405",78.14816,43.90271
"2406",78.14084,43.916046
"2407",78.14084,43.929382
"2408",78.14816,43.94272
"2409",78.15793,43.956055
"2410",78.170135,43.96939
"2411",78.187225,43.982727
"2412",78.20676,43.996063
"2413",78.221405,44.0094
"2414",78.23605,44.022736
"2415",78.24338,44.03607
"2416",78.25559,44.049408
"2417",78.25803,44.062744
"2418",78.260475,44.07608
"2419",78.260475,44.089417
"2420",78.25315,44.102753
"2421",78.23605,44.11609
"2422",78.21896,44.129425
"2423",78.20187,44.14276
"2424",78.21408,44.156097
"2425",78.28733,44.169434
"2426",78.467995,44.18277
"2427",78.785385,44.196106
"2428",79.256584,44.209442
"2429",79.85718,44.22278
"2430",80.54566,44.236115
"2431",81.25124,44.24945
"2432",81.91043,44.262787
"2433",82.47196,44.276123
"2434",82.90654,44.28946
"2435",83.20683,44.302795
"2436",83.39239,44.31613
"2437",83.49004,44.329468
"2438",83.53155,44.342804
"2439",83.55352,44.35614
"2440",83.577934,44.369476
"2441",83.60723,44.382812
"2442",83.64629,44.39615
"2443",83.68047,44.409485
"2444",83.69512,44.42282
"2445",83.67071,44.436157
"2446",83.597466,44.449493
"2447",83.46563,44.46283
"2448",83.282524,44.476166
"2449",83.06767,44.489502
"2450",82.845505,44.50284
"2451",82.63554,44.516174
"2452",82.45487,44.52951
"2453",82.30595,44.542847
"2454",82.19119,44.556183
"2455",82.09598,44.56952
"2456",82.01297,44.582855
"2457",81.92752,44.59619
"2458",81.832306,44.609528
"2459",81.71023,44.622864
"2460",81.5613,44.6362
"2461",81.38308,44.649536
"2462",81.18288,44.662872
"2463",80.96559,44.67621
"2464",80.75319,44.689545
"2465",80.5481,44.70288
"2466",80.365,44.716217
"2467",80.2063,44.729553
"2468",80.06714,44.74289
"2469",79.940186,44.756226
"2470",79.82056,44.76956
"2471",79.693596,44.782898
"2472",79.5642,44.796234
"2473",79.429924,44.80957
"2474",79.29565,44.822906
"2475",79.17113,44.836243
"2476",79.06615,44.84958
"2477",78.975815,44.862915
"2478",78.90013,44.87625
"2479",78.836655,44.889587
"2480",78.77562,44.902924
"2481",78.70481,44.91626
"2482",78.63157,44.929596
"2483",78.551,44.942932
"2484",78.470436,44.95627
"2485",78.39231,44.969604
"2486",78.31907,44.98294
"2487",78.25803,44.996277
"2488",78.20187,45.009613
"2489",78.150604,45.02295
"2490",78.1091,45.036285
"2491",78.07004,45.04962
"2492",78.028534,45.062958
"2493",77.98215,45.076294
"2494",77.9382,45.08963
"2495",77.88693,45.102966
"2496",77.838104,45.116302
"2497",77.7966,45.12964
"2498",77.7673,45.142975
"2499",77.75021,45.15631
"2500",77.738,45.169647
"2501",77.733116,45.182983
"2502",77.73556,45.19632
"2503",77.74044,45.209656
"2504",77.74288,45.222992
"2505",77.74532,45.23633
"2506",77.75021,45.249664
"2507",77.75021,45.263
"2508",77.75021,45.276337
"2509",77.752655,45.289673
"2510",77.7673,45.30301
"2511",77.786835,45.316345
"2512",77.80881,45.32968
"2513",77.83566,45.343018
"2514",77.86252,45.356354
"2515",77.88205,45.36969
"2516",77.8967,45.383026
"2517",77.908905,45.396362
"2518",77.92111,45.4097
"2519",77.93576,45.423035
"2520",77.97482,45.43637
"2521",78.06271,45.449707
"2522",78.238495,45.463043
"2523",79.52514,45.50305
"2524",80.18921,45.516388
"2525",80.89479,45.529724
"2526",81.57595,45.54306
"2527",82.176544,45.556396
"2528",82.65751,45.569733
"2529",82.99931,45.58307
"2530",83.209274,45.596405
"2531",83.30694,45.60974
"2532",83.32403,45.623077
"2533",83.28985,45.636414
"2534",83.23613,45.64975
"2535",83.17998,45.663086
"2536",83.123825,45.676422
"2537",83.06767,45.68976
"2538",83.001755,45.703094
"2539",82.91142,45.71643
"2540",82.794235,45.729767
"2541",82.64774,45.743103
"2542",82.48417,45.75644
"2543",82.31083,45.769775
"2544",82.14725,45.78311
"2545",82.003204,45.796448
"2546",81.89334,45.809784
"2547",81.81033,45.82312
"2548",81.75662,45.836456
"2549",81.71755,45.849792
"2550",81.671165,45.86313
"2551",81.60525,45.876465
"2552",81.51736,45.8898
"2553",81.40017,45.903137
"2554",81.26345,45.916473
"2555",81.112076,45.92981
"2556",80.9485,45.943146
"2557",80.7776,45.956482
"2558",80.61158,45.96982
"2559",80.45045,45.983154
"2560",80.29908,45.99649
"2561",80.16235,46.009827
"2562",80.0354,46.023163
"2563",79.91821,46.0365
"2564",79.801025,46.049835
"2565",79.68627,46.06317
"2566",79.569084,46.076508
"2567",79.4519,46.089844
"2568",79.34203,46.10318
"2569",79.24437,46.116516
"2570",79.151596,46.129852
"2571",79.07103,46.14319
"2572",78.99779,46.156525
"2573",78.92699,46.16986
"2574",78.853745,46.183197
"2575",78.77562,46.196533
"2576",78.69749,46.20987
"2577",78.6218,46.223206
"2578",78.54368,46.23654
"2579",78.47776,46.249878
"2580",78.42161,46.263214
"2581",78.382545,46.27655
"2582",78.34348,46.289886
"2583",78.30686,46.303223
"2584",78.2678,46.31656
"2585",78.22873,46.329895
"2586",78.18967,46.34323
"2587",78.15549,46.356567
"2588",78.13107,46.369904
"2589",78.116425,46.38324
"2590",78.10666,46.396576
"2591",78.10666,46.409912
"2592",78.11154,46.42325
"2593",78.12131,46.436584
"2594",78.13107,46.44992
"2595",78.14084,46.463257
"2596",78.14816,46.476593
"2597",78.15549,46.48993
"2598",78.16281,46.503265
"2599",78.17258,46.5166
"2600",78.18234,46.529938
"2601",78.19455,46.543274
"2602",78.19943,46.55661
"2603",78.19699,46.569946
"2604",78.19455,46.583282
"2605",78.19455,46.59662
"2606",78.204315,46.609955
"2607",78.24094,46.62329
"2608",78.538795,46.649963
"2609",78.86839,46.6633
"2610",79.35424,46.676636
"2611",79.98413,46.689972
"2612",80.71412,46.70331
"2613",81.478294,46.716644
"2614",82.20828,46.72998
"2615",82.845505,46.743317
"2616",83.35088,46.756653
"2617",83.70733,46.76999
"2618",83.929504,46.783325
"2619",84.04669,46.79666
"2620",84.09552,46.809998
"2621",84.11505,46.823334
"2622",84.13214,46.83667
"2623",84.16388,46.850006
"2624",84.207825,46.863342
"2625",84.25178,46.87668
"2626",84.27863,46.890015
"2627",84.266426,46.90335
"2628",84.19806,46.916687
"2629",84.071106,46.930023
"2630",83.88068,46.94336
"2631",83.65606,46.956696
"2632",83.4168,46.97003
"2633",83.192184,46.983368
"2634",83.001755,46.996704
"2635",82.85527,47.01004
"2636",82.74052,47.023376
"2637",82.652626,47.036713
"2638",82.5745,47.05005
"2639",82.493935,47.063385
"2640",82.39628,47.07672
"2641",82.27665,47.090057
"2642",82.125275,47.103394
"2643",81.93973,47.11673
"2644",81.72732,47.130066
"2645",81.49294,47.143402
"2646",81.25124,47.15674
"2647",81.004654,47.170074
"2648",80.76051,47.18341
"2649",80.53101,47.196747
"2650",80.308846,47.210083
"2651",80.10132,47.22342
"2652",79.91821,47.236755
"2653",79.75952,47.25009
"2654",79.622795,47.263428
"2655",79.50561,47.276764
"2656",79.40063,47.2901
"2657",79.29809,47.303436
"2658",79.19798,47.316772
"2659",79.10033,47.33011
"2660",79.00511,47.343445
"2661",78.91234,47.35678
"2662",78.82445,47.370117
"2663",78.73899,47.383453
"2664",78.65354,47.39679
"2665",78.56809,47.410126
"2666",78.487526,47.423462
"2667",78.40696,47.4368
"2668",78.32395,47.450134
"2669",78.22629,47.46347
"2670",78.12375,47.476807
"2671",78.01877,47.490143
"2672",77.91379,47.50348
"2673",77.81613,47.516815
"2674",77.730675,47.53015
"2675",77.65499,47.543488
"2676",77.58419,47.556824
"2677",77.51583,47.57016
"2678",77.44991,47.583496
"2679",77.38644,47.596832
"2680",77.330284,47.61017
"2681",77.281456,47.623505
"2682",77.24483,47.63684
"2683",77.21553,47.650177
"2684",77.19356,47.663513
"2685",77.171585,47.67685
"2686",77.15694,47.690186
"2687",77.14229,47.70352
"2688",77.13008,47.716858
"2689",77.11543,47.730194
"2690",77.10567,47.74353
"2691",77.09834,47.756866
"2692",77.09346,47.770203
"2693",77.10567,47.78354
"2694",77.14961,47.796875
"2695",77.25948,47.81021
"2696",77.47677,47.823547
"2697",77.840546,47.836884
"2698",78.35813,47.85022
"2699",79.012436,47.863556
"2700",79.75464,47.876892
"2701",80.51392,47.89023
"2702",81.21706,47.903564
"2703",81.81033,47.9169
"2704",82.26444,47.930237
"2705",82.5745,47.943573
"2706",82.760056,47.95691
"2707",82.845505,47.970245
"2708",82.86992,47.98358
"2709",82.86748,47.996918
"2710",82.865036,48.010254
"2711",82.86748,48.02359
"2712",82.87724,48.036926
"2713",82.88457,48.050262
"2714",82.86748,48.0636
"2715",82.80644,48.076935
"2716",82.684364,48.09027
"2717",82.50614,48.103607
"2718",82.29374,48.116943
"2719",82.06424,48.13028
"2720",81.84451,48.143616
"2721",81.651634,48.15695
"2722",81.50027,48.170288
"2723",81.38308,48.183624
"2724",81.29275,48.19696
"2725",81.214615,48.210297
"2726",81.13405,48.223633
"2727",81.02907,48.23697
"2728",80.89723,48.250305
"2729",80.73853,48.26364
"2730",80.55787,48.276978
"2731",80.36744,48.290314
"2732",80.177,48.30365
"2733",79.99878,48.316986
"2734",79.83276,48.330322
"2735",79.676506,48.34366
"2736",79.53002,48.356995
"2737",79.395744,48.37033
"2738",79.27856,48.383667
"2739",79.17845,48.397003
"2740",79.09544,48.41034
"2741",79.027084,48.423676
"2742",78.97093,48.43701
"2743",78.91478,48.450348
"2744",78.853745,48.463684
"2745",78.78783,48.47702
"2746",78.712135,48.490356
"2747",78.62913,48.503693
"2748",78.52415,48.51703
"2749",78.399635,48.530365
"2750",78.25315,48.5437
"2751",78.09201,48.557037
"2752",77.92355,48.570374
"2753",77.76486,48.58371
"2754",77.61837,48.597046
"2755",77.488976,48.610382
"2756",77.37179,48.62372
"2757",77.26925,48.637054
"2758",77.18379,48.65039
"2759",77.11543,48.663727
"2760",77.066605,48.677063
"2761",77.03731,48.6904
"2762",77.02266,48.703735
"2763",77.015335,48.71707
"2764",77.015335,48.730408
"2765",77.02998,48.743744
"2766",77.051956,48.75708
"2767",77.086136,48.770416
"2768",77.13252,48.783752
"2769",77.18135,48.79709
"2770",77.23262,48.810425
"2771",77.2839,48.82376
"2772",77.32296,48.837097
"2773",77.3547,48.850433
"2774",77.38155,48.86377
"2775",77.40353,48.877106
"2776",77.43038,48.89044
"2777",77.469444,48.903778
"2778",77.53292,48.917114
"2779",77.64767,48.93045
"2780",77.85275,48.943787
"2781",78.187225,48.957123
"2782",78.6804,48.97046
"2783",79.33227,48.983795
"2784",80.10864,48.99713
"2785",80.938736,49.010468
"2786",81.74685,49.023804
"2787",82.459755,49.03714
"2788",83.02861,49.050476
"2789",83.43145,49.063812
"2790",83.68047,49.07715
"2791",83.79523,49.090485
"2792",83.82208,49.10382
"2793",83.79767,49.117157
"2794",83.758606,49.130493
"2795",83.73174,49.14383
"2796",83.72198,49.157166
"2797",83.72442,49.1705
"2798",83.717094,49.183838
"2799",83.682915,49.197174
"2800",83.60235,49.21051
"2801",83.47784,49.223846
"2802",83.319145,49.237183
"2803",83.140915,49.25052
"2804",82.9749,49.263855
"2805",82.83574,49.27719
"2806",82.735634,49.290527
"2807",82.669716,49.303864
"2808",82.633095,49.3172
"2809",82.60624,49.330536
"2810",82.57694,49.343872
"2811",82.53788,49.35721
"2812",82.48661,49.370544
"2813",82.42069,49.38388
"2814",82.34257,49.397217
"2815",82.2449,49.410553
"2816",82.11795,49.42389
"2817",81.95926,49.437225
"2818",81.761505,49.45056
"2819",81.529564,49.463898
"2820",81.27322,49.477234
"2821",81.01198,49.49057
"2822",80.75563,49.503906
"2823",80.50904,49.517242
"2824",80.27711,49.53058
"2825",80.05737,49.543915
"2826",79.85718,49.55725
"2827",79.674065,49.570587
"2828",79.50561,49.583923
"2829",79.35424,49.59726
"2830",79.20775,49.610596
"2831",79.06615,49.62393
"2832",78.93187,49.637268
"2833",78.81468,49.650604
"2834",78.71702,49.66394
"2835",78.641335,49.677277
"2836",78.58274,49.690613
"2837",78.521706,49.70395
"2838",78.45335,49.717285
"2839",78.37034,49.73062
"2840",78.27268,49.743958
"2841",78.167694,49.757294
"2842",78.0676,49.77063
"2843",77.97482,49.783966
"2844",77.88937,49.797302
"2845",77.81369,49.81064
"2846",77.752655,49.823975
"2847",77.696495,49.83731
"2848",77.65499,49.850647
"2849",77.62325,49.863983
"2850",77.5964,49.87732
"2851",77.576866,49.890656
"2852",77.55978,49.90399
"2853",77.5378,49.917328
"2854",77.51095,49.930664
"2855",77.48409,49.944
"2856",77.46212,49.957336
"2857",77.44991,49.970673
"2858",77.454796,49.98401
"2859",77.49386,49.997345
"2860",77.591515,50.01068
"2861",77.78439,50.024017
"2862",78.10666,50.037354
"2863",78.5803,50.05069
"2864",79.19066,50.064026
"2865",79.89624,50.077362
"2866",80.62623,50.0907
"2867",81.31472,50.104034
"2868",81.90311,50.11737
"2869",82.3621,50.130707
"2870",82.67948,50.144043
"2871",82.86748,50.15738
"2872",82.950485,50.170715
"2873",82.95781,50.18405
"2874",82.92119,50.197388
"2875",82.86992,50.210724
"2876",82.82353,50.22406
"2877",82.80156,50.237396
"2878",82.804,50.250732
"2879",82.811325,50.26407
"2880",82.794235,50.277405
"2881",82.72343,50.29074
"2882",82.58671,50.304077
"2883",82.38407,50.317413
"2884",82.144806,50.33075
"2885",81.900665,50.344086
"2886",81.688255,50.35742
"2887",81.514915,50.370758
"2888",81.3904,50.384094
"2889",81.30251,50.39743
"2890",81.23659,50.410767
"2891",81.180435,50.424103
"2892",81.112076,50.43744
"2893",81.0193,50.450775
"2894",80.89235,50.46411
"2895",80.73365,50.477448
"2896",80.54566,50.490784
"2897",80.34547,50.50412
"2898",80.15015,50.517456
"2899",79.96704,50.530792
"2900",79.801025,50.54413
"2901",79.65453,50.557465
"2902",79.51537,50.5708
"2903",79.38842,50.584137
"2904",79.26391,50.597473
"2905",79.149155,50.61081
"2906",79.03685,50.624146
"2907",78.92943,50.63748
"2908",78.82933,50.650818
"2909",78.74143,50.664154
"2910",78.67063,50.67749
"2911",78.61448,50.690826
"2912",78.57786,50.704163
"2913",78.54856,50.7175
"2914",78.51438,50.730835
"2915",78.470436,50.74417
"2916",78.41917,50.757507
"2917",78.35813,50.770844
"2918",78.29954,50.78418
"2919",78.25071,50.797516
"2920",78.21408,50.810852
"2921",78.18967,50.82419
"2922",78.17502,50.837524
"2923",78.16281,50.85086
"2924",78.14572,50.864197
"2925",78.12863,50.877533
"2926",78.10666,50.89087
"2927",78.0798,50.904205
"2928",78.05539,50.91754
"2929",78.0383,50.930878
"2930",78.03342,50.944214
"2931",78.048065,50.95755
"2932",78.07492,50.970886
"2933",78.1091,50.984222
"2934",78.135956,50.99756
"2935",78.14572,51.010895
"2936",78.12863,51.02423
"2937",78.09445,51.037567
"2938",78.05295,51.050903
"2939",78.009,51.06424
"2940",77.97482,51.077576
"2941",77.977264,51.09091
"2942",78.048065,51.104248
"2943",78.22385,51.117584
"2944",78.54124,51.13092
"2945",79.009995,51.144257
"2946",79.622795,51.157593
"2947",80.325935,51.17093
"2948",81.04616,51.184265
"2949",81.70779,51.1976
"2950",82.262,51.210938
"2951",82.6746,51.224274
"2952",82.948044,51.23761
"2953",83.09941,51.250946
"2954",83.16533,51.264282
"2955",83.175095,51.27762
"2956",83.16777,51.290955
"2957",83.15556,51.30429
"2958",83.158005,51.317627
"2959",83.16777,51.330963
"2960",83.177536,51.3443
"2961",83.16533,51.357635
"2962",83.11406,51.37097
"2963",83.018845,51.384308
"2964",82.86992,51.397644
"2965",82.68192,51.41098
"2966",82.46708,51.424316
"2967",82.247345,51.437653
"2968",82.04471,51.45099
"2969",81.87381,51.464325
"2970",81.74197,51.47766
"2971",81.64431,51.490997
"2972",81.56374,51.504333
"2973",81.48318,51.51767
"2974",81.38308,51.531006
"2975",81.253685,51.544342
"2976",81.094986,51.55768
"2977",80.91432,51.571014
"2978",80.72144,51.58435
"2979",80.51881,51.597687
"2980",80.323494,51.611023
"2981",80.13794,51.62436
"2982",79.96704,51.637695
"2983",79.815674,51.65103
"2984",79.68871,51.664368
"2985",79.58129,51.677704
"2986",79.48608,51.69104
"2987",79.3933,51.704376
"2988",79.30297,51.717712
"2989",79.21507,51.73105
"2990",79.12962,51.744385
"2991",79.05638,51.75772
"2992",79.00267,51.771057
"2993",78.96849,51.784393
"2994",78.94652,51.79773
"2995",78.93187,51.811066
"2996",78.91234,51.8244
"2997",78.8806,51.837738
"2998",78.82933,51.851074
"2999",78.75365,51.86441
"3000",78.660866,51.877747
"3001",78.55833,51.891083
"3002",78.45335,51.90442
"3003",78.35813,51.917755
"3004",78.27512,51.93109
"3005",78.204315,51.944427
"3006",78.14084,51.957764
"3007",78.08469,51.9711
"3008",78.02609,51.984436
"3009",77.9675,51.997772
"3010",77.90158,52.01111
"3011",77.83078,52.024445
"3012",77.76242,52.03778
"3013",77.7087,52.051117
"3014",77.6672,52.064453
"3015",77.64034,52.07779
"3016",77.62325,52.091125
"3017",77.61593,52.10446
"3018",77.61349,52.117798
"3019",77.62081,52.131134
"3020",77.63302,52.14447
"3021",77.65743,52.157806
"3022",77.68429,52.171143
"3023",77.7087,52.18448
"3024",77.73556,52.197815
"3025",77.76242,52.21115
"3026",77.79416,52.224487
"3027",77.838104,52.237823
"3028",77.8967,52.25116
"3029",77.962616,52.264496
"3030",78.03342,52.277832
"3031",78.10422,52.29117
"3032",78.167694,52.304504
"3033",78.22629,52.31784
"3034",78.28489,52.331177
"3035",78.34348,52.344513
"3036",78.399635,52.35785
"3037",78.450905,52.371185
"3038",78.49241,52.38452
"3039",78.52415,52.397858
"3040",78.56809,52.411194
"3041",78.65354,52.42453
"3042",78.82445,52.437866
"3043",79.12474,52.451202
"3044",79.57641,52.46454
"3045",80.16968,52.477875
"3046",80.867935,52.49121
"3047",81.5906,52.504547
"3048",82.25956,52.517883
"3049",82.80156,52.53122
"3050",83.17998,52.544556
"3051",83.38506,52.55789
"3052",83.44366,52.571228
"3053",83.39727,52.584564
"3054",83.28985,52.5979
"3055",83.16289,52.611237
"3056",83.0457,52.624573
"3057",82.95537,52.63791
"3058",82.896774,52.651245
"3059",82.862595,52.66458
"3060",82.82597,52.677917
"3061",82.76494,52.691254
"3062",82.65751,52.70459
"3063",82.496376,52.717926
"3064",82.28886,52.731262
"3065",82.056915,52.7446
"3066",81.83719,52.757935
"3067",81.651634,52.77127
"3068",81.50515,52.784607
"3069",81.40505,52.797943
"3070",81.33669,52.81128
"3071",81.28298,52.824615
"3072",81.22438,52.83795
"3073",81.146255,52.851288
"3074",81.041275,52.864624
"3075",80.90944,52.87796
"3076",80.75075,52.891296
"3077",80.58228,52.904633
"3078",80.40406,52.91797
"3079",80.23071,52.931305
"3080",80.06714,52.94464
"3081",79.91821,52.957977
"3082",79.781494,52.971313
"3083",79.656975,52.98465
"3084",79.54223,52.997986
"3085",79.44213,53.011322
"3086",79.35424,53.02466
"3087",79.281,53.037994
"3088",79.22484,53.05133
"3089",79.183334,53.064667
"3090",79.149155,53.078003
"3091",79.11986,53.09134
"3092",79.09056,53.104675
"3093",79.0515,53.11801
"3094",79.00023,53.131348
"3095",78.93919,53.144684
"3096",78.870834,53.15802
"3097",78.80003,53.171356
"3098",78.73899,53.184692
"3099",78.692604,53.19803
"3100",78.660866,53.211365
"3101",78.63157,53.2247
"3102",78.59983,53.238037
"3103",78.56077,53.251373
"3104",78.5095,53.26471
"3105",78.45335,53.278046
"3106",78.40696,53.29138
"3107",78.37278,53.304718
"3108",78.35569,53.318054
"3109",78.35569,53.33139
"3110",78.3679,53.344727
"3111",78.382545,53.358063
"3112",78.39475,53.3714
"3113",78.397194,53.384735
"3114",78.39475,53.39807
"3115",78.382545,53.411407
"3116",78.37278,53.424744
"3117",78.37034,53.43808
"3118",78.380104,53.451416
"3119",78.40208,53.464752
"3120",78.43626,53.47809
"3121",78.47532,53.491425
"3122",78.51194,53.50476
"3123",78.538795,53.518097
"3124",78.555885,53.531433
"3125",78.56809,53.54477
"3126",78.57542,53.558105
"3127",78.58518,53.57144
"3128",78.59983,53.584778
"3129",78.61936,53.598114
"3130",78.641335,53.61145
"3131",78.660866,53.624786
"3132",78.68284,53.638123
"3133",78.69749,53.65146
"3134",78.712135,53.664795
"3135",78.73655,53.67813
"3136",78.80003,53.691467
"3137",78.94652,53.704803
"3138",79.219955,53.71814
"3139",79.64477,53.731476
"3140",80.218506,53.744812
"3141",80.89235,53.75815
"3142",81.58572,53.771484
"3143",82.210724,53.78482
"3144",82.69413,53.798157
"3145",83.004196,53.811493
"3146",83.13115,53.82483
"3147",83.11162,53.838165
"3148",82.99443,53.8515
"3149",82.83574,53.864838
"3150",82.67216,53.878174
"3151",82.53788,53.89151
"3152",82.43534,53.904846
"3153",82.3621,53.918182
"3154",82.30106,53.93152
"3155",82.230255,53.944855
"3156",82.13016,53.95819
"3157",81.98367,53.971527
"3158",81.79813,53.984863
"3159",81.58083,53.9982
"3160",81.356224,54.011536
"3161",81.1487,54.02487
"3162",80.987564,54.038208
"3163",80.87282,54.051544
"3164",80.80446,54.06488
"3165",80.76784,54.078217
"3166",80.743416,54.091553
"3167",80.71412,54.10489
"3168",80.66773,54.118225
"3169",80.59937,54.13156
"3170",80.5066,54.144897
"3171",80.39918,54.158234
"3172",80.28687,54.17157
"3173",80.17212,54.184906
"3174",80.04761,54.198242
"3175",79.923096,54.21158
"3176",79.7937,54.224915
"3177",79.656975,54.23825
"3178",79.52758,54.251587
"3179",79.412834,54.264923
"3180",79.31518,54.27826
"3181",79.23949,54.291595
"3182",79.183334,54.30493
"3183",79.13939,54.318268
"3184",79.10033,54.331604
"3185",79.061264,54.34494
"3186",79.01488,54.358276
"3187",78.96361,54.371613
"3188",78.91722,54.38495
"3189",78.87816,54.398285
"3190",78.8513,54.41162
"3191",78.84398,54.424957
"3192",78.84886,54.438293
"3193",78.86351,54.45163
"3194",78.8806,54.464966
"3195",78.90013,54.478302
"3196",78.91966,54.49164
"3197",78.941635,54.504974
"3198",78.96361,54.51831
"3199",78.992905,54.531647
"3200",79.02464,54.544983
"3201",79.06615,54.55832
"3202",79.11742,54.571655
"3203",79.166245,54.58499
"3204",79.19554,54.598328
"3205",79.19066,54.611664
"3206",79.151596,54.625
"3207",79.08812,54.638336
"3208",79.009995,54.651672
"3209",78.941635,54.66501
"3210",78.890366,54.678345
"3211",78.86351,54.69168
"3212",78.84154,54.705017
"3213",78.82933,54.718353
"3214",78.82201,54.73169
"3215",78.81712,54.745026
"3216",78.8098,54.75836
"3217",78.79759,54.771698
"3218",78.78294,54.785034
"3219",78.76341,54.79837
"3220",78.74143,54.811707
"3221",78.7219,54.825043
"3222",78.709694,54.83838
"3223",78.70481,54.851715
"3224",78.709694,54.86505
"3225",78.71702,54.878387
"3226",78.729225,54.891724
"3227",78.74387,54.90506
"3228",78.77806,54.918396
"3229",78.86107,54.931732
"3230",79.029526,54.94507
"3231",79.32983,54.958405
"3232",79.783936,54.97174
"3233",80.38209,54.985077
"3234",81.07057,54.998413
"3235",81.77371,55.01175
"3236",82.408485,55.025085
"3237",82.896774,55.03842
"3238",83.209274,55.051758
"3239",83.346,55.065094
"3240",83.33379,55.07843
"3241",83.2166,55.091766
"3242",83.05058,55.105103
"3243",82.87724,55.11844
"3244",82.72831,55.131775
"3245",82.62089,55.14511
"3246",82.55253,55.158447
"3247",82.49882,55.171783
"3248",82.44022,55.18512
"3249",82.357216,55.198456
"3250",82.23758,55.211792
"3251",82.074005,55.22513
"3252",81.881134,55.238464
"3253",81.67849,55.2518
"3254",81.4905,55.265137
"3255",81.33425,55.278473
"3256",81.22438,55.29181
"3257",81.15358,55.305145
"3258",81.112076,55.31848
"3259",81.08522,55.331818
"3260",81.05592,55.345154
"3261",81.01686,55.35849
"3262",80.96315,55.371826
"3263",80.89235,55.385162
"3264",80.80446,55.3985
"3265",80.69947,55.411835
"3266",80.57984,55.42517
"3267",80.448006,55.438507
"3268",80.306404,55.451843
"3269",80.16235,55.46518
"3270",80.01099,55.478516
"3271",79.86694,55.49185
"3272",79.7351,55.505188
"3273",79.622795,55.518524
"3274",79.534904,55.53186
"3275",79.46166,55.545197
"3276",79.398186,55.558533
"3277",79.33715,55.57187
"3278",79.273674,55.585205
"3279",79.20775,55.59854
"3280",79.13939,55.611877
"3281",79.078354,55.625214
"3282",79.03197,55.63855
"3283",79.00511,55.651886
"3284",78.99046,55.665222
"3285",78.98802,55.67856
"3286",78.98558,55.691895
"3287",78.975815,55.70523
"3288",78.96605,55.718567
"3289",78.95628,55.731903
"3290",78.94652,55.74524
"3291",78.94408,55.758575
"3292",78.94408,55.77191
"3293",78.94408,55.785248
"3294",78.93431,55.798584
"3295",78.922104,55.81192
"3296",78.9099,55.825256
"3297",78.89281,55.838593
"3298",78.87572,55.85193
"3299",78.86351,55.865265
"3300",78.856186,55.8786
"3301",78.839096,55.891937
"3302",78.81712,55.905273
"3303",78.79271,55.91861
"3304",78.77074,55.931946
"3305",78.751205,55.945282
"3306",78.746315,55.95862
"3307",78.76097,55.971954
"3308",78.785385,55.98529
"3309",78.81468,55.998627
"3310",78.84398,56.011963
"3311",78.86839,56.0253
"3312",78.8806,56.038635
"3313",78.88304,56.05197
"3314",78.873276,56.065308
"3315",78.856186,56.078644
"3316",78.839096,56.09198
"3317",78.82445,56.105316
"3318",78.81712,56.118652
"3319",78.83421,56.13199
"3320",78.90257,56.145325
"3321",79.063705,56.15866
"3322",79.35668,56.171997
"3323",79.80347,56.185333
"3324",80.38941,56.19867
"3325",81.06081,56.212006
"3326",81.73464,56.22534
"3327",82.3328,56.238678
"3328",82.78691,56.252014
"3329",83.072556,56.26535
"3330",83.194626,56.278687
"3331",83.17998,56.292023
"3332",83.075,56.30536
"3333",82.92607,56.318695
"3334",82.77959,56.33203
"3335",82.65995,56.345367
"3336",82.579384,56.358704
"3337",82.530556,56.37204
"3338",82.50126,56.385376
"3339",82.46464,56.398712
"3340",82.39628,56.41205
"3341",82.2913,56.425385
"3342",82.15213,56.43872
"3343",81.988556,56.452057
"3344",81.8201,56.465393
"3345",81.671165,56.47873
"3346",81.54665,56.492065
"3347",81.45388,56.5054
"3348",81.38308,56.518738
"3349",81.32937,56.532074
"3350",81.287865,56.54541
"3351",81.25124,56.558746
"3352",81.20973,56.572083
"3353",81.15602,56.58542
"3354",81.0901,56.598755
"3355",81.01198,56.61209
"3356",80.91676,56.625427
"3357",80.8069,56.638763
"3358",80.69215,56.6521
"3359",80.57252,56.665436
"3360",80.45289,56.678772
"3361",80.343025,56.69211
"3362",80.24536,56.705444
"3363",80.16968,56.71878
"3364",80.11841,56.732117
"3365",80.08423,56.745453
"3366",80.062256,56.75879
"3367",80.04028,56.772125
"3368",80.008545,56.78546
"3369",79.957275,56.798798
"3370",79.888916,56.812134
"3371",79.81323,56.82547
"3372",79.73266,56.838806
"3373",79.65942,56.852142
"3374",79.59106,56.86548
"3375",79.534904,56.878815
"3376",79.483635,56.89215
"3377",79.43481,56.905487
"3378",79.381096,56.918823
"3379",79.3225,56.93216
"3380",79.25414,56.945496
"3381",79.18089,56.95883
"3382",79.114975,56.972168
"3383",79.05882,56.985504
"3384",79.01732,56.99884
"3385",78.98802,57.012177
"3386",78.96605,57.025513
"3387",78.93919,57.03885
"3388",78.89769,57.052185
"3389",78.83421,57.06552
"3390",78.75609,57.078857
"3391",78.67307,57.092194
"3392",78.59495,57.10553
"3393",78.52903,57.118866
"3394",78.487526,57.132202
"3395",78.470436,57.14554
"3396",78.47776,57.158875
"3397",78.49485,57.17221
"3398",78.51682,57.185547
"3399",78.53147,57.198883
"3400",78.53147,57.21222
"3401",78.51682,57.225555
"3402",78.49729,57.23889
"3403",78.48264,57.252228
"3404",78.47776,57.265564
"3405",78.4802,57.2789
"3406",78.49485,57.292236
"3407",78.5095,57.305573
"3408",78.52415,57.31891
"3409",78.538795,57.332245
"3410",78.54856,57.34558
"3411",78.555885,57.358917
"3412",78.58274,57.372253
"3413",78.658424,57.38559
"3414",78.82445,57.398926
"3415",79.12718,57.412262
"3416",79.58373,57.4256
"3417",80.184326,57.438934
"3418",80.86549,57.45227
"3419",81.55642,57.465607
"3420",82.17166,57.478943
"3421",82.650185,57.49228
"3422",82.96513,57.505615
"3423",83.11406,57.51895
"3424",83.12627,57.532288
"3425",83.04326,57.545624
"3426",82.91142,57.55896
"3427",82.76738,57.572296
"3428",82.63798,57.585632
"3429",82.54032,57.59897
"3430",82.4744,57.612305
"3431",82.41825,57.62564
"3432",82.357216,57.638977
"3433",82.27177,57.652313
"3434",82.14725,57.66565
"3435",81.98123,57.678986
"3436",81.78836,57.69232
"3437",81.58572,57.705658
"3438",81.40017,57.718994
"3439",81.248795,57.73233
"3440",81.13893,57.745667
"3441",81.06813,57.759003
"3442",81.024185,57.77234
"3443",80.987564,57.785675
"3444",80.94118,57.79901
"3445",80.88258,57.812347
"3446",80.80446,57.825684
"3447",80.709236,57.83902
"3448",80.59937,57.852356
"3449",80.479744,57.865692
"3450",80.33814,57.87903
"3451",80.18677,57.892365
"3452",80.025635,57.9057
"3453",79.86206,57.919037
"3454",79.710686,57.932373
"3455",79.58129,57.94571
"3456",79.47875,57.959045
"3457",79.40063,57.97238
"3458",79.33715,57.985718
"3459",79.276115,57.999054
"3460",79.217514,58.01239
"3461",79.15648,58.025726
"3462",79.093,58.039062
"3463",79.03197,58.0524
"3464",78.97826,58.065735
"3465",78.93431,58.07907
"3466",78.905014,58.092407
"3467",78.890366,58.105743
"3468",78.88304,58.11908
"3469",78.87572,58.132416
"3470",78.86351,58.145752
"3471",78.839096,58.15909
"3472",78.80492,58.172424
"3473",78.76097,58.18576
"3474",78.712135,58.199097
"3475",78.67063,58.212433
"3476",78.63401,58.22577
"3477",78.61204,58.239105
"3478",78.6096,58.25244
"3479",78.61936,58.265778
"3480",78.624245,58.279114
"3481",78.6218,58.29245
"3482",78.60471,58.305786
"3483",78.572975,58.319122
"3484",78.53391,58.33246
"3485",78.504616,58.345795
"3486",78.49241,58.35913
"3487",78.49485,58.372467
"3488",78.51194,58.385803
"3489",78.536354,58.39914
"3490",78.555885,58.412476
"3491",78.56321,58.42581
"3492",78.553444,58.439148
"3493",78.52903,58.452484
"3494",78.504616,58.46582
"3495",78.48264,58.479156
"3496",78.47288,58.492493
"3497",78.47776,58.50583
"3498",78.51438,58.519165
"3499",78.59739,58.5325
"3500",78.76341,58.545837
"3501",79.03929,58.559174
"3502",79.44213,58.57251
"3503",79.96704,58.585846
"3504",80.57496,58.599182
"3505",81.19508,58.61252
"3506",81.76883,58.625854
"3507",82.23514,58.63919
"3508",82.562294,58.652527
"3509",82.735634,58.665863
"3510",82.777145,58.6792
"3511",82.720985,58.692535
"3512",82.60624,58.70587
"3513",82.4744,58.719208
"3514",82.34745,58.732544
"3515",82.24002,58.74588
"3516",82.14969,58.759216
"3517",82.0618,58.772552
"3518",81.96414,58.78589
"3519",81.846954,58.799225
"3520",81.7029,58.81256
"3521",81.53445,58.825897
"3522",81.356224,58.839233
"3523",81.180435,58.85257
"3524",81.03151,58.865906
"3525",80.921646,58.879242
"3526",80.85573,58.89258
"3527",80.82399,58.905914
"3528",80.81178,58.91925
"3529",80.79469,58.932587
"3530",80.762955,58.945923
"3531",80.69703,58.95926
"3532",80.59937,58.972595
"3533",80.4773,58.98593
"3534",80.34058,58.999268
"3535",80.2063,59.012604
"3536",80.09155,59.02594
"3537",79.9939,59.039276
"3538",79.920654,59.052612
"3539",79.8645,59.06595
"3540",79.81323,59.079285
"3541",79.75952,59.09262
"3542",79.70336,59.105957
"3543",79.64477,59.119293
"3544",79.59106,59.13263
"3545",79.53979,59.145966
"3546",79.500725,59.1593
"3547",79.466545,59.172638
"3548",79.43725,59.185974
"3549",79.40551,59.19931
"3550",79.37133,59.212646
"3551",79.327385,59.225983
"3552",79.276115,59.23932
"3553",79.217514,59.252655
"3554",79.15892,59.26599
"3555",79.10521,59.279327
"3556",79.05882,59.292664
"3557",79.0222,59.306
"3558",78.98558,59.319336
"3559",78.94652,59.332672
"3560",78.905014,59.34601
"3561",78.85863,59.359344
"3562",78.80736,59.37268
"3563",78.76097,59.386017
"3564",78.72434,59.399353
"3565",78.69749,59.41269
"3566",78.68528,59.426025
"3567",78.692604,59.43936
"3568",78.71702,59.452698
"3569",78.751205,59.466034
"3570",78.78294,59.47937
"3571",78.80736,59.492706
"3572",78.81468,59.506042
"3573",78.802475,59.51938
"3574",78.77318,59.532715
"3575",78.746315,59.54605
"3576",78.729225,59.559387
"3577",78.72678,59.572723
"3578",78.74387,59.58606
"3579",78.768295,59.599396
"3580",78.79027,59.612732
"3581",78.80736,59.62607
"3582",78.8098,59.639404
"3583",78.79759,59.65274
"3584",78.77806,59.666077
"3585",78.75365,59.679413
"3586",78.729225,59.69275
"3587",78.712135,59.706085
"3588",78.709694,59.71942
"3589",78.73655,59.732758
"3590",78.802475,59.746094
"3591",78.94652,59.75943
"3592",79.20775,59.772766
"3593",79.603264,59.786102
"3594",80.130615,59.79944
"3595",80.75807,59.812775
"3596",81.42947,59.82611
"3597",82.06912,59.839447
"3598",82.61112,59.852783
"3599",83.01396,59.86612
"3600",83.265434,59.879456
"3601",83.36553,59.89279
"3602",83.346,59.906128
"3603",83.245895,59.919464
"3604",83.106735,59.9328
"3605",82.9749,59.946136
"3606",82.8748,59.959473
"3607",82.81865,59.97281
"3608",82.79668,59.986145
"3609",82.78447,59.99948
"3610",82.75273,60.012817
"3611",82.6746,60.026154
"3612",82.533,60.03949
"3613",82.33036,60.052826
"3614",82.09354,60.066162
"3615",81.84207,60.0795
"3616",81.61501,60.092834
"3617",81.43923,60.10617
"3618",81.31716,60.119507
"3619",81.24147,60.132843
"3620",81.19264,60.14618
"3621",81.143814,60.159515
"3622",81.075455,60.17285
"3623",80.98268,60.186188
"3624",80.86061,60.199524
"3625",80.723885,60.21286
"3626",80.5774,60.226196
"3627",80.42359,60.239532
"3628",80.274666,60.25287
"3629",80.130615,60.266205
"3630",79.99878,60.27954
"3631",79.87915,60.292877
"3632",79.76929,60.306213
"3633",79.66918,60.31955
"3634",79.57397,60.332886
"3635",79.48119,60.346222
"3636",79.38354,60.35956
"3637",79.28344,60.372894
"3638",79.19066,60.38623
"3639",79.10521,60.399567
"3640",79.029526,60.412903
"3641",78.96605,60.42624
"3642",78.90013,60.439575
"3643",78.82933,60.45291
"3644",78.75609,60.466248
"3645",78.68772,60.479584
"3646",78.63645,60.49292
"3647",78.61204,60.506256
"3648",78.61448,60.519592
"3649",78.63645,60.53293
"3650",78.66819,60.546265
"3651",78.70237,60.5596
"3652",78.729225,60.572937
"3653",78.74387,60.586273
"3654",78.74387,60.59961
"3655",78.73655,60.612946
"3656",78.7219,60.62628
"3657",78.712135,60.639618
"3658",78.70725,60.652954
"3659",78.71458,60.66629
"3660",78.72434,60.679626
"3661",78.74143,60.692963
"3662",78.75365,60.7063
"3663",78.765854,60.719635
"3664",78.77074,60.73297
"3665",78.77318,60.746307
"3666",78.77562,60.759644
"3667",78.78294,60.77298
"3668",78.79027,60.786316
"3669",78.80736,60.799652
"3670",78.82933,60.81299
"3671",78.853745,60.826324
"3672",78.87816,60.83966
"3673",78.89525,60.852997
"3674",78.90257,60.866333
"3675",78.90013,60.87967
"3676",78.88304,60.893005
"3677",78.856186,60.90634
"3678",78.83177,60.919678
"3679",78.81468,60.933014
"3680",78.8098,60.94635
"3681",78.84154,60.959686
"3682",78.93919,60.973022
"3683",79.13695,60.98636
"3684",79.4641,60.999695
"3685",79.93042,61.01303
"3686",80.51392,61.026367
"3687",81.15846,61.039703
"3688",81.79324,61.05304
"3689",82.34745,61.066376
"3690",82.774704,61.079712
"3691",83.05791,61.09305
"3692",83.19707,61.106384
"3693",83.22148,61.11972
"3694",83.16777,61.133057
"3695",83.07988,61.146393
"3696",82.97978,61.15973
"3697",82.896774,61.173065
"3698",82.84062,61.1864
"3699",82.80888,61.199738
"3700",82.78447,61.213074
"3701",82.74052,61.22641
"3702",82.65751,61.239746
"3703",82.51835,61.253082
"3704",82.32792,61.26642
"3705",82.10574,61.279755
"3706",81.88846,61.29309
"3707",81.70779,61.306427
"3708",81.57839,61.319763
"3709",81.497826,61.3331
"3710",81.45388,61.346436
"3711",81.42458,61.35977
"3712",81.38796,61.373108
"3713",81.324486,61.386444
"3714",81.22926,61.39978
"3715",81.092545,61.413116
"3716",80.921646,61.426453
"3717",80.73121,61.43979
"3718",80.53101,61.453125
"3719",80.33814,61.46646
"3720",80.164795,61.479797
"3721",80.01099,61.493134
"3722",79.87671,61.50647
"3723",79.75708,61.519806
"3724",79.65453,61.533142
"3725",79.55932,61.54648
"3726",79.47387,61.559814
"3727",79.38842,61.57315
"3728",79.310295,61.586487
"3729",79.24193,61.599823
"3730",79.183334,61.61316
"3731",79.13451,61.626495
"3732",79.10033,61.63983
"3733",79.07591,61.653168
"3734",79.0515,61.666504
"3735",79.02464,61.67984
"3736",78.98802,61.693176
"3737",78.94408,61.706512
"3738",78.89769,61.71985
"3739",78.853745,61.733185
"3740",78.81468,61.74652
"3741",78.79027,61.759857
"3742",78.77562,61.773193
"3743",78.768295,61.78653
"3744",78.75853,61.799866
"3745",78.74387,61.8132
"3746",78.73411,61.826538
"3747",78.7219,61.839874
"3748",78.71702,61.85321
"3749",78.73167,61.866547
"3750",78.765854,61.879883
"3751",78.82689,61.89322
"3752",78.9099,61.906555
"3753",79.00755,61.91989
"3754",79.10521,61.933228
"3755",79.19798,61.946564
"3756",79.26635,61.9599
"3757",79.30785,61.973236
"3758",79.32006,61.986572
"3759",79.30541,61.99991
"3760",79.26879,62.013245
"3761",79.217514,62.02658
"3762",79.15648,62.039917
"3763",79.09544,62.053253
"3764",79.03441,62.06659
"3765",78.97826,62.079926
"3766",78.92943,62.09326
"3767",78.89281,62.106598
"3768",78.86839,62.119934
"3769",78.86351,62.13327
"3770",78.8806,62.146606
"3771",78.924545,62.159943
"3772",79.00755,62.17328
"3773",79.14427,62.186615
"3774",79.35912,62.19995
"3775",79.676506,62.213287
"3776",80.10132,62.226624
"3777",80.621346,62.23996
"3778",81.19264,62.253296
"3779",81.761505,62.266632
"3780",82.27421,62.27997
"3781",82.686806,62.293304
"3782",82.984665,62.30664
"3783",83.177536,62.319977
"3784",83.282524,62.333313
"3785",83.32159,62.34665
"3786",83.32159,62.359985
"3787",83.3045,62.37332
"3788",83.28741,62.386658
"3789",83.284966,62.399994
"3790",83.3045,62.41333
"3791",83.33868,62.426666
"3792",83.36553,62.440002
"3793",83.36309,62.45334
"3794",83.31182,62.466675
"3795",83.194626,62.48001
"3796",83.01396,62.493347
"3797",82.79668,62.506683
"3798",82.57206,62.52002
"3799",82.36942,62.533356
"3800",82.213165,62.54669
"3801",82.108185,62.560028
"3802",82.04227,62.573364
"3803",82.00076,62.5867
"3804",81.95926,62.600037
"3805",81.898224,62.613373
"3806",81.80545,62.62671
"3807",81.671165,62.640045
"3808",81.50271,62.65338
"3809",81.30251,62.666718
"3810",81.08034,62.680054
"3811",80.848404,62.69339
"3812",80.61158,62.706726
"3813",80.37476,62.720062
"3814",80.13306,62.7334
"3815",79.886475,62.746735
"3816",79.64233,62.76007
"3817",79.40795,62.773407
"3818",79.19554,62.786743
"3819",79.009995,62.80008
"3820",78.86351,62.813416
"3821",78.751205,62.82675
"3822",78.67063,62.840088
"3823",78.607155,62.853424
"3824",78.54612,62.86676
"3825",78.4802,62.880096
"3826",78.399635,62.893433
"3827",78.3093,62.90677
"3828",78.2092,62.920105
"3829",78.11398,62.93344
"3830",78.02121,62.946777
"3831",77.943085,62.960114
"3832",77.87717,62.97345
"3833",77.82834,62.986786
"3834",77.79416,63.000122
"3835",77.769745,63.01346
"3836",77.74532,63.026794
"3837",77.71603,63.04013
"3838",77.679405,63.053467
"3839",77.64034,63.066803
"3840",77.60372,63.08014
"3841",77.576866,63.093475
"3842",77.557335,63.10681
"3843",77.54513,63.120148
"3844",77.5256,63.133484
"3845",77.50118,63.14682
"3846",77.471886,63.160156
"3847",77.44503,63.173492
"3848",77.43282,63.18683
"3849",77.44259,63.200165
"3850",77.47677,63.2135
"3851",77.55245,63.226837
"3852",77.68673,63.240173
"3853",77.91379,63.25351
"3854",78.24582,63.266846
"3855",78.692604,63.28018
"3856",79.22484,63.293518
"3857",79.78882,63.306854
"3858",80.325935,63.32019
"3859",80.780045,63.333527
"3860",81.11452,63.346863
"3861",81.324486,63.3602
"3862",81.42214,63.373535
"3863",81.42947,63.38687
"3864",81.3782,63.400208
"3865",81.30251,63.413544
"3866",81.21217,63.42688
"3867",81.112076,63.440216
"3868",81.00221,63.453552
"3869",80.8777,63.46689
"3870",80.73121,63.480225
"3871",80.567635,63.49356
"3872",80.396736,63.506897
"3873",80.24536,63.520233
"3874",80.12329,63.53357
"3875",80.045166,63.546906
"3876",80.0061,63.56024
"3877",80.00366,63.573578
"3878",80.02075,63.586914
"3879",80.042725,63.60025
"3880",80.05737,63.613586
"3881",80.05737,63.626923
"3882",80.04028,63.64026
"3883",79.99878,63.653595
"3884",79.94263,63.66693
"3885",79.87427,63.680267
"3886",79.78882,63.693604
"3887",79.691154,63.70694
"3888",79.58373,63.720276
"3889",79.466545,63.733612
"3890",79.34936,63.74695
"3891",79.23949,63.760284
"3892",79.14183,63.77362
"3893",79.063705,63.786957
"3894",79.00511,63.800293
"3895",78.96361,63.81363
"3896",78.93919,63.826965
"3897",78.924545,63.8403
"3898",78.9099,63.853638
"3899",78.890366,63.866974
"3900",78.86595,63.88031
"3901",78.83421,63.893646
"3902",78.80492,63.906982
"3903",78.78294,63.92032
"3904",78.77318,63.933655
"3905",78.768295,63.94699
"3906",78.768295,63.960327
"3907",78.765854,63.973663
"3908",78.765854,63.987
"3909",78.76341,64.000336
"3910",78.76097,64.01367
"3911",78.75609,64.02701
"3912",78.751205,64.040344
"3913",78.74876,64.05368
"3914",78.75853,64.06702
"3915",78.77806,64.08035
"3916",78.81468,64.09369
"3917",78.86107,64.107025
"3918",78.91722,64.12036
"3919",78.96849,64.1337
"3920",79.009995,64.14703
"3921",79.03685,64.16037
"3922",79.044174,64.173706
"3923",79.027084,64.18704
"3924",78.992905,64.20038
"3925",78.93919,64.213715
"3926",78.890366,64.22705
"3927",78.86595,64.24039
"3928",78.905014,64.25372
"3929",79.04173,64.26706
"3930",79.30785,64.280396
"3931",79.7058,64.29373
"3932",80.20874,64.30707
"3933",80.765396,64.320404
"3934",81.30984,64.33374
"3935",81.778595,64.34708
"3936",82.13992,64.36041
"3937",82.37675,64.37375
"3938",82.50614,64.387085
"3939",82.55009,64.40042
"3940",82.53544,64.41376
"3941",82.49149,64.42709
"3942",82.43778,64.44043
"3943",82.388954,64.453766
"3944",82.34989,64.4671
"3945",82.320595,64.48044
"3946",82.28397,64.493774
"3947",82.22293,64.50711
"3948",82.12283,64.52045
"3949",81.97635,64.53378
"3950",81.80057,64.54712
"3951",81.61013,64.560455
"3952",81.42947,64.57379
"3953",81.28298,64.58713
"3954",81.180435,64.600464
"3955",81.12184,64.6138
"3956",81.092545,64.62714
"3957",81.08034,64.64047
"3958",81.06569,64.65381
"3959",81.03395,64.667145
"3960",80.96803,64.68048
"3961",80.87282,64.69382
"3962",80.74586,64.70715
"3963",80.587166,64.72049
"3964",80.413826,64.733826
"3965",80.235596,64.74716
"3966",80.07202,64.7605
"3967",79.92798,64.773834
"3968",79.80591,64.78717
"3969",79.70092,64.80051
"3970",79.60815,64.81384
"3971",79.517815,64.82718
"3972",79.42748,64.840515
"3973",79.33715,64.85385
"3974",79.24681,64.86719
"3975",79.16136,64.88052
"3976",79.080795,64.89386
"3977",79.012436,64.907196
"3978",78.95384,64.92053
"3979",78.90013,64.93387
"3980",78.84886,64.947205
"3981",78.79759,64.96054
"3982",78.74143,64.97388
"3983",78.68528,64.98721
"3984",78.63157,65.00055
"3985",78.5803,65.013885
"3986",78.52903,65.02722
"3987",78.485085,65.04056
"3988",78.44602,65.053894
"3989",78.41184,65.06723
"3990",78.380104,65.08057
"3991",78.345924,65.0939
"3992",78.30198,65.10724
"3993",78.25315,65.120575
"3994",78.19943,65.13391
"3995",78.14816,65.14725
"3996",78.11398,65.16058
"3997",78.118866,65.17392
"3998",78.19455,65.187256
"3999",78.380104,65.20059
"4000",78.69993,65.21393
"4001",79.151596,65.227264
"4002",79.70336,65.2406
"4003",80.30152,65.25394
"4004",80.87526,65.26727
"4005",81.36111,65.28061
"4006",81.72488,65.293945
"4007",81.95926,65.30728
"4008",82.07889,65.32062
"4009",82.11551,65.333954
"4010",82.10574,65.34729
"4011",82.08133,65.36063
"4012",82.05936,65.37396
"4013",82.04715,65.3873
"4014",82.039825,65.400635
"4015",82.03006,65.41397
"4016",82.003204,65.42731
"4017",81.94217,65.44064
"4018",81.83719,65.45398
"4019",81.68337,65.467316
"4020",81.480736,65.48065
"4021",81.25124,65.49399
"4022",81.01442,65.507324
"4023",80.79469,65.52066
"4024",80.61402,65.534
"4025",80.482185,65.54733
"4026",80.38941,65.56067
"4027",80.32838,65.574005
"4028",80.28443,65.58734
"4029",80.24292,65.60068
"4030",80.19409,65.61401
"4031",80.128174,65.62735
"4032",80.03784,65.640686
"4033",79.923096,65.65402
"4034",79.78882,65.66736
"4035",79.63744,65.680695
"4036",79.483635,65.69403
"4037",79.33227,65.70737
"4038",79.19798,65.7207
"4039",79.078354,65.73404
"4040",78.9807,65.747375
"4041",78.89769,65.76071
"4042",78.82445,65.77405
"4043",78.75609,65.787384
"4044",78.68772,65.80072
"4045",78.61692,65.81406
"4046",78.54612,65.82739
"4047",78.47288,65.84073
"4048",78.40452,65.854065
"4049",78.3386,65.8674
"4050",78.28001,65.88074
"4051",78.22385,65.89407
"4052",78.17258,65.90741
"4053",78.12131,65.920746
"4054",78.07492,65.93408
"4055",78.02609,65.94742
"4056",77.98459,65.960754
"4057",77.95285,65.97409
"4058",77.93088,65.98743
"4059",77.92355,66.00076
"4060",77.92355,66.0141
"4061",77.93332,66.027435
"4062",77.94797,66.04077
"4063",77.97238,66.05411
"4064",77.99924,66.067444
"4065",78.028534,66.08078
"4066",78.07004,66.09412
"4067",78.11398,66.10745
"4068",78.16281,66.12079
"4069",78.21896,66.134125
"4070",78.28001,66.14746
"4071",78.3386,66.1608
"4072",78.39231,66.17413
"4073",78.44358,66.18747
"4074",78.485085,66.200806
"4075",78.52415,66.21414
"4076",78.555885,66.22748
"4077",78.58762,66.240814
"4078",78.63401,66.25415
"4079",78.71946,66.26749
"4080",78.87572,66.28082
"4081",79.149155,66.29416
"4082",79.554436,66.307495
"4083",80.093994,66.32083
"4084",80.723885,66.33417
"4085",81.3782,66.3475
"4086",81.98123,66.36084
"4087",82.476845,66.374176
"4088",82.82597,66.38751
"4089",83.03349,66.40085
"4090",83.11894,66.414185
"4091",83.11406,66.42752
"4092",83.05791,66.44086
"4093",82.984665,66.45419
"4094",82.916306,66.46753
"4095",82.865036,66.480865
"4096",82.83086,66.4942
"4097",82.80644,66.50754
"4098",82.774704,66.520874
"4099",82.7161,66.53421
"4100",82.61356,66.54755
"4101",82.459755,66.56088
"4102",82.24979,66.57422
"4103",82.00076,66.587555
"4104",81.72976,66.60089
"4105",81.47341,66.61423
"4106",81.25124,66.62756
"4107",81.075455,66.6409
"4108",80.9485,66.654236
"4109",80.86061,66.66757
"4110",80.79225,66.68091
"4111",80.72877,66.694244
"4112",80.66041,66.70758
"4113",80.57496,66.72092
"4114",80.47486,66.73425
"4115",80.35523,66.74759
"4116",80.216064,66.760925
"4117",80.0647,66.77426
"4118",79.91089,66.7876
"4119",79.75708,66.800934
"4120",79.61303,66.81427
"4121",79.48608,66.82761
"4122",79.37133,66.84094
"4123",79.27123,66.85428
"4124",79.183334,66.867615
"4125",79.097885,66.88095
"4126",79.01732,66.89429
"4127",78.93919,66.90762
"4128",78.870834,66.92096
"4129",78.80736,66.934296
"4130",78.75853,66.94763
"4131",78.72434,66.96097
"4132",78.70725,66.974304
"4133",78.70237,66.98764
"4134",78.70725,67.00098
"4135",78.71946,67.01431
"4136",78.729225,67.02765
"4137",78.73899,67.040985
"4138",78.751205,67.05432
"4139",78.77074,67.06766
"4140",78.79515,67.08099
"4141",78.82689,67.09433
"4142",78.86595,67.107666
"4143",78.9099,67.121
"4144",78.95628,67.13434
"4145",79.00267,67.147675
"4146",79.044174,67.16101
"4147",79.07591,67.17435
"4148",79.097885,67.18768
"4149",79.11253,67.20102
"4150",79.11742,67.214355
"4151",79.11986,67.22769
"4152",79.12718,67.24103
"4153",79.13451,67.254364
"4154",79.13939,67.2677
"4155",79.14183,67.28104
"4156",79.13695,67.29437
"4157",79.11986,67.30771
"4158",79.093,67.321045
"4159",79.05882,67.33438
"4160",79.0222,67.34772
"4161",78.992905,67.36105
"4162",78.975815,67.37439
"4163",78.96361,67.387726
"4164",78.958725,67.40106
"4165",78.94896,67.4144
"4166",78.93187,67.427734
"4167",78.91478,67.44107
"4168",78.89769,67.45441
"4169",78.88548,67.46774
"4170",78.88304,67.48108
"4171",78.90257,67.494415
"4172",78.9514,67.50775
"4173",79.06859,67.52109
"4174",79.293205,67.534424
"4175",79.656975,67.54776
"4176",80.15747,67.5611
"4177",80.77272,67.57443
"4178",81.43435,67.58777
"4179",82.06424,67.601105
"4180",82.58427,67.61444
"4181",82.95293,67.62778
"4182",83.16289,67.64111
"4183",83.23857,67.65445
"4184",83.22148,67.667786
"4185",83.1458,67.68112
"4186",83.0457,67.69446
"4187",82.9456,67.707794
"4188",82.85771,67.72113
"4189",82.76982,67.73447
"4190",82.684364,67.7478
"4191",82.58427,67.76114
"4192",82.459755,67.774475
"4193",82.29862,67.78781
"4194",82.10086,67.80115
"4195",81.881134,67.81448
"4196",81.64675,67.82782
"4197",81.41482,67.841156
"4198",81.20241,67.85449
"4199",81.02174,67.86783
"4200",80.8777,67.881165
"4201",80.77516,67.8945
"4202",80.71168,67.90784
"4203",80.66773,67.92117
"4204",80.63111,67.93451
"4205",80.584724,67.947845
"4206",80.52125,67.96118
"4207",80.44068,67.97452
"4208",80.33814,67.987854
"4209",80.218506,68.00119
"4210",80.08667,68.01453
"4211",79.94995,68.02786
"4212",79.80835,68.0412
"4213",79.67895,68.054535
"4214",79.5642,68.06787
"4215",79.466545,68.08121
"4216",79.38842,68.09454
"4217",79.32983,68.10788
"4218",79.28588,68.121216
"4219",79.24925,68.13455
"4220",79.21507,68.14789
"4221",79.183334,68.161224
"4222",79.15404,68.17456
"4223",79.12474,68.1879
"4224",79.10033,68.20123
"4225",79.078354,68.21457
"4226",79.061264,68.227905
"4227",79.044174,68.24124
"4228",79.027084,68.25458
"4229",79.012436,68.267914
"4230",78.99779,68.28125
"4231",78.97826,68.294586
"4232",78.958725,68.30792
"4233",78.93919,68.32126
"4234",78.91966,68.334595
"4235",78.907455,68.34793
"4236",78.90257,68.36127
"4237",78.90013,68.3746
"4238",78.90257,68.38794
"4239",78.90257,68.401276
"4240",78.89525,68.41461
"4241",78.87816,68.42795
"4242",78.85863,68.441284
"4243",78.83177,68.45462
"4244",78.80492,68.46796
"4245",78.79027,68.48129
"4246",78.78294,68.49463
"4247",78.785385,68.507965
"4248",78.79027,68.5213
"4249",78.79759,68.53464
"4250",78.79271,68.54797
"4251",78.785385,68.56131
"4252",78.77562,68.574646
"4253",78.77074,68.58798
"4254",78.77318,68.60132
"4255",78.78294,68.614655
"4256",78.80492,68.62799
"4257",78.83421,68.64133
"4258",78.870834,68.65466
"4259",78.90257,68.668
"4260",78.92699,68.681335
"4261",78.93187,68.69467
"4262",78.922104,68.70801
"4263",78.89769,68.721344
"4264",78.870834,68.73468
"4265",78.8513,68.74802
"4266",78.84642,68.76135
"4267",78.85863,68.77469
"4268",78.90257,68.788025
"4269",79.01488,68.80136
"4270",79.237045,68.8147
"4271",79.60082,68.82803
"4272",80.1062,68.84137
"4273",80.72144,68.854706
"4274",81.3782,68.86804
"4275",82.005646,68.88138
"4276",82.52567,68.894714
"4277",82.9041,68.90805
"4278",83.123825,68.92139
"4279",83.19951,68.93472
"4280",83.16289,68.94806
"4281",83.0457,68.961395
"4282",82.896774,68.97473
"4283",82.74784,68.98807
"4284",82.62333,69.0014
"4285",82.528114,69.01474
"4286",82.46952,69.028076
"4287",82.423134,69.04141
"4288",82.37675,69.05475
"4289",82.303505,69.068085
"4290",82.18143,69.08142
"4291",82.00076,69.09476
"4292",81.77615,69.10809
"4293",81.52224,69.12143
"4294",81.27322,69.134766
"4295",81.05348,69.1481
"4296",80.88747,69.16144
"4297",80.77516,69.174774
"4298",80.71168,69.18811
"4299",80.6775,69.20145
"4300",80.64576,69.21478
"4301",80.59205,69.22812
"4302",80.51148,69.241455
"4303",80.39918,69.25479
"4304",80.2649,69.26813
"4305",80.11841,69.28146
"4306",79.971924,69.2948
"4307",79.835205,69.308136
"4308",79.71313,69.32147
"4309",79.60815,69.33481
"4310",79.52758,69.348145
"4311",79.46166,69.36148
"4312",79.40063,69.37482
"4313",79.33227,69.38815
"4314",79.26147,69.40149
"4315",79.185776,69.414825
"4316",79.114975,69.42816
"4317",79.06615,69.4415
"4318",79.04173,69.454834
"4319",79.03441,69.46817
"4320",79.03685,69.48151
"4321",79.04173,69.49484
"4322",79.03441,69.50818
"4323",79.009995,69.521515
"4324",78.97093,69.53485
"4325",78.924545,69.54819
"4326",78.87816,69.56152
"4327",78.836655,69.57486
"4328",78.80736,69.588196
"4329",78.79027,69.60153
"4330",78.78294,69.61487
"4331",78.77806,69.628204
"4332",78.77562,69.64154
"4333",78.768295,69.65488
"4334",78.74876,69.66821
"4335",78.72434,69.68155
"4336",78.69993,69.694885
"4337",78.677956,69.70822
"4338",78.675514,69.72156
"4339",78.695045,69.73489
"4340",78.729225,69.74823
"4341",78.77074,69.761566
"4342",78.81224,69.7749
"4343",78.839096,69.78824
"4344",78.8513,69.801575
"4345",78.84642,69.81491
"4346",78.82445,69.82825
"4347",78.79515,69.84158
"4348",78.75609,69.85492
"4349",78.71702,69.868256
"4350",78.68528,69.88159
"4351",78.67063,69.89493
"4352",78.66575,69.908264
"4353",78.66819,69.9216
"4354",78.675514,69.93494
"4355",78.68284,69.94827
"4356",78.6804,69.96161
"4357",78.67307,69.974945
"4358",78.66331,69.98828
"4359",78.6511,70.00162
"4360",78.641335,70.01495
"4361",78.643776,70.02829
"4362",78.66331,70.041626
"4363",78.72678,70.05496
"4364",78.870834,70.0683
"4365",79.13695,70.081635
"4366",79.54955,70.09497
"4367",80.1062,70.10831
"4368",80.765396,70.12164
"4369",81.46609,70.13498
"4370",82.125275,70.148315
"4371",82.67948,70.16165
"4372",83.087204,70.17499
"4373",83.33868,70.188324
"4374",83.441216,70.20166
"4375",83.42901,70.215
"4376",83.33379,70.22833
"4377",83.19951,70.24167
"4378",83.06767,70.255005
"4379",82.96513,70.26834
"4380",82.896774,70.28168
"4381",82.862595,70.29501
"4382",82.83818,70.30835
"4383",82.79668,70.321686
"4384",82.71122,70.33502
"4385",82.57694,70.34836
"4386",82.391396,70.361694
"4387",82.1741,70.37503
"4388",81.95438,70.38837
"4389",81.75906,70.4017
"4390",81.60769,70.41504
"4391",81.50759,70.428375
"4392",81.45632,70.44171
"4393",81.43679,70.45505
"4394",81.42947,70.46838
"4395",81.40505,70.48172
"4396",81.35134,70.495056
"4397",81.26345,70.50839
"4398",81.13893,70.52173
"4399",80.98512,70.535065
"4400",80.82155,70.5484
"4401",80.65308,70.56174
"4402",80.49195,70.57507
"4403",80.34791,70.58841
"4404",80.22095,70.601746
"4405",80.10864,70.61508
"4406",80.008545,70.62842
"4407",79.91089,70.641754
"4408",79.81323,70.65509
"4409",79.71801,70.66843
"4410",79.63012,70.68176
"4411",79.54955,70.6951
"4412",79.47875,70.708435
"4413",79.42016,70.72177
"4414",79.36889,70.73511
"4415",79.32006,70.74844
"4416",79.26635,70.76178
"4417",79.21263,70.775116
"4418",79.149155,70.78845
"4419",79.078354,70.80179
"4420",79.00755,70.815125
"4421",78.94652,70.82846
"4422",78.90013,70.8418
"4423",78.86595,70.85513
"4424",78.84398,70.86847
"4425",78.82445,70.881805
"4426",78.80492,70.89514
"4427",78.7805,70.90848
"4428",78.75365,70.921814
"4429",78.7219,70.93515
"4430",78.69016,70.94849
"4431",78.66819,70.96182
"4432",78.65598,70.97516
"4433",78.65598,70.988495
"4434",78.67307,71.00183
"4435",78.70481,71.01517
"4436",78.73899,71.0285
"4437",78.76341,71.04184
"4438",78.77562,71.055176
"4439",78.77562,71.06851
"4440",78.76097,71.08185
"4441",78.74876,71.095184
"4442",78.74387,71.10852
"4443",78.75365,71.12186
"4444",78.77806,71.13519
"4445",78.81468,71.14853
"4446",78.84886,71.161865
"4447",78.87572,71.1752
"4448",78.88548,71.18854
"4449",78.873276,71.20187
"4450",78.84642,71.21521
"4451",78.8098,71.228546
"4452",78.77318,71.24188
"4453",78.751205,71.25522
"4454",78.75609,71.268555
"4455",78.8098,71.28189
"4456",78.95384,71.29523
"4457",79.21507,71.30856
"4458",79.61303,71.3219
"4459",80.13794,71.335236
"4460",80.74586,71.34857
"4461",81.38064,71.36191
"4462",81.96414,71.375244
"4463",82.44511,71.38858
"4464",82.791794,71.40192
"4465",82.99687,71.41525
"4466",83.07744,71.42859
"4467",83.06035,71.441925
"4468",82.98222,71.45526
"4469",82.86748,71.4686
"4470",82.7454,71.48193
"4471",82.63065,71.49527
"4472",82.528114,71.508606
"4473",82.44022,71.52194
"4474",82.354774,71.53528
"4475",82.25956,71.548615
"4476",82.144806,71.56195
"4477",82.003204,71.57529
"4478",81.83963,71.58862
"4479",81.668724,71.60196
"4480",81.51003,71.615295
"4481",81.37087,71.62863
"4482",81.26833,71.64197
"4483",81.19997,71.655304
"4484",81.15602,71.66864
"4485",81.129166,71.68198
"4486",81.10719,71.69531
"4487",81.07301,71.70865
"4488",81.01442,71.721985
"4489",80.92653,71.73532
"4490",80.8069,71.74866
"4491",80.66285,71.76199
"4492",80.50172,71.77533
"4493",80.33814,71.788666
"4494",80.181885,71.802
"4495",80.03784,71.81534
"4496",79.91089,71.828674
"4497",79.801025,71.84201
"4498",79.708244,71.85535
"4499",79.62768,71.86868
"4500",79.554436,71.88202
"4501",79.48852,71.895355
"4502",79.4226,71.90869
"4503",79.364006,71.92203
"4504",79.310295,71.93536
"4505",79.26879,71.9487
"4506",79.237045,71.962036
"4507",79.217514,71.97537
"4508",79.202866,71.98871
"4509",79.185776,72.002045
"4510",79.16136,72.01538
"4511",79.132065,72.02872
"4512",79.09056,72.04205
"4513",79.03685,72.05539
"4514",78.9807,72.068726
"4515",78.92699,72.08206
"4516",78.88304,72.0954
"4517",78.84642,72.108734
"4518",78.82445,72.12207
"4519",78.8098,72.13541
"4520",78.80003,72.14874
"4521",78.78783,72.16208
"4522",78.765854,72.175415
"4523",78.73411,72.18875
"4524",78.695045,72.20209
