"","ppg","time"
"1",82.36942,874.0952
"2",82.13992,874.1085
"3",81.7908,874.1218
"4",81.40261,874.13513
"5",81.02907,874.14844
"6",80.69703,874.16174
"7",80.41627,874.17505
"8",80.181885,874.18835
"9",79.97681,874.20166
"10",79.78882,874.21497
"11",79.62035,874.2283
"12",79.46899,874.2416
"13",79.3518,874.2549
"14",79.27856,874.2682
"15",79.259026,874.2815
"16",79.281,874.2948
"17",79.33471,874.3081
"18",79.40063,874.3214
"19",79.45678,874.3347
"20",79.483635,874.348
"21",79.47143,874.3613
"22",79.42504,874.37463
"23",79.3518,874.38794
"24",79.26147,874.40125
"25",79.15892,874.41455
"26",79.05882,874.42786
"27",78.96361,874.44116
"28",78.87572,874.45447
"29",78.802475,874.4678
"30",78.74387,874.4811
"31",78.69016,874.4944
"32",78.64622,874.5077
"33",78.6096,874.521
"34",78.5803,874.5343
"35",78.555885,874.5476
"36",78.538795,874.5609
"37",78.52903,874.5742
"38",78.521706,874.5875
"39",78.51194,874.6008
"40",78.49973,874.61414
"41",78.502174,874.62744
"42",78.56321,874.64075
"43",78.75853,874.65405
"44",79.14427,874.66736
"45",79.7351,874.68066
"46",80.46754,874.694
"47",81.22682,874.7073
"48",81.866486,874.7206
"49",82.27177,874.7339
"50",82.39872,874.7472
"51",82.28153,874.7605
"52",81.991,874.7738
"53",81.617455,874.7871
"54",81.22682,874.8004
"55",80.867935,874.8137
"56",80.56031,874.827
"57",80.30396,874.84033
"58",80.08667,874.85364
"59",79.89868,874.86694
"60",79.727776,874.88025
"61",79.57641,874.89355
"62",79.44213,874.90686
"63",79.344475,874.92017
"64",79.29565,874.9335
"65",79.293205,874.9468
"66",79.33227,874.9601
"67",79.40063,874.9734
"68",79.47631,874.9867
"69",79.534904,875
"70",79.56176,875.0133
"71",79.551994,875.0266
"72",79.51049,875.0399
"73",79.43969,875.0532
"74",79.35668,875.0665
"75",79.26635,875.07983
"76",79.17845,875.09314
"77",79.10033,875.10645
"78",79.029526,875.11975
"79",78.96849,875.13306
"80",78.91478,875.14636
"81",78.86839,875.15967
"82",78.82933,875.173
"83",78.79759,875.1863
"84",78.77562,875.1996
"85",78.75853,875.2129
"86",78.75365,875.2262
"87",78.751205,875.2395
"88",78.74876,875.2528
"89",78.74387,875.2661
"90",78.74143,875.2794
"91",78.77318,875.2927
"92",78.90013,875.306
"93",79.1931,875.31934
"94",79.68627,875.33264
"95",80.35279,875.34595
"96",81.094986,875.35925
"97",81.77615,875.37256
"98",82.269325,875.38586
"99",82.50126,875.3992
"100",82.46952,875.4125
"101",82.23514,875.4258
"102",81.883575,875.4391
"103",81.48562,875.4524
"104",81.094986,875.4657
"105",80.74586,875.479
"106",80.448006,875.4923
"107",80.198975,875.5056
"108",79.98413,875.5189
"109",79.79614,875.5322
"110",79.635,875.54553
"111",79.49828,875.55884
"112",79.40307,875.57214
"113",79.3518,875.58545
"114",79.35424,875.59875
"115",79.395744,875.61206
"116",79.4641,875.62537
"117",79.534904,875.6387
"118",79.586174,875.652
"119",79.60815,875.6653
"120",79.59106,875.6786
"121",79.537346,875.6919
"122",79.45922,875.7052
"123",79.37377,875.7185
"124",79.28588,875.7318
"125",79.202866,875.7451
"126",79.12718,875.7584
"127",79.05882,875.7717
"128",78.995346,875.78503
"129",78.93675,875.79834
"130",78.88304,875.81165
"131",78.839096,875.82495
"132",78.80492,875.83826
"133",78.77562,875.85156
"134",78.75365,875.86487
"135",78.73411,875.8782
"136",78.71702,875.8915
"137",78.71702,875.9048
"138",78.77074,875.9181
"139",78.9514,875.9314
"140",79.31762,875.9447
"141",79.88159,875.958
"142",80.58961,875.9713
"143",81.33181,875.9846
"144",81.96414,875.9979
"145",82.36454,876.0112
"146",82.48661,876.02454
"147",82.3621,876.03784
"148",82.06424,876.05115
"149",81.68093,876.06445
"150",81.2781,876.07776
"151",80.90456,876.09106
"152",80.587166,876.1044
"153",80.325935,876.1177
"154",80.10376,876.131
"155",79.91089,876.1443
"156",79.74731,876.1576
"157",79.603264,876.1709
"158",79.49584,876.1842
"159",79.43481,876.1975
"160",79.432365,876.2108
"161",79.47387,876.2241
"162",79.54955,876.2374
"163",79.635,876.25073
"164",79.72045,876.26404
"165",79.781494,876.27734
"166",79.80591,876.29065
"167",79.798584,876.30396
"168",79.75464,876.31726
"169",79.691154,876.33057
"170",79.61791,876.3439
"171",79.54467,876.3572
"172",79.47875,876.3705
"173",79.41772,876.3838
"174",79.35912,876.3971
"175",79.30785,876.4104
"176",79.256584,876.4237
"177",79.21263,876.437
"178",79.17357,876.4503
"179",79.13939,876.4636
"180",79.10521,876.4769
"181",79.078354,876.49023
"182",79.097885,876.50354
"183",79.219955,876.51685
"184",79.51293,876.53015
"185",80.008545,876.54346
"186",80.66773,876.55676
"187",81.40017,876.57007
"188",82.06424,876.5834
"189",82.533,876.5967
"190",82.73075,876.61
"191",82.66483,876.6233
"192",82.39628,876.6366
"193",82.005646,876.6499
"194",81.57839,876.6632
"195",81.163345,876.6765
"196",80.799576,876.6898
"197",80.48951,876.7031
"198",80.233154,876.71643
"199",80.01343,876.72974
"200",79.83032,876.74304
"201",79.68139,876.75635
"202",79.57641,876.76965
"203",79.52514,876.78296
"204",79.52514,876.79626
"205",79.57397,876.8096
"206",79.65209,876.8229
"207",79.73998,876.8362
"208",79.815674,876.8495
"209",79.869385,876.8628
"210",79.886475,876.8761
"211",79.8645,876.8894
"212",79.81079,876.9027
"213",79.73998,876.916
"214",79.65453,876.9293
"215",79.569084,876.9426
"216",79.49584,876.95593
"217",79.42504,876.96924
"218",79.36645,876.98254
"219",79.31518,876.99585
"220",79.26879,877.00916
"221",79.2224,877.02246
"222",79.18089,877.03577
"223",79.13695,877.0491
"224",79.09544,877.0624
"225",79.063705,877.0757
"226",79.061264,877.089
"227",79.14427,877.1023
"228",79.39086,877.1156
"229",79.84253,877.1289
"230",80.48463,877.1422
"231",81.234146,877.1555
"232",81.95682,877.1688
"233",82.50858,877.1821
"234",82.794235,877.19543
"235",82.79668,877.20874
"236",82.56718,877.22205
"237",82.19119,877.23535
"238",81.75174,877.24866
"239",81.31716,877.26196
"240",80.919205,877.27527
"241",80.57984,877.2886
"242",80.29664,877.3019
"243",80.05493,877.3152
"244",79.84985,877.3285
"245",79.68871,877.3418
"246",79.57397,877.3551
"247",79.51293,877.3684
"248",79.50805,877.3817
"249",79.55688,877.395
"250",79.64233,877.4083
"251",79.73998,877.42163
"252",79.835205,877.43494
"253",79.903564,877.44824
"254",79.93286,877.46155
"255",79.92554,877.47485
"256",79.88159,877.48816
"257",79.81323,877.50146
"258",79.7351,877.5148
"259",79.64965,877.5281
"260",79.56664,877.5414
"261",79.48852,877.5547
"262",79.4226,877.568
"263",79.364006,877.5813
"264",79.31274,877.5946
"265",79.27123,877.6079
"266",79.234604,877.6212
"267",79.202866,877.6345
"268",79.17113,877.6478
"269",79.14427,877.66113
"270",79.11986,877.67444
"271",79.11986,877.68774
"272",79.202866,877.70105
"273",79.447014,877.71436
"274",79.89624,877.72766
"275",80.54078,877.74097
"276",81.30007,877.7543
"277",82.037384,877.7676
"278",82.61112,877.7809
"279",82.91875,877.7942
"280",82.93828,877.8075
"281",82.720985,877.8208
"282",82.34745,877.8341
"283",81.900665,877.8474
"284",81.45144,877.8607
"285",81.041275,877.874
"286",80.689705,877.8873
"287",80.394295,877.90063
"288",80.15015,877.91394
"289",79.94751,877.92725
"290",79.78638,877.94055
"291",79.66918,877.95386
"292",79.61303,877.96716
"293",79.61059,877.98047
"294",79.65942,877.9938
"295",79.744865,878.0071
"296",79.84497,878.0204
"297",79.940186,878.0337
"298",80.01343,878.047
"299",80.05005,878.0603
"300",80.045166,878.0736
"301",80.0061,878.0869
"302",79.93286,878.1002
"303",79.83765,878.1135
"304",79.73998,878.12683
"305",79.64477,878.14014
"306",79.55688,878.15344
"307",79.483635,878.16675
"308",79.42504,878.18005
"309",79.37377,878.19336
"310",79.32983,878.20667
"311",79.28832,878.22
"312",79.24925,878.2333
"313",79.21263,878.2466
"314",79.17845,878.2599
"315",79.14427,878.2732
"316",79.11742,878.2865
"317",79.132065,878.2998
"318",79.259026,878.3131
"319",79.57397,878.3264
"320",80.10864,878.3397
"321",80.82643,878.353
"322",81.617455,878.36633
"323",82.33036,878.37964
"324",82.828415,878.39294
"325",83.03105,878.40625
"326",82.95537,878.41956
"327",82.66483,878.43286
"328",82.24979,878.44617
"329",81.78836,878.4595
"330",81.33181,878.4728
"331",80.91432,878.4861
"332",80.5481,878.4994
"333",80.235596,878.5127
"334",79.974365,878.526
"335",79.77173,878.5393
"336",79.62524,878.5526
"337",79.537346,878.5659
"338",79.51049,878.5792
"339",79.53979,878.5925
"340",79.61547,878.60583
"341",79.72045,878.61914
"342",79.83765,878.63245
"343",79.940186,878.64575
"344",80.008545,878.65906
"345",80.03296,878.67236
"346",80.0061,878.68567
"347",79.94507,878.699
"348",79.85962,878.7123
"349",79.764404,878.7256
"350",79.66674,878.7389
"351",79.57641,878.7522
"352",79.49096,878.7655
"353",79.41772,878.7788
"354",79.3518,878.7921
"355",79.29565,878.8054
"356",79.24437,878.8187
"357",79.19798,878.83203
"358",79.15648,878.84534
"359",79.11986,878.85864
"360",79.08812,878.87195
"361",79.05638,878.88525
"362",79.0515,878.89856
"363",79.12718,878.91187
"364",79.361565,878.9252
"365",79.798584,878.9385
"366",80.43824,878.9518
"367",81.20241,878.9651
"368",81.94949,878.9784
"369",82.533,878.9917
"370",82.85283,879.005
"371",82.879684,879.0183
"372",82.669716,879.0316
"373",82.29862,879.0449
"374",81.85916,879.0582
"375",81.41238,879.07153
"376",81.00221,879.08484
"377",80.64332,879.09814
"378",80.33814,879.11145
"379",80.08423,879.12476
"380",79.87671,879.13806
"381",79.71313,879.15137
"382",79.605705,879.1647
"383",79.56176,879.178
"384",79.58373,879.1913
"385",79.65942,879.2046
"386",79.76929,879.2179
"387",79.886475,879.2312
"388",79.98657,879.2445
"389",80.04761,879.2578
"390",80.0647,879.2711
"391",80.04028,879.2844
"392",79.98657,879.2977
"393",79.90845,879.31104
"394",79.818115,879.32434
"395",79.72045,879.33765
"396",79.62768,879.35095
"397",79.54223,879.36426
"398",79.466545,879.37756
"399",79.40063,879.39087
"400",79.344475,879.4042
"401",79.29565,879.4175
"402",79.24681,879.4308
"403",79.19798,879.4441
"404",79.15404,879.4574
"405",79.10521,879.4707
"406",79.063705,879.484
"407",79.04173,879.4973
"408",79.08324,879.5106
"409",79.259026,879.5239
"410",79.63012,879.53723
"411",80.216064,879.55054
"412",80.95827,879.56384
"413",81.74197,879.57715
"414",82.41825,879.59045
"415",82.85771,879.60376
"416",83.004196,879.61707
"417",82.88945,879.6304
"418",82.581825,879.6437
"419",82.17166,879.657
"420",81.73708,879.6703
"421",81.324486,879.6836
"422",80.953384,879.6969
"423",80.62867,879.7102
"424",80.35523,879.7235
"425",80.12085,879.7368
"426",79.92554,879.7501
"427",79.77661,879.7634
"428",79.68627,879.77673
"429",79.656975,879.79004
"430",79.691154,879.80334
"431",79.76929,879.81665
"432",79.87671,879.82996
"433",79.98657,879.84326
"434",80.06958,879.85657
"435",80.111084,879.8699
"436",80.111084,879.8832
"437",80.06714,879.8965
"438",79.991455,879.9098
"439",79.89136,879.9231
"440",79.783936,879.9364
"441",79.67895,879.9497
"442",79.58129,879.963
"443",79.49584,879.9763
"444",79.42504,879.9896
"445",79.35912,880.0029
"446",79.30053,880.01624
"447",79.24681,880.02954
"448",79.19798,880.04285
"449",79.149155,880.05615
"450",79.10277,880.06946
"451",79.05882,880.08276
"452",79.027084,880.09607
"453",79.029526,880.1094
"454",79.13939,880.1227
"455",79.432365,880.136
"456",79.937744,880.1493
"457",80.618904,880.1626
"458",81.38552,880.1759
"459",82.091095,880.1892
"460",82.598915,880.2025
"461",82.8333,880.2158
"462",82.79668,880.2291
"463",82.547646,880.24243
"464",82.16678,880.25574
"465",81.73464,880.26904
"466",81.30984,880.28235
"467",80.92409,880.29565
"468",80.58961,880.30896
"469",80.30152,880.32227
"470",80.05737,880.3356
"471",79.852295,880.3489
"472",79.68871,880.3622
"473",79.58129,880.3755
"474",79.537346,880.3888
"475",79.554436,880.4021
"476",79.62035,880.4154
"477",79.72045,880.4287
"478",79.823,880.442
"479",79.903564,880.4553
"480",79.94995,880.4686
"481",79.957275,880.48193
"482",79.923096,880.49524
"483",79.85962,880.50854
"484",79.77417,880.52185
"485",79.674065,880.53516
"486",79.569084,880.54846
"487",79.46899,880.56177
"488",79.37621,880.5751
"489",79.29565,880.5884
"490",79.22972,880.6017
"491",79.17601,880.615
"492",79.12962,880.6283
"493",79.08568,880.6416
"494",79.04906,880.6549
"495",79.01488,880.6682
"496",78.97826,880.6815
"497",78.94408,880.6948
"498",78.91478,880.7081
"499",78.922104,880.72144
"500",79.029526,880.73474
"501",79.31274,880.74805
"502",79.82056,880.76135
"503",80.516365,880.77466
"504",81.30984,880.78796
"505",82.04959,880.8013
"506",82.598915,880.8146
"507",82.86748,880.8279
"508",82.85771,880.8412
"509",82.62089,880.8545
"510",82.252235,880.8678
"511",81.82742,880.8811
"512",81.40505,880.8944
"513",81.02174,880.9077
"514",80.68482,880.921
"515",80.38941,880.9343
"516",80.13306,880.94763
"517",79.91577,880.96094
"518",79.742424,880.97424
"519",79.62524,880.98755
"520",79.571526,881.00085
"521",79.57641,881.01416
"522",79.635,881.02747
"523",79.727776,881.0408
"524",79.82788,881.0541
"525",79.91577,881.0674
"526",79.971924,881.0807
"527",79.98901,881.094
"528",79.954834,881.1073
"529",79.88159,881.1206
"530",79.77905,881.1339
"531",79.66186,881.1472
"532",79.53979,881.1605
"533",79.42748,881.1738
"534",79.32494,881.18713
"535",79.24193,881.20044
"536",79.17113,881.21375
"537",79.10277,881.22705
"538",79.04173,881.24036
"539",78.98558,881.25366
"540",78.93675,881.26697
"541",78.890366,881.2803
"542",78.84642,881.2936
"543",78.8098,881.3069
"544",78.77562,881.3202
"545",78.75853,881.3335
"546",78.80492,881.3468
"547",78.99046,881.3601
"548",79.37133,881.3734
"549",79.96216,881.3867
"550",80.706795,881.4
"551",81.495384,881.4133
"552",82.17166,881.42664
"553",82.61112,881.43994
"554",82.76738,881.45325
"555",82.65995,881.46655
"556",82.36454,881.47986
"557",81.96414,881.49316
"558",81.529564,881.5065
"559",81.11452,881.5198
"560",80.74586,881.5331
"561",80.428474,881.5464
"562",80.16235,881.5597
"563",79.940186,881.573
"564",79.75464,881.5863
"565",79.61059,881.5996
"566",79.517815,881.6129
"567",79.49096,881.6262
"568",79.52758,881.6395
"569",79.61791,881.65283
"570",79.73266,881.66614
"571",79.84741,881.67944
"572",79.93042,881.69275
"573",79.96704,881.70605
"574",79.95239,881.71936
"575",79.90112,881.73267
"576",79.82056,881.746
"577",79.72289,881.7593
"578",79.622795,881.7726
"579",79.52514,881.7859
"580",79.432365,881.7992
"581",79.34692,881.8125
"582",79.27123,881.8258
"583",79.20775,881.8391
"584",79.149155,881.8524
"585",79.097885,881.8657
"586",79.044174,881.879
"587",78.995346,881.89233
"588",78.9514,881.90564
"589",78.91478,881.91895
"590",78.87816,881.93225
"591",78.84886,881.94556
"592",78.82933,881.95886
"593",78.84398,881.97217
"594",78.94408,881.9855
"595",79.202866,881.9988
"596",79.67162,882.0121
"597",80.343025,882.0254
"598",81.13405,882.0387
"599",81.90799,882.052
"600",82.51591,882.0653
"601",82.862595,882.0786
"602",82.91875,882.0919
"603",82.73075,882.1052
"604",82.38163,882.1185
"605",81.95926,882.13184
"606",81.529564,882.14514
"607",81.13161,882.15845
"608",80.782486,882.17175
"609",80.48463,882.18506
"610",80.235596,882.19836
"611",80.025635,882.2117
"612",79.85718,882.225
"613",79.7351,882.2383
"614",79.674065,882.2516
"615",79.67895,882.2649
"616",79.744865,882.2782
"617",79.85474,882.2915
"618",79.98413,882.3048
"619",80.09888,882.3181
"620",80.17456,882.3314
"621",80.201416,882.3447
"622",80.17456,882.35803
"623",80.1062,882.37134
"624",80.01099,882.38464
"625",79.903564,882.39795
"626",79.7937,882.41125
"627",79.68871,882.42456
"628",79.588615,882.43787
"629",79.4934,882.4512
"630",79.40551,882.4645
"631",79.32983,882.4778
"632",79.26635,882.4911
"633",79.219955,882.5044
"634",79.18089,882.5177
"635",79.14671,882.531
"636",79.114975,882.5443
"637",79.08568,882.5576
"638",79.0515,882.5709
"639",79.027084,882.5842
"640",79.03929,882.59753
"641",79.14427,882.61084
"642",79.415276,882.62415
"643",79.89868,882.63745
"644",80.57252,882.65076
"645",81.3489,882.66406
"646",82.08865,882.67737
"647",82.652626,882.6907
"648",82.94316,882.704
"649",82.950485,882.7173
"650",82.73319,882.7306
"651",82.374306,882.7439
"652",81.95682,882.7572
"653",81.53933,882.7705
"654",81.15846,882.7838
"655",80.82643,882.7971
"656",80.54322,882.8104
"657",80.29908,882.8237
"658",80.093994,882.83704
"659",79.93286,882.85034
"660",79.82544,882.86365
"661",79.781494,882.87695
"662",79.80591,882.89026
"663",79.888916,882.90356
"664",80.008545,882.9169
"665",80.13794,882.9302
"666",80.2478,882.9435
"667",80.31373,882.9568
"668",80.3357,882.9701
"669",80.31373,882.9834
"670",80.25269,882.9967
"671",80.164795,883.01
"672",80.059814,883.0233
"673",79.94751,883.0366
"674",79.84253,883.0499
"675",79.74975,883.06323
"676",79.674065,883.07654
"677",79.61547,883.08984
"678",79.56664,883.10315
"679",79.5227,883.11646
"680",79.47875,883.12976
"681",79.43481,883.14307
"682",79.395744,883.1564
"683",79.35424,883.1697
"684",79.3225,883.183
"685",79.31274,883.1963
"686",79.381096,883.2096
"687",79.60082,883.2229
"688",80.025635,883.2362
"689",80.65797,883.2495
"690",81.427025,883.2628
"691",82.20828,883.2761
"692",82.847946,883.2894
"693",83.23125,883.30273
"694",83.32647,883.31604
"695",83.16777,883.32935
"696",82.83574,883.34265
"697",82.41825,883.35596
"698",81.99588,883.36926
"699",81.60525,883.38257
"700",81.26833,883.3959
"701",80.987564,883.4092
"702",80.7483,883.4225
"703",80.53834,883.4358
"704",80.360115,883.4491
"705",80.21362,883.4624
"706",80.11841,883.4757
"707",80.079346,883.489
"708",80.10864,883.5023
"709",80.19165,883.5156
"710",80.306404,883.52893
"711",80.42603,883.54224
"712",80.52125,883.55554
"713",80.56519,883.56885
"714",80.552986,883.58215
"715",80.48951,883.59546
"716",80.38941,883.60876
"717",80.26978,883.6221
"718",80.14282,883.6354
"719",80.02319,883.6487
"720",79.91333,883.662
"721",79.818115,883.6753
"722",79.742424,883.6886
"723",79.674065,883.7019
"724",79.61059,883.7152
"725",79.551994,883.7285
"726",79.49096,883.7418
"727",79.42504,883.7551
"728",79.36889,883.76843
"729",79.33471,883.78174
"730",79.36645,883.79504
"731",79.53979,883.80835
"732",79.91821,883.82166
"733",80.51148,883.83496
"734",81.25857,883.84827
"735",82.039825,883.8616
"736",82.69901,883.8749
"737",83.11894,883.8882
"738",83.24834,883.9015
"739",83.12627,883.9148
"740",82.828415,883.9281
"741",82.44511,883.9414
"742",82.04471,883.9547
"743",81.668724,883.968
"744",81.33425,883.9813
"745",81.0486,883.9946
"746",80.80446,884.00793
"747",80.587166,884.02124
"748",80.38941,884.03455
"749",80.216064,884.04785
"750",80.07202,884.06116
"751",79.96704,884.07446
"752",79.91821,884.08777
"753",79.920654,884.1011
"754",79.9646,884.1144
"755",80.0354,884.1277
"756",80.10864,884.141
"757",80.15259,884.1543
"758",80.15503,884.1676
"759",80.11597,884.1809
"760",80.04028,884.1942
"761",79.937744,884.2075
"762",79.82788,884.2208
"763",79.71557,884.23413
"764",79.60815,884.24744
"765",79.50561,884.26074
"766",79.41039,884.27405
"767",79.32494,884.28735
"768",79.24925,884.30066
"769",79.17845,884.31396
"770",79.11253,884.3273
"771",79.04906,884.3406
"772",78.99046,884.3539
"773",78.95384,884.3672
"774",78.9807,884.3805
"775",79.14427,884.3938
"776",79.51049,884.4071
"777",80.09155,884.4204
"778",80.833755,884.4337
"779",81.61257,884.447
"780",82.28153,884.4603
"781",82.71366,884.47363
"782",82.86015,884.48694
"783",82.75517,884.50024
"784",82.476845,884.51355
"785",82.11307,884.52686
"786",81.7322,884.54016
"787",81.3782,884.55347
"788",81.06569,884.5668
"789",80.797134,884.5801
"790",80.567635,884.5934
"791",80.36256,884.6067
"792",80.16724,884.62
"793",79.98413,884.6333
"794",79.818115,884.6466
"795",79.68627,884.6599
"796",79.60082,884.6732
"797",79.57397,884.6865
"798",79.59594,884.6998
"799",79.65209,884.71313
"800",79.71801,884.72644
"801",79.76196,884.73975
"802",79.77173,884.75305
"803",79.744865,884.76636
"804",79.68139,884.77966
"805",79.5935,884.79297
"806",79.4934,884.8063
"807",79.38842,884.8196
"808",79.28588,884.8329
"809",79.19066,884.8462
"810",79.10521,884.8595
"811",79.027084,884.8728
"812",78.958725,884.8861
"813",78.89525,884.8994
"814",78.83421,884.9127
"815",78.77806,884.926
"816",78.72434,884.93933
"817",78.677956,884.95264
"818",78.66575,884.96594
"819",78.746315,884.97925
"820",78.99046,884.99255
"821",79.447014,885.00586
"822",80.10376,885.01917
"823",80.87526,885.0325
"824",81.62234,885.0458
"825",82.20584,885.0591
"826",82.52567,885.0724
"827",82.5745,885.0857
"828",82.40116,885.099
"829",82.09354,885.1123
"830",81.73708,885.1256
"831",81.38308,885.1389
"832",81.06813,885.1522
"833",80.80446,885.1655
"834",80.58961,885.17883
"835",80.40406,885.19214
"836",80.233154,885.20544
"837",80.06714,885.21875
"838",79.906006,885.23206
"839",79.75708,885.24536
"840",79.635,885.25867
"841",79.55932,885.272
"842",79.53246,885.2853
"843",79.54711,885.2986
"844",79.588615,885.3119
"845",79.63744,885.3252
"846",79.67162,885.3385
"847",79.68139,885.3518
"848",79.656975,885.3651
"849",79.60082,885.3784
"850",79.517815,885.3917
"851",79.41772,885.405
"852",79.31762,885.41833
"853",79.217514,885.43164
"854",79.12474,885.44495
"855",79.044174,885.45825
"856",78.97337,885.47156
"857",78.907455,885.48486
"858",78.8513,885.49817
"859",78.80492,885.5115
"860",78.76097,885.5248
"861",78.71946,885.5381
"862",78.6804,885.5514
"863",78.643776,885.5647
"864",78.63401,885.578
"865",78.70237,885.5913
"866",78.93431,885.6046
"867",79.37377,885.6179
"868",80.01831,885.6312
"869",80.782486,885.64453
"870",81.53445,885.65784
"871",82.125275,885.67114
"872",82.459755,885.68445
"873",82.52079,885.69775
"874",82.357216,885.71106
"875",82.05936,885.72437
"876",81.71267,885.7377
"877",81.375755,885.751
"878",81.077896,885.7643
"879",80.833755,885.7776
"880",80.63111,885.7909
"881",80.46021,885.8042
"882",80.29908,885.8175
"883",80.1355,885.8308
"884",79.96704,885.8441
"885",79.80347,885.8574
"886",79.656975,885.8707
"887",79.551994,885.88403
"888",79.49584,885.89734
"889",79.49096,885.91064
"890",79.517815,885.92395
"891",79.56176,885.93726
"892",79.5935,885.95056
"893",79.59838,885.96387
"894",79.571526,885.9772
"895",79.517815,885.9905
"896",79.43969,886.0038
"897",79.3518,886.0171
"898",79.26147,886.0304
"899",79.166245,886.0437
"900",79.07591,886.057
"901",78.98558,886.0703
"902",78.89769,886.0836
"903",78.81712,886.0969
"904",78.751205,886.1102
"905",78.69749,886.12354
"906",78.65354,886.13684
"907",78.6218,886.15015
"908",78.590065,886.16345
"909",78.56077,886.17676
"910",78.53391,886.19006
"911",78.51194,886.20337
"912",78.521706,886.2167
"913",78.626686,886.23
"914",78.89525,886.2433
"915",79.36889,886.2566
"916",80.02319,886.2699
"917",80.76784,886.2832
"918",81.46609,886.2965
"919",81.98123,886.3098
"920",82.23758,886.3231
"921",82.2327,886.3364
"922",82.03494,886.34973
"923",81.72732,886.36304
"924",81.3904,886.37634
"925",81.07301,886.38965
"926",80.799576,886.40295
"927",80.57496,886.41626
"928",80.38941,886.42957
"929",80.22583,886.4429
"930",80.06714,886.4562
"931",79.906006,886.4695
"932",79.74731,886.4828
"933",79.60082,886.4961
"934",79.48119,886.5094
"935",79.40795,886.5227
"936",79.38598,886.536
"937",79.40063,886.5493
"938",79.44457,886.5626
"939",79.4934,886.5759
"940",79.52758,886.58923
"941",79.53246,886.60254
"942",79.50805,886.61584
"943",79.4519,886.62915
"944",79.37377,886.64246
"945",79.28344,886.65576
"946",79.19066,886.66907
"947",79.10033,886.6824
"948",79.00755,886.6957
"949",78.91966,886.709
"950",78.836655,886.7223
"951",78.75853,886.7356
"952",78.68772,886.7489
"953",78.63645,886.7622
"954",78.59983,886.7755
"955",78.57053,886.7888
"956",78.54856,886.8021
"957",78.52659,886.8154
"958",78.504616,886.82874
"959",78.47776,886.84204
"960",78.450905,886.85535
"961",78.42649,886.86865
"962",78.4387,886.88196
"963",78.54612,886.89526
"964",78.819565,886.90857
"965",79.29809,886.9219
"966",79.94507,886.9352
"967",80.67017,886.9485
"968",81.3489,886.9618
"969",81.83719,886.9751
"970",82.07156,886.9884
"971",82.054474,887.0017
"972",81.85184,887.015
"973",81.53689,887.0283
"974",81.197525,887.0416
"975",80.87282,887.05493
"976",80.59937,887.06824
"977",80.377205,887.08154
"978",80.201416,887.09485
"979",80.05005,887.10815
"980",79.91333,887.12146
"981",79.77905,887.13477
"982",79.64477,887.1481
"983",79.5227,887.1614
"984",79.4226,887.1747
"985",79.35912,887.188
"986",79.34203,887.2013
"987",79.361565,887.2146
"988",79.40307,887.2279
"989",79.45434,887.2412
"990",79.48852,887.2545
"991",79.49096,887.2678
"992",79.46166,887.2811
"993",79.40795,887.29443
"994",79.33227,887.30774
"995",79.2517,887.32104
"996",79.168686,887.33435
"997",79.08812,887.34766
"998",79.009995,887.36096
"999",78.93431,887.37427
"1000",78.86595,887.3876
"1001",78.802475,887.4009
"1002",78.74143,887.4142
"1003",78.68528,887.4275
"1004",78.63889,887.4408
"1005",78.59739,887.4541
"1006",78.56809,887.4674
"1007",78.555885,887.4807
"1008",78.553444,887.494
"1009",78.55833,887.5073
"1010",78.56321,887.5206
"1011",78.56321,887.53394
"1012",78.555885,887.54724
"1013",78.538795,887.56055
"1014",78.521706,887.57385
"1015",78.52903,887.58716
"1016",78.61936,887.60046
"1017",78.85863,887.6138
"1018",79.293205,887.6271
"1019",79.90112,887.6404
"1020",80.604256,887.6537
"1021",81.270775,887.667
"1022",81.76395,887.6803
"1023",82.00809,887.6936
"1024",82.003204,887.7069
"1025",81.80789,887.7202
"1026",81.51003,887.7335
"1027",81.17799,887.7468
"1028",80.86305,887.76013
"1029",80.59205,887.77344
"1030",80.36988,887.78674
"1031",80.19409,887.80005
"1032",80.05493,887.81335
"1033",79.93286,887.82666
"1034",79.815674,887.83997
"1035",79.7058,887.8533
"1036",79.60815,887.8666
"1037",79.534904,887.8799
"1038",79.4934,887.8932
"1039",79.4934,887.9065
"1040",79.520256,887.9198
"1041",79.569084,887.9331
"1042",79.62035,887.9464
"1043",79.65942,887.9597
"1044",79.66918,887.973
"1045",79.64721,887.9863
"1046",79.59594,887.99963
"1047",79.5227,888.01294
"1048",79.43725,888.02625
"1049",79.34936,888.03955
"1050",79.26879,888.05286
"1051",79.1931,888.06616
"1052",79.12718,888.07947
"1053",79.06859,888.0928
"1054",79.01488,888.1061
"1055",78.96361,888.1194
"1056",78.91478,888.1327
"1057",78.870834,888.146
"1058",78.83421,888.1593
"1059",78.80492,888.1726
"1060",78.785385,888.1859
"1061",78.768295,888.1992
"1062",78.75609,888.2125
"1063",78.74876,888.2258
"1064",78.74143,888.23914
"1065",78.73899,888.25244
"1066",78.73655,888.26575
"1067",78.73655,888.27905
"1068",78.73411,888.29236
"1069",78.72434,888.30566
"1070",78.709694,888.319
"1071",78.69749,888.3323
"1072",78.68284,888.3456
"1073",78.70725,888.3589
"1074",78.83177,888.3722
"1075",79.11986,888.3855
"1076",79.60082,888.3988
"1077",80.2478,888.4121
"1078",80.96315,888.4254
"1079",81.61013,888.4387
"1080",82.06668,888.452
"1081",82.266884,888.46533
"1082",82.22537,888.47864
"1083",82.01297,888.49194
"1084",81.70779,888.50525
"1085",81.38064,888.51855
"1086",81.077896,888.53186
"1087",80.82155,888.54517
"1088",80.61402,888.5585
"1089",80.45045,888.5718
"1090",80.31617,888.5851
"1091",80.198975,888.5984
"1092",80.08667,888.6117
"1093",79.98413,888.625
"1094",79.89624,888.6383
"1095",79.83276,888.6516
"1096",79.80591,888.6649
"1097",79.81323,888.6782
"1098",79.85474,888.6915
"1099",79.90845,888.70483
"1100",79.9646,888.71814
"1101",79.99878,888.73145
"1102",80.00366,888.74475
"1103",79.974365,888.75806
"1104",79.91821,888.77136
"1105",79.84253,888.78467
"1106",79.75952,888.798
"1107",79.674065,888.8113
"1108",79.59594,888.8246
"1109",79.5227,888.8379
"1110",79.45678,888.8512
"1111",79.395744,888.8645
"1112",79.33959,888.8778
"1113",79.28588,888.8911
"1114",79.237045,888.9044
"1115",79.19554,888.9177
"1116",79.15648,888.931
"1117",79.1223,888.94434
"1118",79.093,888.95764
"1119",79.06859,888.97095
"1120",79.04906,888.98425
"1121",79.03441,888.99756
"1122",79.027084,889.01086
"1123",79.02464,889.0242
"1124",79.0222,889.0375
"1125",79.02464,889.0508
"1126",79.02464,889.0641
"1127",79.0222,889.0774
"1128",79.009995,889.0907
"1129",78.995346,889.104
"1130",78.97337,889.1173
"1131",78.94896,889.1306
"1132",78.94652,889.1439
"1133",79.0222,889.1572
"1134",79.237045,889.17053
"1135",79.64477,889.18384
"1136",80.24048,889.19714
"1137",80.9485,889.21045
"1138",81.64675,889.22375
"1139",82.20584,889.23706
"1140",82.533,889.25037
"1141",82.60624,889.2637
"1142",82.47196,889.277
"1143",82.20828,889.2903
"1144",81.883575,889.3036
"1145",81.55886,889.3169
"1146",81.26589,889.3302
"1147",81.02174,889.3435
"1148",80.82643,889.3568
"1149",80.67017,889.3701
"1150",80.54322,889.3834
"1151",80.428474,889.3967
"1152",80.31861,889.41003
"1153",80.218506,889.42334
"1154",80.14038,889.43665
"1155",80.093994,889.44995
"1156",80.08911,889.46326
"1157",80.11597,889.47656
"1158",80.17212,889.48987
"1159",80.233154,889.5032
"1160",80.27955,889.5165
"1161",80.29908,889.5298
"1162",80.28687,889.5431
"1163",80.24292,889.5564
"1164",80.16968,889.5697
"1165",80.07446,889.583
"1166",79.974365,889.5963
"1167",79.87915,889.6096
"1168",79.78638,889.6229
"1169",79.708244,889.6362
"1170",79.639885,889.64954
"1171",79.57397,889.66284
"1172",79.51293,889.67615
"1173",79.45434,889.68945
"1174",79.398186,889.70276
"1175",79.34936,889.71606
"1176",79.30541,889.7294
"1177",79.27123,889.7427
"1178",79.24193,889.756
"1179",79.217514,889.7693
"1180",79.1931,889.7826
"1181",79.17113,889.7959
"1182",79.15404,889.8092
"1183",79.13695,889.8225
"1184",79.11986,889.8358
"1185",79.10277,889.8491
"1186",79.08812,889.8624
"1187",79.06859,889.87573
"1188",79.04906,889.88904
"1189",79.027084,889.90234
"1190",79.00755,889.91565
"1191",79.00755,889.92896
"1192",79.08812,889.94226
"1193",79.3225,889.95557
"1194",79.74731,889.9689
"1195",80.35523,889.9822
"1196",81.06325,889.9955
"1197",81.75174,890.0088
"1198",82.28397,890.0221
"1199",82.58427,890.0354
"1200",82.64042,890.0487
"1201",82.49882,890.062
"1202",82.23514,890.0753
"1203",81.91287,890.0886
"1204",81.58572,890.1019
"1205",81.28298,890.11523
"1206",81.01442,890.12854
"1207",80.78981,890.14185
"1208",80.601814,890.15515
"1209",80.43824,890.16846
"1210",80.29908,890.18176
"1211",80.17944,890.19507
"1212",80.08179,890.2084
"1213",80.01099,890.2217
"1214",79.97925,890.235
"1215",79.991455,890.2483
"1216",80.03296,890.2616
"1217",80.09155,890.2749
"1218",80.15015,890.2882
"1219",80.184326,890.3015
"1220",80.181885,890.3148
"1221",80.14038,890.3281
"1222",80.0647,890.34143
"1223",79.96704,890.35474
"1224",79.85962,890.36804
"1225",79.7522,890.38135
"1226",79.64721,890.39465
"1227",79.54955,890.40796
"1228",79.45678,890.42126
"1229",79.36645,890.4346
"1230",79.281,890.4479
"1231",79.202866,890.4612
"1232",79.12962,890.4745
"1233",79.063705,890.4878
"1234",79.00511,890.5011
"1235",78.95628,890.5144
"1236",78.91234,890.5277
"1237",78.87572,890.541
"1238",78.84642,890.5543
"1239",78.82201,890.5676
"1240",78.80003,890.58093
"1241",78.78294,890.59424
"1242",78.765854,890.60754
"1243",78.751205,890.62085
"1244",78.73411,890.63416
"1245",78.71458,890.64746
"1246",78.695045,890.66077
"1247",78.675514,890.6741
"1248",78.68528,890.6874
"1249",78.77562,890.7007
"1250",79.01488,890.714
"1251",79.447014,890.7273
"1252",80.05249,890.7406
"1253",80.75807,890.7539
"1254",81.44167,890.7672
"1255",81.97635,890.7805
"1256",82.269325,890.7938
"1257",82.31815,890.8071
"1258",82.16922,890.82043
"1259",81.8909,890.83374
"1260",81.5613,890.84705
"1261",81.22438,890.86035
"1262",80.91188,890.87366
"1263",80.638435,890.88696
"1264",80.40894,890.90027
"1265",80.21362,890.9136
"1266",80.05005,890.9269
"1267",79.91577,890.9402
"1268",79.80835,890.9535
"1269",79.73266,890.9668
"1270",79.70092,890.9801
"1271",79.708244,890.9934
"1272",79.75464,891.0067
"1273",79.823,891.02
"1274",79.90112,891.0333
"1275",79.96216,891.04663
"1276",79.99878,891.05994
"1277",80.00122,891.07324
"1278",79.96704,891.08655
"1279",79.903564,891.09985
"1280",79.818115,891.11316
"1281",79.71557,891.12646
"1282",79.61303,891.1398
"1283",79.51049,891.1531
"1284",79.41039,891.1664
"1285",79.31518,891.1797
"1286",79.22728,891.193
"1287",79.149155,891.2063
"1288",79.078354,891.2196
"1289",79.01488,891.2329
"1290",78.95628,891.2462
"1291",78.89769,891.2595
"1292",78.84886,891.2728
"1293",78.81224,891.28613
"1294",78.785385,891.29944
"1295",78.77074,891.31274
"1296",78.75853,891.32605
"1297",78.746315,891.33936
"1298",78.73167,891.35266
"1299",78.71458,891.36597
"1300",78.70237,891.3793
"1301",78.692604,891.3926
"1302",78.71946,891.4059
"1303",78.836655,891.4192
"1304",79.10521,891.4325
"1305",79.56176,891.4458
"1306",80.181885,891.4591
"1307",80.87282,891.4724
"1308",81.51736,891.4857
"1309",81.991,891.499
"1310",82.22293,891.5123
"1311",82.22293,891.52563
"1312",82.04227,891.53894
"1313",81.75418,891.55225
"1314",81.4197,891.56555
"1315",81.08278,891.57886
"1316",80.77516,891.59216
"1317",80.5066,891.60547
"1318",80.27711,891.6188
"1319",80.08423,891.6321
"1320",79.923096,891.6454
"1321",79.79126,891.6587
"1322",79.68383,891.672
"1323",79.61791,891.6853
"1324",79.605705,891.6986
"1325",79.64477,891.7119
"1326",79.727776,891.7252
"1327",79.835205,891.7385
"1328",79.94507,891.75183
"1329",80.03052,891.76514
"1330",80.06958,891.77844
"1331",80.05737,891.79175
"1332",80.0061,891.80505
"1333",79.92554,891.81836
"1334",79.82788,891.83167
"1335",79.725334,891.845
"1336",79.62768,891.8583
"1337",79.52758,891.8716
"1338",79.43481,891.8849
"1339",79.34692,891.8982
"1340",79.26391,891.9115
"1341",79.185776,891.9248
"1342",79.11986,891.9381
"1343",79.05882,891.9514
"1344",79.009995,891.9647
"1345",78.96849,891.978
"1346",78.93675,891.99133
"1347",78.91478,892.00464
"1348",78.89769,892.01794
"1349",78.8806,892.03125
"1350",78.86351,892.04456
"1351",78.8513,892.05786
"1352",78.84154,892.07117
"1353",78.853745,892.0845
"1354",78.92699,892.0978
"1355",79.1223,892.1111
"1356",79.49584,892.1244
"1357",80.03784,892.1377
"1358",80.69947,892.151
"1359",81.37087,892.1643
"1360",81.92264,892.1776
"1361",82.262,892.1909
"1362",82.357216,892.2042
"1363",82.24246,892.2175
"1364",81.988556,892.23083
"1365",81.6614,892.24414
"1366",81.31716,892.25745
"1367",80.98268,892.27075
"1368",80.67994,892.28406
"1369",80.413826,892.29736
"1370",80.18677,892.31067
"1371",79.991455,892.324
"1372",79.835205,892.3373
"1373",79.72289,892.3506
"1374",79.6643,892.3639
"1375",79.66186,892.3772
"1376",79.71801,892.3905
"1377",79.815674,892.4038
"1378",79.94263,892.4171
"1379",80.0647,892.4304
"1380",80.16235,892.4437
"1381",80.218506,892.45703
"1382",80.23071,892.47034
"1383",80.19409,892.48364
"1384",80.11841,892.49695
"1385",80.02319,892.51025
"1386",79.91333,892.52356
"1387",79.80347,892.53687
"1388",79.69604,892.5502
"1389",79.59838,892.5635
"1390",79.50805,892.5768
"1391",79.42748,892.5901
"1392",79.35424,892.6034
"1393",79.28588,892.6167
"1394",79.2224,892.63
"1395",79.1638,892.6433
"1396",79.10521,892.6566
"1397",79.04906,892.6699
"1398",78.99779,892.6832
"1399",78.95384,892.69653
"1400",78.93919,892.70984
"1401",79.01488,892.72314
"1402",79.23216,892.73645
"1403",79.61547,892.74976
"1404",80.15015,892.76306
"1405",80.75563,892.77637
"1406",81.322044,892.7897
"1407",81.73464,892.803
"1408",81.92996,892.8163
"1409",81.900665,892.8296
"1410",81.70046,892.8429
"1411",81.38796,892.8562
"1412",81.02663,892.8695
"1413",80.66041,892.8828
"1414",80.31373,892.8961
"1415",80.00122,892.9094
"1416",79.72289,892.9227
"1417",79.483635,892.93604
"1418",79.290764,892.94934
"1419",79.149155,892.96265
"1420",79.063705,892.97595
"1421",79.04173,892.98926
"1422",79.07591,893.00256
"1423",79.15648,893.01587
"1424",79.26147,893.0292
"1425",79.37621,893.0425
"1426",79.47143,893.0558
"1427",79.53002,893.0691
"1428",79.53979,893.0824
"1429",79.50317,893.0957
"1430",79.42748,893.109
"1431",79.327385,893.1223
"1432",79.2224,893.1356
"1433",79.11986,893.1489
"1434",79.02464,893.16223
"1435",78.94408,893.17554
"1436",78.870834,893.18884
"1437",78.80736,893.20215
"1438",78.746315,893.21545
"1439",78.692604,893.22876
"1440",78.641335,893.24207
"1441",78.59251,893.2554
"1442",78.54856,893.2687
"1443",78.51438,893.282
"1444",78.485085,893.2953
"1445",78.47288,893.3086
"1446",78.519264,893.3219
"1447",78.68284,893.3352
"1448",79.012436,893.3485
"1449",79.5227,893.3618
"1450",80.16235,893.3751
"1451",80.831314,893.3884
"1452",81.40505,893.40173
"1453",81.78104,893.41504
"1454",81.917755,893.42834
"1455",81.832306,893.44165
"1456",81.59304,893.45496
"1457",81.26345,893.46826
"1458",80.90944,893.48157
"1459",80.57496,893.4949
"1460",80.28199,893.5082
"1461",80.028076,893.5215
"1462",79.81079,893.5348
"1463",79.622795,893.5481
"1464",79.4641,893.5614
"1465",79.33959,893.5747
"1466",79.26635,893.588
"1467",79.256584,893.6013
"1468",79.30785,893.6146
"1469",79.41039,893.6279
"1470",79.537346,893.64124
"1471",79.65942,893.65454
"1472",79.74731,893.66785
"1473",79.79126,893.68115
"1474",79.78638,893.69446
"1475",79.742424,893.70776
"1476",79.67162,893.72107
"1477",79.588615,893.7344
"1478",79.50317,893.7477
"1479",79.41772,893.761
"1480",79.33715,893.7743
"1481",79.26635,893.7876
"1482",79.19798,893.8009
"1483",79.13939,893.8142
"1484",79.08812,893.8275
"1485",79.044174,893.8408
"1486",78.99779,893.8541
"1487",78.958725,893.86743
"1488",78.91966,893.88074
"1489",78.890366,893.89404
"1490",78.890366,893.90735
"1491",78.975815,893.92065
"1492",79.200424,893.93396
"1493",79.60815,893.94727
"1494",80.18677,893.9606
"1495",80.87038,893.9739
"1496",81.54177,893.9872
"1497",82.07645,894.0005
"1498",82.388954,894.0138
"1499",82.46464,894.0271
"1500",82.33524,894.0404
"1501",82.07645,894.0537
"1502",81.75906,894.067
"1503",81.43191,894.0803
"1504",81.13405,894.0936
"1505",80.8777,894.10693
"1506",80.66041,894.12024
"1507",80.46998,894.13354
"1508",80.29664,894.14685
"1509",80.13794,894.16016
"1510",80.00122,894.17346
"1511",79.90112,894.18677
"1512",79.84741,894.2001
"1513",79.84985,894.2134
"1514",79.89868,894.2267
"1515",79.974365,894.24
"1516",80.05493,894.2533
"1517",80.111084,894.2666
"1518",80.12573,894.2799
"1519",80.09155,894.2932
"1520",80.01831,894.3065
"1521",79.91333,894.3198
"1522",79.7937,894.3331
"1523",79.674065,894.34644
"1524",79.56664,894.35974
"1525",79.46166,894.37305
"1526",79.36889,894.38635
"1527",79.281,894.39966
"1528",79.19554,894.41296
"1529",79.11253,894.4263
"1530",79.03197,894.4396
"1531",78.95628,894.4529
"1532",78.887924,894.4662
"1533",78.819565,894.4795
"1534",78.76097,894.4928
"1535",78.72434,894.5061
"1536",78.746315,894.5194
"1537",78.89769,894.5327
"1538",79.22972,894.546
"1539",79.75464,894.5593
"1540",80.413826,894.57263
"1541",81.10719,894.58594
"1542",81.7029,894.59924
"1543",82.09842,894.61255
"1544",82.24979,894.62585
"1545",82.18875,894.63916
"1546",81.97635,894.65247
"1547",81.67849,894.6658
"1548",81.356224,894.6791
"1549",81.0486,894.6924
"1550",80.782486,894.7057
"1551",80.55543,894.719
"1552",80.36744,894.7323
"1553",80.2063,894.7456
"1554",80.059814,894.7589
"1555",79.920654,894.7722
"1556",79.7937,894.7855
"1557",79.691154,894.7988
"1558",79.62768,894.81213
"1559",79.60815,894.82544
"1560",79.62768,894.83875
"1561",79.66918,894.85205
"1562",79.708244,894.86536
"1563",79.727776,894.87866
"1564",79.708244,894.89197
"1565",79.64477,894.9053
"1566",79.54467,894.9186
"1567",79.42504,894.9319
"1568",79.29809,894.9452
"1569",79.17357,894.9585
"1570",79.05882,894.9718
"1571",78.95384,894.9851
"1572",78.856186,894.9984
"1573",78.76341,895.0117
"1574",78.68284,895.025
"1575",78.61204,895.0383
"1576",78.54612,895.05164
"1577",78.485085,895.06494
"1578",78.43137,895.07825
"1579",78.37766,895.09155
"1580",78.32639,895.10486
"1581",78.28245,895.11816
"1582",78.260475,895.1315
"1583",78.294655,895.1448
"1584",78.44358,895.1581
"1585",78.768295,895.1714
"1586",79.28832,895.1847
"1587",79.957275,895.198
"1588",80.67994,895.2113
"1589",81.33425,895.2246
"1590",81.80057,895.2379
"1591",82.022736,895.2512
"1592",82.01785,895.2645
"1593",81.83963,895.27783
"1594",81.55886,895.29114
"1595",81.24635,895.30444
"1596",80.95094,895.31775
"1597",80.69703,895.33105
"1598",80.49195,895.34436
"1599",80.33326,895.35767
"1600",80.19653,895.371
"1601",80.062256,895.3843
"1602",79.92554,895.3976
"1603",79.79126,895.4109
"1604",79.67162,895.4242
"1605",79.586174,895.4375
"1606",79.54711,895.4508
"1607",79.551994,895.4641
"1608",79.586174,895.4774
"1609",79.62768,895.4907
"1610",79.656975,895.504
"1611",79.656975,895.51733
"1612",79.62524,895.53064
"1613",79.55932,895.54395
"1614",79.4641,895.55725
"1615",79.3518,895.57056
"1616",79.22972,895.58386
"1617",79.11009,895.59717
"1618",78.99779,895.6105
"1619",78.887924,895.6238
"1620",78.79515,895.6371
"1621",78.70725,895.6504
"1622",78.62913,895.6637
"1623",78.553444,895.677
"1624",78.49241,895.6903
"1625",78.4387,895.7036
"1626",78.399635,895.7169
"1627",78.3679,895.7302
"1628",78.345924,895.7435
"1629",78.32639,895.75684
"1630",78.30442,895.77014
"1631",78.29221,895.78345
"1632",78.32639,895.79675
"1633",78.470436,895.81006
"1634",78.79027,895.82336
"1635",79.30541,895.8367
"1636",79.98413,895.85
"1637",80.73121,895.8633
"1638",81.41238,895.8766
"1639",81.91043,895.8899
"1640",82.161896,895.9032
"1641",82.18143,895.9165
"1642",82.01297,895.9298
"1643",81.739525,895.9431
"1644",81.427025,895.9564
"1645",81.12428,895.9697
"1646",80.867935,895.98303
"1647",80.66529,895.99634
"1648",80.50172,896.00964
"1649",80.365,896.02295
"1650",80.233154,896.03625
"1651",80.09888,896.04956
"1652",79.96704,896.06287
"1653",79.84985,896.0762
"1654",79.76929,896.0895
"1655",79.73754,896.1028
"1656",79.74975,896.1161
"1657",79.78638,896.1294
"1658",79.835205,896.1427
"1659",79.871826,896.156
"1660",79.87427,896.1693
"1661",79.84009,896.1826
"1662",79.77173,896.1959
"1663",79.676506,896.2092
"1664",79.5642,896.22253
"1665",79.44457,896.23584
"1666",79.327385,896.24915
"1667",79.21507,896.26245
"1668",79.11009,896.27576
"1669",79.012436,896.28906
"1670",78.922104,896.30237
"1671",78.84398,896.3157
"1672",78.77562,896.329
"1673",78.71702,896.3423
"1674",78.66819,896.3556
"1675",78.63157,896.3689
"1676",78.60471,896.3822
"1677",78.5803,896.3955
"1678",78.56809,896.4088
"1679",78.55833,896.4221
"1680",78.54856,896.4354
"1681",78.536354,896.4487
"1682",78.52659,896.46204
"1683",78.54612,896.47534
"1684",78.6511,896.48865
"1685",78.91234,896.50195
"1686",79.37133,896.51526
"1687",80.01099,896.52856
"1688",80.75319,896.5419
"1689",81.47097,896.5552
"1690",82.02762,896.5685
"1691",82.340126,896.5818
"1692",82.39872,896.5951
"1693",82.24979,896.6084
"1694",81.97391,896.6217
"1695",81.64675,896.635
"1696",81.324486,896.6483
"1697",81.03883,896.6616
"1698",80.80202,896.6749
"1699",80.604256,896.68823
"1700",80.43336,896.70154
"1701",80.27711,896.71484
"1702",80.12573,896.72815
"1703",79.98169,896.74146
"1704",79.86206,896.75476
"1705",79.78638,896.76807
"1706",79.76196,896.7814
"1707",79.78882,896.7947
"1708",79.84741,896.808
"1709",79.91089,896.8213
"1710",79.95972,896.8346
"1711",79.97925,896.8479
"1712",79.96216,896.8612
"1713",79.91089,896.8745
"1714",79.83032,896.8878
"1715",79.73022,896.9011
"1716",79.62035,896.9144
"1717",79.50805,896.92773
"1718",79.40063,896.94104
"1719",79.30541,896.95435
"1720",79.21507,896.96765
"1721",79.12962,896.98096
"1722",79.0515,896.99426
"1723",78.97826,897.00757
"1724",78.91478,897.0209
"1725",78.86351,897.0342
"1726",78.82689,897.0475
"1727",78.80492,897.0608
"1728",78.79027,897.0741
"1729",78.77562,897.0874
"1730",78.76097,897.1007
"1731",78.74387,897.114
"1732",78.7219,897.1273
"1733",78.70725,897.1406
"1734",78.73899,897.15393
"1735",78.87572,897.16724
"1736",79.18089,897.18054
"1737",79.68871,897.19385
"1738",80.36256,897.20715
"1739",81.10475,897.22046
"1740",81.78836,897.23376
"1741",82.286415,897.2471
"1742",82.530556,897.2604
"1743",82.52323,897.2737
"1744",82.32792,897.287
"1745",82.01297,897.3003
"1746",81.651634,897.3136
"1747",81.304955,897.3269
"1748",81.004654,897.3402
"1749",80.75563,897.3535
"1750",80.55787,897.3668
"1751",80.39918,897.3801
"1752",80.25269,897.39343
"1753",80.10864,897.40674
"1754",79.971924,897.42004
"1755",79.85962,897.43335
"1756",79.783936,897.44666
"1757",79.75952,897.45996
"1758",79.781494,897.47327
"1759",79.83276,897.4866
"1760",79.89136,897.4999
"1761",79.9353,897.5132
"1762",79.94995,897.5265
"1763",79.93042,897.5398
"1764",79.87427,897.5531
"1765",79.78638,897.5664
"1766",79.68139,897.5797
"1767",79.57397,897.593
"1768",79.47143,897.6063
"1769",79.37133,897.6196
"1770",79.281,897.63293
"1771",79.200424,897.64624
"1772",79.12474,897.65955
"1773",79.05394,897.67285
"1774",78.992905,897.68616
"1775",78.941635,897.69946
"1776",78.90013,897.71277
"1777",78.86595,897.7261
"1778",78.836655,897.7394
"1779",78.81468,897.7527
"1780",78.79759,897.766
"1781",78.78783,897.7793
"1782",78.77318,897.7926
"1783",78.76097,897.8059
"1784",78.75365,897.8192
"1785",78.785385,897.8325
"1786",78.91234,897.8458
"1787",79.20531,897.85913
"1788",79.69604,897.87244
"1789",80.35767,897.88574
"1790",81.094986,897.89905
"1791",81.77371,897.91235
"1792",82.269325,897.92566
"1793",82.50858,897.93896
"1794",82.493935,897.9523
"1795",82.28153,897.9656
"1796",81.94949,897.9789
"1797",81.57595,897.9922
"1798",81.2195,898.0055
"1799",80.907,898.0188
"1800",80.6482,898.0321
"1801",80.44068,898.0454
"1802",80.2649,898.0587
"1803",80.111084,898.072
"1804",79.96704,898.0853
"1805",79.835205,898.09863
"1806",79.73022,898.11194
"1807",79.66674,898.12524
"1808",79.64477,898.13855
"1809",79.66674,898.15186
"1810",79.72045,898.16516
"1811",79.77661,898.17847
"1812",79.82056,898.1918
"1813",79.835205,898.2051
"1814",79.81323,898.2184
"1815",79.76196,898.2317
"1816",79.68871,898.245
"1817",79.60082,898.2583
"1818",79.50317,898.2716
"1819",79.40551,898.2849
"1820",79.31274,898.2982
"1821",79.2224,898.3115
"1822",79.13451,898.3248
"1823",79.05638,898.33813
"1824",78.98802,898.35144
"1825",78.93431,898.36475
"1826",78.890366,898.37805
"1827",78.86107,898.39136
"1828",78.83177,898.40466
"1829",78.8098,898.41797
"1830",78.79027,898.4313
"1831",78.77562,898.4446
"1832",78.76097,898.4579
"1833",78.751205,898.4712
"1834",78.74876,898.4845
"1835",78.77562,898.4978
"1836",78.88548,898.5111
"1837",79.149155,898.5244
"1838",79.605705,898.5377
"1839",80.23804,898.551
"1840",80.96315,898.56433
"1841",81.65896,898.57764
"1842",82.18631,898.59094
"1843",82.4622,898.60425
"1844",82.47929,898.61755
"1845",82.2913,898.63086
"1846",81.97635,898.64417
"1847",81.61013,898.6575
"1848",81.24635,898.6708
"1849",80.921646,898.6841
"1850",80.65064,898.6974
"1851",80.43336,898.7107
"1852",80.255135,898.724
"1853",80.10376,898.7373
"1854",79.971924,898.7506
"1855",79.85474,898.7639
"1856",79.75952,898.7772
"1857",79.69848,898.7905
"1858",79.68383,898.80383
"1859",79.710686,898.81714
"1860",79.764404,898.83044
"1861",79.82544,898.84375
"1862",79.87427,898.85706
"1863",79.89624,898.87036
"1864",79.87915,898.88367
"1865",79.83276,898.897
"1866",79.764404,898.9103
"1867",79.68139,898.9236
"1868",79.5935,898.9369
"1869",79.50805,898.9502
"1870",79.42748,898.9635
"1871",79.35668,898.9768
"1872",79.28832,898.9901
"1873",79.2224,899.0034
"1874",79.15892,899.0167
"1875",79.10033,899.03
"1876",79.04173,899.04333
"1877",78.992905,899.05664
"1878",78.958725,899.06995
"1879",78.93675,899.08325
"1880",78.922104,899.09656
"1881",78.91722,899.10986
"1882",78.91722,899.12317
"1883",78.91478,899.1365
"1884",78.9099,899.1498
"1885",78.907455,899.1631
"1886",78.93919,899.1764
"1887",79.06859,899.1897
"1888",79.364006,899.203
"1889",79.852295,899.2163
"1890",80.50172,899.2296
"1891",81.22194,899.2429
"1892",81.87625,899.2562
"1893",82.34257,899.26953
"1894",82.55253,899.28284
"1895",82.51591,899.29614
"1896",82.29374,899.30945
"1897",81.9617,899.32275
"1898",81.59304,899.33606
"1899",81.23659,899.34937
"1900",80.921646,899.3627
"1901",80.65797,899.376
"1902",80.4358,899.3893
"1903",80.25025,899.4026
"1904",80.08911,899.4159
"1905",79.94995,899.4292
"1906",79.835205,899.4425
"1907",79.74731,899.4558
"1908",79.69848,899.4691
"1909",79.691154,899.4824
"1910",79.727776,899.4957
"1911",79.79614,899.50903
"1912",79.871826,899.52234
"1913",79.937744,899.53564
"1914",79.971924,899.54895
"1915",79.9646,899.56226
"1916",79.91577,899.57556
"1917",79.84009,899.58887
"1918",79.74975,899.6022
"1919",79.65453,899.6155
"1920",79.56176,899.6288
"1921",79.47875,899.6421
"1922",79.40307,899.6554
"1923",79.33715,899.6687
"1924",79.27856,899.682
"1925",79.2224,899.6953
"1926",79.17357,899.7086
"1927",79.12718,899.7219
"1928",79.09056,899.7352
"1929",79.063705,899.74854
"1930",79.044174,899.76184
"1931",79.029526,899.77515
"1932",79.0222,899.78845
"1933",79.012436,899.80176
"1934",79.00511,899.81506
"1935",79.00267,899.82837
"1936",79.02464,899.8417
"1937",79.132065,899.855
"1938",79.38598,899.8683
"1939",79.83032,899.8816
"1940",80.445564,899.8949
"1941",81.15846,899.9082
"1942",81.83719,899.9215
"1943",82.354774,899.9348
"1944",82.61845,899.9481
"1945",82.62333,899.9614
"1946",82.423134,899.97473
"1947",82.091095,899.98804
"1948",81.705345,900.00134
"1949",81.32693,900.01465
"1950",80.987564,900.02795
"1951",80.70191,900.04126
"1952",80.47242,900.05457
"1953",80.289314,900.0679
"1954",80.13794,900.0812
"1955",80.0061,900.0945
"1956",79.89136,900.1078
"1957",79.80347,900.1211
"1958",79.74975,900.1344
"1959",79.73998,900.1477
"1960",79.77417,900.161
"1961",79.84009,900.1743
"1962",79.91333,900.1876
"1963",79.97681,900.2009
"1964",80.01343,900.21423
"1965",80.008545,900.22754
"1966",79.971924,900.24084
"1967",79.91089,900.25415
"1968",79.82788,900.26746
"1969",79.73266,900.28076
"1970",79.635,900.29407
"1971",79.54467,900.3074
"1972",79.45922,900.3207
"1973",79.38354,900.334
"1974",79.31762,900.3473
"1975",79.259026,900.3606
"1976",79.20775,900.3739
"1977",79.16136,900.3872
"1978",79.1223,900.4005
"1979",79.09056,900.4138
"1980",79.06615,900.4271
"1981",79.046616,900.4404
"1982",79.03197,900.45374
"1983",79.01976,900.46704
"1984",79.00511,900.48035
"1985",78.995346,900.49365
"1986",79.02464,900.50696
"1987",79.16136,900.52026
"1988",79.46899,900.53357
"1989",79.971924,900.5469
"1990",80.635994,900.5602
"1991",81.35134,900.5735
"1992",81.98123,900.5868
"1993",82.406044,900.6001
"1994",82.56718,900.6134
"1995",82.48417,900.6267
"1996",82.22293,900.64
"1997",81.866486,900.6533
"1998",81.48318,900.6666
"1999",81.1194,900.67993
"2000",80.799576,900.69324
"2001",80.53101,900.70654
"2002",80.308846,900.71985
"2003",80.12573,900.73315
"2004",79.96948,900.74646
"2005",79.835205,900.75977
"2006",79.72045,900.7731
"2007",79.63744,900.7864
"2008",79.59838,900.7997
"2009",79.603264,900.813
"2010",79.64965,900.8263
"2011",79.72289,900.8396
"2012",79.798584,900.8529
"2013",79.85718,900.8662
"2014",79.886475,900.8795
"2015",79.87915,900.8928
"2016",79.84253,900.9061
"2017",79.781494,900.91943
"2018",79.708244,900.93274
"2019",79.63256,900.94604
"2020",79.55688,900.95935
"2021",79.48608,900.97266
"2022",79.415276,900.98596
"2023",79.3518,900.99927
"2024",79.293205,901.0126
"2025",79.24193,901.0259
"2026",79.19798,901.0392
"2027",79.16136,901.0525
"2028",79.132065,901.0658
"2029",79.10521,901.0791
"2030",79.080795,901.0924
"2031",79.063705,901.1057
"2032",79.0515,901.119
"2033",79.046616,901.1323
"2034",79.06859,901.1456
"2035",79.17113,901.15894
"2036",79.4226,901.17224
"2037",79.85718,901.18555
"2038",80.465096,901.19885
"2039",81.16823,901.21216
"2040",81.84207,901.22546
"2041",82.35233,901.2388
"2042",82.60868,901.2521
"2043",82.60868,901.2654
"2044",82.4036,901.2787
"2045",82.06912,901.292
"2046",81.68093,901.3053
"2047",81.304955,901.3186
"2048",80.96803,901.3319
"2049",80.68238,901.3452
"2050",80.44312,901.3585
"2051",80.24292,901.3718
"2052",80.06958,901.38513
"2053",79.920654,901.39844
"2054",79.798584,901.41174
"2055",79.71313,901.42505
"2056",79.674065,901.43835
"2057",79.68383,901.45166
"2058",79.7351,901.46497
"2059",79.818115,901.4783
"2060",79.91089,901.4916
"2061",79.98657,901.5049
"2062",80.03052,901.5182
"2063",80.03296,901.5315
"2064",79.99878,901.5448
"2065",79.9353,901.5581
"2066",79.85962,901.5714
"2067",79.77905,901.5847
"2068",79.70092,901.598
"2069",79.62524,901.6113
"2070",79.56176,901.62463
"2071",79.50317,901.63794
"2072",79.447014,901.65125
"2073",79.395744,901.66455
"2074",79.34936,901.67786
"2075",79.30297,901.69116
"2076",79.26147,901.70447
"2077",79.22728,901.7178
"2078",79.19554,901.7311
"2079",79.1638,901.7444
"2080",79.13695,901.7577
"2081",79.12474,901.771
"2082",79.17601,901.7843
"2083",79.361565,901.7976
"2084",79.73998,901.8109
"2085",80.30396,901.8242
"2086",80.99245,901.8375
"2087",81.688255,901.8508
"2088",82.25712,901.86414
"2089",82.58915,901.87744
"2090",82.65507,901.89075
"2091",82.496376,901.90405
"2092",82.18143,901.91736
"2093",81.78836,901.93066
"2094",81.38064,901.944
"2095",80.99977,901.9573
"2096",80.66529,901.9706
"2097",80.38697,901.9839
"2098",80.15503,901.9972
"2099",79.9646,902.0105
"2100",79.80835,902.0238
"2101",79.68871,902.0371
"2102",79.603264,902.0504
"2103",79.56176,902.0637
"2104",79.56664,902.077
"2105",79.61303,902.09033
"2106",79.691154,902.10364
"2107",79.77905,902.11694
"2108",79.85474,902.13025
"2109",79.90112,902.14355
"2110",79.906006,902.15686
"2111",79.87427,902.17017
"2112",79.818115,902.1835
"2113",79.742424,902.1968
"2114",79.65942,902.2101
"2115",79.57641,902.2234
"2116",79.49096,902.2367
"2117",79.40795,902.25
"2118",79.32983,902.2633
"2119",79.26391,902.2766
"2120",79.200424,902.2899
"2121",79.14183,902.3032
"2122",79.09056,902.3165
"2123",79.04173,902.32983
"2124",78.992905,902.34314
"2125",78.958725,902.35645
"2126",78.96117,902.36975
"2127",79.04906,902.38306
"2128",79.290764,902.39636
"2129",79.72045,902.40967
"2130",80.323494,902.423
"2131",81.01686,902.4363
"2132",81.67605,902.4496
"2133",82.16678,902.4629
"2134",82.41093,902.4762
"2135",82.39872,902.4895
"2136",82.19119,902.5028
"2137",81.8616,902.5161
"2138",81.48562,902.5294
"2139",81.1194,902.5427
"2140",80.79225,902.556
"2141",80.50416,902.56934
"2142",80.26246,902.58264
"2143",80.062256,902.59595
"2144",79.89624,902.60925
"2145",79.764404,902.62256
"2146",79.674065,902.63586
"2147",79.62768,902.6492
"2148",79.63012,902.6625
"2149",79.676506,902.6758
"2150",79.75708,902.6891
"2151",79.852295,902.7024
"2152",79.937744,902.7157
"2153",79.991455,902.729
"2154",80.0061,902.7423
"2155",79.97925,902.7556
"2156",79.920654,902.7689
"2157",79.84009,902.7822
"2158",79.74975,902.79553
"2159",79.65942,902.80884
"2160",79.58129,902.82214
"2161",79.51293,902.83545
"2162",79.45678,902.84875
"2163",79.41039,902.86206
"2164",79.36889,902.87537
"2165",79.32983,902.8887
"2166",79.28832,902.902
"2167",79.2517,902.9153
"2168",79.2224,902.9286
"2169",79.19798,902.9419
"2170",79.17845,902.9552
"2171",79.202866,902.9685
"2172",79.33227,902.9818
"2173",79.635,902.9951
"2174",80.130615,903.0084
"2175",80.79469,903.0217
"2176",81.52468,903.03503
"2177",82.19119,903.04834
"2178",82.66239,903.06165
"2179",82.87724,903.07495
"2180",82.84306,903.08826
"2181",82.61845,903.10156
"2182",82.28153,903.11487
"2183",81.91043,903.1282
"2184",81.55642,903.1415
"2185",81.25124,903.1548
"2186",81.00221,903.1681
"2187",80.799576,903.1814
"2188",80.62379,903.1947
"2189",80.46998,903.208
"2190",80.33082,903.2213
"2191",80.21118,903.2346
"2192",80.11841,903.2479
"2193",80.07202,903.2612
"2194",80.07202,903.27454
"2195",80.111084,903.28784
"2196",80.16724,903.30115
"2197",80.22095,903.31445
"2198",80.26002,903.32776
"2199",80.26002,903.34106
"2200",80.22339,903.3544
"2201",80.15747,903.3677
"2202",80.076904,903.381
"2203",79.98657,903.3943
"2204",79.89624,903.4076
"2205",79.81323,903.4209
"2206",79.7351,903.4342
"2207",79.6643,903.4475
"2208",79.60082,903.4608
"2209",79.53979,903.4741
"2210",79.47875,903.4874
"2211",79.41772,903.50073
"2212",79.35668,903.51404
"2213",79.29565,903.52734
"2214",79.24193,903.54065
"2215",79.22972,903.55396
"2216",79.31518,903.56726
"2217",79.5642,903.58057
"2218",80.01343,903.5939
"2219",80.63111,903.6072
"2220",81.33669,903.6205
"2221",81.99832,903.6338
"2222",82.48417,903.6471
"2223",82.720985,903.6604
"2224",82.71366,903.6737
"2225",82.52323,903.687
"2226",82.21805,903.7003
"2227",81.86893,903.7136
"2228",81.52712,903.7269
"2229",81.22438,903.74023
"2230",80.96803,903.75354
"2231",80.7483,903.76685
"2232",80.56519,903.78015
"2233",80.40406,903.79346
"2234",80.25025,903.80676
"2235",80.11597,903.82007
"2236",80.01587,903.8334
"2237",79.96216,903.8467
"2238",79.957275,903.86
"2239",79.991455,903.8733
"2240",80.03784,903.8866
"2241",80.06958,903.8999
"2242",80.06958,903.9132
"2243",80.0354,903.9265
"2244",79.974365,903.9398
"2245",79.89136,903.9531
"2246",79.80347,903.96643
"2247",79.71313,903.97974
"2248",79.62768,903.99304
"2249",79.53979,904.00635
"2250",79.449455,904.01965
"2251",79.361565,904.03296
"2252",79.281,904.04626
"2253",79.20531,904.0596
"2254",79.13695,904.0729
"2255",79.06859,904.0862
"2256",79.00267,904.0995
"2257",78.93675,904.1128
"2258",78.87816,904.1261
"2259",78.86839,904.1394
"2260",78.96849,904.1527
"2261",79.23949,904.166
"2262",79.708244,904.1793
"2263",80.33814,904.1926
"2264",81.03395,904.20593
"2265",81.65896,904.21924
"2266",82.10086,904.23254
"2267",82.29374,904.24585
"2268",82.24979,904.25916
"2269",82.02762,904.27246
"2270",81.71023,904.28577
"2271",81.36843,904.2991
"2272",81.0486,904.3124
"2273",80.76784,904.3257
"2274",80.53101,904.339
"2275",80.33082,904.3523
"2276",80.147705,904.3656
"2277",79.97925,904.3789
"2278",79.823,904.3922
"2279",79.68871,904.4055
"2280",79.5935,904.4188
"2281",79.54711,904.4321
"2282",79.54955,904.44543
"2283",79.59106,904.45874
"2284",79.64721,904.47205
"2285",79.69604,904.48535
"2286",79.71801,904.49866
"2287",79.70336,904.51196
"2288",79.65209,904.52527
"2289",79.569084,904.5386
"2290",79.46899,904.5519
"2291",79.364006,904.5652
"2292",79.26147,904.5785
"2293",79.168686,904.5918
"2294",79.09056,904.6051
"2295",79.02464,904.6184
"2296",78.96605,904.6317
"2297",78.91234,904.645
"2298",78.86351,904.6583
"2299",78.819565,904.67163
"2300",78.77806,904.68494
"2301",78.74143,904.69824
"2302",78.709694,904.71155
"2303",78.68284,904.72485
"2304",78.67063,904.73816
"2305",78.71702,904.75146
"2306",78.88304,904.7648
"2307",79.22728,904.7781
"2308",79.75952,904.7914
"2309",80.44068,904.8047
"2310",81.15846,904.818
"2311",81.778595,904.8313
"2312",82.193634,904.8446
"2313",82.35966,904.8579
"2314",82.30106,904.8712
"2315",82.08865,904.8845
"2316",81.80789,904.8978
"2317",81.52468,904.91113
"2318",81.270775,904.92444
"2319",81.06569,904.93774
"2320",80.89967,904.95105
"2321",80.76051,904.96436
"2322",80.618904,904.97766
"2323",80.46754,904.99097
"2324",80.306404,905.0043
"2325",80.14526,905.0176
"2326",80.00122,905.0309
"2327",79.89868,905.0442
"2328",79.84985,905.0575
"2329",79.84497,905.0708
"2330",79.87427,905.0841
"2331",79.91577,905.0974
"2332",79.94263,905.1107
"2333",79.94263,905.124
"2334",79.903564,905.1373
"2335",79.82788,905.15063
"2336",79.73022,905.16394
"2337",79.622795,905.17725
"2338",79.51537,905.19055
"2339",79.412834,905.20386
"2340",79.3225,905.21716
"2341",79.24193,905.23047
"2342",79.1638,905.2438
"2343",79.097885,905.2571
"2344",79.044174,905.2704
"2345",79.00023,905.2837
"2346",78.96605,905.297
"2347",78.94408,905.3103
"2348",78.92699,905.3236
"2349",78.9099,905.3369
"2350",78.887924,905.3502
"2351",78.86595,905.3635
"2352",78.86595,905.37683
"2353",78.93431,905.39014
"2354",79.14427,905.40344
"2355",79.53979,905.41675
"2356",80.11841,905.43005
"2357",80.81178,905.44336
"2358",81.50759,905.45667
"2359",82.07156,905.47
"2360",82.41337,905.4833
"2361",82.513466,905.4966
"2362",82.41093,905.5099
"2363",82.18143,905.5232
"2364",81.91043,905.5365
"2365",81.654076,905.5498
"2366",81.44167,905.5631
"2367",81.28054,905.5764
"2368",81.15846,905.5897
"2369",81.03639,905.603
"2370",80.89723,905.61633
"2371",80.72877,905.62964
"2372",80.54078,905.64294
"2373",80.34547,905.65625
"2374",80.177,905.66956
"2375",80.05493,905.68286
"2376",79.98657,905.69617
"2377",79.95972,905.7095
"2378",79.9646,905.7228
"2379",79.98413,905.7361
"2380",79.991455,905.7494
"2381",79.97681,905.7627
"2382",79.93042,905.776
"2383",79.85474,905.7893
"2384",79.75952,905.8026
"2385",79.64721,905.8159
"2386",79.53246,905.8292
"2387",79.4226,905.8425
"2388",79.3225,905.85583
"2389",79.23216,905.86914
"2390",79.15404,905.88245
"2391",79.08324,905.89575
"2392",79.02464,905.90906
"2393",78.97826,905.92236
"2394",78.94652,905.93567
"2395",78.922104,905.949
"2396",78.907455,905.9623
"2397",78.89525,905.9756
"2398",78.8806,905.9889
"2399",78.85863,906.0022
"2400",78.83177,906.0155
"2401",78.79515,906.0288
"2402",78.76341,906.0421
"2403",78.77318,906.0554
"2404",78.8806,906.0687
"2405",79.14671,906.08203
"2406",79.605705,906.09534
"2407",80.22583,906.10864
"2408",80.921646,906.12195
"2409",81.566185,906.13525
"2410",82.04227,906.14856
"2411",82.28397,906.16187
"2412",82.29862,906.1752
"2413",82.13748,906.1885
"2414",81.881134,906.2018
"2415",81.60769,906.2151
"2416",81.36599,906.2284
"2417",81.17067,906.2417
"2418",81.024185,906.255
"2419",80.89967,906.2683
"2420",80.77028,906.2816
"2421",80.618904,906.2949
"2422",80.4358,906.3082
"2423",80.233154,906.32153
"2424",80.045166,906.33484
"2425",79.89868,906.34814
"2426",79.80835,906.36145
"2427",79.77173,906.37476
"2428",79.77661,906.38806
"2429",79.798584,906.40137
"2430",79.818115,906.4147
"2431",79.815674,906.428
"2432",79.781494,906.4413
"2433",79.71801,906.4546
"2434",79.63012,906.4679
"2435",79.520256,906.4812
"2436",79.40063,906.4945
"2437",79.273674,906.5078
"2438",79.15892,906.5211
"2439",79.046616,906.5344
"2440",78.94652,906.5477
"2441",78.853745,906.56104
"2442",78.77562,906.57434
"2443",78.70481,906.58765
"2444",78.64622,906.60095
"2445",78.59983,906.61426
"2446",78.56565,906.62756
"2447",78.54368,906.64087
"2448",78.52415,906.6542
"2449",78.51194,906.6675
"2450",78.49485,906.6808
"2451",78.470436,906.6941
"2452",78.44114,906.7074
"2453",78.4094,906.7207
"2454",78.399635,906.734
"2455",78.46067,906.7473
"2456",78.6511,906.7606
"2457",79.0222,906.7739
"2458",79.56664,906.78723
"2459",80.22095,906.80054
"2460",80.87282,906.81384
"2461",81.39773,906.82715
"2462",81.70779,906.84045
"2463",81.77615,906.85376
"2464",81.64675,906.86707
"2465",81.38796,906.8804
"2466",81.08034,906.8937
"2467",80.78493,906.907
"2468",80.533455,906.9203
"2469",80.33326,906.9336
"2470",80.177,906.9469
"2471",80.045166,906.9602
"2472",79.91089,906.9735
"2473",79.75952,906.9868
"2474",79.59838,907.0001
"2475",79.447014,907.0134
"2476",79.32983,907.02673
"2477",79.26391,907.04004
"2478",79.2517,907.05334
"2479",79.28344,907.06665
"2480",79.33471,907.07996
"2481",79.378654,907.09326
"2482",79.40307,907.10657
"2483",79.3933,907.1199
"2484",79.34936,907.1332
"2485",79.27123,907.1465
"2486",79.18089,907.1598
"2487",79.08812,907.1731
"2488",79.00023,907.1864
"2489",78.91966,907.1997
"2490",78.8513,907.213
"2491",78.785385,907.2263
"2492",78.72434,907.2396
"2493",78.66819,907.2529
"2494",78.61936,907.26624
"2495",78.57786,907.27954
"2496",78.555885,907.29285
"2497",78.54124,907.30615
"2498",78.538795,907.31946
"2499",78.54368,907.33276
"2500",78.55833,907.34607
"2501",78.57053,907.3594
"2502",78.57542,907.3727
"2503",78.572975,907.386
"2504",78.56077,907.3993
"2505",78.551,907.4126
"2506",78.572975,907.4259
"2507",78.695045,907.4392
"2508",78.97337,907.4525
"2509",79.43969,907.4658
"2510",80.062256,907.4791
"2511",80.7483,907.49243
"2512",81.373314,907.50574
"2513",81.81766,907.51904
"2514",82.01297,907.53235
"2515",81.97879,907.54565
"2516",81.77371,907.55896
"2517",81.48318,907.57227
"2518",81.17555,907.5856
"2519",80.90456,907.5989
"2520",80.689705,907.6122
"2521",80.52613,907.6255
"2522",80.394295,907.6388
"2523",80.274666,907.6521
"2524",80.15259,907.6654
"2525",80.01587,907.6787
"2526",79.87427,907.692
"2527",79.744865,907.7053
"2528",79.65453,907.7186
"2529",79.61303,907.73193
"2530",79.62524,907.74524
"2531",79.67895,907.75854
"2532",79.74975,907.77185
"2533",79.815674,907.78516
"2534",79.84741,907.79846
"2535",79.84009,907.81177
"2536",79.79614,907.8251
"2537",79.727776,907.8384
"2538",79.64721,907.8517
"2539",79.57397,907.865
"2540",79.50805,907.8783
"2541",79.4519,907.8916
"2542",79.40063,907.9049
"2543",79.3518,907.9182
"2544",79.30785,907.9315
"2545",79.26391,907.9448
"2546",79.22728,907.9581
"2547",79.20531,907.97144
"2548",79.1931,907.98474
"2549",79.19066,907.99805
"2550",79.200424,908.01135
"2551",79.21263,908.02466
"2552",79.22728,908.03796
"2553",79.24681,908.0513
"2554",79.26635,908.0646
"2555",79.27856,908.0779
"2556",79.28344,908.0912
"2557",79.281,908.1045
"2558",79.293205,908.1178
"2559",79.37377,908.1311
"2560",79.5935,908.1444
"2561",79.99878,908.1577
"2562",80.58228,908.171
"2563",81.26589,908.1843
"2564",81.9324,908.19763
"2565",82.44755,908.21094
"2566",82.72587,908.22424
"2567",82.75029,908.23755
"2568",82.57694,908.25085
"2569",82.27909,908.26416
"2570",81.94217,908.27747
"2571",81.62722,908.2908
"2572",81.36599,908.3041
"2573",81.16579,908.3174
"2574",81.01198,908.3307
"2575",80.88258,908.344
"2576",80.75563,908.3573
"2577",80.621346,908.3706
"2578",80.48463,908.3839
"2579",80.360115,908.3972
"2580",80.26002,908.4105
"2581",80.20386,908.4238
"2582",80.18677,908.43713
"2583",80.2063,908.45044
"2584",80.24292,908.46375
"2585",80.28443,908.47705
"2586",80.308846,908.49036
"2587",80.31129,908.50366
"2588",80.28687,908.51697
"2589",80.23804,908.5303
"2590",80.16724,908.5436
"2591",80.08179,908.5569
"2592",79.9939,908.5702
"2593",79.906006,908.5835
"2594",79.82544,908.5968
"2595",79.7522,908.6101
"2596",79.69604,908.6234
"2597",79.64965,908.6367
"2598",79.61791,908.65
"2599",79.59106,908.6633
"2600",79.58129,908.67664
"2601",79.57397,908.68994
"2602",79.571526,908.70325
"2603",79.56664,908.71655
"2604",79.5642,908.72986
"2605",79.55688,908.74316
"2606",79.54955,908.7565
"2607",79.56176,908.7698
"2608",79.62768,908.7831
"2609",79.818115,908.7964
"2610",80.177,908.8097
"2611",80.71412,908.823
"2612",81.36111,908.8363
"2613",82.00809,908.8496
"2614",82.530556,908.8629
"2615",82.83086,908.8762
"2616",82.88457,908.8895
"2617",82.73319,908.90283
"2618",82.45731,908.91614
"2619",82.13748,908.92944
"2620",81.82254,908.94275
"2621",81.55154,908.95605
"2622",81.33425,908.96936
"2623",81.163345,908.98267
"2624",81.0193,908.996
"2625",80.88991,909.0093
"2626",80.762955,909.0226
"2627",80.63111,909.0359
"2628",80.50416,909.0492
"2629",80.39918,909.0625
"2630",80.33326,909.0758
"2631",80.31373,909.0891
"2632",80.3357,909.1024
"2633",80.38697,909.1157
"2634",80.44068,909.129
"2635",80.4773,909.14233
"2636",80.479744,909.15564
"2637",80.445564,909.16895
"2638",80.38209,909.18225
"2639",80.30152,909.19556
"2640",80.21118,909.20886
"2641",80.12573,909.22217
"2642",80.042725,909.2355
"2643",79.96948,909.2488
"2644",79.89868,909.2621
"2645",79.83765,909.2754
"2646",79.78882,909.2887
"2647",79.74975,909.302
"2648",79.710686,909.3153
"2649",79.676506,909.3286
"2650",79.64233,909.3419
"2651",79.61303,909.3552
"2652",79.586174,909.3685
"2653",79.57641,909.38184
"2654",79.622795,909.39514
"2655",79.78638,909.40845
"2656",80.12085,909.42175
"2657",80.635994,909.43506
"2658",81.28054,909.44836
"2659",81.94461,909.4617
"2660",82.49882,909.475
"2661",82.8333,909.4883
"2662",82.91142,909.5016
"2663",82.76738,909.5149
"2664",82.48661,909.5282
"2665",82.144806,909.5415
"2666",81.81033,909.5548
"2667",81.514915,909.5681
"2668",81.2781,909.5814
"2669",81.08766,909.5947
"2670",80.92653,909.60803
"2671",80.7776,909.62134
"2672",80.62623,909.63464
"2673",80.46998,909.64795
"2674",80.31617,909.66125
"2675",80.181885,909.67456
"2676",80.08179,909.68787
"2677",80.028076,909.7012
"2678",80.01831,909.7145
"2679",80.045166,909.7278
"2680",80.08423,909.7411
"2681",80.11841,909.7544
"2682",80.130615,909.7677
"2683",80.1062,909.781
"2684",80.05249,909.7943
"2685",79.974365,909.8076
"2686",79.886475,909.8209
"2687",79.801025,909.8342
"2688",79.72045,909.84753
"2689",79.64477,909.86084
"2690",79.571526,909.87415
"2691",79.50561,909.88745
"2692",79.44457,909.90076
"2693",79.39086,909.91406
"2694",79.34936,909.92737
"2695",79.31274,909.9407
"2696",79.281,909.954
"2697",79.24681,909.9673
"2698",79.22728,909.9806
"2699",79.26635,909.9939
"2700",79.432365,910.0072
"2701",79.781494,910.0205
"2702",80.31373,910.0338
"2703",80.972916,910.0471
"2704",81.64187,910.0604
"2705",82.18875,910.0737
"2706",82.51835,910.08704
"2707",82.59403,910.10034
"2708",82.45731,910.11365
"2709",82.19119,910.12695
"2710",81.86893,910.14026
"2711",81.549095,910.15356
"2712",81.270775,910.1669
"2713",81.04616,910.1802
"2714",80.867935,910.1935
"2715",80.71412,910.2068
"2716",80.570076,910.2201
"2717",80.42115,910.2334
"2718",80.2649,910.2467
"2719",80.1062,910.26
"2720",79.9646,910.2733
"2721",79.85474,910.2866
"2722",79.7937,910.2999
"2723",79.781494,910.31323
"2724",79.80347,910.32654
"2725",79.84253,910.33984
"2726",79.88159,910.35315
"2727",79.903564,910.36646
"2728",79.8938,910.37976
"2729",79.85474,910.39307
"2730",79.7937,910.4064
"2731",79.72045,910.4197
"2732",79.639885,910.433
"2733",79.56176,910.4463
"2734",79.48608,910.4596
"2735",79.412834,910.4729
"2736",79.34936,910.4862
"2737",79.28832,910.4995
"2738",79.234604,910.5128
"2739",79.18822,910.5261
"2740",79.14427,910.5394
"2741",79.10521,910.55273
"2742",79.07591,910.56604
"2743",79.05882,910.57935
"2744",79.10033,910.59265
"2745",79.256584,910.60596
"2746",79.58373,910.61926
"2747",80.093994,910.63257
"2748",80.74586,910.6459
"2749",81.43435,910.6592
"2750",82.03006,910.6725
"2751",82.41825,910.6858
"2752",82.55253,910.6991
"2753",82.4622,910.7124
"2754",82.22049,910.7257
"2755",81.90311,910.739
"2756",81.583275,910.7523
"2757",81.29763,910.7656
"2758",81.06081,910.77893
"2759",80.719,910.80554
"2760",80.57984,910.81885
"2761",80.44068,910.83215
"2762",80.28687,910.84546
"2763",80.12573,910.85876
"2764",79.97681,910.8721
"2765",79.852295,910.8854
"2766",79.77173,910.8987
"2767",79.73754,910.912
"2768",79.744865,910.9253
"2769",79.77905,910.9386
"2770",79.818115,910.9519
"2771",79.84497,910.9652
"2772",79.85474,910.9785
"2773",79.835205,910.9918
"2774",79.7937,911.0051
"2775",79.73266,911.01843
"2776",79.66674,911.03174
"2777",79.59106,911.04504
"2778",79.51537,911.05835
"2779",79.43969,911.07166
"2780",79.36889,911.08496
"2781",79.30541,911.09827
"2782",79.24437,911.1116
"2783",79.19066,911.1249
"2784",79.14427,911.1382
"2785",79.10521,911.1515
"2786",79.06859,911.1648
"2787",79.03441,911.1781
"2788",79.027084,911.1914
"2789",79.10277,911.2047
"2790",79.32494,911.218
"2791",79.74731,911.2313
"2792",80.35035,911.2446
"2793",81.05592,911.25793
"2794",81.7322,911.27124
"2795",82.2449,911.28455
"2796",82.50858,911.29785
"2797",82.52323,911.31116
"2798",82.34257,911.32446
"2799",82.054474,911.33777
"2800",81.7322,911.3511
"2801",81.43191,911.3644
"2802",81.17799,911.3777
"2803",80.97536,911.391
"2804",80.80934,911.4043
"2805",80.67017,911.4176
"2806",80.53101,911.4309
"2807",80.38209,911.4442
"2808",80.22095,911.4575
"2809",80.0647,911.4708
"2810",79.92554,911.48413
"2811",79.823,911.49744
"2812",79.764404,911.51074
"2813",79.74975,911.52405
"2814",79.764404,911.53735
"2815",79.7937,911.55066
"2816",79.823,911.56396
"2817",79.83276,911.5773
"2818",79.818115,911.5906
"2819",79.781494,911.6039
"2820",79.72289,911.6172
"2821",79.64721,911.6305
"2822",79.56664,911.6438
"2823",79.483635,911.6571
"2824",79.40551,911.6704
"2825",79.32983,911.6837
"2826",79.26635,911.697
"2827",79.21263,911.7103
"2828",79.166245,911.72363
"2829",79.1223,911.73694
"2830",79.080795,911.75024
"2831",79.04173,911.76355
"2832",79.00755,911.77686
"2833",78.9807,911.79016
"2834",78.975815,911.80347
"2835",79.03441,911.8168
"2836",79.22484,911.8301
"2837",79.59106,911.8434
"2838",80.147705,911.8567
"2839",80.82887,911.87
"2840",81.5198,911.8833
"2841",82.08377,911.8966
"2842",82.41581,911.9099
"2843",82.48905,911.9232
"2844",82.34989,911.9365
"2845",82.074005,911.9498
"2846",81.74441,911.96313
"2847",81.41482,911.97644
"2848",81.126724,911.98975
"2849",80.88747,912.00305
"2850",80.69215,912.01636
"2851",80.533455,912.02966
"2852",80.38697,912.04297
"2853",80.24292,912.0563
"2854",80.09155,912.0696
"2855",79.940186,912.0829
"2856",79.80835,912.0962
"2857",79.710686,912.1095
"2858",79.64721,912.1228
"2859",79.62768,912.1361
"2860",79.639885,912.1494
"2861",79.66918,912.1627
"2862",79.69848,912.176
"2863",79.71557,912.18933
"2864",79.71313,912.20264
"2865",79.68383,912.21594
"2866",79.63012,912.22925
"2867",79.55688,912.24255
"2868",79.47875,912.25586
"2869",79.398186,912.26917
"2870",79.32006,912.2825
"2871",79.24925,912.2958
"2872",79.185776,912.3091
"2873",79.12718,912.3224
"2874",79.07103,912.3357
"2875",79.01976,912.349
"2876",78.975815,912.3623
"2877",78.93919,912.3756
"2878",78.905014,912.3889
"2879",78.87816,912.4022
"2880",78.853745,912.4155
"2881",78.82933,912.42883
"2882",78.83177,912.44214
"2883",78.91478,912.45544
"2884",79.151596,912.46875
"2885",79.586174,912.48206
"2886",80.198975,912.49536
"2887",80.91432,912.50867
"2888",81.59792,912.522
"2889",82.11795,912.5353
"2890",82.38651,912.5486
"2891",82.39628,912.5619
"2892",82.20584,912.5752
"2893",81.90311,912.5885
"2894",81.5613,912.6018
"2895",81.231705,912.6151
"2896",80.94118,912.6284
"2897",80.69947,912.6417
"2898",80.50172,912.655
"2899",80.33814,912.66833
"2900",80.19165,912.68164
"2901",80.05249,912.69495
"2902",79.91577,912.70825
"2903",79.783936,912.72156
"2904",79.674065,912.73486
"2905",79.5935,912.74817
"2906",79.554436,912.7615
"2907",79.551994,912.7748
"2908",79.57885,912.7881
"2909",79.61059,912.8014
"2910",79.63744,912.8147
"2911",79.64965,912.828
"2912",79.63744,912.8413
"2913",79.603264,912.8546
"2914",79.54955,912.8679
"2915",79.483635,912.8812
"2916",79.40795,912.89453
"2917",79.33227,912.90784
"2918",79.25414,912.92114
"2919",79.183334,912.93445
"2920",79.114975,912.94775
"2921",79.05882,912.96106
"2922",79.012436,912.97437
"2923",78.97337,912.9877
"2924",78.941635,913.001
"2925",78.9099,913.0143
"2926",78.88304,913.0276
"2927",78.856186,913.0409
"2928",78.83421,913.0542
"2929",78.81712,913.0675
"2930",78.80736,913.0808
"2931",78.82689,913.0941
"2932",78.93919,913.1074
"2933",79.21263,913.1207
"2934",79.68383,913.13403
"2935",80.33082,913.14734
"2936",81.06325,913.16064
"2937",81.73708,913.17395
"2938",82.22293,913.18726
"2939",82.44022,913.20056
"2940",82.406044,913.21387
"2941",82.178986,913.2272
"2942",81.849396,913.2405
"2943",81.48806,913.2538
"2944",81.15114,913.2671
"2945",80.85329,913.2804
"2946",80.604256,913.2937
"2947",80.396736,913.307
"2948",80.22339,913.3203
"2949",80.06714,913.3336
"2950",79.920654,913.3469
"2951",79.78638,913.3602
"2952",79.67162,913.37354
"2953",79.588615,913.38684
"2954",79.537346,913.40015
"2955",79.53002,913.41345
"2956",79.554436,913.42676
"2957",79.59838,913.44006
"2958",79.64721,913.45337
"2959",79.68383,913.4667
"2960",79.69604,913.48
"2961",79.67895,913.4933
"2962",79.63256,913.5066
"2963",79.569084,913.5199
"2964",79.48852,913.5332
"2965",79.40551,913.5465
"2966",79.327385,913.5598
"2967",79.25414,913.5731
"2968",79.18822,913.5864
"2969",79.12962,913.59973
"2970",79.080795,913.61304
"2971",79.03441,913.62634
"2972",78.99046,913.63965
"2973",78.95628,913.65295
"2974",78.92943,913.66626
"2975",78.907455,913.67957
"2976",78.89525,913.6929
"2977",78.89281,913.7062
"2978",78.89525,913.7195
"2979",78.89281,913.7328
"2980",78.890366,913.7461
"2981",78.907455,913.7594
"2982",78.995346,913.7727
"2983",79.22728,913.786
"2984",79.65942,913.7993
"2985",80.27955,913.8126
"2986",81.01686,913.8259
"2987",81.73464,913.83923
"2988",82.29374,913.85254
"2989",82.60136,913.86584
"2990",82.63554,913.87915
"2991",82.44511,913.89246
"2992",82.11551,913.90576
"2993",81.72732,913.91907
"2994",81.339134,913.9324
"2995",80.990005,913.9457
"2996",80.70191,913.959
"2997",80.46998,913.9723
"2998",80.28199,913.9856
"2999",80.12329,913.9989
"3000",79.98169,914.0122
"3001",79.84985,914.0255
"3002",79.7351,914.0388
"3003",79.64477,914.0521
"3004",79.59838,914.0654
"3005",79.5935,914.07874
"3006",79.622795,914.09204
"3007",79.67162,914.10535
"3008",79.72289,914.11865
"3009",79.75952,914.13196
"3010",79.77173,914.14526
"3011",79.75708,914.15857
"3012",79.71557,914.1719
"3013",79.656975,914.1852
"3014",79.5935,914.1985
"3015",79.5227,914.2118
"3016",79.4519,914.2251
"3017",79.38598,914.2384
"3018",79.3225,914.2517
"3019",79.259026,914.265
"3020",79.19798,914.2783
"3021",79.14671,914.2916
"3022",79.10521,914.30493
"3023",79.07103,914.31824
"3024",79.03929,914.33154
"3025",79.009995,914.34485
"3026",78.98802,914.35815
"3027",78.97093,914.37146
"3028",78.96117,914.38477
"3029",78.958725,914.3981
"3030",78.958725,914.4114
"3031",78.95628,914.4247
"3032",78.94652,914.438
"3033",78.94408,914.4513
"3034",78.98314,914.4646
"3035",79.13695,914.4779
"3036",79.47387,914.4912
"3037",80.01587,914.5045
"3038",80.71412,914.5178
"3039",81.45876,914.5311
"3040",82.11307,914.54443
"3041",82.55253,914.55774
"3042",82.718544,914.57104
"3043",82.63554,914.58435
"3044",82.374306,914.59766
"3045",82.00809,914.61096
"3046",81.61257,914.62427
"3047",81.22682,914.6376
"3048",80.88258,914.6509
"3049",80.59205,914.6642
"3050",80.34547,914.6775
"3051",80.1355,914.6908
"3052",79.954834,914.7041
"3053",79.80347,914.7174
"3054",79.676506,914.7307
"3055",79.586174,914.744
"3056",79.53979,914.7573
"3057",79.53246,914.7706
"3058",79.55688,914.78394
"3059",79.603264,914.79724
"3060",79.65453,914.81055
"3061",79.69848,914.82385
"3062",79.71801,914.83716
"3063",79.7058,914.85046
"3064",79.66918,914.8638
"3065",79.60815,914.8771
"3066",79.53002,914.8904
"3067",79.447014,914.9037
"3068",79.36645,914.917
"3069",79.28344,914.9303
"3070",79.20775,914.9436
"3071",79.13695,914.9569
"3072",79.07103,914.9702
"3073",79.00755,914.9835
"3074",78.94652,914.9968
"3075",78.89281,915.01013
"3076",78.84154,915.02344
"3077",78.80003,915.03674
"3078",78.765854,915.05005
"3079",78.74143,915.06335
"3080",78.7219,915.07666
"3081",78.70481,915.08997
"3082",78.69016,915.1033
"3083",78.675514,915.1166
"3084",78.660866,915.1299
"3085",78.6511,915.1432
"3086",78.66331,915.1565
"3087",78.74387,915.1698
"3088",78.96605,915.1831
"3089",79.38598,915.1964
"3090",79.98901,915.2097
"3091",80.71168,915.223
"3092",81.41726,915.2363
"3093",81.969025,915.24963
"3094",82.269325,915.26294
"3095",82.29618,915.27625
"3096",82.09598,915.28955
"3097",81.74929,915.30286
"3098",81.33425,915.31616
"3099",80.90944,915.32947
"3100",80.51392,915.3428
"3101",80.164795,915.3561
"3102",79.871826,915.3694
"3103",79.63256,915.3827
"3104",79.43725,915.396
"3105",79.28832,915.4093
"3106",79.18089,915.4226
"3107",79.114975,915.4359
"3108",79.093,915.4492
"3109",79.114975,915.4625
"3110",79.17113,915.4758
"3111",79.2517,915.48914
"3112",79.33959,915.50244
"3113",79.41772,915.51575
"3114",79.47387,915.52905
"3115",79.500725,915.54236
"3116",79.4934,915.55566
"3117",79.45434,915.569
"3118",79.395744,915.5823
"3119",79.32494,915.5956
"3120",79.24437,915.6089
"3121",79.1638,915.6222
"3122",79.08324,915.6355
"3123",79.00267,915.6488
"3124",78.924545,915.6621
"3125",78.85863,915.6754
"3126",78.80492,915.6887
"3127",78.75853,915.702
"3128",78.7219,915.71533
"3129",78.692604,915.72864
"3130",78.66819,915.74194
"3131",78.64622,915.75525
"3132",78.62913,915.76855
"3133",78.624245,915.78186
"3134",78.624245,915.79517
"3135",78.63157,915.8085
"3136",78.63645,915.8218
"3137",78.63645,915.8351
"3138",78.63157,915.8484
"3139",78.643776,915.8617
"3140",78.712135,915.875
"3141",78.91478,915.8883
"3142",79.30541,915.9016
"3143",79.89136,915.9149
"3144",80.601814,915.9282
"3145",81.322044,915.9415
"3146",81.91531,915.95483
"3147",82.27177,915.96814
"3148",82.34989,915.98145
"3149",82.193634,915.99475
"3150",81.87625,916.00806
"3151",81.47097,916.02136
"3152",81.041275,916.03467
"3153",80.62867,916.048
"3154",80.25269,916.0613
"3155",79.92554,916.0746
"3156",79.64721,916.0879
"3157",79.4226,916.1012
"3158",79.24437,916.1145
"3159",79.12474,916.1278
"3160",79.061264,916.1411
"3161",79.061264,916.1544
"3162",79.11742,916.1677
"3163",79.219955,916.181
"3164",79.34936,916.19434
"3165",79.483635,916.20764
"3166",79.59594,916.22095
"3167",79.674065,916.23425
"3168",79.71313,916.24756
"3169",79.710686,916.26086
"3170",79.67895,916.2742
"3171",79.62768,916.2875
"3172",79.569084,916.3008
"3173",79.50561,916.3141
"3174",79.44457,916.3274
"3175",79.37621,916.3407
"3176",79.30541,916.354
"3177",79.22972,916.3673
"3178",79.151596,916.3806
"3179",79.08568,916.3939
"3180",79.03197,916.4072
"3181",78.98558,916.42053
"3182",78.95384,916.43384
"3183",78.93187,916.44714
"3184",78.91478,916.46045
"3185",78.905014,916.47375
"3186",78.90013,916.48706
"3187",78.89525,916.50037
"3188",78.890366,916.5137
"3189",78.88304,916.527
"3190",78.873276,916.5403
"3191",78.86595,916.5536
"3192",78.89525,916.5669
"3193",79.01976,916.5802
"3194",79.31274,916.5935
"3195",79.798584,916.6068
"3196",80.45533,916.6201
"3197",81.18288,916.6334
"3198",81.84451,916.6467
"3199",82.31083,916.66003
"3200",82.513466,916.67334
"3201",82.45731,916.68665
"3202",82.20096,916.69995
"3203",81.82254,916.71326
"3204",81.38552,916.72656
"3205",80.938736,916.73987
"3206",80.51148,916.7532
"3207",80.12329,916.7665
"3208",79.7937,916.7798
"3209",79.517815,916.7931
"3210",79.30541,916.8064
"3211",79.15404,916.8197
"3212",79.07347,916.833
"3213",79.05638,916.8463
"3214",79.10277,916.8596
"3215",79.20531,916.8729
"3216",79.344475,916.8862
"3217",79.49584,916.89954
"3218",79.64477,916.91284
"3219",79.764404,916.92615
"3220",79.84497,916.93945
"3221",79.88159,916.95276
"3222",79.87915,916.96606
"3223",79.84009,916.9794
"3224",79.77905,916.9927
"3225",79.7058,917.006
"3226",79.62524,917.0193
"3227",79.54223,917.0326
"3228",79.45922,917.0459
"3229",79.381096,917.0592
"3230",79.31274,917.0725
"3231",79.24925,917.0858
"3232",79.19066,917.0991
"3233",79.13939,917.1124
"3234",79.09544,917.12573
"3235",79.061264,917.13904
"3236",79.03441,917.15234
"3237",79.01488,917.16565
"3238",79.00023,917.17896
"3239",78.98558,917.19226
"3240",78.97337,917.20557
"3241",78.96361,917.2189
"3242",78.96849,917.2322
"3243",79.02464,917.2455
"3244",79.200424,917.2588
"3245",79.54955,917.2721
"3246",80.093994,917.2854
"3247",80.77516,917.2987
"3248",81.49294,917.312
"3249",82.10086,917.3253
"3250",82.49149,917.3386
"3251",82.60868,917.3519
"3252",82.48417,917.36523
"3253",82.18631,917.37854
"3254",81.7908,917.39185
"3255",81.358665,917.40515
"3256",80.92409,917.41846
"3257",80.516365,917.43176
"3258",80.15503,917.44507
"3259",79.84497,917.4584
"3260",79.5935,917.4717
"3261",79.40307,917.485
"3262",79.281,917.4983
"3263",79.22484,917.5116
"3264",79.23216,917.5249
"3265",79.30053,917.5382
"3266",79.415276,917.5515
"3267",79.5642,917.5648
"3268",79.72045,917.5781
"3269",79.86206,917.59143
"3270",79.974365,917.60474
"3271",80.04028,917.61804
"3272",80.062256,917.63135
"3273",80.03784,917.64465
"3274",79.97925,917.65796
"3275",79.903564,917.67126
"3276",79.823,917.6846
"3277",79.742424,917.6979
"3278",79.66918,917.7112
"3279",79.603264,917.7245
"3280",79.537346,917.7378
"3281",79.47143,917.7511
"3282",79.40551,917.7644
"3283",79.34692,917.7777
"3284",79.29565,917.791
"3285",79.25414,917.8043
"3286",79.217514,917.8176
"3287",79.183334,917.83093
"3288",79.151596,917.84424
"3289",79.1223,917.85754
"3290",79.10277,917.87085
"3291",79.13695,917.88416
"3292",79.27856,917.89746
"3293",79.588615,917.91077
"3294",80.093994,917.9241
"3295",80.75319,917.9374
"3296",81.46609,917.9507
"3297",82.09354,917.964
"3298",82.51835,917.9773
"3299",82.684364,917.9906
"3300",82.61112,918.0039
"3301",82.3621,918.0172
"3302",82.00809,918.0305
"3303",81.60769,918.0438
"3304",81.20241,918.0571
"3305",80.8069,918.07043
"3306",80.44068,918.08374
"3307",80.11597,918.09705
"3308",79.84741,918.11035
"3309",79.63744,918.12366
"3310",79.49584,918.13696
"3311",79.43481,918.15027
"3312",79.44213,918.1636
"3313",79.51293,918.1769
"3314",79.63256,918.1902
"3315",79.77661,918.2035
"3316",79.91821,918.2168
"3317",80.042725,918.2301
"3318",80.13306,918.2434
"3319",80.184326,918.2567
"3320",80.18921,918.27
"3321",80.15747,918.2833
"3322",80.09155,918.29663
"3323",80.00122,918.30994
"3324",79.90112,918.32324
"3325",79.801025,918.33655
"3326",79.708244,918.34985
"3327",79.62035,918.36316
"3328",79.54711,918.37646
"3329",79.483635,918.3898
"3330",79.42748,918.4031
"3331",79.37133,918.4164
"3332",79.32006,918.4297
"3333",79.273674,918.443
"3334",79.22972,918.4563
"3335",79.1931,918.4696
"3336",79.17357,918.4829
"3337",79.20531,918.4962
"3338",79.34692,918.5095
"3339",79.656975,918.5228
"3340",80.15991,918.53613
"3341",80.816666,918.54944
"3342",81.529564,918.56274
"3343",82.16434,918.57605
"3344",82.59647,918.58936
"3345",82.77226,918.60266
"3346",82.703896,918.61597
"3347",82.45243,918.6293
"3348",82.08865,918.6426
"3349",81.68337,918.6559
"3350",81.28054,918.6692
"3351",80.89235,918.6825
"3352",80.54322,918.6958
"3353",80.23804,918.7091
"3354",79.98657,918.7224
"3355",79.7937,918.7357
"3356",79.66918,918.749
"3357",79.61303,918.7623
"3358",79.62524,918.77563
"3359",79.69604,918.78894
"3360",79.80835,918.80225
"3361",79.940186,918.81555
"3362",80.06958,918.82886
"3363",80.16968,918.84216
"3364",80.22583,918.85547
"3365",80.235596,918.8688
"3366",80.20386,918.8821
"3367",80.1355,918.8954
"3368",80.05005,918.9087
"3369",79.94751,918.922
"3370",79.835205,918.9353
"3371",79.71801,918.9486
"3372",79.605705,918.9619
"3373",79.50317,918.9752
"3374",79.415276,918.9885
"3375",79.33959,919.00183
"3376",79.276115,919.01514
"3377",79.217514,919.02844
"3378",79.168686,919.04175
"3379",79.12474,919.05505
"3380",79.08568,919.06836
"3381",79.08568,919.08167
"3382",79.17601,919.095
"3383",79.42504,919.1083
"3384",79.869385,919.1216
"3385",80.49195,919.1349
"3386",81.20485,919.1482
"3387",81.87869,919.1615
"3388",82.388954,919.1748
"3389",82.65507,919.1881
"3390",82.669716,919.2014
"3391",82.48173,919.2147
"3392",82.161896,919.228
"3393",81.77371,919.24133
"3394",81.37087,919.25464
"3395",80.987564,919.26794
"3396",80.635994,919.28125
"3397",80.32838,919.29456
"3398",80.07202,919.30786
"3399",79.86694,919.32117
"3400",79.725334,919.3345
"3401",79.65453,919.3478
"3402",79.656975,919.3611
"3403",79.72289,919.3744
"3404",79.83032,919.3877
"3405",79.957275,919.401
"3406",80.08423,919.4143
"3407",80.17944,919.4276
"3408",80.23071,919.4409
"3409",80.23804,919.4542
"3410",80.201416,919.4675
"3411",80.128174,919.48083
"3412",80.025635,919.49414
"3413",79.91089,919.50745
"3414",79.79126,919.52075
"3415",79.67895,919.53406
"3416",79.57641,919.54736
"3417",79.48608,919.56067
"3418",79.40795,919.574
"3419",79.33471,919.5873
"3420",79.26391,919.6006
"3421",79.19554,919.6139
"3422",79.13695,919.6272
"3423",79.08812,919.6405
"3424",79.061264,919.6538
"3425",79.10033,919.6671
"3426",79.273674,919.6804
"3427",79.635,919.6937
"3428",80.19409,919.70703
"3429",80.89235,919.72034
"3430",81.62234,919.73364
"3431",82.23758,919.74695
"3432",82.633095,919.76025
"3433",82.7625,919.77356
"3434",82.65995,919.78687
"3435",82.388954,919.8002
"3436",82.03006,919.8135
"3437",81.636986,919.8268
"3438",81.24391,919.8401
"3439",80.87282,919.8534
"3440",80.53834,919.8667
"3441",80.24536,919.88
"3442",80.01099,919.8933
"3443",79.84497,919.9066
"3444",79.7522,919.9199
"3445",79.7351,919.9332
"3446",79.78638,919.94653
"3447",79.89136,919.95984
"3448",80.02319,919.97314
"3449",80.15747,919.98645
"3450",80.2649,919.99976
"3451",80.323494,920.01306
"3452",80.323494,920.02637
"3453",80.26734,920.0397
"3454",80.17212,920.053
"3455",80.04761,920.0663
"3456",79.91089,920.0796
"3457",79.77417,920.0929
"3458",79.64477,920.1062
"3459",79.52514,920.1195
"3460",79.415276,920.1328
"3461",79.31518,920.1461
"3462",79.2224,920.1594
"3463",79.13451,920.1727
"3464",79.0515,920.18604
"3465",78.97826,920.19934
"3466",78.91722,920.21265
"3467",78.905014,920.22595
"3468",78.995346,920.23926
"3469",79.25414,920.25256
"3470",79.710686,920.26587
"3471",80.34058,920.2792
"3472",81.06081,920.2925
"3473",81.73464,920.3058
"3474",82.2327,920.3191
"3475",82.47929,920.3324
"3476",82.46952,920.3457
"3477",82.25712,920.359
"3478",81.9202,920.3723
"3479",81.53689,920.3856
"3480",81.146255,920.3989
"3481",80.77516,920.41223
"3482",80.4358,920.42554
"3483",80.1355,920.43884
"3484",79.87915,920.45215
"3485",79.68383,920.46545
"3486",79.56176,920.47876
"3487",79.5227,920.49207
"3488",79.569084,920.5054
"3489",79.67162,920.5187
"3490",79.79614,920.532
"3491",79.91089,920.5453
"3492",79.98657,920.5586
"3493",80.0061,920.5719
"3494",79.971924,920.5852
"3495",79.89136,920.5985
"3496",79.77905,920.6118
"3497",79.64233,920.6251
"3498",79.4934,920.6384
"3499",79.34936,920.65173
"3500",79.21263,920.66504
"3501",79.09056,920.67834
"3502",78.98558,920.69165
"3503",78.89525,920.70496
"3504",78.81468,920.71826
"3505",78.74143,920.73157
"3506",78.67307,920.7449
"3507",78.6096,920.7582
"3508",78.553444,920.7715
"3509",78.54124,920.7848
"3510",78.63645,920.7981
"3511",78.90257,920.8114
"3512",79.37377,920.8247
"3513",80.02319,920.838
"3514",80.75807,920.8513
"3515",81.45632,920.8646
"3516",81.97635,920.8779
"3517",82.252235,920.89124
"3518",82.27665,920.90454
"3519",82.10574,920.91785
"3520",81.80789,920.93115
"3521",81.461205,920.94446
"3522",81.112076,920.95776
"3523",80.78981,920.97107
"3524",80.50172,920.9844
"3525",80.25025,920.9977
"3526",80.042725,921.011
"3527",79.88403,921.0243
"3528",79.78638,921.0376
"3529",79.7522,921.0509
"3530",79.781494,921.0642
"3531",79.85962,921.0775
"3532",79.957275,921.0908
"3533",80.05005,921.1041
"3534",80.10864,921.11743
"3535",80.11841,921.13074
"3536",80.07202,921.14404
"3537",79.97925,921.15735
"3538",79.85962,921.17065
"3539",79.72289,921.18396
"3540",79.586174,921.19727
"3541",79.4519,921.2106
"3542",79.327385,921.2239
"3543",79.21507,921.2372
"3544",79.11253,921.2505
"3545",79.0222,921.2638
"3546",78.94896,921.2771
"3547",78.88304,921.2904
"3548",78.82689,921.3037
"3549",78.768295,921.317
"3550",78.709694,921.3303
"3551",78.66331,921.3436
"3552",78.65354,921.35693
"3553",78.73411,921.37024
"3554",78.97337,921.38354
"3555",79.41772,921.39685
"3556",80.05249,921.41016
"3557",80.8069,921.42346
"3558",81.55154,921.43677
"3559",82.15457,921.4501
"3560",82.52567,921.4634
"3561",82.63554,921.4767
"3562",82.52567,921.49
"3563",82.27909,921.5033
"3564",81.97635,921.5166
"3565",81.67361,921.5299
"3566",81.39773,921.5432
"3567",81.16579,921.5565
"3568",80.96803,921.5698
"3569",80.78981,921.5831
"3570",80.621346,921.59644
"3571",80.46754,921.60974
"3572",80.33814,921.62305
"3573",80.25025,921.63635
"3574",80.20874,921.64966
"3575",80.218506,921.66296
"3576",80.255135,921.6763
"3577",80.29664,921.6896
"3578",80.31129,921.7029
"3579",80.28443,921.7162
"3580",80.21118,921.7295
"3581",80.10132,921.7428
"3582",79.96216,921.7561
"3583",79.81323,921.7694
"3584",79.65942,921.7827
"3585",79.51049,921.796
"3586",79.37621,921.8093
"3587",79.256584,921.82263
"3588",79.149155,921.83594
"3589",79.05882,921.84924
"3590",78.98314,921.86255
"3591",78.91966,921.87585
"3592",78.86107,921.88916
"3593",78.8098,921.90247
"3594",78.75609,921.9158
"3595",78.70237,921.9291
"3596",78.64622,921.9424
"3597",78.59739,921.9557
"3598",78.5803,921.969
"3599",78.6511,921.9823
"3600",78.87572,921.9956
"3601",79.30053,922.0089
"3602",79.92554,922.0222
"3603",80.6775,922.0355
"3604",81.43435,922.0488
"3605",82.054474,922.06213
"3606",82.44511,922.07544
"3607",82.58427,922.08875
"3608",82.513466,922.10205
"3609",82.30839,922.11536
"3610",82.054474,922.12866
"3611",81.80789,922.14197
"3612",81.5906,922.1553
"3613",81.409935,922.1686
"3614",81.24635,922.1819
"3615",81.08034,922.1952
"3616",80.902115,922.2085
"3617",80.71168,922.2218
"3618",80.52369,922.2351
"3619",80.365,922.2484
"3620",80.257576,922.2617
"3621",80.2063,922.275
"3622",80.201416,922.2883
"3623",80.218506,922.30164
"3624",80.22339,922.31494
"3625",80.19409,922.32825
"3626",80.12085,922.34155
"3627",80.00366,922.35486
"3628",79.85962,922.36816
"3629",79.69848,922.3815
"3630",79.534904,922.3948
"3631",79.37621,922.4081
"3632",79.2224,922.4214
"3633",79.07591,922.4347
"3634",78.941635,922.448
"3635",78.82689,922.4613
"3636",78.72434,922.4746
"3637",78.63157,922.4879
"3638",78.555885,922.5012
"3639",78.49241,922.5145
"3640",78.44358,922.52783
"3641",78.40452,922.54114
"3642",78.38499,922.55444
"3643",78.37034,922.56775
"3644",78.35081,922.58105
"3645",78.32395,922.59436
"3646",78.28245,922.60767
"3647",78.23605,922.621
"3648",78.187225,922.6343
"3649",78.16037,922.6476
"3650",78.21164,922.6609
"3651",78.41428,922.6742
"3652",78.81468,922.6875
"3653",79.4226,922.7008
"3654",80.164795,922.7141
"3655",80.921646,922.7274
"3656",81.55154,922.7407
"3657",81.951935,922.754
"3658",82.09598,922.76733
"3659",82.02762,922.78064
"3660",81.82742,922.79395
"3661",81.57839,922.80725
"3662",81.33425,922.82056
"3663",81.12184,922.83386
"3664",80.936295,922.84717
"3665",80.77028,922.8605
"3666",80.6067,922.8738
"3667",80.43336,922.8871
"3668",80.25025,922.9004
"3669",80.076904,922.9137
"3670",79.93286,922.927
"3671",79.83765,922.9403
"3672",79.79614,922.9536
"3673",79.801025,922.9669
"3674",79.82544,922.9802
"3675",79.84009,922.9935
"3676",79.82056,923.00684
"3677",79.75952,923.02014
"3678",79.656975,923.03345
"3679",79.520256,923.04675
"3680",79.36645,923.06006
"3681",79.21019,923.07336
"3682",79.061264,923.0867
"3683",78.922104,923.1
"3684",78.79515,923.1133
"3685",78.68772,923.1266
"3686",78.590065,923.1399
"3687",78.504616,923.1532
"3688",78.42405,923.1665
"3689",78.35325,923.1798
"3690",78.294655,923.1931
"3691",78.25315,923.2064
"3692",78.221405,923.2197
"3693",78.19943,923.23303
"3694",78.1799,923.24634
"3695",78.153046,923.25964
"3696",78.11398,923.27295
"3697",78.06271,923.28625
"3698",78.00168,923.29956
"3699",77.9382,923.31287
"3700",77.90158,923.3262
"3701",77.93576,923.3395
"3702",78.11398,923.3528
"3703",78.49485,923.3661
"3704",79.078354,923.3794
"3705",79.79126,923.3927
"3706",80.50904,923.406
"3707",81.0901,923.4193
"3708",81.43923,923.4326
"3709",81.529564,923.4459
"3710",81.40749,923.4592
"3711",81.160904,923.47253
"3712",80.87038,923.48584
"3713",80.59205,923.49915
"3714",80.35767,923.51245
"3715",80.16968,923.52576
"3716",80.01587,923.53906
"3717",79.869385,923.55237
"3718",79.71313,923.5657
"3719",79.54223,923.579
"3720",79.36889,923.5923
"3721",79.219955,923.6056
"3722",79.12474,923.6189
"3723",79.08812,923.6322
"3724",79.10277,923.6455
"3725",79.132065,923.6588
"3726",79.15404,923.6721
"3727",79.14183,923.6854
"3728",79.08812,923.6987
"3729",78.99779,923.71204
"3730",78.887924,923.72534
"3731",78.765854,923.73865
"3732",78.643776,923.75195
"3733",78.52415,923.76526
"3734",78.416725,923.77856
"3735",78.31907,923.7919
"3736",78.23361,923.8052
"3737",78.15793,923.8185
"3738",78.09689,923.8318
"3739",78.04074,923.8451
"3740",77.994354,923.8584
"3741",77.960175,923.8717
"3742",77.93088,923.885
"3743",77.90646,923.8983
"3744",77.88937,923.9116
"3745",77.87961,923.9249
"3746",77.872284,923.93823
"3747",77.86252,923.95154
"3748",77.86008,923.96484
"3749",77.857635,923.97815
"3750",77.85275,923.99146
"3751",77.84787,924.00476
"3752",77.84543,924.01807
"3753",77.83566,924.0314
"3754",77.81857,924.0447
"3755",77.7966,924.058
"3756",77.786835,924.0713
"3757",77.840546,924.0846
"3758",78.030975,924.0979
"3759",78.42893,924.1112
"3760",79.044174,924.1245
"3761",79.818115,924.1378
"3762",80.62379,924.1511
"3763",81.307396,924.1644
"3764",81.75174,924.17773
"3765",81.91287,924.19104
"3766",81.83963,924.20435
"3767",81.62234,924.21765
"3768",81.356224,924.23096
"3769",81.109634,924.24426
"3770",80.91676,924.25757
"3771",80.78493,924.2709
"3772",80.69703,924.2842
"3773",80.62379,924.2975
"3774",80.5359,924.3108
"3775",80.413826,924.3241
"3776",80.255135,924.3374
"3777",80.08179,924.3507
"3778",79.923096,924.364
"3779",79.81323,924.3773
"3780",79.76196,924.3906
"3781",79.766846,924.40393
"3782",79.798584,924.41724
"3783",79.83032,924.43054
"3784",79.83276,924.44385
"3785",79.801025,924.45715
"3786",79.73266,924.47046
"3787",79.639885,924.48376
"3788",79.53246,924.4971
"3789",79.4226,924.5104
"3790",79.31762,924.5237
"3791",79.219955,924.537
"3792",79.13695,924.5503
"3793",79.063705,924.5636
"3794",79.00267,924.5769
"3795",78.94652,924.5902
"3796",78.89769,924.6035
"3797",78.84886,924.6168
"3798",78.8098,924.6301
"3799",78.7805,924.64343
"3800",78.75853,924.65674
"3801",78.73899,924.67004
"3802",78.72678,924.68335
"3803",78.71458,924.69666
"3804",78.70237,924.70996
"3805",78.695045,924.72327
"3806",78.68772,924.7366
"3807",78.677956,924.7499
"3808",78.66575,924.7632
"3809",78.64866,924.7765
"3810",78.62913,924.7898
"3811",78.60227,924.8031
"3812",78.572975,924.8164
"3813",78.54124,924.8297
"3814",78.52659,924.843
"3815",78.5803,924.8563
"3816",78.77562,924.8696
"3817",79.17601,924.88293
"3818",79.781494,924.89624
"3819",80.52369,924.90955
"3820",81.27322,924.92285
"3821",81.88602,924.93616
"3822",82.24979,924.94946
"3823",82.337685,924.96277
"3824",82.20584,924.9761
"3825",81.94461,924.9894
"3826",81.63943,925.0027
"3827",81.36111,925.016
"3828",81.14137,925.0293
"3829",80.98268,925.0426
"3830",80.86549,925.0559
"3831",80.77028,925.0692
"3832",80.66285,925.0825
"3833",80.52369,925.0958
"3834",80.35279,925.10913
"3835",80.164795,925.12244
"3836",79.98413,925.13574
"3837",79.83765,925.14905
"3838",79.742424,925.16235
"3839",79.69604,925.17566
"3840",79.68627,925.18896
"3841",79.68627,925.2023
"3842",79.676506,925.2156
"3843",79.63744,925.2289
"3844",79.56664,925.2422
"3845",79.466545,925.2555
"3846",79.3518,925.2688
"3847",79.23216,925.2821
"3848",79.11009,925.2954
"3849",79.00267,925.3087
"3850",78.907455,925.322
"3851",78.82201,925.3353
"3852",78.74387,925.34863
"3853",78.67063,925.36194
"3854",78.60227,925.37524
"3855",78.536354,925.38855
"3856",78.47532,925.40186
"3857",78.42405,925.41516
"3858",78.38499,925.42847
"3859",78.35569,925.4418
"3860",78.33372,925.4551
"3861",78.31663,925.4684
"3862",78.30442,925.4817
"3863",78.29221,925.495
"3864",78.28245,925.5083
"3865",78.277565,925.5216
"3866",78.27024,925.5349
"3867",78.26292,925.5482
"3868",78.25559,925.5615
"3869",78.24094,925.5748
"3870",78.21896,925.58813
"3871",78.19699,925.60144
"3872",78.17502,925.61475
"3873",78.15549,925.62805
"3874",78.15793,925.64136
"3875",78.24094,925.65466
"3876",78.467995,925.66797
"3877",78.89769,925.6813
"3878",79.520256,925.6946
"3879",80.26246,925.7079
"3880",80.987564,925.7212
"3881",81.54665,925.7345
"3882",81.84451,925.7478
"3883",81.87137,925.7611
"3884",81.685814,925.7744
"3885",81.38552,925.7877
"3886",81.07057,925.801
"3887",80.797134,925.81433
"3888",80.584724,925.82764
"3889",80.430916,925.84094
"3890",80.325935,925.85425
"3891",80.233154,925.86755
"3892",80.14038,925.88086
"3893",80.03052,925.89417
"3894",79.89624,925.9075
"3895",79.75708,925.9208
"3896",79.62768,925.9341
"3897",79.52514,925.9474
"3898",79.47143,925.9607
"3899",79.45922,925.974
"3900",79.47631,925.9873
"3901",79.50317,926.0006
"3902",79.517815,926.0139
"3903",79.50561,926.0272
"3904",79.4641,926.0405
"3905",79.398186,926.05383
"3906",79.31518,926.06714
"3907",79.22728,926.08044
"3908",79.13939,926.09375
"3909",79.05638,926.10706
"3910",78.98314,926.12036
"3911",78.91966,926.13367
"3912",78.86351,926.147
"3913",78.81468,926.1603
"3914",78.77806,926.1736
"3915",78.74387,926.1869
"3916",78.71702,926.2002
"3917",78.69993,926.2135
"3918",78.692604,926.2268
"3919",78.695045,926.2401
"3920",78.69993,926.2534
"3921",78.70237,926.2667
"3922",78.70725,926.28
"3923",78.709694,926.29333
"3924",78.70481,926.30664
"3925",78.69749,926.31995
"3926",78.68772,926.33325
"3927",78.677956,926.34656
"3928",78.66331,926.35986
"3929",78.64866,926.37317
"3930",78.63645,926.3865
"3931",78.62913,926.3998
"3932",78.61936,926.4131
"3933",78.61204,926.4264
"3934",78.60471,926.4397
"3935",78.62913,926.453
"3936",78.74143,926.4663
"3937",79.01976,926.4796
"3938",79.49828,926.4929
"3939",80.15015,926.5062
"3940",80.88014,926.51953
"3941",81.54421,926.53284
"3942",82.005646,926.54614
"3943",82.20096,926.55945
"3944",82.13504,926.57275
"3945",81.88846,926.58606
"3946",81.55154,926.59937
"3947",81.20729,926.6127
"3948",80.90944,926.626
"3949",80.6775,926.6393
"3950",80.50904,926.6526
"3951",80.396736,926.6659
"3952",80.308846,926.6792
"3953",80.22095,926.6925
"3954",80.11597,926.7058
"3955",79.99878,926.7191
"3956",79.88403,926.7324
"3957",79.78882,926.7457
"3958",79.725334,926.75903
"3959",79.70336,926.77234
"3960",79.71313,926.78564
"3961",79.73754,926.79895
"3962",79.75952,926.81226
"3963",79.76929,926.82556
"3964",79.74975,926.83887
"3965",79.70092,926.8522
"3966",79.63256,926.8655
"3967",79.551994,926.8788
"3968",79.4641,926.8921
"3969",79.381096,926.9054
"3970",79.30785,926.9187
"3971",79.24193,926.932
"3972",79.185776,926.9453
"3973",79.13451,926.9586
"3974",79.093,926.9719
"3975",79.05882,926.9852
"3976",79.027084,926.99854
"3977",79.00023,927.01184
"3978",78.9807,927.02515
"3979",78.96605,927.03845
"3980",78.95628,927.05176
"3981",78.9514,927.06506
"3982",78.94408,927.07837
"3983",78.93919,927.0917
"3984",78.93431,927.105
"3985",78.93187,927.1183
"3986",78.93431,927.1316
"3987",78.93431,927.1449
"3988",78.93187,927.1582
"3989",78.924545,927.1715
"3990",78.9099,927.1848
"3991",78.89281,927.1981
"3992",78.873276,927.2114
"3993",78.856186,927.22473
"3994",78.84886,927.23804
"3995",78.90257,927.25134
"3996",79.08324,927.26465
"3997",79.45434,927.27795
"3998",80.025635,927.29126
"3999",80.73365,927.30457
"4000",81.45876,927.3179
"4001",82.05936,927.3312
"4002",82.41093,927.3445
"4003",82.48417,927.3578
"4004",82.32792,927.3711
"4005",82.022736,927.3844
"4006",81.6614,927.3977
"4007",81.31716,927.411
"4008",81.03151,927.4243
"4009",80.814224,927.4376
"4010",80.655525,927.4509
"4011",80.53834,927.46423
"4012",80.43824,927.47754
"4013",80.33326,927.49084
"4014",80.22095,927.50415
"4015",80.10376,927.51746
"4016",80.00366,927.53076
"4017",79.937744,927.54407
"4018",79.91577,927.5574
"4019",79.937744,927.5707
"4020",79.98657,927.584
"4021",80.045166,927.5973
"4022",80.08423,927.6106
"4023",80.09888,927.6239
"4024",80.08179,927.6372
"4025",80.0354,927.6505
"4026",79.96948,927.6638
"4027",79.90112,927.6771
"4028",79.83276,927.6904
"4029",79.76929,927.70374
"4030",79.71557,927.71704
"4031",79.67162,927.73035
"4032",79.63012,927.74365
"4033",79.59106,927.75696
"4034",79.55688,927.77026
"4035",79.52758,927.78357
"4036",79.50805,927.7969
"4037",79.49096,927.8102
"4038",79.47875,927.8235
"4039",79.47631,927.8368
"4040",79.47875,927.8501
"4041",79.48608,927.8634
"4042",79.500725,927.8767
"4043",79.51293,927.89
"4044",79.52514,927.9033
"4045",79.53246,927.9166
"4046",79.537346,927.92993
"4047",79.54223,927.94324
"4048",79.54711,927.95654
"4049",79.54955,927.96985
"4050",79.54467,927.98315
"4051",79.534904,927.99646
"4052",79.517815,928.00977
"4053",79.51293,928.0231
"4054",79.569084,928.0364
"4055",79.764404,928.0497
"4056",80.15015,928.063
"4057",80.73853,928.0763
"4058",81.461205,928.0896
"4059",82.19852,928.1029
"4060",82.794235,928.1162
"4061",83.13847,928.1295
"4062",83.19951,928.1428
"4063",83.02373,928.1561
"4064",82.70634,928.16943
"4065",82.33524,928.18274
"4066",81.98123,928.19604
"4067",81.68337,928.20935
"4068",81.45632,928.22266
"4069",81.29275,928.23596
"4070",81.16579,928.24927
"4071",81.05348,928.2626
"4072",80.94118,928.2759
"4073",80.816666,928.2892
"4074",80.68238,928.3025
"4075",80.56519,928.3158
"4076",80.47486,928.3291
"4077",80.428474,928.3424
"4078",80.42359,928.3557
"4079",80.44312,928.369
"4080",80.47242,928.3823
"4081",80.48951,928.3956
"4082",80.479744,928.40894
"4083",80.43824,928.42224
"4084",80.36744,928.43555
"4085",80.27711,928.44885
"4086",80.17944,928.46216
"4087",80.08423,928.47546
"4088",79.9939,928.4888
"4089",79.91089,928.5021
"4090",79.83765,928.5154
"4091",79.77173,928.5287
"4092",79.71557,928.542
"4093",79.66674,928.5553
"4094",79.63012,928.5686
"4095",79.603264,928.5819
"4096",79.58373,928.5952
"4097",79.56664,928.6085
"4098",79.55688,928.6218
"4099",79.54711,928.63513
"4100",79.54223,928.64844
"4101",79.537346,928.66174
"4102",79.534904,928.67505
"4103",79.53246,928.68835
"4104",79.53002,928.70166
"4105",79.5227,928.71497
"4106",79.51049,928.7283
"4107",79.49096,928.7416
"4108",79.46899,928.7549
"4109",79.43969,928.7682
"4110",79.40795,928.7815
"4111",79.38354,928.7948
"4112",79.40795,928.8081
"4113",79.54467,928.8214
"4114",79.8645,928.8347
"4115",80.39185,928.848
"4116",81.092545,928.8613
"4117",81.849396,928.87463
"4118",82.51591,928.88794
"4119",82.95537,928.90125
"4120",83.11894,928.91455
"4121",83.02373,928.92786
"4122",82.75029,928.94116
"4123",82.39628,928.95447
"4124",82.03494,928.9678
"4125",81.71511,928.9811
"4126",81.45388,928.9944
"4127",81.25613,929.0077
"4128",81.09987,929.021
"4129",80.972916,929.0343
"4130",80.850845,929.0476
"4131",80.72144,929.0609
"4132",80.59205,929.0742
"4133",80.47486,929.0875
"4134",80.38697,929.1008
"4135",80.34547,929.11414
"4136",80.35279,929.12744
"4137",80.38697,929.14075
"4138",80.430916,929.15405
"4139",80.465096,929.16736
"4140",80.46754,929.18066
"4141",80.4358,929.194
"4142",80.377205,929.2073
"4143",80.29908,929.2206
"4144",80.21118,929.2339
"4145",80.11841,929.2472
"4146",80.028076,929.2605
"4147",79.94507,929.2738
"4148",79.871826,929.2871
"4149",79.80835,929.3004
"4150",79.75464,929.3137
"4151",79.70336,929.327
"4152",79.65942,929.34033
"4153",79.622795,929.35364
"4154",79.5935,929.36694
"4155",79.571526,929.38025
"4156",79.56176,929.39355
"4157",79.554436,929.40686
"4158",79.551994,929.42017
"4159",79.551994,929.4335
"4160",79.554436,929.4468
"4161",79.56176,929.4601
"4162",79.56664,929.4734
"4163",79.5642,929.4867
"4164",79.55932,929.5
"4165",79.53979,929.5133
"4166",79.51537,929.5266
"4167",79.50561,929.5399
"4168",79.55932,929.5532
"4169",79.74975,929.5665
"4170",80.14282,929.57983
"4171",80.73365,929.59314
"4172",81.45876,929.60645
"4173",82.196075,929.61975
"4174",82.79668,929.63306
"4175",83.15556,929.64636
"4176",83.24101,929.65967
"4177",83.09697,929.673
"4178",82.811325,929.6863
"4179",82.476845,929.6996
"4180",82.15701,929.7129
"4181",81.883575,929.7262
"4182",81.671165,929.7395
"4183",81.51003,929.7528
"4184",81.375755,929.7661
"4185",81.25124,929.7794
"4186",81.12184,929.7927
"4187",80.98024,929.806
"4188",80.84108,929.81934
"4189",80.71412,929.83264
"4190",80.621346,929.84595
"4191",80.57252,929.85925
"4192",80.56519,929.87256
"4193",80.57984,929.88586
"4194",80.601814,929.8992
"4195",80.6067,929.9125
"4196",80.57984,929.9258
"4197",80.52613,929.9391
"4198",80.445564,929.9524
"4199",80.34547,929.9657
"4200",80.233154,929.979
"4201",80.12329,929.9923
"4202",80.01831,930.0056
"4203",79.91577,930.0189
"4204",79.823,930.0322
"4205",79.73754,930.04553
"4206",79.65453,930.05884
"4207",79.57641,930.07214
"4208",79.50561,930.08545
"4209",79.43969,930.09875
"4210",79.381096,930.11206
"4211",79.32983,930.12537
"4212",79.28832,930.1387
"4213",79.25414,930.152
"4214",79.22484,930.1653
"4215",79.202866,930.1786
"4216",79.18089,930.1919
"4217",79.149155,930.2052
"4218",79.11009,930.2185
"4219",79.07347,930.2318
"4220",79.07591,930.2451
"4221",79.18089,930.2584
"4222",79.45434,930.2717
"4223",79.93042,930.28503
"4224",80.57496,930.29834
"4225",81.287865,930.31165
"4226",81.9324,930.32495
"4227",82.38651,930.33826
"4228",82.58427,930.35156
"4229",82.53788,930.36487
"4230",82.31571,930.3782
"4231",82.00076,930.3915
"4232",81.671165,930.4048
"4233",81.373314,930.4181
"4234",81.129166,930.4314
"4235",80.94362,930.4447
"4236",80.799576,930.458
"4237",80.672615,930.4713
"4238",80.54078,930.4846
"4239",80.39918,930.4979
"4240",80.257576,930.5112
"4241",80.13306,930.52454
"4242",80.05005,930.53784
"4243",80.02075,930.55115
"4244",80.045166,930.56445
"4245",80.093994,930.57776
"4246",80.147705,930.59106
"4247",80.177,930.6044
"4248",80.17456,930.6177
"4249",80.1355,930.631
"4250",80.0647,930.6443
"4251",79.96948,930.6576
"4252",79.8645,930.6709
"4253",79.75708,930.6842
"4254",79.656975,930.6975
"4255",79.5642,930.7108
"4256",79.483635,930.7241
"4257",79.41772,930.7374
"4258",79.35912,930.75073
"4259",79.30785,930.76404
"4260",79.26635,930.77734
"4261",79.234604,930.79065
"4262",79.21507,930.80396
"4263",79.200424,930.81726
"4264",79.19066,930.83057
"4265",79.18089,930.8439
"4266",79.17113,930.8572
"4267",79.17113,930.8705
"4268",79.22484,930.8838
"4269",79.40551,930.8971
"4270",79.77173,930.9104
"4271",80.33814,930.9237
"4272",81.04616,930.937
"4273",81.78348,930.9503
"4274",82.4036,930.9636
"4275",82.80156,930.9769
"4276",82.93828,930.99023
"4277",82.85039,931.00354
"4278",82.61845,931.01685
"4279",82.33036,931.03015
"4280",82.04715,931.04346
"4281",81.80545,931.05676
"4282",81.619896,931.07007
"4283",81.480736,931.0834
"4284",81.36355,931.0967
"4285",81.24635,931.11
"4286",81.109634,931.1233
"4287",80.95094,931.1366
"4288",80.782486,931.1499
"4289",80.63111,931.1632
"4290",80.516365,931.1765
"4291",80.448006,931.1898
"4292",80.42603,931.2031
"4293",80.430916,931.21643
"4294",80.445564,931.22974
"4295",80.44312,931.24304
"4296",80.41627,931.25635
"4297",80.36256,931.26965
"4298",80.27955,931.28296
"4299",80.17456,931.29626
"4300",80.05737,931.3096
"4301",79.9353,931.3229
"4302",79.815674,931.3362
"4303",79.70336,931.3495
"4304",79.61059,931.3628
"4305",79.53246,931.3761
"4306",79.46166,931.3894
"4307",79.398186,931.4027
"4308",79.33715,931.416
"4309",79.28588,931.4293
"4310",79.23949,931.4426
"4311",79.200424,931.45593
"4312",79.16136,931.46924
"4313",79.13939,931.48254
"4314",79.166245,931.49585
"4315",79.31518,931.50916
"4316",79.656975,931.52246
"4317",80.21362,931.53577
"4318",80.92897,931.5491
"4319",81.69802,931.5624
"4320",82.36942,931.5757
"4321",82.828415,931.589
"4322",83.018845,931.6023
"4323",82.97002,931.6156
"4324",82.760056,931.6289
"4325",82.48173,931.6422
"4326",82.2034,931.6555
"4327",81.971466,931.6688
"4328",81.795685,931.6821
"4329",81.6614,931.69543
"4330",81.54421,931.70874
"4331",81.42214,931.72205
"4332",81.26589,931.73535
"4333",81.08034,931.74866
"4334",80.8777,931.76196
"4335",80.68726,931.77527
"4336",80.5359,931.7886
"4337",80.445564,931.8019
"4338",80.413826,931.8152
"4339",80.41627,931.8285
"4340",80.43336,931.8418
"4341",80.43336,931.8551
"4342",80.4065,931.8684
"4343",80.343025,931.8817
"4344",80.25025,931.895
"4345",80.1355,931.9083
"4346",80.0061,931.92163
"4347",79.871826,931.93494
"4348",79.742424,931.94824
"4349",79.62035,931.96155
"4350",79.51537,931.97485
"4351",79.42504,931.98816
"4352",79.3518,932.00146
"4353",79.28588,932.0148
"4354",79.22728,932.0281
"4355",79.17357,932.0414
"4356",79.11986,932.0547
"4357",79.063705,932.068
"4358",79.009995,932.0813
"4359",78.96849,932.0946
"4360",78.98558,932.1079
"4361",79.12474,932.1212
"4362",79.4519,932.1345
"4363",79.98413,932.1478
"4364",80.672615,932.16113
"4365",81.409935,932.17444
"4366",82.06424,932.18774
"4367",82.513466,932.20105
"4368",82.71122,932.21436
"4369",82.67948,932.22766
"4370",82.49149,932.24097
"4371",82.22781,932.2543
"4372",81.95682,932.2676
"4373",81.71999,932.2809
"4374",81.529564,932.2942
"4375",81.3782,932.3075
"4376",81.23903,932.3208
"4377",81.08766,932.3341
"4378",80.91432,932.3474
"4379",80.726326,932.3607
"4380",80.54078,932.374
"4381",80.38941,932.3873
"4382",80.2942,932.40063
"4383",80.26246,932.41394
"4384",80.274666,932.42725
"4385",80.306404,932.44055
"4386",80.32838,932.45386
"4387",80.323494,932.46716
"4388",80.27711,932.48047
"4389",80.19409,932.4938
"4390",80.079346,932.5071
"4391",79.95239,932.5204
"4392",79.82788,932.5337
"4393",79.7058,932.547
"4394",79.59594,932.5603
"4395",79.49828,932.5736
"4396",79.40795,932.5869
"4397",79.31518,932.6002
"4398",79.23216,932.6135
"4399",79.15648,932.62683
"4400",79.08568,932.64014
"4401",79.01732,932.65344
"4402",78.958725,932.66675
"4403",78.905014,932.68005
"4404",78.88548,932.69336
"4405",78.958725,932.70667
"4406",79.202866,932.72
"4407",79.65942,932.7333
"4408",80.31861,932.7466
"4409",81.094986,932.7599
"4410",81.85184,932.7732
"4411",82.44511,932.7865
"4412",82.78935,932.7998
"4413",82.86748,932.8131
"4414",82.738075,932.8264
"4415",82.48661,932.8397
"4416",82.20584,932.853
"4417",81.951935,932.86633
"4418",81.75174,932.87964
"4419",81.60525,932.89294
"4420",81.49294,932.90625
"4421",81.373314,932.91956
"4422",81.22438,932.93286
"4423",81.041275,932.94617
"4424",80.84352,932.9595
"4425",80.65308,932.9728
"4426",80.5066,932.9861
"4427",80.413826,932.9994
"4428",80.38209,933.0127
"4429",80.38697,933.026
"4430",80.40406,933.0393
"4431",80.4065,933.0526
"4432",80.37965,933.0659
"4433",80.31861,933.0792
"4434",80.22827,933.0925
"4435",80.11841,933.10583
"4436",79.99878,933.11914
"4437",79.88159,933.13245
"4438",79.764404,933.14575
"4439",79.65209,933.15906
"4440",79.54955,933.17236
"4441",79.45922,933.18567
"4442",79.37133,933.199
"4443",79.28344,933.2123
"4444",79.19554,933.2256
"4445",79.11009,933.2389
"4446",79.0222,933.2522
"4447",78.9514,933.2655
"4448",78.93675,933.2788
"4449",79.03197,933.2921
"4450",79.31518,933.3054
"4451",79.815674,933.3187
"4452",80.50172,933.33203
"4453",81.27566,933.34534
"4454",81.99344,933.35864
"4455",82.52323,933.37195
"4456",82.78935,933.38525
"4457",82.80644,933.39856
"4458",82.64774,933.41187
"4459",82.4036,933.4252
"4460",82.15213,933.4385
"4461",81.93729,933.4518
"4462",81.76883,933.4651
"4463",81.636986,933.4784
"4464",81.5198,933.4917
"4465",81.38796,933.505
"4466",81.21706,933.5183
"4467",81.007095,933.5316
"4468",80.7776,933.5449
"4469",80.55543,933.5582
"4470",80.36744,933.57153
"4471",80.24536,933.58484
"4472",80.184326,933.59814
"4473",80.164795,933.61145
"4474",80.16235,933.62476
"4475",80.15015,933.63806
"4476",80.111084,933.65137
"4477",80.04028,933.6647
"4478",79.937744,933.678
"4479",79.815674,933.6913
"4480",79.68139,933.7046
"4481",79.54467,933.7179
"4482",79.415276,933.7312
"4483",79.29565,933.7445
"4484",79.183334,933.7578
"4485",79.080795,933.7711
"4486",78.98558,933.7844
"4487",78.89281,933.7977
"4488",78.79759,933.81104
"4489",78.70237,933.82434
"4490",78.61448,933.83765
"4491",78.553444,933.85095
"4492",78.56321,933.86426
"4493",78.72434,933.87756
"4494",79.08812,933.89087
"4495",79.6643,933.9042
"4496",80.38697,933.9175
"4497",81.13893,933.9308
"4498",81.77371,933.9441
"4499",82.18387,933.9574
"4500",82.3328,933.9707
"4501",82.266884,933.984
"4502",82.06668,933.9973
"4503",81.8201,934.0106
"4504",81.59548,934.0239
"4505",81.42214,934.03723
"4506",81.29275,934.05054
"4507",81.1902,934.06384
"4508",81.08766,934.07715
"4509",80.95827,934.09045
"4510",80.780045,934.10376
"4511",80.55787,934.11707
"4512",80.306404,934.1304
"4513",80.06714,934.1437
"4514",79.8645,934.157
"4515",79.725334,934.1703
"4516",79.64965,934.1836
"4517",79.61791,934.1969
"4518",79.60815,934.2102
"4519",79.59106,934.2235
"4520",79.54955,934.2368
"4521",79.47631,934.2501
"4522",79.38354,934.2634
"4523",79.27856,934.27673
"4524",79.166245,934.29004
"4525",79.05394,934.30334
"4526",78.94408,934.31665
"4527",78.836655,934.32996
"4528",78.729225,934.34326
"4529",78.626686,934.35657
"4530",78.52415,934.3699
"4531",78.42893,934.3832
"4532",78.33616,934.3965
"4533",78.24582,934.4098
"4534",78.16525,934.4231
"4535",78.11154,934.4364
"4536",78.14084,934.4497
"4537",78.31663,934.463
"4538",78.70725,934.4763
"4539",79.30541,934.4896
"4540",80.05005,934.5029
"4541",80.80934,934.51624
"4542",81.44167,934.52954
"4543",81.84451,934.54285
"4544",81.98367,934.55615
"4545",81.91043,934.56946
"4546",81.71267,934.58276
"4547",81.480736,934.59607
"4548",81.2781,934.6094
"4549",81.13405,934.6227
"4550",81.03883,934.636
"4551",80.96315,934.6493
"4552",80.88014,934.6626
"4553",80.75563,934.6759
"4554",80.57496,934.6892
"4555",80.34791,934.7025
"4556",80.093994,934.7158
"4557",79.84985,934.7291
"4558",79.64233,934.74243
"4559",79.49584,934.75574
"4560",79.42016,934.76904
"4561",79.395744,934.78235
"4562",79.40063,934.79565
"4563",79.40795,934.80896
"4564",79.3933,934.82227
"4565",79.34936,934.8356
"4566",79.27123,934.8489
"4567",79.17113,934.8622
"4568",79.05394,934.8755
"4569",78.93187,934.8888
"4570",78.81224,934.9021
"4571",78.69749,934.9154
"4572",78.59251,934.9287
"4573",78.49241,934.942
"4574",78.397194,934.9553
"4575",78.314186,934.9686
"4576",78.24338,934.98193
