"","ppg","time"
"1",80.11597,632.46436
"2",80.15015,632.47766
"3",80.181885,632.49097
"4",80.19409,632.5043
"5",80.16724,632.5176
"6",80.10132,632.5309
"7",80.0061,632.5442
"8",79.89136,632.5575
"9",79.764404,632.5708
"10",79.63744,632.5841
"11",79.520256,632.5974
"12",79.415276,632.6107
"13",79.32494,632.624
"14",79.24925,632.6373
"15",79.185776,632.65063
"16",79.12474,632.66394
"17",79.06859,632.67725
"18",79.01732,632.69055
"19",78.97826,632.70386
"20",78.94896,632.71716
"21",78.92943,632.73047
"22",78.91966,632.7438
"23",78.91478,632.7571
"24",78.91234,632.7704
"25",78.9099,632.7837
"26",78.91234,632.797
"27",78.91722,632.8103
"28",78.91966,632.8236
"29",78.922104,632.8369
"30",78.92699,632.8502
"31",78.92943,632.8635
"32",78.924545,632.87683
"33",78.91722,632.89014
"34",78.905014,632.90344
"35",78.88304,632.91675
"36",78.853745,632.93005
"37",78.82445,632.94336
"38",78.8098,632.95667
"39",78.856186,632.97
"40",79.046616,632.9833
"41",79.44457,632.9966
"42",80.06958,633.0099
"43",80.867935,633.0232
"44",81.71511,633.0365
"45",82.44999,633.0498
"46",82.94072,633.0631
"47",83.123825,633.0764
"48",83.02617,633.0897
"49",82.72831,633.103
"50",82.32304,633.11633
"51",81.89578,633.12964
"52",81.50759,633.14294
"53",81.17799,633.15625
"54",80.919205,633.16956
"55",80.71656,633.18286
"56",80.55543,633.19617
"57",80.41627,633.2095
"58",80.2942,633.2228
"59",80.18677,633.2361
"60",80.1062,633.2494
"61",80.062256,633.2627
"62",80.06714,633.276
"63",80.10864,633.2893
"64",80.17212,633.3026
"65",80.233154,633.3159
"66",80.26734,633.3292
"67",80.26246,633.3425
"68",80.21362,633.35583
"69",80.1355,633.36914
"70",80.03052,633.38245
"71",79.91089,633.39575
"72",79.78638,633.40906
"73",79.656975,633.42236
"74",79.534904,633.43567
"75",79.42504,633.449
"76",79.32983,633.4623
"77",79.2517,633.4756
"78",79.18822,633.4889
"79",79.14183,633.5022
"80",79.10521,633.5155
"81",79.07103,633.5288
"82",79.044174,633.5421
"83",79.01976,633.5554
"84",78.99779,633.5687
"85",78.975815,633.58203
"86",78.958725,633.59534
"87",78.94896,633.60864
"88",78.94896,633.62195
"89",78.958725,633.63525
"90",78.97093,633.64856
"91",78.98802,633.66187
"92",79.00511,633.6752
"93",79.01488,633.6885
"94",79.01732,633.7018
"95",79.009995,633.7151
"96",78.995346,633.7284
"97",78.97337,633.7417
"98",78.94896,633.755
"99",78.93675,633.7683
"100",78.98314,633.7816
"101",79.15404,633.7949
"102",79.5227,633.8082
"103",80.113525,633.82153
"104",80.87282,633.83484
"105",81.688255,633.84814
"106",82.408485,633.86145
"107",82.89433,633.87476
"108",83.08232,633.88806
"109",82.99199,633.90137
"110",82.701454,633.9147
"111",82.29374,633.928
"112",81.85428,633.9413
"113",81.43679,633.9546
"114",81.08034,633.9679
"115",80.79469,633.9812
"116",80.57496,633.9945
"117",80.40162,634.0078
"118",80.26002,634.0211
"119",80.14282,634.0344
"120",80.04761,634.0477
"121",79.98901,634.06104
"122",79.974365,634.07434
"123",80.00122,634.08765
"124",80.06958,634.10095
"125",80.15259,634.11426
"126",80.22827,634.12756
"127",80.274666,634.14087
"128",80.27955,634.1542
"129",80.235596,634.1675
"130",80.15259,634.1808
"131",80.04028,634.1941
"132",79.91577,634.2074
"133",79.79126,634.2207
"134",79.66918,634.234
"135",79.55932,634.2473
"136",79.45922,634.2606
"137",79.37621,634.2739
"138",79.30297,634.28723
"139",79.24437,634.30054
"140",79.200424,634.31384
"141",79.168686,634.32715
"142",79.14671,634.34045
"143",79.132065,634.35376
"144",79.1223,634.36707
"145",79.11986,634.3804
"146",79.12474,634.3937
"147",79.13451,634.407
"148",79.149155,634.4203
"149",79.17113,634.4336
"150",79.200424,634.4469
"151",79.22972,634.4602
"152",79.256584,634.4735
"153",79.276115,634.4868
"154",79.281,634.5001
"155",79.273674,634.5134
"156",79.2517,634.52673
"157",79.2224,634.54004
"158",79.19554,634.55334
"159",79.20775,634.56665
"160",79.3225,634.57996
"161",79.62035,634.59326
"162",80.1355,634.60657
"163",80.82887,634.6199
"164",81.59548,634.6332
"165",82.29862,634.6465
"166",82.79668,634.6598
"167",83.01152,634.6731
"168",82.95537,634.6864
"169",82.69413,634.6997
"170",82.30839,634.713
"171",81.86893,634.7263
"172",81.43923,634.7396
"173",81.058365,634.7529
"174",80.73609,634.76624
"175",80.4773,634.77954
"176",80.27711,634.79285
"177",80.12329,634.80615
"178",80.01587,634.81946
"179",79.957275,634.83276
"180",79.954834,634.84607
"181",80.01587,634.8594
"182",80.1355,634.8727
"183",80.291756,634.886
"184",80.45289,634.8993
"185",80.587166,634.9126
"186",80.66773,634.9259
"187",80.6775,634.9392
"188",80.62623,634.9525
"189",80.53101,634.9658
"190",80.40894,634.9791
"191",80.272224,634.99243
"192",80.13794,635.00574
"193",80.0061,635.01904
"194",79.88159,635.03235
"195",79.77417,635.04565
"196",79.68627,635.05896
"197",79.62035,635.07227
"198",79.56664,635.0856
"199",79.53246,635.0989
"200",79.50561,635.1122
"201",79.48608,635.1255
"202",79.47143,635.1388
"203",79.46899,635.1521
"204",79.47631,635.1654
"205",79.49584,635.1787
"206",79.517815,635.192
"207",79.537346,635.2053
"208",79.551994,635.2186
"209",79.554436,635.23193
"210",79.554436,635.24524
"211",79.57397,635.25854
"212",79.66186,635.27185
"213",79.886475,635.28516
"214",80.28687,635.29846
"215",80.86305,635.31177
"216",81.549095,635.3251
"217",82.22781,635.3384
"218",82.76738,635.3517
"219",83.06767,635.365
"220",83.09941,635.3783
"221",82.91142,635.3916
"222",82.562294,635.4049
"223",82.13992,635.4182
"224",81.7029,635.4315
"225",81.29763,635.4448
"226",80.94606,635.4581
"227",80.65308,635.47144
"228",80.413826,635.48474
"229",80.22583,635.49805
"230",80.08423,635.51135
"231",79.991455,635.52466
"232",79.95972,635.53796
"233",79.991455,635.5513
"234",80.08179,635.5646
"235",80.216064,635.5779
"236",80.36988,635.5912
"237",80.51148,635.6045
"238",80.621346,635.6178
"239",80.672615,635.6311
"240",80.66041,635.6444
"241",80.58961,635.6577
"242",80.46754,635.671
"243",80.31617,635.6843
"244",80.15747,635.69763
"245",80.0061,635.71094
"246",79.871826,635.72424
"247",79.76196,635.73755
"248",79.66918,635.75085
"249",79.59106,635.76416
"250",79.520256,635.77747
"251",79.46166,635.7908
"252",79.412834,635.8041
"253",79.381096,635.8174
"254",79.364006,635.8307
"255",79.361565,635.844
"256",79.36889,635.8573
"257",79.378654,635.8706
"258",79.38598,635.8839
"259",79.39086,635.8972
"260",79.42016,635.9105
"261",79.52758,635.9238
"262",79.78638,635.93713
"263",80.235596,635.95044
"264",80.86549,635.96375
"265",81.59792,635.97705
"266",82.29374,635.99036
"267",82.82109,636.00366
"268",83.09209,636.01697
"269",83.089645,636.0303
"270",82.865036,636.0436
"271",82.493935,636.0569
"272",82.0618,636.0702
"273",81.62966,636.0835
"274",81.23659,636.0968
"275",80.90456,636.1101
"276",80.64088,636.1234
"277",80.4358,636.1367
"278",80.27711,636.15
"279",80.147705,636.1633
"280",80.04761,636.17664
"281",79.98169,636.18994
"282",79.957275,636.20325
"283",79.98413,636.21655
"284",80.062256,636.22986
"285",80.17212,636.24316
"286",80.289314,636.2565
"287",80.38453,636.2698
"288",80.4358,636.2831
"289",80.430916,636.2964
"290",80.37232,636.3097
"291",80.2649,636.323
"292",80.130615,636.3363
"293",79.98657,636.3496
"294",79.84741,636.3629
"295",79.71557,636.3762
"296",79.59838,636.3895
"297",79.49828,636.40283
"298",79.41772,636.41614
"299",79.35424,636.42944
"300",79.30785,636.44275
"301",79.281,636.45605
"302",79.26879,636.46936
"303",79.26147,636.48267
"304",79.26391,636.496
"305",79.26879,636.5093
"306",79.276115,636.5226
"307",79.28344,636.5359
"308",79.31274,636.5492
"309",79.412834,636.5625
"310",79.64965,636.5758
"311",80.08423,636.5891
"312",80.71168,636.6024
"313",81.463646,636.6157
"314",82.21561,636.629
"315",82.828415,636.64233
"316",83.192184,636.65564
"317",83.282524,636.66895
"318",83.12871,636.68225
"319",82.80888,636.69556
"320",82.4036,636.70886
"321",81.986115,636.72217
"322",81.600365,636.7355
"323",81.27566,636.7488
"324",81.01442,636.7621
"325",80.80934,636.7754
"326",80.64088,636.7887
"327",80.49683,636.802
"328",80.36988,636.8153
"329",80.257576,636.8286
"330",80.17456,636.8419
"331",80.13306,636.8552
"332",80.14282,636.8685
"333",80.19653,636.88184
"334",80.27955,636.89514
"335",80.36988,636.90845
"336",80.43336,636.92175
"337",80.45777,636.93506
"338",80.430916,636.94836
"339",80.360115,636.9617
"340",80.2649,636.975
"341",80.15259,636.9883
"342",80.04028,637.0016
"343",79.93042,637.0149
"344",79.82544,637.0282
"345",79.72289,637.0415
"346",79.62768,637.0548
"347",79.54467,637.0681
"348",79.47875,637.0814
"349",79.43481,637.0947
"350",79.412834,637.10803
"351",79.40551,637.12134
"352",79.412834,637.13464
"353",79.4226,637.14795
"354",79.43725,637.16125
"355",79.44457,637.17456
"356",79.449455,637.18787
"357",79.447014,637.2012
"358",79.447014,637.2145
"359",79.483635,637.2278
"360",79.622795,637.2411
"361",79.9353,637.2544
"362",80.45533,637.2677
"363",81.15114,637.281
"364",81.9202,637.2943
"365",82.62577,637.3076
"366",83.13359,637.3209
"367",83.36553,637.3342
"368",83.32647,637.34753
"369",83.07744,637.36084
"370",82.70634,637.37415
"371",82.28886,637.38745
"372",81.88846,637.40076
"373",81.53689,637.41406
"374",81.24635,637.42737
"375",81.01686,637.4407
"376",80.833755,637.454
"377",80.6775,637.4673
"378",80.53834,637.4806
"379",80.411385,637.4939
"380",80.30396,637.5072
"381",80.23071,637.5205
"382",80.19653,637.5338
"383",80.20386,637.5471
"384",80.2478,637.5604
"385",80.29908,637.5737
"386",80.34547,637.58704
"387",80.35767,637.60034
"388",80.33326,637.61365
"389",80.26246,637.62695
"390",80.16235,637.64026
"391",80.03784,637.65356
"392",79.903564,637.6669
"393",79.77417,637.6802
"394",79.64965,637.6935
"395",79.53979,637.7068
"396",79.44457,637.7201
"397",79.364006,637.7334
"398",79.29565,637.7467
"399",79.23949,637.76
"400",79.19066,637.7733
"401",79.149155,637.7866
"402",79.11986,637.7999
"403",79.10033,637.81323
"404",79.09544,637.82654
"405",79.10277,637.83984
"406",79.1223,637.85315
"407",79.14427,637.86646
"408",79.17113,637.87976
"409",79.1931,637.89307
"410",79.20775,637.9064
"411",79.21263,637.9197
"412",79.20531,637.933
"413",79.183334,637.9463
"414",79.168686,637.9596
"415",79.19798,637.9729
"416",79.3518,637.9862
"417",79.69604,637.9995
"418",80.257576,638.0128
"419",80.98512,638.0261
"420",81.761505,638.0394
"421",82.43534,638.05273
"422",82.8748,638.06604
"423",83.02373,638.07935
"424",82.90654,638.09265
"425",82.59159,638.10596
"426",82.17166,638.11926
"427",81.7322,638.13257
"428",81.3196,638.1459
"429",80.970474,638.1592
"430",80.689705,638.1725
"431",80.47486,638.1858
"432",80.31129,638.1991
"433",80.17456,638.2124
"434",80.05493,638.2257
"435",79.94751,638.239
"436",79.86206,638.2523
"437",79.80591,638.2656
"438",79.79126,638.27893
"439",79.815674,638.29224
"440",79.86206,638.30554
"441",79.91089,638.31885
"442",79.94263,638.33215
"443",79.940186,638.34546
"444",79.89868,638.35876
"445",79.823,638.3721
"446",79.727776,638.3854
"447",79.62035,638.3987
"448",79.50561,638.412
"449",79.39086,638.4253
"450",79.281,638.4386
"451",79.17601,638.4519
"452",79.080795,638.4652
"453",79.00267,638.4785
"454",78.941635,638.4918
"455",78.89281,638.5051
"456",78.86107,638.51843
"457",78.84154,638.53174
"458",78.836655,638.54504
"459",78.839096,638.55835
"460",78.84886,638.57166
"461",78.86351,638.58496
"462",78.87572,638.59827
"463",78.88548,638.6116
"464",78.89281,638.6249
"465",78.89525,638.6382
"466",78.89281,638.6515
"467",78.890366,638.6648
"468",78.890366,638.6781
"469",78.89769,638.6914
"470",78.90257,638.7047
"471",78.905014,638.718
"472",78.89769,638.7313
"473",78.8806,638.7446
"474",78.856186,638.75793
"475",78.82933,638.77124
"476",78.8098,638.78455
"477",78.839096,638.79785
"478",78.98558,638.81116
"479",79.3225,638.82446
"480",79.886475,638.83777
"481",80.635994,638.8511
"482",81.45876,638.8644
"483",82.193634,638.8777
"484",82.69901,638.891
"485",82.899216,638.9043
"486",82.80644,638.9176
"487",82.5037,638.9309
"488",82.08377,638.9442
"489",81.634544,638.9575
"490",81.21706,638.9708
"491",80.86061,638.98413
"492",80.5774,638.99744
"493",80.365,639.01074
"494",80.20386,639.02405
"495",80.08179,639.03735
"496",79.97681,639.05066
"497",79.89136,639.06396
"498",79.82788,639.0773
"499",79.7937,639.0906
"500",79.79614,639.1039
"501",79.835205,639.1172
"502",79.89624,639.1305
"503",79.96216,639.1438
"504",80.01831,639.1571
"505",80.03784,639.1704
"506",80.02075,639.1837
"507",79.95972,639.197
"508",79.85962,639.2103
"509",79.73754,639.22363
"510",79.48852,639.25024
"511",79.381096,639.26355
"512",79.290764,639.27686
"513",79.217514,639.29016
"514",79.151596,639.30347
"515",79.09544,639.3168
"516",79.04906,639.3301
"517",79.01732,639.3434
"518",78.995346,639.3567
"519",78.98314,639.37
"520",78.97826,639.3833
"521",78.9807,639.3966
"522",78.98802,639.4099
"523",79.00267,639.4232
"524",79.01732,639.4365
"525",79.027084,639.4498
"526",79.03685,639.46313
"527",79.03929,639.47644
"528",79.03685,639.48975
"529",79.03929,639.50305
"530",79.03929,639.51636
"531",79.03441,639.52966
"532",79.02464,639.54297
"533",79.009995,639.5563
"534",78.995346,639.5696
"535",78.98558,639.5829
"536",78.975815,639.5962
"537",78.96605,639.6095
"538",78.95384,639.6228
"539",78.93675,639.6361
"540",78.92699,639.6494
"541",78.958725,639.6627
"542",79.10277,639.676
"543",79.43725,639.68933
"544",79.9939,639.70264
"545",80.73365,639.71594
"546",81.54421,639.72925
"547",82.28153,639.74255
"548",82.791794,639.75586
"549",83.00908,639.76917
"550",82.93584,639.7825
"551",82.65507,639.7958
"552",82.247345,639.8091
"553",81.80301,639.8224
"554",81.3782,639.8357
"555",81.007095,639.849
"556",80.70435,639.8623
"557",80.46998,639.8756
"558",80.289314,639.8889
"559",80.15015,639.9022
"560",80.0354,639.9155
"561",79.940186,639.92883
"562",79.871826,639.94214
"563",79.83765,639.95544
"564",79.84741,639.96875
"565",79.90112,639.98206
"566",79.98901,639.99536
"567",80.08667,640.00867
"568",80.16724,640.022
"569",80.20386,640.0353
"570",80.18921,640.0486
"571",80.130615,640.0619
"572",80.03784,640.0752
"573",79.923096,640.0885
"574",79.798584,640.1018
"575",79.674065,640.1151
"576",79.55688,640.1284
"577",79.447014,640.1417
"578",79.3518,640.155
"579",79.273674,640.16833
"580",79.21263,640.18164
"581",79.1638,640.19495
"582",79.12962,640.20825
"583",79.11009,640.22156
"584",79.093,640.23486
"585",79.08324,640.24817
"586",79.078354,640.2615
"587",79.080795,640.2748
"588",79.08568,640.2881
"589",79.09544,640.3014
"590",79.10521,640.3147
"591",79.11253,640.328
"592",79.11253,640.3413
"593",79.10765,640.3546
"594",79.10033,640.3679
"595",79.09056,640.3812
"596",79.08324,640.39453
"597",79.078354,640.40784
"598",79.07347,640.42114
"599",79.06859,640.43445
"600",79.05882,640.44775
"601",79.044174,640.46106
"602",79.027084,640.47437
"603",79.00755,640.4877
"604",78.98802,640.501
"605",78.96849,640.5143
"606",78.958725,640.5276
"607",78.992905,640.5409
"608",79.149155,640.5542
"609",79.49584,640.5675
"610",80.05737,640.5808
"611",80.797134,640.5941
"612",81.602806,640.6074
"613",82.32304,640.6207
"614",82.81621,640.63403
"615",83.0164,640.64734
"616",82.93828,640.66064
"617",82.652626,640.67395
"618",82.247345,640.68726
"619",81.80301,640.70056
"620",81.375755,640.71387
"621",80.99977,640.7272
"622",80.69703,640.7405
"623",80.465096,640.7538
"624",80.2942,640.7671
"625",80.17212,640.7804
"626",80.079346,640.7937
"627",80.00366,640.807
"628",79.95239,640.8203
"629",79.93286,640.8336
"630",79.957275,640.8469
"631",80.025635,640.8602
"632",80.12085,640.87354
"633",80.22095,640.88684
"634",80.29664,640.90015
"635",80.325935,640.91345
"636",80.30396,640.92676
"637",80.235596,640.94006
"638",80.13306,640.95337
"639",80.01099,640.9667
"640",79.88403,640.98
"641",79.75952,640.9933
"642",79.639885,641.0066
"643",79.53246,641.0199
"644",79.43725,641.0332
"645",79.35424,641.0465
"646",79.281,641.0598
"647",79.2224,641.0731
"648",79.17845,641.0864
"649",79.151596,641.09973
"650",79.13695,641.11304
"651",79.13695,641.12634
"652",79.14427,641.13965
"653",79.15648,641.15295
"654",79.17113,641.16626
"655",79.18822,641.17957
"656",79.200424,641.1929
"657",79.20775,641.2062
"658",79.21019,641.2195
"659",79.20531,641.2328
"660",79.1931,641.2461
"661",79.18089,641.2594
"662",79.168686,641.2727
"663",79.15648,641.286
"664",79.14671,641.2993
"665",79.13939,641.3126
"666",79.12718,641.3259
"667",79.11253,641.33923
"668",79.097885,641.35254
"669",79.080795,641.36584
"670",79.06859,641.37915
"671",79.05638,641.39246
"672",79.046616,641.40576
"673",79.03441,641.41907
"674",79.044174,641.4324
"675",79.13695,641.4457
"676",79.39086,641.459
"677",79.85718,641.4723
"678",80.52369,641.4856
"679",81.31472,641.4989
"680",82.08621,641.5122
"681",82.68925,641.5255
"682",83.02373,641.5388
"683",83.070114,641.5521
"684",82.879684,641.5654
"685",82.530556,641.57874
"686",82.1033,641.59204
"687",81.67361,641.60535
"688",81.270775,641.61865
"689",80.92409,641.63196
"690",80.64332,641.64526
"691",80.430916,641.65857
"692",80.26734,641.6719
"693",80.14526,641.6852
"694",80.05737,641.6985
"695",79.99634,641.7118
"696",79.9646,641.7251
"697",79.96948,641.7384
"698",80.01099,641.7517
"699",80.079346,641.765
"700",80.15747,641.7783
"701",80.22583,641.7916
"702",80.26978,641.80493
"703",80.27955,641.81824
"704",80.2478,641.83154
"705",80.177,641.84485
"706",80.07446,641.85815
"707",79.94995,641.87146
"708",79.81323,641.88477
"709",79.67895,641.8981
"710",79.554436,641.9114
"711",79.447014,641.9247
"712",79.35424,641.938
"713",79.276115,641.9513
"714",79.21019,641.9646
"715",79.15404,641.9779
"716",79.10765,641.9912
"717",79.07103,642.0045
"718",79.046616,642.0178
"719",79.03441,642.0311
"720",79.029526,642.04443
"721",79.029526,642.05774
"722",79.03441,642.07104
"723",79.03685,642.08435
"724",79.03929,642.09766
"725",79.04173,642.11096
"726",79.03929,642.12427
"727",79.03197,642.1376
"728",79.0222,642.1509
"729",79.00511,642.1642
"730",78.99046,642.1775
"731",78.975815,642.1908
"732",78.958725,642.2041
"733",78.941635,642.2174
"734",78.92699,642.2307
"735",78.9099,642.244
"736",78.89281,642.2573
"737",78.87816,642.2706
"738",78.86351,642.28394
"739",78.84886,642.29724
"740",78.82933,642.31055
"741",78.819565,642.32385
"742",78.84886,642.33716
"743",78.98314,642.35046
"744",79.293205,642.3638
"745",79.815674,642.3771
"746",80.52125,642.3904
"747",81.307396,642.4037
"748",82.0325,642.417
"749",82.55985,642.4303
"750",82.80888,642.4436
"751",82.777145,642.4569
"752",82.52567,642.4702
"753",82.13504,642.4835
"754",81.68093,642.4968
"755",81.234146,642.51013
"756",80.831314,642.52344
"757",80.49683,642.53674
"758",80.24292,642.55005
"759",80.062256,642.56335
"760",79.937744,642.57666
"761",79.852295,642.58997
"762",79.7937,642.6033
"763",79.75708,642.6166
"764",79.74975,642.6299
"765",79.77417,642.6432
"766",79.83032,642.6565
"767",79.91821,642.6698
"768",80.01099,642.6831
"769",80.08911,642.6964
"770",80.128174,642.7097
"771",80.12573,642.723
"772",80.06958,642.7363
"773",79.974365,642.74963
"774",79.85474,642.76294
"775",79.71801,642.77625
"776",79.58373,642.78955
"777",79.45434,642.80286
"778",79.33715,642.81616
"779",79.234604,642.82947
"780",79.149155,642.8428
"781",79.07591,642.8561
"782",79.01488,642.8694
"783",78.96849,642.8827
"784",78.93187,642.896
"785",78.905014,642.9093
"786",78.88548,642.9226
"787",78.87572,642.9359
"788",78.87816,642.9492
"789",78.88548,642.9625
"790",78.89769,642.9758
"791",78.907455,642.98914
"792",78.91478,643.00244
"793",78.91722,643.01575
"794",78.91478,643.02905
"795",78.907455,643.04236
"796",78.90013,643.05566
"797",78.890366,643.069
"798",78.87816,643.0823
"799",78.86351,643.0956
"800",78.853745,643.1089
"801",78.84398,643.1222
"802",78.83177,643.1355
"803",78.82445,643.1488
"804",78.819565,643.1621
"805",78.81224,643.1754
"806",78.79759,643.1887
"807",78.78294,643.202
"808",78.79027,643.21533
"809",78.86839,643.22864
"810",79.097885,643.24194
"811",79.52758,643.25525
"812",80.15747,643.26855
"813",80.91188,643.28186
"814",81.668724,643.29517
"815",82.27421,643.3085
"816",82.62821,643.3218
"817",82.69901,643.3351
"818",82.530556,643.3484
"819",82.193634,643.3617
"820",81.77371,643.375
"821",81.34646,643.3883
"822",80.95094,643.4016
"823",80.61158,643.4149
"824",80.35035,643.4282
"825",80.15015,643.4415
"826",80.00366,643.45483
"827",79.89868,643.46814
"828",79.82544,643.48145
"829",79.77905,643.49475
"830",79.764404,643.50806
"831",79.7937,643.52136
"832",79.869385,643.53467
"833",79.97681,643.548
"834",80.096436,643.5613
"835",80.20386,643.5746
"836",80.274666,643.5879
"837",80.291756,643.6012
"838",80.25269,643.6145
"839",80.16968,643.6278
"840",80.05249,643.6411
"841",79.91333,643.6544
"842",79.77173,643.6677
"843",79.635,643.681
"844",79.50805,643.69434
"845",79.3933,643.70764
"846",79.293205,643.72095
"847",79.20775,643.73425
"848",79.13695,643.74756
"849",79.078354,643.76086
"850",79.029526,643.7742
"851",78.992905,643.7875
"852",78.96605,643.8008
"853",78.94896,643.8141
"854",78.941635,643.8274
"855",78.941635,643.8407
"856",78.9514,643.854
"857",78.96117,643.8673
"858",78.97093,643.8806
"859",78.97826,643.8939
"860",78.9807,643.9072
"861",78.97826,643.92053
"862",78.97093,643.93384
"863",78.958725,643.94714
"864",78.94408,643.96045
"865",78.92943,643.97375
"866",78.9099,643.98706
"867",78.887924,644.00037
"868",78.85863,644.0137
"869",78.82933,644.027
"870",78.79759,644.0403
"871",78.768295,644.0536
"872",78.74387,644.0669
"873",78.75853,644.0802
"874",78.86595,644.0935
"875",79.12962,644.1068
"876",79.58373,644.1201
"877",80.20386,644.1334
"878",80.89723,644.1467
"879",81.529564,644.16003
"880",81.97879,644.17334
"881",82.16922,644.18665
"882",82.11063,644.19995
"883",81.85672,644.21326
"884",81.48806,644.22656
"885",81.08278,644.23987
"886",80.69215,644.2532
"887",80.343025,644.2665
"888",80.05249,644.2798
"889",79.82056,644.2931
"890",79.64477,644.3064
"891",79.517815,644.3197
"892",79.43481,644.333
"893",79.398186,644.3463
"894",79.412834,644.3596
"895",79.47875,644.3729
"896",79.586174,644.3862
"897",79.72289,644.39954
"898",79.86694,644.41284
"899",79.98413,644.42615
"900",80.05249,644.43945
"901",80.062256,644.45276
"902",80.01587,644.46606
"903",79.92554,644.4794
"904",79.801025,644.4927
"905",79.65942,644.506
"906",79.51293,644.5193
"907",79.37133,644.5326
"908",79.24437,644.5459
"909",79.14183,644.5592
"910",79.061264,644.5725
"911",79.00023,644.5858
"912",78.958725,644.5991
"913",78.92943,644.6124
"914",78.91234,644.62573
"915",78.905014,644.63904
"916",78.90257,644.65234
"917",78.905014,644.66565
"918",78.9099,644.67896
"919",78.91722,644.69226
"920",78.924545,644.70557
"921",78.93187,644.7189
"922",78.941635,644.7322
"923",78.9514,644.7455
"924",78.95384,644.7588
"925",78.95384,644.7721
"926",78.9514,644.7854
"927",78.941635,644.7987
"928",78.924545,644.812
"929",78.90257,644.8253
"930",78.87572,644.8386
"931",78.84886,644.8519
"932",78.82445,644.86523
"933",78.802475,644.87854
"934",78.78783,644.89185
"935",78.78783,644.90515
"936",78.836655,644.91846
"937",79.00023,644.93176
"938",79.33227,644.94507
"939",79.835205,644.9584
"940",80.46998,644.9717
"941",81.129166,644.985
"942",81.6907,644.9983
"943",82.04959,645.0116
"944",82.16678,645.0249
"945",82.0618,645.0382
"946",81.79813,645.0515
"947",81.446556,645.0648
"948",81.07301,645.0781
"949",80.726326,645.09143
"950",80.42603,645.10474
"951",80.19409,645.11804
"952",80.01587,645.13135
"953",79.88159,645.14465
"954",79.77905,645.15796
"955",79.70092,645.17126
"956",79.64477,645.1846
"957",79.63012,645.1979
"958",79.65453,645.2112
"959",79.71557,645.2245
"960",79.80347,645.2378
"961",79.8938,645.2511
"962",79.9646,645.2644
"963",79.991455,645.2777
"964",79.974365,645.291
"965",79.91333,645.3043
"966",79.818115,645.3176
"967",79.691154,645.33093
"968",79.55688,645.34424
"969",79.42504,645.35754
"970",79.30053,645.37085
"971",79.19554,645.38416
"972",79.11253,645.39746
"973",79.04906,645.41077
"974",78.99779,645.4241
"975",78.95628,645.4374
"976",78.922104,645.4507
"977",78.89769,645.464
"978",78.8806,645.4773
"979",78.86839,645.4906
"980",78.86595,645.5039
"981",78.86595,645.5172
"982",78.870834,645.5305
"983",78.873276,645.5438
"984",78.87816,645.5571
"985",78.87572,645.57043
"986",78.86839,645.58374
"987",78.86107,645.59705
"988",78.84886,645.61035
"989",78.836655,645.62366
"990",78.82445,645.63696
"991",78.8098,645.65027
"992",78.79027,645.6636
"993",78.768295,645.6769
"994",78.73899,645.6902
"995",78.71458,645.7035
"996",78.68528,645.7168
"997",78.66575,645.7301
"998",78.68528,645.7434
"999",78.79515,645.7567
"1000",79.05394,645.77
"1001",79.49828,645.7833
"1002",80.10132,645.79663
"1003",80.77028,645.80994
"1004",81.3904,645.82324
"1005",81.83719,645.83655
"1006",82.04471,645.84985
"1007",82.01541,645.86316
"1008",81.80545,645.87646
"1009",81.4905,645.8898
"1010",81.13893,645.9031
"1011",80.799576,645.9164
"1012",80.50416,645.9297
"1013",80.272224,645.943
"1014",80.1062,645.9563
"1015",79.9939,645.9696
"1016",79.91821,645.9829
"1017",79.85718,645.9962
"1018",79.801025,646.0095
"1019",79.744865,646.0228
"1020",79.7058,646.03613
"1021",79.68627,646.04944
"1022",79.69848,646.06274
"1023",79.7351,646.07605
"1024",79.781494,646.08936
"1025",79.815674,646.10266
"1026",79.823,646.11597
"1027",79.79614,646.1293
"1028",79.73754,646.1426
"1029",79.64965,646.1559
"1030",79.551994,646.1692
"1031",79.447014,646.1825
"1032",79.34692,646.1958
"1033",79.256584,646.2091
"1034",79.17601,646.2224
"1035",79.10765,646.2357
"1036",79.0515,646.249
"1037",79.009995,646.2623
"1038",78.98558,646.27563
"1039",78.97093,646.28894
"1040",78.96117,646.30225
"1041",78.9514,646.31555
"1042",78.94652,646.32886
"1043",78.93919,646.34216
"1044",78.93675,646.35547
"1045",78.93431,646.3688
"1046",78.92943,646.3821
"1047",78.924545,646.3954
"1048",78.91722,646.4087
"1049",78.9099,646.422
"1050",78.905014,646.4353
"1051",78.905014,646.4486
"1052",78.907455,646.4619
"1053",78.9099,646.4752
"1054",78.905014,646.4885
"1055",78.89281,646.50183
"1056",78.87816,646.51514
"1057",78.856186,646.52844
"1058",78.83177,646.54175
"1059",78.80736,646.55505
"1060",78.785385,646.56836
"1061",78.77806,646.58167
"1062",78.82445,646.595
"1063",78.975815,646.6083
"1064",79.28832,646.6216
"1065",79.77661,646.6349
"1066",80.40406,646.6482
"1067",81.075455,646.6615
"1068",81.668724,646.6748
"1069",82.07645,646.6881
"1070",82.247345,646.7014
"1071",82.193634,646.7147
"1072",81.97635,646.728
"1073",81.671165,646.74133
"1074",81.341576,646.75464
"1075",81.03151,646.76794
"1076",80.7776,646.78125
"1077",80.58961,646.79456
"1078",80.462654,646.80786
"1079",80.38209,646.82117
"1080",80.323494,646.8345
"1081",80.26734,646.8478
"1082",80.198975,646.8611
"1083",80.130615,646.8744
"1084",80.06714,646.8877
"1085",80.028076,646.901
"1086",80.02319,646.9143
"1087",80.045166,646.9276
"1088",80.07446,646.9409
"1089",80.10132,646.9542
"1090",80.10864,646.9675
"1091",80.08179,646.98083
"1092",80.028076,646.99414
"1093",79.957275,647.00745
"1094",79.87427,647.02075
"1095",79.781494,647.03406
"1096",79.691154,647.04736
"1097",79.605705,647.06067
"1098",79.5227,647.074
"1099",79.447014,647.0873
"1100",79.38354,647.1006
"1101",79.33227,647.1139
"1102",79.293205,647.1272
"1103",79.26635,647.1405
"1104",79.24681,647.1538
"1105",79.23949,647.1671
"1106",79.23949,647.1804
"1107",79.24925,647.1937
"1108",79.259026,647.20703
"1109",79.26635,647.22034
"1110",79.27123,647.23364
"1111",79.273674,647.24695
"1112",79.27123,647.26025
"1113",79.26635,647.27356
"1114",79.2517,647.28687
"1115",79.23949,647.3002
"1116",79.2224,647.3135
"1117",79.20531,647.3268
"1118",79.18822,647.3401
"1119",79.17845,647.3534
"1120",79.166245,647.3667
"1121",79.151596,647.38
"1122",79.13695,647.3933
"1123",79.12474,647.4066
"1124",79.11253,647.4199
"1125",79.097885,647.4332
"1126",79.08568,647.44653
"1127",79.07347,647.45984
"1128",79.08324,647.47314
"1129",79.15404,647.48645
"1130",79.35912,647.49976
"1131",79.742424,647.51306
"1132",80.31129,647.52637
"1133",80.99977,647.5397
"1134",81.705345,647.553
"1135",82.29618,647.5663
"1136",82.6746,647.5796
"1137",82.804,647.5929
"1138",82.71366,647.6062
"1139",82.47196,647.6195
"1140",82.14969,647.6328
"1141",81.81766,647.6461
"1142",81.51736,647.6594
"1143",81.28542,647.6727
"1144",81.12184,647.68604
"1145",81.0193,647.69934
"1146",80.95094,647.71265
"1147",80.89235,647.72595
"1148",80.82399,647.73926
"1149",80.7483,647.75256
"1150",80.67017,647.76587
"1151",80.6067,647.7792
"1152",80.56519,647.7925
"1153",80.552986,647.8058
"1154",80.55787,647.8191
"1155",80.56519,647.8324
"1156",80.57252,647.8457
"1157",80.56275,647.859
"1158",80.52857,647.8723
"1159",80.46998,647.8856
"1160",80.38941,647.8989
"1161",80.291756,647.91223
"1162",80.184326,647.92554
"1163",80.076904,647.93884
"1164",79.971924,647.95215
"1165",79.87427,647.96545
"1166",79.79126,647.97876
"1167",79.71801,647.99207
"1168",79.66186,648.0054
"1169",79.61547,648.0187
"1170",79.58373,648.032
"1171",79.55932,648.0453
"1172",79.537346,648.0586
"1173",79.520256,648.0719
"1174",79.50561,648.0852
"1175",79.4934,648.0985
"1176",79.47875,648.1118
"1177",79.46899,648.1251
"1178",79.45922,648.1384
"1179",79.449455,648.15173
"1180",79.43725,648.16504
"1181",79.42504,648.17834
"1182",79.40795,648.19165
"1183",79.38842,648.20496
"1184",79.36645,648.21826
"1185",79.344475,648.23157
"1186",79.32494,648.2449
"1187",79.31274,648.2582
"1188",79.30053,648.2715
"1189",79.28344,648.2848
"1190",79.26147,648.2981
"1191",79.234604,648.3114
"1192",79.20531,648.3247
"1193",79.17845,648.338
"1194",79.168686,648.3513
"1195",79.21019,648.3646
"1196",79.361565,648.3779
"1197",79.68383,648.39124
"1198",80.19409,648.40454
"1199",80.86061,648.41785
"1200",81.58816,648.43115
"1201",82.2449,648.44446
"1202",82.71366,648.45776
"1203",82.93828,648.47107
"1204",82.92607,648.4844
"1205",82.73075,648.4977
"1206",82.44022,648.511
"1207",82.12039,648.5243
"1208",81.81766,648.5376
"1209",81.56374,648.5509
"1210",81.37087,648.5642
"1211",81.234146,648.5775
"1212",81.146255,648.5908
"1213",81.08766,648.6041
"1214",81.03639,648.61743
"1215",80.98024,648.63074
"1216",80.92653,648.64404
"1217",80.8777,648.65735
"1218",80.850845,648.67065
"1219",80.848404,648.68396
"1220",80.867935,648.69727
"1221",80.89967,648.7106
"1222",80.921646,648.7239
"1223",80.92653,648.7372
"1224",80.89967,648.7505
"1225",80.84108,648.7638
"1226",80.75563,648.7771
"1227",80.655525,648.7904
"1228",80.54078,648.8037
"1229",80.428474,648.817
"1230",80.325935,648.8303
"1231",80.23071,648.8436
"1232",80.14282,648.85693
"1233",80.062256,648.87024
"1234",79.991455,648.88354
"1235",79.93042,648.89685
"1236",79.88403,648.91016
"1237",79.84985,648.92346
"1238",79.82788,648.93677
"1239",79.81323,648.9501
"1240",79.80347,648.9634
"1241",79.798584,648.9767
"1242",79.798584,648.99
"1243",79.80347,649.0033
"1244",79.80835,649.0166
"1245",79.81323,649.0299
"1246",79.81079,649.0432
"1247",79.80347,649.0565
"1248",79.78882,649.0698
"1249",79.77417,649.0831
"1250",79.76196,649.09644
"1251",79.74975,649.10974
"1252",79.7351,649.12305
"1253",79.71557,649.13635
"1254",79.69604,649.14966
"1255",79.674065,649.16296
"1256",79.65453,649.1763
"1257",79.656975,649.1896
"1258",79.73266,649.2029
"1259",79.93286,649.2162
"1260",80.306404,649.2295
"1261",80.85573,649.2428
"1262",81.52712,649.2561
"1263",82.21561,649.2694
"1264",82.794235,649.2827
"1265",83.177536,649.296
"1266",83.319145,649.3093
"1267",83.243454,649.32263
"1268",83.018845,649.33594
"1269",82.70878,649.34924
"1270",82.374306,649.36255
"1271",82.05936,649.37585
"1272",81.79813,649.38916
"1273",81.59304,649.40247
"1274",81.43679,649.4158
"1275",81.322044,649.4291
"1276",81.22926,649.4424
"1277",81.15114,649.4557
"1278",81.0901,649.469
"1279",81.05348,649.4823
"1280",81.05348,649.4956
"1281",81.0901,649.5089
"1282",81.1487,649.5222
"1283",81.21706,649.5355
"1284",81.27322,649.5488
"1285",81.29763,649.56213
"1286",81.28054,649.57544
"1287",81.21706,649.58875
"1288",81.112076,649.60205
"1289",80.972916,649.61536
"1290",80.81911,649.62866
"1291",80.65797,649.64197
"1292",80.50904,649.6553
"1293",80.37476,649.6686
"1294",80.257576,649.6819
"1295",80.15259,649.6952
"1296",80.06958,649.7085
"1297",79.99878,649.7218
"1298",79.940186,649.7351
"1299",79.8938,649.7484
"1300",79.85718,649.7617
"1301",79.82544,649.775
"1302",79.80591,649.7883
"1303",79.7937,649.80164
"1304",79.79126,649.81494
"1305",79.79126,649.82825
"1306",79.78882,649.84155
"1307",79.77905,649.85486
"1308",79.75708,649.86816
"1309",79.725334,649.8815
"1310",79.68383,649.8948
"1311",79.639885,649.9081
"1312",79.5935,649.9214
"1313",79.53979,649.9347
"1314",79.49096,649.948
"1315",79.48608,649.9613
"1316",79.57397,649.9746
"1317",79.815674,649.9879
"1318",80.23071,650.0012
"1319",80.79469,650.0145
"1320",81.42947,650.02783
"1321",82.020294,650.04114
"1322",82.46708,650.05444
"1323",82.69657,650.06775
"1324",82.71366,650.08105
"1325",82.55009,650.09436
"1326",82.269325,650.10767
"1327",81.934845,650.121
"1328",81.600365,650.1343
"1329",81.304955,650.1476
"1330",81.058365,650.1609
"1331",80.86549,650.1742
"1332",80.71412,650.1875
"1333",80.58961,650.2008
"1334",80.482185,650.2141
"1335",80.38697,650.2274
"1336",80.31617,650.2407
"1337",80.27955,650.254
"1338",80.28687,650.26733
"1339",80.3357,650.28064
"1340",80.411385,650.29395
"1341",80.48707,650.30725
"1342",80.54078,650.32056
"1343",80.550545,650.33386
"1344",80.51148,650.34717
"1345",80.42603,650.3605
"1346",80.306404,650.3738
"1347",80.16235,650.3871
"1348",80.008545,650.4004
"1349",79.85474,650.4137
"1350",79.708244,650.427
"1351",79.57641,650.4403
"1352",79.46166,650.4536
"1353",79.361565,650.4669
"1354",79.281,650.4802
"1355",79.21019,650.4935
"1356",79.15648,650.50684
"1357",79.11986,650.52014
"1358",79.09544,650.53345
"1359",79.08812,650.54675
"1360",79.09056,650.56006
"1361",79.10033,650.57336
"1362",79.10277,650.5867
"1363",79.10033,650.6
"1364",79.080795,650.6133
"1365",79.0515,650.6266
"1366",79.01732,650.6399
"1367",79.00267,650.6532
"1368",79.0515,650.6665
"1369",79.22484,650.6798
"1370",79.5642,650.6931
"1371",80.06714,650.7064
"1372",80.68238,650.7197
"1373",81.307396,650.73303
"1374",81.82742,650.74634
"1375",82.159454,650.75964
"1376",82.27177,650.77295
"1377",82.19119,650.78625
"1378",81.97391,650.79956
"1379",81.68337,650.81287
"1380",81.375755,650.8262
"1381",81.08766,650.8395
"1382",80.84352,650.8528
"1383",80.65308,650.8661
"1384",80.50172,650.8794
"1385",80.37965,650.8927
"1386",80.272224,650.906
"1387",80.17456,650.9193
"1388",80.08911,650.9326
"1389",80.03052,650.9459
"1390",80.008545,650.9592
"1391",80.025635,650.97253
"1392",80.076904,650.98584
"1393",80.14282,650.99915
"1394",80.198975,651.01245
"1395",80.23071,651.02576
"1396",80.22583,651.03906
"1397",80.17944,651.05237
"1398",80.096436,651.0657
"1399",79.98901,651.079
"1400",79.86694,651.0923
"1401",79.73754,651.1056
"1402",79.61059,651.1189
"1403",79.49096,651.1322
"1404",79.381096,651.1455
"1405",79.281,651.1588
"1406",79.19066,651.1721
"1407",79.11742,651.1854
"1408",79.05394,651.1987
"1409",79.00755,651.21204
"1410",78.9807,651.22534
"1411",78.96849,651.23865
"1412",78.96849,651.25195
"1413",78.97826,651.26526
"1414",78.98558,651.27856
"1415",78.99046,651.2919
"1416",78.98558,651.3052
"1417",78.97093,651.3185
"1418",78.94652,651.3318
"1419",78.922104,651.3451
"1420",78.91722,651.3584
"1421",78.98314,651.3717
"1422",79.17845,651.385
"1423",79.54711,651.3983
"1424",80.09155,651.4116
"1425",80.75075,651.4249
"1426",81.41482,651.43823
"1427",81.96414,651.45154
"1428",82.31327,651.46484
"1429",82.42802,651.47815
"1430",82.340126,651.49146
"1431",82.11307,651.50476
"1432",81.81766,651.51807
"1433",81.50515,651.5314
"1434",81.21706,651.5447
"1435",80.970474,651.558
"1436",80.7776,651.5713
"1437",80.63111,651.5846
"1438",80.52125,651.5979
"1439",80.428474,651.6112
"1440",80.343025,651.6245
"1441",80.2649,651.6378
"1442",80.198975,651.6511
"1443",80.15259,651.6644
"1444",80.14038,651.67773
"1445",80.15503,651.69104
"1446",80.18677,651.70435
"1447",80.218506,651.71765
"1448",80.233154,651.73096
"1449",80.22095,651.74426
"1450",80.17944,651.75757
"1451",80.1062,651.7709
"1452",80.0061,651.7842
"1453",79.886475,651.7975
"1454",79.75708,651.8108
"1455",79.62768,651.8241
"1456",79.50805,651.8374
"1457",79.395744,651.8507
"1458",79.29565,651.864
"1459",79.20531,651.8773
"1460",79.12474,651.8906
"1461",79.05394,651.90393
"1462",79.00023,651.91724
"1463",78.958725,651.93054
"1464",78.93187,651.94385
"1465",78.91234,651.95715
"1466",78.907455,651.97046
"1467",78.907455,651.98376
"1468",78.91234,651.9971
"1469",78.91478,652.0104
"1470",78.91478,652.0237
"1471",78.905014,652.037
"1472",78.887924,652.0503
"1473",78.86351,652.0636
"1474",78.836655,652.0769
"1475",78.82689,652.0902
"1476",78.89525,652.1035
"1477",79.10033,652.1168
"1478",79.48119,652.1301
"1479",80.04761,652.14343
"1480",80.73121,652.15674
"1481",81.42214,652.17004
"1482",81.991,652.18335
"1483",82.34745,652.19666
"1484",82.46464,652.20996
"1485",82.371864,652.22327
"1486",82.13016,652.2366
"1487",81.8201,652.2499
"1488",81.495384,652.2632
"1489",81.19264,652.2765
"1490",80.94118,652.2898
"1491",80.740974,652.3031
"1492",80.59205,652.3164
"1493",80.4773,652.3297
"1494",80.38209,652.343
"1495",80.291756,652.3563
"1496",80.20874,652.3696
"1497",80.13794,652.38293
"1498",80.09155,652.39624
"1499",80.079346,652.40955
"1500",80.09888,652.42285
"1501",80.13306,652.43616
"1502",80.17212,652.44946
"1503",80.19165,652.46277
"1504",80.17944,652.4761
"1505",80.13794,652.4894
"1506",80.0647,652.5027
"1507",79.96704,652.516
"1508",79.85474,652.5293
"1509",79.73266,652.5426
"1510",79.61059,652.5559
"1511",79.49096,652.5692
"1512",79.378654,652.5825
"1513",79.27856,652.5958
"1514",79.1931,652.60913
"1515",79.114975,652.62244
"1516",79.046616,652.63574
"1517",78.99046,652.64905
"1518",78.94652,652.66235
"1519",78.91234,652.67566
"1520",78.887924,652.68896
"1521",78.870834,652.7023
"1522",78.856186,652.7156
"1523",78.84886,652.7289
"1524",78.84398,652.7422
"1525",78.84154,652.7555
"1526",78.839096,652.7688
"1527",78.839096,652.7821
"1528",78.83421,652.7954
"1529",78.82689,652.8087
"1530",78.81468,652.822
"1531",78.79515,652.8353
"1532",78.768295,652.84863
"1533",78.73899,652.86194
"1534",78.73899,652.87524
"1535",78.81224,652.88855
"1536",79.027084,652.90186
"1537",79.43481,652.91516
"1538",80.028076,652.92847
"1539",80.73121,652.9418
"1540",81.42947,652.9551
"1541",81.99344,652.9684
"1542",82.33036,652.9817
"1543",82.41581,652.995
"1544",82.28397,653.0083
"1545",82.01053,653.0216
"1546",81.66628,653.0349
"1547",81.30984,653.0482
"1548",80.98024,653.0615
"1549",80.709236,653.0748
"1550",80.49683,653.08813
"1551",80.33814,653.10144
"1552",80.22095,653.11475
"1553",80.130615,653.12805
"1554",80.05005,653.14136
"1555",79.98169,653.15466
"1556",79.92554,653.16797
"1557",79.8938,653.1813
"1558",79.886475,653.1946
"1559",79.906006,653.2079
"1560",79.9353,653.2212
"1561",79.95972,653.2345
"1562",79.96948,653.2478
"1563",79.957275,653.2611
"1564",79.91089,653.2744
"1565",79.84009,653.2877
"1566",79.74975,653.301
"1567",79.64477,653.31433
"1568",79.52514,653.32764
"1569",79.40551,653.34094
"1570",79.290764,653.35425
"1571",79.185776,653.36755
"1572",79.09544,653.38086
"1573",79.0222,653.39417
"1574",78.96117,653.4075
"1575",78.91722,653.4208
"1576",78.88304,653.4341
"1577",78.856186,653.4474
"1578",78.839096,653.4607
"1579",78.83177,653.474
"1580",78.82933,653.4873
"1581",78.83177,653.5006
"1582",78.836655,653.5139
"1583",78.84154,653.5272
"1584",78.84642,653.5405
"1585",78.8513,653.55383
"1586",78.853745,653.56714
"1587",78.85863,653.58044
"1588",78.86107,653.59375
"1589",78.856186,653.60706
"1590",78.84642,653.62036
"1591",78.83177,653.63367
"1592",78.8098,653.647
"1593",78.785385,653.6603
"1594",78.765854,653.6736
"1595",78.77562,653.6869
"1596",78.86107,653.7002
"1597",79.08812,653.7135
"1598",79.50561,653.7268
"1599",80.09888,653.7401
"1600",80.799576,653.7534
"1601",81.48318,653.7667
"1602",82.020294,653.78
"1603",82.320595,653.79333
"1604",82.36454,653.80664
"1605",82.20096,653.81995
"1606",81.90555,653.83325
"1607",81.54665,653.84656
"1608",81.18776,653.85986
"1609",80.85817,653.87317
"1610",80.58228,653.8865
"1611",80.360115,653.8998
"1612",80.18677,653.9131
"1613",80.05737,653.9264
"1614",79.957275,653.9397
"1615",79.87915,653.953
"1616",79.815674,653.9663
"1617",79.76929,653.9796
"1618",79.742424,653.9929
"1619",79.73998,654.0062
"1620",79.76196,654.01953
"1621",79.798584,654.03284
"1622",79.84253,654.04614
"1623",79.871826,654.05945
"1624",79.87915,654.07275
"1625",79.852295,654.08606
"1626",79.798584,654.09937
"1627",79.72289,654.1127
"1628",79.63256,654.126
"1629",79.53979,654.1393
"1630",79.447014,654.1526
"1631",79.361565,654.1659
"1632",79.28588,654.1792
"1633",79.219955,654.1925
"1634",79.16136,654.2058
"1635",79.11253,654.2191
"1636",79.07103,654.2324
"1637",79.04173,654.2457
"1638",79.0222,654.25903
"1639",79.01488,654.27234
"1640",79.012436,654.28564
"1641",79.01732,654.29895
"1642",79.0222,654.31226
"1643",79.02464,654.32556
"1644",79.03197,654.33887
"1645",79.04173,654.3522
"1646",79.0515,654.3655
"1647",79.063705,654.3788
"1648",79.07591,654.3921
"1649",79.08324,654.4054
"1650",79.08568,654.4187
"1651",79.08568,654.432
"1652",79.078354,654.4453
"1653",79.07103,654.4586
"1654",79.063705,654.4719
"1655",79.05882,654.4852
"1656",79.063705,654.49854
"1657",79.11253,654.51184
"1658",79.26635,654.52515
"1659",79.58373,654.53845
"1660",80.08179,654.55176
"1661",80.726326,654.56506
"1662",81.42214,654.57837
"1663",82.03494,654.5917
"1664",82.45243,654.605
"1665",82.616005,654.6183
"1666",82.545204,654.6316
"1667",82.2913,654.6449
"1668",81.93729,654.6582
"1669",81.54665,654.6715
"1670",81.17311,654.6848
"1671",80.84596,654.6981
"1672",80.57984,654.7114
"1673",80.377205,654.72473
"1674",80.23071,654.73804
"1675",80.12085,654.75134
"1676",80.0354,654.76465
"1677",79.96216,654.77795
"1678",79.90845,654.79126
"1679",79.869385,654.80457
"1680",79.85474,654.8179
"1681",79.871826,654.8312
"1682",79.91821,654.8445
"1683",79.971924,654.8578
"1684",80.01831,654.8711
"1685",80.04761,654.8844
"1686",80.045166,654.8977
"1687",80.008545,654.911
"1688",79.94263,654.9243
"1689",79.85962,654.9376
"1690",79.766846,654.9509
"1691",79.67162,654.96423
"1692",79.57885,654.97754
"1693",79.49584,654.99084
"1694",79.415276,655.00415
"1695",79.344475,655.01746
"1696",79.281,655.03076
"1697",79.22972,655.04407
"1698",79.19066,655.0574
"1699",79.166245,655.0707
"1700",79.15404,655.084
"1701",79.151596,655.0973
"1702",79.15404,655.1106
"1703",79.1638,655.1239
"1704",79.17601,655.1372
"1705",79.19554,655.1505
"1706",79.217514,655.1638
"1707",79.24193,655.1771
"1708",79.259026,655.1904
"1709",79.26635,655.20374
"1710",79.27123,655.21704
"1711",79.26879,655.23035
"1712",79.26879,655.24365
"1713",79.26879,655.25696
"1714",79.26879,655.27026
"1715",79.26391,655.28357
"1716",79.2517,655.2969
"1717",79.23216,655.3102
"1718",79.219955,655.3235
"1719",79.26635,655.3368
"1720",79.43969,655.3501
"1721",79.78882,655.3634
"1722",80.325935,655.3767
"1723",80.987564,655.39
"1724",81.67361,655.4033
"1725",82.247345,655.4166
"1726",82.61112,655.42993
"1727",82.718544,655.44324
"1728",82.6038,655.45654
"1729",82.33036,655.46985
"1730",81.969025,655.48315
"1731",81.58816,655.49646
"1732",81.231705,655.50977
"1733",80.919205,655.5231
"1734",80.66285,655.5364
"1735",80.45777,655.5497
"1736",80.29664,655.563
"1737",80.17212,655.5763
"1738",80.08423,655.5896
"1739",80.02075,655.6029
"1740",79.98413,655.6162
"1741",79.97681,655.6295
"1742",79.99878,655.6428
"1743",80.042725,655.6561
"1744",80.10132,655.66943
"1745",80.16235,655.68274
"1746",80.2063,655.69604
"1747",80.216064,655.70935
"1748",80.19409,655.72266
"1749",80.14038,655.73596
"1750",80.0647,655.74927
"1751",79.974365,655.7626
"1752",79.869385,655.7759
"1753",79.764404,655.7892
"1754",79.66186,655.8025
"1755",79.569084,655.8158
"1756",79.48852,655.8291
"1757",79.4226,655.8424
"1758",79.364006,655.8557
"1759",79.310295,655.869
"1760",79.26147,655.8823
"1761",79.2224,655.8956
"1762",79.1931,655.90894
"1763",79.17113,655.92224
"1764",79.16136,655.93555
"1765",79.15648,655.94885
"1766",79.16136,655.96216
"1767",79.17357,655.97546
"1768",79.185776,655.9888
"1769",79.20531,656.0021
"1770",79.2224,656.0154
"1771",79.234604,656.0287
"1772",79.23949,656.042
"1773",79.24193,656.0553
"1774",79.234604,656.0686
"1775",79.2224,656.0819
"1776",79.202866,656.0952
"1777",79.17845,656.1085
"1778",79.15404,656.1218
"1779",79.14671,656.13513
"1780",79.19798,656.14844
"1781",79.378654,656.16174
"1782",79.7351,656.17505
"1783",80.274666,656.18835
"1784",80.938736,656.20166
"1785",81.61257,656.21497
"1786",82.16922,656.2283
"1787",82.511024,656.2416
"1788",82.60624,656.2549
"1789",82.48173,656.2682
"1790",82.2034,656.2815
"1791",81.846954,656.2948
"1792",81.46609,656.3081
"1793",81.09987,656.3214
"1794",80.7776,656.3347
"1795",80.51148,656.348
"1796",80.29908,656.3613
"1797",80.130615,656.37463
"1798",79.99878,656.38794
"1799",79.90112,656.40125
"1800",79.835205,656.41455
"1801",79.80835,656.42786
"1802",79.818115,656.44116
"1803",79.871826,656.45447
"1804",79.95972,656.4678
"1805",80.05737,656.4811
"1806",80.147705,656.4944
"1807",80.20874,656.5077
"1808",80.22583,656.521
"1809",80.19409,656.5343
"1810",80.12329,656.5476
"1811",80.02319,656.5609
"1812",79.90845,656.5742
"1813",79.78638,656.5875
"1814",79.66918,656.6008
"1815",79.55932,656.61414
"1816",79.46166,656.62744
"1817",79.37621,656.64075
"1818",79.30297,656.65405
"1819",79.24437,656.66736
"1820",79.19554,656.68066
"1821",79.16136,656.694
"1822",79.13939,656.7073
"1823",79.1223,656.7206
"1824",79.11253,656.7339
"1825",79.11253,656.7472
"1826",79.11742,656.7605
"1827",79.12474,656.7738
"1828",79.13695,656.7871
"1829",79.14427,656.8004
"1830",79.14671,656.8137
"1831",79.14183,656.827
"1832",79.13695,656.84033
"1833",79.13695,656.85364
"1834",79.13451,656.86694
"1835",79.132065,656.88025
"1836",79.12718,656.89355
"1837",79.11742,656.90686
"1838",79.10033,656.92017
"1839",79.08568,656.9335
"1840",79.078354,656.9468
"1841",79.10765,656.9601
"1842",79.24193,656.9734
"1843",79.53246,656.9867
"1844",80.0061,657
"1845",80.621346,657.0133
"1846",81.290306,657.0266
"1847",81.883575,657.0399
"1848",82.28397,657.0532
"1849",82.4329,657.0665
"1850",82.34257,657.07983
"1851",82.07889,657.09314
"1852",81.71511,657.10645
"1853",81.31472,657.11975
"1854",80.92897,657.13306
"1855",80.587166,657.14636
"1856",80.29664,657.15967
"1857",80.059814,657.173
"1858",79.87427,657.1863
"1859",79.73754,657.1996
"1860",79.64233,657.2129
"1861",79.5935,657.2262
"1862",79.586174,657.2395
"1863",79.62524,657.2528
"1864",79.7058,657.2661
"1865",79.81323,657.2794
"1866",79.92554,657.2927
"1867",80.02319,657.306
"1868",80.09155,657.31934
"1869",80.11597,657.33264
"1870",80.09155,657.34595
"1871",80.028076,657.35925
"1872",79.9353,657.37256
"1873",79.82056,657.38586
"1874",79.70092,657.3992
"1875",79.57641,657.4125
"1876",79.4641,657.4258
"1877",79.36645,657.4391
"1878",79.281,657.4524
"1879",79.20775,657.4657
"1880",79.149155,657.479
"1881",79.10521,657.4923
"1882",79.06615,657.5056
"1883",79.03197,657.5189
"1884",79.00511,657.5322
"1885",78.995346,657.54553
"1886",78.99779,657.55884
"1887",79.009995,657.57214
"1888",79.029526,657.58545
"1889",79.046616,657.59875
"1890",79.061264,657.61206
"1891",79.063705,657.62537
"1892",79.063705,657.6387
"1893",79.063705,657.652
"1894",79.06615,657.6653
"1895",79.06859,657.6786
"1896",79.06859,657.6919
"1897",79.063705,657.7052
"1898",79.05882,657.7185
"1899",79.0515,657.7318
"1900",79.044174,657.7451
"1901",79.044174,657.7584
"1902",79.08324,657.7717
"1903",79.2224,657.78503
"1904",79.517815,657.79834
"1905",79.98413,657.81165
"1906",80.57984,657.82495
"1907",81.214615,657.83826
"1908",81.761505,657.85156
"1909",82.11551,657.86487
"1910",82.22293,657.8782
"1911",82.10574,657.8915
"1912",81.82254,657.9048
"1913",81.444115,657.9181
"1914",81.02907,657.9314
"1915",80.63111,657.9447
"1916",80.272224,657.958
"1917",79.974365,657.9713
"1918",79.7351,657.9846
"1919",79.554436,657.9979
"1920",79.42748,658.0112
"1921",79.3518,658.02454
"1922",79.32494,658.03784
"1923",79.34692,658.05115
"1924",79.4226,658.06445
"1925",79.54223,658.07776
"1926",79.691154,658.09106
"1927",79.84253,658.1044
"1928",79.96948,658.1177
"1929",80.05493,658.131
"1930",80.09155,658.1443
"1931",80.07202,658.1576
"1932",80.01099,658.1709
"1933",79.920654,658.1842
"1934",79.81079,658.1975
"1935",79.68627,658.2108
"1936",79.55688,658.2241
"1937",79.43481,658.2374
"1938",79.327385,658.25073
"1939",79.23216,658.26404
"1940",79.15648,658.27734
"1941",79.097885,658.29065
"1942",79.0515,658.30396
"1943",79.0222,658.31726
"1944",79.00023,658.33057
"1945",78.992905,658.3439
"1946",78.995346,658.3572
"1947",79.00511,658.3705
"1948",79.01488,658.3838
"1949",79.027084,658.3971
"1950",79.03685,658.4104
"1951",79.04906,658.4237
"1952",79.05882,658.437
"1953",79.06859,658.4503
"1954",79.07591,658.4636
"1955",79.078354,658.4769
"1956",79.07103,658.49023
"1957",79.061264,658.50354
"1958",79.046616,658.51685
"1959",79.03441,658.53015
"1960",79.01976,658.54346
"1961",79.0222,658.55676
"1962",79.080795,658.57007
"1963",79.24681,658.5834
"1964",79.554436,658.5967
"1965",80.01343,658.61
"1966",80.567635,658.6233
"1967",81.1194,658.6366
"1968",81.55642,658.6499
"1969",81.80301,658.6632
"1970",81.832306,658.6765
"1971",81.668724,658.6898
"1972",81.37087,658.7031
"1973",81.007095,658.71643
"1974",80.62623,658.72974
"1975",80.26002,658.74304
"1976",79.93286,658.75635
"1977",79.65453,658.76965
"1978",79.42504,658.78296
"1979",79.24925,658.79626
"1980",79.13695,658.8096
"1981",79.09056,658.8229
"1982",79.10765,658.8362
"1983",79.185776,658.8495
"1984",79.31518,658.8628
"1985",79.47875,658.8761
"1986",79.65209,658.8894
"1987",79.80591,658.9027
"1988",79.92554,658.916
"1989",79.9939,658.9293
"1990",80.0061,658.9426
"1991",79.9646,658.95593
"1992",79.886475,658.96924
"1993",79.79126,658.98254
"1994",79.67895,658.99585
"1995",79.5642,659.00916
"1996",79.45434,659.02246
"1997",79.35424,659.03577
"1998",79.26391,659.0491
"1999",79.1931,659.0624
"2000",79.13939,659.0757
"2001",79.10277,659.089
"2002",79.07591,659.1023
"2003",79.061264,659.1156
"2004",79.05638,659.1289
"2005",79.05882,659.1422
"2006",79.06615,659.1555
"2007",79.078354,659.1688
"2008",79.09544,659.1821
"2009",79.114975,659.19543
"2010",79.13451,659.20874
"2011",79.15892,659.22205
"2012",79.183334,659.23535
"2013",79.202866,659.24866
"2014",79.219955,659.26196
"2015",79.22972,659.27527
"2016",79.22972,659.2886
"2017",79.22728,659.3019
"2018",79.234604,659.3152
"2019",79.29809,659.3285
"2020",79.47387,659.3418
"2021",79.80347,659.3551
"2022",80.28687,659.3684
"2023",80.8777,659.3817
"2024",81.47097,659.395
"2025",81.94949,659.4083
"2026",82.22781,659.42163
"2027",82.27909,659.43494
"2028",82.1326,659.44824
"2029",81.849396,659.46155
"2030",81.497826,659.47485
"2031",81.13161,659.48816
"2032",80.78981,659.50146
"2033",80.49195,659.5148
"2034",80.24536,659.5281
"2035",80.04761,659.5414
"2036",79.8938,659.5547
"2037",79.77905,659.568
"2038",79.70092,659.5813
"2039",79.66186,659.5946
"2040",79.66918,659.6079
"2041",79.727776,659.6212
"2042",79.82788,659.6345
"2043",79.95239,659.6478
"2044",80.079346,659.66113
"2045",80.177,659.67444
"2046",80.23071,659.68774
"2047",80.22827,659.70105
"2048",80.17944,659.71436
"2049",80.09155,659.72766
"2050",79.98169,659.74097
"2051",79.85718,659.7543
"2052",79.73022,659.7676
"2053",79.61059,659.7809
"2054",79.500725,659.7942
"2055",79.40551,659.8075
"2056",79.33227,659.8208
"2057",79.273674,659.8341
"2058",79.22972,659.8474
"2059",79.19066,659.8607
"2060",79.1638,659.874
"2061",79.14183,659.8873
"2062",79.12962,659.90063
"2063",79.12962,659.91394
"2064",79.13695,659.92725
"2065",79.151596,659.94055
"2066",79.17113,659.95386
"2067",79.1931,659.96716
"2068",79.219955,659.98047
"2069",79.23949,659.9938
"2070",79.2517,660.0071
"2071",79.256584,660.0204
"2072",79.24925,660.0337
"2073",79.23216,660.047
"2074",79.219955,660.0603
"2075",79.259026,660.0736
"2076",79.41039,660.0869
"2077",79.727776,660.1002
"2078",80.21362,660.1135
"2079",80.82887,660.12683
"2080",81.46609,660.14014
"2081",82.00809,660.15344
"2082",82.357216,660.16675
"2083",82.476845,660.18005
"2084",82.39384,660.19336
"2085",82.161896,660.20667
"2086",81.849396,660.22
"2087",81.51003,660.2333
"2088",81.180435,660.2466
"2089",80.88991,660.2599
"2090",80.6482,660.2732
"2091",80.45289,660.2865
"2092",80.306404,660.2998
"2093",80.19165,660.3131
"2094",80.09888,660.3264
"2095",80.03296,660.3397
"2096",79.99878,660.353
"2097",79.99878,660.36633
"2098",80.03784,660.37964
"2099",80.1062,660.39294
"2100",80.18677,660.40625
"2101",80.2478,660.41956
"2102",80.28199,660.43286
"2103",80.274666,660.44617
"2104",80.22339,660.4595
"2105",80.13794,660.4728
"2106",80.03052,660.4861
"2107",79.91333,660.4994
"2108",79.7937,660.5127
"2109",79.67895,660.526
"2110",79.571526,660.5393
"2111",79.47875,660.5526
"2112",79.398186,660.5659
"2113",79.32983,660.5792
"2114",79.27123,660.5925
"2115",79.22484,660.60583
"2116",79.183334,660.61914
"2117",79.15404,660.63245
"2118",79.13695,660.64575
"2119",79.12718,660.65906
"2120",79.12962,660.67236
"2121",79.14427,660.68567
"2122",79.166245,660.699
"2123",79.19066,660.7123
"2124",79.21019,660.7256
"2125",79.217514,660.7389
"2126",79.20775,660.7522
"2127",79.18089,660.7655
"2128",79.151596,660.7788
"2129",79.13939,660.7921
"2130",79.185776,660.8054
"2131",79.34936,660.8187
"2132",79.676506,660.83203
"2133",80.16724,660.84534
"2134",80.7776,660.85864
"2135",81.41482,660.87195
"2136",81.96658,660.88525
"2137",82.337685,660.89856
"2138",82.48905,660.91187
"2139",82.43778,660.9252
"2140",82.230255,660.9385
"2141",81.93973,660.9518
"2142",81.62234,660.9651
"2143",81.32693,660.9784
"2144",81.077896,660.9917
"2145",80.88747,661.005
"2146",80.74586,661.0183
"2147",80.635994,661.0316
"2148",80.54078,661.0449
"2149",80.45289,661.0582
"2150",80.37232,661.07153
"2151",80.30396,661.08484
"2152",80.257576,661.09814
"2153",80.24536,661.11145
"2154",80.26246,661.12476
"2155",80.291756,661.13806
"2156",80.32105,661.15137
"2157",80.33326,661.1647
"2158",80.31373,661.178
"2159",80.257576,661.1913
"2160",80.17212,661.2046
"2161",80.0647,661.2179
"2162",79.94507,661.2312
"2163",79.82544,661.2445
"2164",79.710686,661.2578
"2165",79.59838,661.2711
"2166",79.49584,661.2844
"2167",79.40795,661.2977
"2168",79.32494,661.31104
"2169",79.25414,661.32434
"2170",79.1931,661.33765
"2171",79.14183,661.35095
"2172",79.10033,661.36426
"2173",79.06859,661.37756
"2174",79.0515,661.39087
"2175",79.046616,661.4042
"2176",79.04906,661.4175
"2177",79.05638,661.4308
"2178",79.061264,661.4441
"2179",79.061264,661.4574
"2180",79.05638,661.4707
"2181",79.03929,661.484
"2182",79.01488,661.4973
"2183",78.98802,661.5106
"2184",78.95628,661.5239
"2185",78.924545,661.53723
"2186",78.91234,661.55054
"2187",78.96361,661.56384
"2188",79.13695,661.57715
"2189",79.48119,661.59045
"2190",80.00366,661.60376
"2191",80.65064,661.61707
"2192",81.322044,661.6304
"2193",81.900665,661.6437
"2194",82.286415,661.657
"2195",82.44022,661.6703
"2196",82.38651,661.6836
"2197",82.18143,661.6969
"2198",81.89578,661.7102
"2199",81.59548,661.7235
"2200",81.324486,661.7368
"2201",81.10231,661.7501
"2202",80.936295,661.7634
"2203",80.816666,661.77673
"2204",80.723885,661.79004
"2205",80.64088,661.80334
"2206",80.550545,661.81665
"2207",80.45533,661.82996
"2208",80.365,661.84326
"2209",80.2942,661.85657
"2210",80.25269,661.8699
"2211",80.24536,661.8832
"2212",80.26002,661.8965
"2213",80.274666,661.9098
"2214",80.26734,661.9231
"2215",80.235596,661.9364
"2216",80.16968,661.9497
"2217",80.07446,661.963
"2218",79.95972,661.9763
"2219",79.83765,661.9896
"2220",79.71557,662.0029
"2221",79.59838,662.01624
"2222",79.48608,662.02954
"2223",79.38598,662.04285
"2224",79.29565,662.05615
"2225",79.217514,662.06946
"2226",79.15404,662.08276
"2227",79.10033,662.09607
"2228",79.05882,662.1094
"2229",79.02464,662.1227
"2230",79.00023,662.136
"2231",78.98314,662.1493
"2232",78.97093,662.1626
"2233",78.958725,662.1759
"2234",78.94652,662.1892
"2235",78.92943,662.2025
"2236",78.91478,662.2158
"2237",78.90257,662.2291
"2238",78.890366,662.24243
"2239",78.87572,662.25574
"2240",78.853745,662.26904
"2241",78.82689,662.28235
"2242",78.79027,662.29565
"2243",78.75365,662.30896
"2244",78.73655,662.32227
"2245",78.79027,662.3356
"2246",78.96361,662.3489
"2247",79.310295,662.3622
"2248",79.83765,662.3755
"2249",80.49683,662.3888
"2250",81.18288,662.4021
"2251",81.78104,662.4154
"2252",82.19119,662.4287
"2253",82.36698,662.442
"2254",82.33036,662.4553
"2255",82.13992,662.4686
"2256",81.864044,662.48193
"2257",81.56863,662.49524
"2258",81.29275,662.50854
"2259",81.07301,662.52185
"2260",80.91432,662.53516
"2261",80.80446,662.54846
"2262",80.726326,662.56177
"2263",80.655525,662.5751
"2264",80.57252,662.5884
"2265",80.47486,662.6017
"2266",80.37476,662.615
"2267",80.291756,662.6283
"2268",80.23804,662.6416
"2269",80.216064,662.6549
"2270",80.22339,662.6682
"2271",80.23804,662.6815
"2272",80.23804,662.6948
"2273",80.216064,662.7081
"2274",80.16235,662.72144
"2275",80.079346,662.73474
"2276",79.971924,662.74805
"2277",79.852295,662.76135
"2278",79.73022,662.77466
"2279",79.61059,662.78796
"2280",79.49828,662.8013
"2281",79.398186,662.8146
"2282",79.31518,662.8279
"2283",79.24437,662.8412
"2284",79.19066,662.8545
"2285",79.14183,662.8678
"2286",79.10033,662.8811
"2287",79.06859,662.8944
"2288",79.04173,662.9077
"2289",79.02464,662.921
"2290",79.01488,662.9343
"2291",79.00511,662.94763
"2292",79.00023,662.96094
"2293",78.995346,662.97424
"2294",78.98802,662.98755
"2295",78.98314,663.00085
"2296",78.9807,663.01416
"2297",78.97337,663.02747
"2298",78.95628,663.0408
"2299",78.92943,663.0541
"2300",78.89525,663.0674
"2301",78.8513,663.0807
"2302",78.80736,663.094
"2303",78.77806,663.1073
"2304",78.79759,663.1206
"2305",78.9099,663.1339
"2306",79.17845,663.1472
"2307",79.62768,663.1605
"2308",80.235596,663.1738
"2309",80.921646,663.18713
"2310",81.57595,663.20044
"2311",82.08621,663.21375
"2312",82.37675,663.22705
"2313",82.43778,663.24036
"2314",82.31571,663.25366
"2315",82.07889,663.26697
"2316",81.79813,663.2803
"2317",81.52224,663.2936
"2318",81.28542,663.3069
"2319",81.10231,663.3202
"2320",80.96315,663.3335
"2321",80.848404,663.3468
"2322",80.74586,663.3601
"2323",80.64332,663.3734
"2324",80.5359,663.3867
"2325",80.43336,663.4
"2326",80.35279,663.4133
"2327",80.308846,663.42664
"2328",80.29664,663.43994
"2329",80.31129,663.45325
"2330",80.33326,663.46655
"2331",80.343025,663.47986
"2332",80.325935,663.49316
"2333",80.28199,663.5065
"2334",80.20874,663.5198
"2335",80.10864,663.5331
"2336",79.991455,663.5464
"2337",79.869385,663.5597
"2338",79.742424,663.573
"2339",79.62524,663.5863
"2340",79.51537,663.5996
"2341",79.4226,663.6129
"2342",79.34692,663.6262
"2343",79.28832,663.6395
"2344",79.24193,663.65283
"2345",79.202866,663.66614
"2346",79.168686,663.67944
"2347",79.13695,663.69275
"2348",79.10521,663.70605
"2349",79.080795,663.71936
"2350",79.063705,663.73267
"2351",79.0515,663.746
"2352",79.044174,663.7593
"2353",79.04173,663.7726
"2354",79.03929,663.7859
"2355",79.03441,663.7992
"2356",79.0222,663.8125
"2357",79.00511,663.8258
"2358",78.97826,663.8391
"2359",78.94408,663.8524
"2360",78.90257,663.8657
"2361",78.86595,663.879
"2362",78.84642,663.89233
"2363",78.88304,663.90564
"2364",79.029526,663.91895
"2365",79.34203,663.93225
"2366",79.835205,663.94556
"2367",80.465096,663.95886
"2368",81.14137,663.97217
"2369",81.74441,663.9855
"2370",82.176544,663.9988
"2371",82.38163,664.0121
"2372",82.374306,664.0254
"2373",82.20096,664.0387
"2374",81.934845,664.052
"2375",81.636986,664.0653
"2376",81.358665,664.0786
"2377",81.13405,664.0919
"2378",80.96559,664.1052
"2379",80.85329,664.1185
"2380",80.76784,664.13184
"2381",80.69215,664.14514
"2382",80.61158,664.15845
"2383",80.53834,664.17175
"2384",80.479744,664.18506
"2385",80.45289,664.19836
"2386",80.46021,664.2117
"2387",80.49439,664.225
"2388",80.53834,664.2383
"2389",80.570076,664.2516
"2390",80.57252,664.2649
"2391",80.54322,664.2782
"2392",80.479744,664.2915
"2393",80.38941,664.3048
"2394",80.274666,664.3181
"2395",80.15015,664.3314
"2396",80.02319,664.3447
"2397",79.903564,664.35803
"2398",79.79126,664.37134
"2399",79.69604,664.38464
"2400",79.61059,664.39795
"2401",79.53979,664.41125
"2402",79.47631,664.42456
"2403",79.4226,664.43787
"2404",79.37621,664.4512
"2405",79.34203,664.4645
"2406",79.31762,664.4778
"2407",79.30541,664.4911
"2408",79.30297,664.5044
"2409",79.30541,664.5177
"2410",79.31274,664.531
"2411",79.32006,664.5443
"2412",79.32494,664.5576
"2413",79.32494,664.5709
"2414",79.31274,664.5842
"2415",79.28344,664.59753
"2416",79.2517,664.61084
"2417",79.22972,664.62415
"2418",79.26635,664.63745
"2419",79.415276,664.65076
"2420",79.727776,664.66406
"2421",80.20386,664.67737
"2422",80.80202,664.6907
"2423",81.4197,664.704
"2424",81.95438,664.7173
"2425",82.31327,664.7306
"2426",82.45731,664.7439
"2427",82.39384,664.7572
"2428",82.18631,664.7705
"2429",81.89578,664.7838
"2430",81.58083,664.7971
"2431",81.29519,664.8104
"2432",81.06081,664.8237
"2433",80.88258,664.83704
"2434",80.74586,664.85034
"2435",80.63355,664.86365
"2436",80.53101,664.87695
"2437",80.43824,664.89026
"2438",80.36744,664.90356
"2439",80.33082,664.9169
"2440",80.33814,664.9302
"2441",80.38941,664.9435
"2442",80.465096,664.9568
"2443",80.54078,664.9701
"2444",80.59205,664.9834
"2445",80.6067,664.9967
"2446",80.570076,665.01
"2447",80.49195,665.0233
"2448",80.37965,665.0366
"2449",80.25269,665.0499
"2450",80.11597,665.06323
"2451",79.98657,665.07654
"2452",79.86694,665.08984
"2453",79.764404,665.10315
"2454",79.676506,665.11646
"2455",79.603264,665.12976
"2456",79.54223,665.14307
"2457",79.49584,665.1564
"2458",79.46166,665.1697
"2459",79.44213,665.183
"2460",79.429924,665.1963
"2461",79.42504,665.2096
"2462",79.42016,665.2229
"2463",79.412834,665.2362
"2464",79.40063,665.2495
"2465",79.381096,665.2628
"2466",79.35424,665.2761
"2467",79.33227,665.2894
"2468",79.31762,665.30273
"2469",79.34692,665.31604
"2470",79.47143,665.32935
"2471",79.73998,665.34265
"2472",80.15747,665.35596
"2473",80.69703,665.36926
"2474",81.28298,665.38257
"2475",81.80545,665.3959
"2476",82.17166,665.4092
"2477",82.3328,665.4225
"2478",82.2913,665.4358
"2479",82.09598,665.4491
"2480",81.812775,665.4624
"2481",81.50515,665.4757
"2482",81.21706,665.489
"2483",80.972916,665.5023
"2484",80.78737,665.5156
"2485",80.6482,665.52893
"2486",80.533455,665.54224
"2487",80.4358,665.55554
"2488",80.34791,665.56885
"2489",80.26734,665.58215
"2490",80.2063,665.59546
"2491",80.17212,665.60876
"2492",80.17212,665.6221
"2493",80.20386,665.6354
"2494",80.2478,665.6487
"2495",80.289314,665.662
"2496",80.306404,665.6753
"2497",80.289314,665.6886
"2498",80.235596,665.7019
"2499",80.147705,665.7152
"2500",80.0354,665.7285
"2501",79.91089,665.7418
"2502",79.79126,665.7551
"2503",79.676506,665.76843
"2504",79.57397,665.78174
"2505",79.48608,665.79504
"2506",79.40795,665.80835
"2507",79.34692,665.82166
"2508",79.29809,665.83496
"2509",79.259026,665.84827
"2510",79.23216,665.8616
"2511",79.21263,665.8749
"2512",79.19066,665.8882
"2513",79.166245,665.9015
"2514",79.14183,665.9148
"2515",79.11742,665.9281
"2516",79.10033,665.9414
"2517",79.11009,665.9547
"2518",79.17845,665.968
"2519",79.34692,665.9813
"2520",79.65453,665.9946
"2521",80.10376,666.00793
"2522",80.65797,666.02124
"2523",81.231705,666.03455
"2524",81.72732,666.04785
"2525",82.056915,666.06116
"2526",82.176544,666.07446
"2527",82.1033,666.08777
"2528",81.88846,666.1011
"2529",81.600365,666.1144
"2530",81.29519,666.1277
"2531",81.01442,666.141
"2532",80.78737,666.1543
"2533",80.61402,666.1676
"2534",80.48463,666.1809
"2535",80.38209,666.1942
"2536",80.28687,666.2075
"2537",80.184326,666.2208
"2538",80.08179,666.23413
"2539",79.9939,666.24744
"2540",79.940186,666.26074
"2541",79.93042,666.27405
"2542",79.95972,666.28735
"2543",80.01343,666.30066
"2544",80.06958,666.31396
"2545",80.10132,666.3273
"2546",80.10132,666.3406
"2547",80.0647,666.3539
"2548",79.99634,666.3672
"2549",79.906006,666.3805
"2550",79.80591,666.3938
"2551",79.7058,666.4071
"2552",79.605705,666.4204
"2553",79.51049,666.4337
"2554",79.42504,666.447
"2555",79.34936,666.4603
"2556",79.28344,666.47363
"2557",79.22972,666.48694
"2558",79.19066,666.50024
"2559",79.1638,666.51355
"2560",79.14183,666.52686
"2561",79.12474,666.54016
"2562",79.11742,666.55347
"2563",79.11009,666.5668
"2564",79.10765,666.5801
"2565",79.11742,666.5934
"2566",79.1638,666.6067
"2567",79.29565,666.62
"2568",79.5642,666.6333
"2569",79.98657,666.6466
"2570",80.53834,666.6599
"2571",81.14137,666.6732
"2572",81.6907,666.6865
"2573",82.08133,666.6998
"2574",82.26444,666.71313
"2575",82.24246,666.72644
"2576",82.06668,666.73975
"2577",81.80057,666.75305
"2578",81.50515,666.76636
"2579",81.22194,666.77966
"2580",80.98268,666.79297
"2581",80.80202,666.8063
"2582",80.66773,666.8196
"2583",80.56519,666.8329
"2584",80.4773,666.8462
"2585",80.38209,666.8595
"2586",80.27711,666.8728
"2587",80.17212,666.8861
"2588",80.08423,666.8994
"2589",80.03296,666.9127
"2590",80.02319,666.926
"2591",80.04028,666.93933
"2592",80.07446,666.95264
"2593",80.10132,666.96594
"2594",80.10864,666.97925
"2595",80.08179,666.99255
"2596",80.02319,667.00586
"2597",79.940186,667.01917
"2598",79.84741,667.0325
"2599",79.7522,667.0458
"2600",79.66186,667.0591
"2601",79.58129,667.0724
"2602",79.51049,667.0857
"2603",79.447014,667.099
"2604",79.381096,667.1123
"2605",79.32006,667.1256
"2606",79.27123,667.1389
"2607",79.23949,667.1522
"2608",79.217514,667.1655
"2609",79.21019,667.17883
"2610",79.21019,667.19214
"2611",79.20531,667.20544
"2612",79.19798,667.21875
"2613",79.18822,667.23206
"2614",79.17845,667.24536
"2615",79.183334,667.25867
"2616",79.22972,667.272
"2617",79.37621,667.2853
"2618",79.66918,667.2986
"2619",80.12085,667.3119
"2620",80.69703,667.3252
"2621",81.307396,667.3385
"2622",81.83963,667.3518
"2623",82.196075,667.3651
"2624",82.3328,667.3784
"2625",82.26444,667.3917
"2626",82.054474,667.405
"2627",81.76639,667.41833
"2628",81.47097,667.43164
"2629",81.20729,667.44495
"2630",81.004654,667.45825
"2631",80.85817,667.47156
"2632",80.76051,667.48486
"2633",80.68482,667.49817
"2634",80.604256,667.5115
"2635",80.50904,667.5248
"2636",80.396736,667.5381
"2637",80.28199,667.5514
"2638",80.181885,667.5647
"2639",80.11597,667.578
"2640",80.08667,667.5913
"2641",80.09155,667.6046
"2642",80.113525,667.6179
"2643",80.1355,667.6312
"2644",80.13794,667.64453
"2645",80.113525,667.65784
"2646",80.059814,667.67114
"2647",79.98169,667.68445
"2648",79.888916,667.69775
"2649",79.798584,667.71106
"2650",79.708244,667.72437
"2651",79.62524,667.7377
"2652",79.54711,667.751
"2653",79.47387,667.7643
"2654",79.40063,667.7776
"2655",79.33471,667.7909
"2656",79.273674,667.8042
"2657",79.22972,667.8175
"2658",79.202866,667.8308
"2659",79.1931,667.8441
"2660",79.1931,667.8574
"2661",79.19554,667.8707
"2662",79.200424,667.88403
"2663",79.202866,667.89734
"2664",79.19798,667.91064
"2665",79.18822,667.92395
"2666",79.18089,667.93726
"2667",79.18822,667.95056
"2668",79.2517,667.96387
"2669",79.42748,667.9772
"2670",79.76196,667.9905
"2671",80.257576,668.0038
"2672",80.85573,668.0171
"2673",81.45876,668.0304
"2674",81.94705,668.0437
"2675",82.23758,668.057
"2676",82.303505,668.0703
"2677",82.18143,668.0836
"2678",81.93973,668.0969
"2679",81.64675,668.1102
"2680",81.356224,668.12354
"2681",81.10475,668.13684
"2682",80.90456,668.15015
"2683",80.75563,668.16345
"2684",80.64576,668.17676
"2685",80.56031,668.19006
"2686",80.4773,668.20337
"2687",80.38453,668.2167
"2688",80.28443,668.23
"2689",80.18921,668.2433
"2690",80.11841,668.2566
"2691",80.076904,668.2699
"2692",80.06714,668.2832
"2693",80.076904,668.2965
"2694",80.09155,668.3098
"2695",80.09888,668.3231
"2696",80.08911,668.3364
"2697",80.05737,668.34973
"2698",80.00122,668.36304
"2699",79.93042,668.37634
"2700",79.84497,668.38965
"2701",79.74975,668.40295
"2702",79.65209,668.41626
"2703",79.56176,668.42957
"2704",79.47631,668.4429
"2705",79.398186,668.4562
"2706",79.32983,668.4695
"2707",79.273674,668.4828
"2708",79.2224,668.4961
"2709",79.183334,668.5094
"2710",79.15404,668.5227
"2711",79.132065,668.536
"2712",79.11986,668.5493
"2713",79.11986,668.5626
"2714",79.12474,668.5759
"2715",79.132065,668.58923
"2716",79.13695,668.60254
"2717",79.13939,668.61584
"2718",79.09056,668.65576
"2719",79.06859,668.66907
"2720",79.05882,668.6824
"2721",79.09544,668.6957
"2722",79.23216,668.709
"2723",79.5227,668.7223
"2724",79.98413,668.7356
"2725",80.57496,668.7489
"2726",81.20485,668.7622
"2727",81.75662,668.7755
"2728",82.125275,668.7888
"2729",82.26444,668.8021
"2730",82.18875,668.8154
"2731",81.9617,668.82874
"2732",81.65896,668.84204
"2733",81.34402,668.85535
"2734",81.05348,668.86865
"2735",80.81911,668.88196
"2736",80.64088,668.89526
"2737",80.51148,668.90857
"2738",80.413826,668.9219
"2739",80.33082,668.9352
"2740",80.25025,668.9485
"2741",80.16235,668.9618
"2742",80.07446,668.9751
"2743",79.99878,668.9884
"2744",79.94751,669.0017
"2745",79.923096,669.015
"2746",79.92554,669.0283
"2747",79.94263,669.0416
"2748",79.957275,669.05493
"2749",79.957275,669.06824
"2750",79.93042,669.08154
"2751",79.87671,669.09485
"2752",79.801025,669.10815
"2753",79.708244,669.12146
"2754",79.61059,669.13477
"2755",79.51049,669.1481
"2756",79.415276,669.1614
"2757",79.327385,669.1747
"2758",79.24437,669.188
"2759",79.17113,669.2013
"2760",79.11253,669.2146
"2761",79.063705,669.2279
"2762",79.029526,669.2412
"2763",79.00511,669.2545
"2764",78.992905,669.2678
"2765",78.98558,669.2811
"2766",78.9807,669.29443
"2767",78.975815,669.30774
"2768",78.97337,669.32104
"2769",78.975815,669.33435
"2770",78.98314,669.34766
"2771",78.992905,669.36096
"2772",79.00267,669.37427
"2773",79.00755,669.3876
"2774",79.00755,669.4009
"2775",79.00023,669.4142
"2776",78.99046,669.4275
"2777",78.975815,669.4408
"2778",78.96117,669.4541
"2779",78.95628,669.4674
"2780",78.992905,669.4807
"2781",79.13451,669.494
"2782",79.43725,669.5073
"2783",79.91821,669.5206
"2784",80.533455,669.53394
"2785",81.18776,669.54724
"2786",81.75662,669.56055
"2787",82.13504,669.57385
"2788",82.269325,669.58716
"2789",82.18631,669.60046
"2790",81.94705,669.6138
"2791",81.62722,669.6271
"2792",81.290306,669.6404
"2793",80.98512,669.6537
"2794",80.73365,669.667
"2795",80.54322,669.6803
"2796",80.40406,669.6936
"2797",80.30152,669.7069
"2798",80.216064,669.7202
"2799",80.13306,669.7335
"2800",80.05005,669.7468
"2801",79.97681,669.76013
"2802",79.91821,669.77344
"2803",79.88159,669.78674
"2804",79.871826,669.80005
"2805",79.87915,669.81335
"2806",79.89624,669.82666
"2807",79.90112,669.83997
"2808",79.886475,669.8533
"2809",79.852295,669.8666
"2810",79.7937,669.8799
"2811",79.71313,669.8932
"2812",79.62768,669.9065
"2813",79.53979,669.9198
"2814",79.4519,669.9331
"2815",79.364006,669.9464
"2816",79.28344,669.9597
"2817",79.21263,669.973
"2818",79.151596,669.9863
"2819",79.10033,669.99963
"2820",79.05882,670.01294
"2821",79.029526,670.02625
"2822",79.00023,670.03955
"2823",78.9807,670.05286
"2824",78.97093,670.06616
"2825",78.96605,670.07947
"2826",78.96361,670.0928
"2827",78.96117,670.1061
"2828",78.958725,670.1194
"2829",78.9514,670.1327
"2830",78.94652,670.146
"2831",78.941635,670.1593
"2832",78.94408,670.1726
"2833",78.94652,670.1859
"2834",78.94896,670.1992
"2835",78.94652,670.2125
"2836",78.941635,670.2258
"2837",78.93431,670.23914
"2838",78.91966,670.25244
"2839",78.90013,670.26575
"2840",78.8806,670.27905
"2841",78.87572,670.29236
"2842",78.93675,670.30566
"2843",79.132065,670.319
"2844",79.50317,670.3323
"2845",80.045166,670.3456
"2846",80.69703,670.3589
"2847",81.339134,670.3722
"2848",81.85184,670.3855
"2849",82.13992,670.3988
"2850",82.18875,670.4121
"2851",82.03494,670.4254
"2852",81.74685,670.4387
"2853",81.39529,670.452
"2854",81.0486,670.46533
"2855",80.740974,670.47864
"2856",80.48707,670.49194
"2857",80.29664,670.50525
"2858",80.15991,670.51855
"2859",80.059814,670.53186
"2860",79.98169,670.54517
"2861",79.91577,670.5585
"2862",79.85962,670.5718
"2863",79.81323,670.5851
"2864",79.77905,670.5984
"2865",79.76929,670.6117
"2866",79.77417,670.625
"2867",79.79126,670.6383
"2868",79.80591,670.6516
"2869",79.818115,670.6649
"2870",79.80835,670.6782
"2871",79.77905,670.6915
"2872",79.72289,670.70483
"2873",79.64721,670.71814
"2874",79.55688,670.73145
"2875",79.45922,670.74475
"2876",79.36645,670.75806
"2877",79.281,670.77136
"2878",79.202866,670.78467
"2879",79.13695,670.798
"2880",79.078354,670.8113
"2881",79.029526,670.8246
"2882",78.98802,670.8379
"2883",78.958725,670.8512
"2884",78.941635,670.8645
"2885",78.93187,670.8778
"2886",78.924545,670.8911
"2887",78.92699,670.9044
"2888",78.93675,670.9177
"2889",78.94652,670.931
"2890",78.9514,670.94434
"2891",78.95384,670.95764
"2892",78.958725,670.97095
"2893",78.96117,670.98425
"2894",78.96117,670.99756
"2895",78.96605,671.01086
"2896",78.96605,671.0242
"2897",78.96361,671.0375
"2898",78.95384,671.0508
"2899",78.94652,671.0641
"2900",78.93675,671.0774
"2901",78.92943,671.0907
"2902",78.91966,671.104
"2903",78.91234,671.1173
"2904",78.93675,671.1306
"2905",79.046616,671.1439
"2906",79.30297,671.1572
"2907",79.73754,671.17053
"2908",80.32838,671.18384
"2909",80.990005,671.19714
"2910",81.600365,671.21045
"2911",82.039825,671.22375
"2912",82.247345,671.23706
"2913",82.21805,671.25037
"2914",82.01053,671.2637
"2915",81.69558,671.277
"2916",81.34402,671.2903
"2917",81.004654,671.3036
"2918",80.70435,671.3169
"2919",80.45777,671.3302
"2920",80.2649,671.3435
"2921",80.11841,671.3568
"2922",80.00366,671.3701
"2923",79.91333,671.3834
"2924",79.84497,671.3967
"2925",79.79614,671.41003
"2926",79.76929,671.42334
"2927",79.766846,671.43665
"2928",79.79614,671.44995
"2929",79.84497,671.46326
"2930",79.89868,671.47656
"2931",79.94263,671.48987
"2932",79.9646,671.5032
"2933",79.94995,671.5165
"2934",79.90845,671.5298
"2935",79.84253,671.5431
"2936",79.75952,671.5564
"2937",79.66918,671.5697
"2938",79.57885,671.583
"2939",79.48852,671.5963
"2940",79.40063,671.6096
"2941",79.3225,671.6229
"2942",79.256584,671.6362
"2943",79.200424,671.64954
"2944",79.16136,671.66284
"2945",79.13451,671.67615
"2946",79.11742,671.68945
"2947",79.10765,671.70276
"2948",79.10277,671.71606
"2949",79.09544,671.7294
"2950",79.093,671.7427
"2951",79.09056,671.756
"2952",79.093,671.7693
"2953",79.09544,671.7826
"2954",79.09544,671.7959
"2955",79.10033,671.8092
"2956",79.10521,671.8225
"2957",79.11009,671.8358
"2958",79.114975,671.8491
"2959",79.1223,671.8624
"2960",79.12474,671.87573
"2961",79.12474,671.88904
"2962",79.1223,671.90234
"2963",79.11742,671.91565
"2964",79.114975,671.92896
"2965",79.10765,671.94226
"2966",79.097885,671.95557
"2967",79.08812,671.9689
"2968",79.078354,671.9822
"2969",79.08568,671.9955
"2970",79.1638,672.0088
"2971",79.37621,672.0221
"2972",79.764404,672.0354
"2973",80.31861,672.0487
"2974",80.972916,672.062
"2975",81.61013,672.0753
"2976",82.10574,672.0886
"2977",82.37675,672.1019
"2978",82.41093,672.11523
"2979",82.247345,672.12854
"2980",81.95438,672.14185
"2981",81.600365,672.15515
"2982",81.24147,672.16846
"2983",80.91432,672.18176
"2984",80.638435,672.19507
"2985",80.41627,672.2084
"2986",80.25025,672.2217
"2987",80.12085,672.235
"2988",80.01587,672.2483
"2989",79.9353,672.2616
"2990",79.87915,672.2749
"2991",79.84985,672.2882
"2992",79.85718,672.3015
"2993",79.89868,672.3148
"2994",79.96216,672.3281
"2995",80.0354,672.34143
"2996",80.096436,672.35474
"2997",80.1355,672.36804
"2998",80.13794,672.38135
"2999",80.10132,672.39465
"3000",80.03052,672.40796
"3001",79.940186,672.42126
"3002",79.835205,672.4346
"3003",79.727776,672.4479
"3004",79.62768,672.4612
"3005",79.537346,672.4745
"3006",79.45434,672.4878
"3007",79.381096,672.5011
"3008",79.32006,672.5144
"3009",79.27123,672.5277
"3010",79.234604,672.541
"3011",79.21263,672.5543
"3012",79.200424,672.5676
"3013",79.1931,672.58093
"3014",79.18822,672.59424
"3015",79.19066,672.60754
"3016",79.1931,672.62085
"3017",79.19554,672.63416
"3018",79.19798,672.64746
"3019",79.200424,672.66077
"3020",79.200424,672.6741
"3021",79.200424,672.6874
"3022",79.202866,672.7007
"3023",79.202866,672.714
"3024",79.200424,672.7273
"3025",79.1931,672.7406
"3026",79.18822,672.7539
"3027",79.17845,672.7672
"3028",79.17357,672.7805
"3029",79.168686,672.7938
"3030",79.168686,672.8071
"3031",79.166245,672.82043
"3032",79.15892,672.83374
"3033",79.15404,672.84705
"3034",79.15404,672.86035
"3035",79.183334,672.87366
"3036",79.290764,672.88696
"3037",79.537346,672.90027
"3038",79.954834,672.9136
"3039",80.51881,672.9269
"3040",81.15358,672.9402
"3041",81.74685,672.9535
"3042",82.18387,672.9668
"3043",82.388954,672.9801
"3044",82.3621,672.9934
"3045",82.15701,673.0067
"3046",81.83963,673.02
"3047",81.47585,673.0333
"3048",81.112076,673.04663
"3049",80.78493,673.05994
"3050",80.499275,673.07324
"3051",80.26002,673.08655
"3052",80.07446,673.09985
"3053",79.9353,673.11316
"3054",79.83276,673.12646
"3055",79.76929,673.1398
"3056",79.73998,673.1531
"3057",79.744865,673.1664
"3058",79.78638,673.1797
"3059",79.85962,673.193
"3060",79.954834,673.2063
"3061",80.05493,673.2196
"3062",80.13306,673.2329
"3063",80.17456,673.2462
"3064",80.16968,673.2595
"3065",80.12085,673.2728
"3066",80.03296,673.28613
"3067",79.923096,673.29944
"3068",79.798584,673.31274
"3069",79.674065,673.32605
"3070",79.55688,673.33936
"3071",79.447014,673.35266
"3072",79.35424,673.36597
"3073",79.28344,673.3793
"3074",79.22484,673.3926
"3075",79.18089,673.4059
"3076",79.14427,673.4192
"3077",79.11742,673.4325
"3078",79.093,673.4458
"3079",79.078354,673.4591
"3080",79.07103,673.4724
"3081",79.07103,673.4857
"3082",79.07347,673.499
"3083",79.078354,673.5123
"3084",79.08812,673.52563
"3085",79.097885,673.53894
"3086",79.10521,673.55225
"3087",79.114975,673.56555
"3088",79.1223,673.57886
"3089",79.12474,673.59216
"3090",79.12718,673.60547
"3091",79.12474,673.6188
"3092",79.1223,673.6321
"3093",79.114975,673.6454
"3094",79.11009,673.6587
"3095",79.10033,673.672
"3096",79.09544,673.6853
"3097",79.10765,673.6986
"3098",79.19066,673.7119
"3099",79.38842,673.7252
"3100",79.742424,673.7385
"3101",80.23804,673.75183
"3102",80.81178,673.76514
"3103",81.36111,673.77844
"3104",81.77615,673.79175
"3105",81.986115,673.80505
"3106",81.98123,673.81836
"3107",81.80057,673.83167
"3108",81.50271,673.845
"3109",81.1487,673.8583
"3110",80.79225,673.8716
"3111",80.462654,673.8849
"3112",80.177,673.8982
"3113",79.940186,673.9115
"3114",79.7522,673.9248
"3115",79.61059,673.9381
"3116",79.51049,673.9514
"3117",79.45434,673.9647
"3118",79.44213,673.978
"3119",79.47875,673.99133
"3120",79.55688,674.00464
"3121",79.66674,674.01794
"3122",79.78882,674.03125
"3123",79.90112,674.04456
"3124",79.98169,674.05786
"3125",80.02075,674.07117
"3126",80.01831,674.0845
"3127",79.97681,674.0978
"3128",79.906006,674.1111
"3129",79.818115,674.1244
"3130",79.72289,674.1377
"3131",79.62524,674.151
"3132",79.53246,674.1643
"3133",79.44213,674.1776
"3134",79.35912,674.1909
"3135",79.28832,674.2042
"3136",79.23216,674.2175
"3137",79.19066,674.23083
"3138",79.166245,674.24414
"3139",79.149155,674.25745
"3140",79.14427,674.27075
"3141",79.14427,674.28406
"3142",79.14671,674.29736
"3143",79.15404,674.31067
"3144",79.166245,674.324
"3145",79.17845,674.3373
"3146",79.18822,674.3506
"3147",79.200424,674.3639
"3148",79.21507,674.3772
"3149",79.22972,674.3905
"3150",79.24437,674.4038
"3151",79.2517,674.4171
"3152",79.25414,674.4304
"3153",79.24681,674.4437
"3154",79.23216,674.45703
"3155",79.217514,674.47034
"3156",79.22484,674.48364
"3157",79.29809,674.49695
"3158",79.4934,674.51025
"3159",79.84253,674.52356
"3160",80.33814,674.53687
"3161",80.921646,674.5502
"3162",81.495384,674.5635
"3163",81.95682,674.5768
"3164",82.230255,674.5901
"3165",82.2913,674.6034
"3166",82.1741,674.6167
"3167",81.92996,674.63
"3168",81.61257,674.6433
"3169",81.27566,674.6566
"3170",80.95827,674.6699
"3171",80.67994,674.6832
"3172",80.45045,674.69653
"3173",80.26246,674.70984
"3174",80.113525,674.72314
"3175",79.99878,674.73645
"3176",79.91333,674.74976
"3177",79.8645,674.76306
"3178",79.8645,674.77637
"3179",79.91089,674.7897
"3180",79.991455,674.803
"3181",80.09155,674.8163
"3182",80.19165,674.8296
"3183",80.2649,674.8429
"3184",80.29908,674.8562
"3185",80.28443,674.8695
"3186",80.22827,674.8828
"3187",80.14282,674.8961
"3188",80.042725,674.9094
"3189",79.93286,674.9227
"3190",79.82788,674.93604
"3191",79.727776,674.94934
"3192",79.63256,674.96265
"3193",79.54223,674.97595
"3194",79.4641,674.98926
"3195",79.395744,675.00256
"3196",79.33471,675.01587
"3197",79.28588,675.0292
"3198",79.24437,675.0425
"3199",79.21507,675.0558
"3200",79.19554,675.0691
"3201",79.18822,675.0824
"3202",79.19066,675.0957
"3203",79.19798,675.109
"3204",79.20775,675.1223
"3205",79.22484,675.1356
"3206",79.237045,675.1489
"3207",79.24925,675.16223
"3208",79.25414,675.17554
"3209",79.24925,675.18884
"3210",79.237045,675.20215
"3211",79.217514,675.21545
"3212",79.19798,675.22876
"3213",79.19798,675.24207
"3214",79.25414,675.2554
"3215",79.42504,675.2687
"3216",79.74731,675.282
"3217",80.22339,675.2953
"3218",80.81178,675.3086
"3219",81.41726,675.3219
"3220",81.9324,675.3352
"3221",82.266884,675.3485
"3222",82.39384,675.3618
"3223",82.3328,675.3751
"3224",82.1326,675.3884
"3225",81.85184,675.40173
"3226",81.549095,675.41504
"3227",81.25857,675.42834
"3228",81.004654,675.44165
"3229",80.797134,675.45496
"3230",80.638435,675.46826
"3231",80.51881,675.48157
"3232",80.42603,675.4949
"3233",80.35279,675.5082
"3234",80.29908,675.5215
"3235",80.26734,675.5348
"3236",80.26978,675.5481
"3237",80.29664,675.5614
"3238",80.34058,675.5747
"3239",80.38697,675.588
"3240",80.42115,675.6013
"3241",80.428474,675.6146
"3242",80.40162,675.6279
"3243",80.34791,675.64124
"3244",80.272224,675.65454
"3245",80.17456,675.66785
"3246",80.06714,675.68115
"3247",79.954834,675.69446
"3248",79.84497,675.70776
"3249",79.73998,675.72107
"3250",79.639885,675.7344
"3251",79.551994,675.7477
"3252",79.46899,675.761
"3253",79.40063,675.7743
"3254",79.34692,675.7876
"3255",79.30297,675.8009
"3256",79.27123,675.8142
"3257",79.24925,675.8275
"3258",79.237045,675.8408
"3259",79.22728,675.8541
"3260",79.22484,675.86743
"3261",79.22972,675.88074
"3262",79.237045,675.89404
"3263",79.24681,675.90735
"3264",79.25414,675.92065
"3265",79.25414,675.93396
"3266",79.24437,675.94727
"3267",79.22484,675.9606
"3268",79.19554,675.9739
"3269",79.1638,675.9872
"3270",79.14427,676.0005
"3271",79.17601,676.0138
"3272",79.3225,676.0271
"3273",79.63256,676.0404
"3274",80.111084,676.0537
"3275",80.719,676.067
"3276",81.36111,676.0803
"3277",81.9202,676.0936
"3278",82.30839,676.10693
"3279",82.476845,676.12024
"3280",82.44755,676.13354
"3281",82.27421,676.14685
"3282",82.01785,676.16016
"3283",81.7322,676.17346
"3284",81.463646,676.18677
"3285",81.23659,676.2001
"3286",81.06325,676.2134
"3287",80.94362,676.2267
"3288",80.85329,676.24
"3289",80.77516,676.2533
"3290",80.69459,676.2666
"3291",80.61158,676.2799
"3292",80.5359,676.2932
"3293",80.48707,676.3065
"3294",80.46998,676.3198
"3295",80.48463,676.3331
"3296",80.51148,676.34644
"3297",80.52857,676.35974
"3298",80.52613,676.37305
"3299",80.49683,676.38635
"3300",80.43824,676.39966
"3301",80.360115,676.41296
"3302",80.26246,676.4263
"3303",80.15015,676.4396
"3304",80.028076,676.4529
"3305",79.906006,676.4662
"3306",79.79126,676.4795
"3307",79.68627,676.4928
"3308",79.59838,676.5061
"3309",79.520256,676.5194
"3310",79.449455,676.5327
"3311",79.38354,676.546
"3312",79.32494,676.5593
"3313",79.27123,676.57263
"3314",79.23216,676.58594
"3315",79.200424,676.59924
"3316",79.183334,676.61255
"3317",79.17601,676.62585
"3318",79.18089,676.63916
"3319",79.18822,676.65247
"3320",79.19554,676.6658
"3321",79.19554,676.6791
"3322",79.183334,676.6924
"3323",79.16136,676.7057
"3324",79.12474,676.719
"3325",79.08568,676.7323
"3326",79.03685,676.7456
"3327",79.00023,676.7589
"3328",79.00023,676.7722
"3329",79.10033,676.7855
"3330",79.3518,676.7988
"3331",79.77905,676.81213
"3332",80.360115,676.82544
"3333",81.01686,676.83875
"3334",81.64187,676.85205
"3335",82.12283,676.86536
"3336",82.40116,676.87866
"3337",82.47196,676.89197
"3338",82.37675,676.9053
"3339",82.16434,676.9186
"3340",81.90555,676.9319
"3341",81.651634,676.9452
"3342",81.43191,676.9585
"3343",81.26345,676.9718
"3344",81.13893,676.9851
"3345",81.0486,676.9984
"3346",80.96315,677.0117
"3347",80.87282,677.025
"3348",80.77516,677.0383
"3349",80.68482,677.05164
"3350",80.61402,677.06494
"3351",80.570076,677.07825
"3352",80.55543,677.09155
"3353",80.56275,677.10486
"3354",80.5774,677.11816
"3355",80.5774,677.1315
"3356",80.56031,677.1448
"3357",80.51392,677.1581
"3358",80.430916,677.1714
"3359",80.32105,677.1847
"3360",80.19409,677.198
"3361",80.062256,677.2113
"3362",79.937744,677.2246
"3363",79.82544,677.2379
"3364",79.72045,677.2512
"3365",79.62524,677.2645
"3366",79.537346,677.27783
"3367",79.45922,677.29114
"3368",79.38842,677.30444
"3369",79.32494,677.31775
"3370",79.276115,677.33105
"3371",79.234604,677.34436
"3372",79.202866,677.35767
"3373",79.18089,677.371
"3374",79.168686,677.3843
"3375",79.15892,677.3976
"3376",79.151596,677.4109
"3377",79.14183,677.4242
"3378",79.12718,677.4375
"3379",79.10765,677.4508
"3380",79.08324,677.4641
"3381",79.05394,677.4774
"3382",79.0222,677.4907
"3383",78.98802,677.504
"3384",78.94896,677.51733
"3385",78.907455,677.53064
"3386",78.873276,677.54395
"3387",78.87572,677.55725
"3388",78.96361,677.57056
"3389",79.200424,677.58386
"3390",79.62035,677.59717
"3391",80.201416,677.6105
"3392",80.88258,677.6238
"3393",81.55154,677.6371
"3394",82.09354,677.6504
"3395",82.43778,677.6637
"3396",82.56718,677.677
"3397",82.511024,677.6903
"3398",82.32792,677.7036
"3399",82.08133,677.7169
"3400",81.82498,677.7302
"3401",81.600365,677.7435
"3402",81.4197,677.75684
"3403",81.290306,677.77014
"3404",81.197525,677.78345
"3405",81.11452,677.79675
"3406",81.03151,677.81006
"3407",80.94118,677.82336
"3408",80.850845,677.8367
"3409",80.77272,677.85
"3410",80.72144,677.8633
"3411",80.69459,677.8766
"3412",80.69215,677.8899
"3413",80.69459,677.9032
"3414",80.68726,677.9165
"3415",80.65797,677.9298
"3416",80.604256,677.9431
"3417",80.516365,677.9564
"3418",80.4065,677.9697
"3419",80.27711,677.98303
"3420",80.14282,677.99634
"3421",80.01099,678.00964
"3422",79.886475,678.02295
"3423",79.76929,678.03625
"3424",79.66186,678.04956
"3425",79.56664,678.06287
"3426",79.47387,678.0762
"3427",79.3933,678.0895
"3428",79.32494,678.1028
"3429",79.26879,678.1161
"3430",79.22728,678.1294
"3431",79.1931,678.1427
"3432",79.16136,678.156
"3433",79.132065,678.1693
"3434",79.10277,678.1826
"3435",79.07591,678.1959
"3436",79.05394,678.2092
"3437",79.03441,678.22253
"3438",79.01488,678.23584
"3439",78.98802,678.24915
"3440",78.958725,678.26245
"3441",78.92699,678.27576
"3442",78.890366,678.28906
"3443",78.84886,678.30237
"3444",78.802475,678.3157
"3445",78.75609,678.329
"3446",78.73411,678.3423
"3447",78.79027,678.3556
"3448",78.98558,678.3689
"3449",79.361565,678.3822
"3450",79.906006,678.3955
"3451",80.56031,678.4088
"3452",81.2195,678.4221
"3453",81.76883,678.4354
"3454",82.13016,678.4487
"3455",82.27909,678.46204
"3456",82.24002,678.47534
"3457",82.074005,678.48865
"3458",81.84207,678.50195
"3459",81.59792,678.51526
"3460",81.375755,678.52856
"3461",81.19997,678.5419
"3462",81.06325,678.5552
"3463",80.955826,678.5685
"3464",80.85573,678.5818
"3465",80.75075,678.5951
"3466",80.638435,678.6084
"3467",80.52613,678.6217
"3468",80.430916,678.635
"3469",80.36744,678.6483
"3470",80.343025,678.6616
"3471",80.343025,678.6749
"3472",80.35523,678.68823
"3473",80.35523,678.70154
"3474",80.33326,678.71484
"3475",80.27711,678.72815
"3476",80.184326,678.74146
"3477",80.06714,678.75476
"3478",79.93286,678.76807
"3479",79.79614,678.7814
"3480",79.66186,678.7947
"3481",79.54223,678.808
"3482",79.432365,678.8213
"3483",79.33959,678.8346
"3484",79.256584,678.8479
"3485",79.185776,678.8612
"3486",79.11742,678.8745
"3487",79.05394,678.8878
"3488",79.00023,678.9011
"3489",78.9514,678.9144
"3490",78.9099,678.92773
"3491",78.87572,678.94104
"3492",78.8513,678.95435
"3493",78.83177,678.96765
"3494",78.81224,678.98096
"3495",78.79271,678.99426
"3496",78.77318,679.00757
"3497",78.751205,679.0209
"3498",78.72434,679.0342
"3499",78.692604,679.0475
"3500",78.65354,679.0608
"3501",78.607155,679.0741
"3502",78.55833,679.0874
"3503",78.5095,679.1007
"3504",78.4802,679.114
"3505",78.51682,679.1273
"3506",78.675514,679.1406
"3507",78.99779,679.15393
"3508",79.48608,679.16724
"3509",80.08667,679.18054
"3510",80.709236,679.19385
"3511",81.24391,679.20715
"3512",81.602806,679.22046
"3513",81.75418,679.23376
"3514",81.71267,679.2471
"3515",81.53933,679.2604
"3516",81.29275,679.2737
"3517",81.02174,679.287
"3518",80.77516,679.3003
"3519",80.57496,679.3136
"3520",80.42115,679.3269
"3521",80.29664,679.3402
"3522",80.19409,679.3535
"3523",80.09888,679.3668
"3524",80.01343,679.3801
"3525",79.94263,679.39343
"3526",79.89624,679.40674
"3527",79.8938,679.42004
"3528",79.920654,679.43335
"3529",79.96704,679.44666
"3530",80.01831,679.45996
"3531",80.05249,679.47327
"3532",80.062256,679.4866
"3533",80.0354,679.4999
"3534",79.974365,679.5132
"3535",79.886475,679.5265
"3536",79.77905,679.5398
"3537",79.65942,679.5531
"3538",79.534904,679.5664
"3539",79.41772,679.5797
"3540",79.31518,679.593
"3541",79.2224,679.6063
"3542",79.149155,679.6196
"3543",79.093,679.63293
"3544",79.05394,679.64624
"3545",79.02464,679.65955
"3546",79.00511,679.67285
"3547",78.992905,679.68616
"3548",78.98802,679.69946
"3549",78.9807,679.71277
"3550",78.97337,679.7261
"3551",78.96361,679.7394
"3552",78.95384,679.7527
"3553",78.941635,679.766
"3554",78.92699,679.7793
"3555",78.91478,679.7926
"3556",78.91722,679.8059
"3557",78.96849,679.8192
"3558",79.11986,679.8325
"3559",79.40795,679.8458
"3560",79.84253,679.85913
"3561",80.38209,679.87244
"3562",80.95094,679.88574
"3563",81.444115,679.89905
"3564",81.778595,679.91235
"3565",81.9202,679.92566
"3566",81.87625,679.93896
"3567",81.69558,679.9523
"3568",81.43435,679.9656
"3569",81.1487,679.9789
"3570",80.8777,679.9922
"3571",80.64576,680.0055
"3572",80.45289,680.0188
"3573",80.2942,680.0321
"3574",80.16235,680.0454
"3575",80.05249,680.0587
"3576",79.96704,680.072
"3577",79.920654,680.0853
"3578",79.91577,680.09863
"3579",79.954834,680.11194
"3580",80.02319,680.12524
"3581",80.10864,680.13855
"3582",80.184326,680.15186
"3583",80.22827,680.16516
"3584",80.233154,680.17847
"3585",80.19653,680.1918
"3586",80.12329,680.2051
"3587",80.02075,680.2184
"3588",79.903564,680.2317
"3589",79.77905,680.245
"3590",79.656975,680.2583
"3591",79.53979,680.2716
"3592",79.429924,680.2849
"3593",79.34203,680.2982
"3594",79.273674,680.3115
"3595",79.22484,680.3248
"3596",79.19554,680.33813
"3597",79.17845,680.35144
"3598",79.1638,680.36475
"3599",79.151596,680.37805
"3600",79.14183,680.39136
"3601",79.132065,680.40466
"3602",79.1223,680.41797
"3603",79.114975,680.4313
"3604",79.11253,680.4446
"3605",79.12962,680.4579
"3606",79.19554,680.4712
"3607",79.364006,680.4845
"3608",79.66918,680.4978
"3609",80.11597,680.5111
"3610",80.65797,680.5244
"3611",81.22194,680.5377
"3612",81.69558,680.551
"3613",82.00076,680.56433
"3614",82.10574,680.57764
"3615",82.03006,680.59094
"3616",81.82254,680.60425
"3617",81.54177,680.61755
"3618",81.24635,680.63086
"3619",80.970474,680.64417
"3620",80.723885,680.6575
"3621",80.51881,680.6708
"3622",80.34791,680.6841
"3623",80.20874,680.6974
"3624",80.096436,680.7107
"3625",80.02075,680.724
"3626",79.98413,680.7373
"3627",79.99878,680.7506
"3628",80.06714,680.7639
"3629",80.17212,680.7772
"3630",80.29664,680.7905
"3631",80.40894,680.80383
"3632",80.482185,680.81714
"3633",80.50172,680.83044
"3634",80.46754,680.84375
"3635",80.38453,680.85706
"3636",80.26734,680.87036
"3637",80.1355,680.88367
"3638",80.00122,680.897
"3639",79.87671,680.9103
"3640",79.76929,680.9236
"3641",79.67895,680.9369
"3642",79.603264,680.9502
"3643",79.54223,680.9635
"3644",79.49096,680.9768
"3645",79.45434,680.9901
"3646",79.429924,681.0034
"3647",79.415276,681.0167
"3648",79.40063,681.03
"3649",79.39086,681.04333
"3650",79.37621,681.05664
"3651",79.35912,681.06995
"3652",79.35668,681.08325
"3653",79.38598,681.09656
"3654",79.49096,681.10986
"3655",79.71801,681.12317
"3656",80.093994,681.1365
"3657",80.604256,681.1498
"3658",81.18776,681.1631
"3659",81.75174,681.1764
"3660",82.18875,681.1897
"3661",82.43534,681.203
"3662",82.476845,681.2163
"3663",82.34257,681.2296
"3664",82.08865,681.2429
"3665",81.78104,681.2562
"3666",81.46609,681.26953
"3667",81.17555,681.28284
"3668",80.92653,681.29614
"3669",80.723885,681.30945
"3670",80.56031,681.32275
"3671",80.428474,681.33606
"3672",80.32105,681.34937
"3673",80.2478,681.3627
"3674",80.20874,681.376
"3675",80.20874,681.3893
"3676",80.25025,681.4026
"3677",80.32105,681.4159
"3678",80.40406,681.4292
"3679",80.4773,681.4425
"3680",80.52125,681.4558
"3681",80.51881,681.4691
"3682",80.46998,681.4824
"3683",80.37476,681.4957
"3684",80.25025,681.50903
"3685",80.111084,681.52234
"3686",79.971924,681.53564
"3687",79.84497,681.54895
"3688",79.73022,681.56226
"3689",79.62524,681.57556
"3690",79.537346,681.58887
"3691",79.46166,681.6022
"3692",79.40063,681.6155
"3693",79.34936,681.6288
"3694",79.31518,681.6421
"3695",79.28588,681.6554
"3696",79.26635,681.6687
"3697",79.24193,681.682
"3698",79.219955,681.6953
"3699",79.19798,681.7086
"3700",79.185776,681.7219
"3701",79.217514,681.7352
"3702",79.34692,681.74854
"3703",79.622795,681.76184
"3704",80.0647,681.77515
"3705",80.64332,681.78845
"3706",81.28054,681.80176
"3707",81.8616,681.81506
"3708",82.28397,681.82837
"3709",82.48905,681.8417
"3710",82.476845,681.855
"3711",82.2913,681.8683
"3712",82.00076,681.8816
"3713",81.668724,681.8949
"3714",81.341576,681.9082
"3715",81.05592,681.9215
"3716",80.82155,681.9348
"3717",80.64332,681.9481
"3718",80.5066,681.9614
"3719",80.394295,681.97473
"3720",80.29664,681.98804
"3721",80.21118,682.00134
"3722",80.147705,682.01465
"3723",80.113525,682.02795
"3724",80.113525,682.04126
"3725",80.15015,682.05457
"3726",80.20386,682.0679
"3727",80.25269,682.0812
"3728",80.27955,682.0945
"3729",80.272224,682.1078
"3730",80.218506,682.1211
"3731",80.130615,682.1344
"3732",80.01831,682.1477
"3733",79.888916,682.161
"3734",79.76196,682.1743
"3735",79.64477,682.1876
"3736",79.534904,682.2009
"3737",79.43969,682.21423
"3738",79.35668,682.22754
"3739",79.28588,682.24084
"3740",79.2224,682.25415
"3741",79.17601,682.26746
"3742",79.13939,682.28076
"3743",79.114975,682.29407
"3744",79.097885,682.3074
"3745",79.080795,682.3207
"3746",79.063705,682.334
"3747",79.046616,682.3473
"3748",79.03929,682.3606
"3749",79.07591,682.3739
"3750",79.20775,682.3872
"3751",79.483635,682.4005
"3752",79.93286,682.4138
"3753",80.52613,682.4271
"3754",81.180435,682.4404
"3755",81.78836,682.45374
"3756",82.2449,682.46704
"3757",82.48173,682.48035
"3758",82.496376,682.49365
"3759",82.3328,682.50696
"3760",82.05936,682.52026
"3761",81.74197,682.53357
"3762",81.43435,682.5469
"3763",81.16823,682.5602
"3764",80.95827,682.5735
"3765",80.797134,682.5868
"3766",80.66529,682.6001
"3767",80.55787,682.6134
"3768",80.45777,682.6267
"3769",80.360115,682.64
"3770",80.272224,682.6533
"3771",80.20386,682.6666
"3772",80.15991,682.67993
"3773",80.14526,682.69324
"3774",80.15259,682.70654
"3775",80.16724,682.71985
"3776",80.17456,682.73315
"3777",80.164795,682.74646
"3778",80.128174,682.75977
"3779",80.05737,682.7731
"3780",79.96216,682.7864
"3781",79.85474,682.7997
"3782",79.73754,682.813
"3783",79.61547,682.8263
"3784",79.49828,682.8396
"3785",79.38598,682.8529
"3786",79.28344,682.8662
"3787",79.19066,682.8795
"3788",79.11742,682.8928
"3789",79.05882,682.9061
"3790",79.01976,682.91943
"3791",78.995346,682.93274
"3792",78.97826,682.94604
"3793",78.96361,682.95935
"3794",78.94652,682.97266
"3795",78.924545,682.98596
"3796",78.90257,682.99927
"3797",78.87816,683.0126
"3798",78.86107,683.0259
"3799",78.887924,683.0392
"3800",79.0222,683.0525
"3801",79.31762,683.0658
"3802",79.7937,683.0791
"3803",80.41627,683.0924
"3804",81.09743,683.1057
"3805",81.71511,683.119
"3806",82.159454,683.1323
"3807",82.371864,683.1456
"3808",82.36454,683.15894
"3809",82.18387,683.17224
"3810",81.898224,683.18555
"3811",81.57351,683.19885
"3812",81.26345,683.21216
"3813",80.99489,683.22546
"3814",80.782486,683.2388
"3815",80.618904,683.2521
"3816",80.48951,683.2654
"3817",80.37965,683.2787
"3818",80.26978,683.292
"3819",80.15503,683.3053
"3820",80.042725,683.3186
"3821",79.94751,683.3319
"3822",79.88159,683.3452
"3823",79.84985,683.3585
"3824",79.84985,683.3718
"3825",79.8645,683.38513
"3826",79.87671,683.39844
"3827",79.871826,683.41174
"3828",79.835205,683.42505
"3829",79.77417,683.43835
"3830",79.68871,683.45166
"3831",79.586174,683.46497
"3832",79.47387,683.4783
"3833",79.361565,683.4916
"3834",79.24681,683.5049
"3835",79.14183,683.5182
"3836",79.044174,683.5315
"3837",78.95628,683.5448
"3838",78.88304,683.5581
"3839",78.82201,683.5714
"3840",78.77318,683.5847
"3841",78.74143,683.598
"3842",78.7219,683.6113
"3843",78.712135,683.62463
"3844",78.709694,683.63794
"3845",78.70725,683.65125
"3846",78.69993,683.66455
"3847",78.68528,683.67786
"3848",78.66819,683.69116
"3849",78.64866,683.70447
"3850",78.62913,683.7178
"3851",78.63401,683.7311
"3852",78.69993,683.7444
"3853",78.887924,683.7577
"3854",79.24193,683.771
"3855",79.77173,683.7843
"3856",80.42603,683.7976
"3857",81.09743,683.8109
"3858",81.6614,683.8242
"3859",82.020294,683.8375
"3860",82.13504,683.8508
"3861",82.03494,683.86414
"3862",81.78348,683.87744
"3863",81.45876,683.89075
"3864",81.1194,683.90405
"3865",80.814224,683.91736
"3866",80.56519,683.93066
"3867",80.37232,683.944
"3868",80.233154,683.9573
"3869",80.12329,683.9706
"3870",80.02075,683.9839
"3871",79.91577,683.9972
"3872",79.81079,684.0105
"3873",79.71557,684.0238
"3874",79.64965,684.0371
"3875",79.61547,684.0504
"3876",79.61791,684.0637
"3877",79.64233,684.077
"3878",79.674065,684.09033
"3879",79.693596,684.10364
"3880",79.691154,684.11694
"3881",79.65453,684.13025
"3882",79.586174,684.14355
"3883",79.49584,684.15686
"3884",79.38842,684.17017
"3885",79.281,684.1835
"3886",79.17601,684.1968
"3887",79.07591,684.2101
"3888",78.9807,684.2234
"3889",78.89769,684.2367
"3890",78.82689,684.25
"3891",78.76341,684.2633
"3892",78.71458,684.2766
"3893",78.68284,684.2899
"3894",78.66331,684.3032
"3895",78.65354,684.3165
"3896",78.65354,684.32983
"3897",78.65598,684.34314
"3898",78.66331,684.35645
"3899",78.67307,684.36975
"3900",78.6804,684.38306
"3901",78.68528,684.39636
"3902",78.69016,684.40967
"3903",78.69016,684.423
"3904",78.68772,684.4363
"3905",78.6804,684.4496
"3906",78.67063,684.4629
"3907",78.67063,684.4762
"3908",78.72434,684.4895
"3909",78.89525,684.5028
"3910",79.23949,684.5161
"3911",79.766846,684.5294
"3912",80.428474,684.5427
"3913",81.1194,684.556
"3914",81.71267,684.56934
"3915",82.09598,684.58264
"3916",82.230255,684.59595
"3917",82.142365,684.60925
"3918",81.8909,684.62256
"3919",81.55398,684.63586
"3920",81.19508,684.6492
"3921",80.85817,684.6625
"3922",80.570076,684.6758
"3923",80.33814,684.6891
"3924",80.15503,684.7024
"3925",80.01587,684.7157
"3926",79.903564,684.729
"3927",79.80591,684.7423
"3928",79.725334,684.7556
"3929",79.66674,684.7689
"3930",79.64233,684.7822
"3931",79.65209,684.79553
"3932",79.691154,684.80884
"3933",79.742424,684.82214
"3934",79.78882,684.83545
"3935",79.815674,684.84875
"3936",79.80835,684.86206
"3937",79.77173,684.87537
"3938",79.710686,684.8887
"3939",79.63012,684.902
"3940",79.537346,684.9153
"3941",79.43725,684.9286
"3942",79.33715,684.9419
"3943",79.24193,684.9552
"3944",79.15648,684.9685
"3945",79.08324,684.9818
"3946",79.02464,684.9951
"3947",78.975815,685.0084
"3948",78.93675,685.0217
"3949",78.907455,685.03503
"3950",78.88548,685.04834
"3951",78.870834,685.06165
"3952",78.86351,685.07495
"3953",78.86839,685.08826
"3954",78.87816,685.10156
"3955",78.89525,685.11487
"3956",78.91478,685.1282
"3957",78.93675,685.1415
"3958",78.95384,685.1548
"3959",78.97093,685.1681
"3960",78.98314,685.1814
"3961",78.99046,685.1947
"3962",78.99046,685.208
"3963",78.98558,685.2213
"3964",78.97337,685.2346
"3965",78.96361,685.2479
"3966",78.98314,685.2612
"3967",79.08812,685.27454
"3968",79.33959,685.28784
"3969",79.77905,685.30115
"3970",80.38697,685.31445
"3971",81.08522,685.32776
"3972",81.75174,685.34106
"3973",82.262,685.3544
"3974",82.528114,685.3677
"3975",82.545204,685.381
"3976",82.3621,685.3943
"3977",82.05203,685.4076
"3978",81.688255,685.4209
"3979",81.322044,685.4342
"3980",80.990005,685.4475
"3981",80.706795,685.4608
"3982",80.482185,685.4741
"3983",80.308846,685.4874
"3984",80.177,685.50073
"3985",80.076904,685.51404
"3986",79.9939,685.52734
"3987",79.92798,685.54065
"3988",79.88403,685.55396
"3989",79.86694,685.56726
"3990",79.87915,685.58057
"3991",79.91577,685.5939
"3992",79.96216,685.6072
"3993",80.00122,685.6205
"3994",80.02075,685.6338
"3995",80.01099,685.6471
"3996",79.971924,685.6604
"3997",79.903564,685.6737
"3998",79.818115,685.687
"3999",79.72289,685.7003
"4000",79.62524,685.7136
"4001",79.53002,685.7269
"4002",79.44213,685.74023
"4003",79.361565,685.75354
"4004",79.293205,685.76685
"4005",79.234604,685.78015
"4006",79.19066,685.79346
"4007",79.15648,685.80676
"4008",79.13451,685.82007
"4009",79.11986,685.8334
"4010",79.11742,685.8467
"4011",79.11986,685.86
"4012",79.12718,685.8733
"4013",79.13695,685.8866
"4014",79.149155,685.8999
"4015",79.15892,685.9132
"4016",79.168686,685.9265
"4017",79.18089,685.9398
"4018",79.19554,685.9531
"4019",79.21263,685.96643
"4020",79.23216,685.97974
"4021",79.24437,685.99304
"4022",79.24681,686.00635
"4023",79.24193,686.01965
"4024",79.22972,686.03296
"4025",79.217514,686.04626
"4026",79.21507,686.0596
"4027",79.26391,686.0729
"4028",79.42504,686.0862
"4029",79.75464,686.0995
"4030",80.26978,686.1128
"4031",80.92897,686.1261
"4032",81.62966,686.1394
"4033",82.24002,686.1527
"4034",82.64774,686.166
"4035",82.80156,686.1793
"4036",82.72587,686.1926
"4037",82.47929,686.20593
"4038",82.1326,686.21924
"4039",81.75418,686.23254
"4040",81.38552,686.24585
"4041",81.05592,686.25916
"4042",80.780045,686.27246
"4043",80.55787,686.28577
"4044",80.38453,686.2991
"4045",80.25269,686.3124
"4046",80.15015,686.3257
"4047",80.07446,686.339
"4048",80.028076,686.3523
"4049",80.01099,686.3656
"4050",80.028076,686.3789
"4051",80.07202,686.3922
"4052",80.130615,686.4055
"4053",80.184326,686.4188
"4054",80.218506,686.4321
"4055",80.218506,686.44543
"4056",80.18921,686.45874
"4057",80.13306,686.47205
"4058",80.05493,686.48535
"4059",79.9646,686.49866
"4060",79.869385,686.51196
"4061",79.76929,686.52527
"4062",79.66918,686.5386
"4063",79.571526,686.5519
"4064",79.48119,686.5652
"4065",79.40795,686.5785
"4066",79.34936,686.5918
"4067",79.30785,686.6051
"4068",79.27856,686.6184
"4069",79.26147,686.6317
"4070",79.2517,686.645
"4071",79.24681,686.6583
"4072",79.24681,686.67163
"4073",79.2517,686.68494
"4074",79.26635,686.69824
"4075",79.28344,686.71155
"4076",79.30297,686.72485
"4077",79.32006,686.73816
"4078",79.33227,686.75146
"4079",79.33715,686.7648
"4080",79.33959,686.7781
"4081",79.33959,686.7914
"4082",79.34203,686.8047
"4083",79.34203,686.818
"4084",79.33959,686.8313
"4085",79.33227,686.8446
"4086",79.3225,686.8579
"4087",79.310295,686.8712
"4088",79.31274,686.8845
"4089",79.37133,686.8978
"4090",79.54711,686.91113
"4091",79.89868,686.92444
"4092",80.4358,686.93774
"4093",81.10475,686.95105
"4094",81.79324,686.96436
"4095",82.374306,686.97766
"4096",82.738075,686.99097
"4097",82.84062,687.0043
"4098",82.7161,687.0176
"4099",82.42802,687.0309
"4100",82.054474,687.0442
"4101",81.65652,687.0575
"4102",81.28298,687.0708
"4103",80.955826,687.0841
"4104",80.68238,687.0974
"4105",80.462654,687.1107
"4106",80.289314,687.124
"4107",80.15259,687.1373
"4108",80.05249,687.15063
"4109",79.98657,687.16394
"4110",79.957275,687.17725
"4111",79.96948,687.19055
"4112",80.02075,687.20386
"4113",80.09155,687.21716
"4114",80.17212,687.23047
"4115",80.24292,687.2438
"4116",80.28443,687.2571
"4117",80.28687,687.2704
"4118",80.25025,687.2837
"4119",80.177,687.297
"4120",80.076904,687.3103
"4121",79.96216,687.3236
"4122",79.84497,687.3369
"4123",79.73266,687.3502
"4124",79.63012,687.3635
"4125",79.54467,687.37683
"4126",79.47143,687.39014
"4127",79.41039,687.40344
"4128",79.364006,687.41675
"4129",79.32494,687.43005
"4130",79.293205,687.44336
"4131",79.26635,687.45667
"4132",79.24437,687.47
"4133",79.23216,687.4833
"4134",79.22728,687.4966
"4135",79.23216,687.5099
"4136",79.24437,687.5232
"4137",79.26391,687.5365
"4138",79.27856,687.5498
"4139",79.29565,687.5631
"4140",79.30541,687.5764
"4141",79.310295,687.5897
"4142",79.30541,687.603
"4143",79.30053,687.61633
"4144",79.293205,687.62964
"4145",79.28588,687.64294
"4146",79.276115,687.65625
"4147",79.26635,687.66956
"4148",79.25414,687.68286
"4149",79.26391,687.69617
"4150",79.33959,687.7095
"4151",79.54955,687.7228
"4152",79.937744,687.7361
"4153",80.50172,687.7494
"4154",81.16823,687.7627
"4155",81.815216,687.776
"4156",82.31327,687.7893
"4157",82.58427,687.8026
"4158",82.60136,687.8159
"4159",82.41093,687.8292
"4160",82.08621,687.8425
"4161",81.69558,687.85583
"4162",81.29763,687.86914
"4163",80.93141,687.88245
"4164",80.60914,687.89575
"4165",80.34547,687.90906
"4166",80.13794,687.92236
"4167",79.98169,687.93567
"4168",79.86206,687.949
"4169",79.781494,687.9623
"4170",79.73998,687.9756
"4171",79.744865,687.9889
"4172",79.78882,688.0022
"4173",79.86694,688.0155
"4174",79.96216,688.0288
"4175",80.05493,688.0421
"4176",80.12329,688.0554
"4177",80.15991,688.0687
"4178",80.15503,688.08203
"4179",80.10864,688.09534
"4180",80.03052,688.10864
"4181",79.93286,688.12195
"4182",79.82544,688.13525
"4183",79.71801,688.14856
"4184",79.61791,688.16187
"4185",79.5227,688.1752
"4186",79.43969,688.1885
"4187",79.361565,688.2018
"4188",79.293205,688.2151
"4189",79.237045,688.2284
"4190",79.1931,688.2417
"4191",79.16136,688.255
"4192",79.14183,688.2683
"4193",79.12718,688.2816
"4194",79.11742,688.2949
"4195",79.11253,688.3082
"4196",79.11742,688.32153
"4197",79.1223,688.33484
"4198",79.12962,688.34814
"4199",79.14183,688.36145
"4200",79.15892,688.37476
"4201",79.17601,688.38806
"4202",79.1931,688.40137
"4203",79.20775,688.4147
"4204",79.21507,688.428
"4205",79.21507,688.4413
"4206",79.20531,688.4546
"4207",79.1931,688.4679
"4208",79.1931,688.4812
"4209",79.23216,688.4945
"4210",79.36889,688.5078
"4211",79.66186,688.5211
"4212",80.128174,688.5344
"4213",80.72877,688.5477
"4214",81.36843,688.56104
"4215",81.934845,688.57434
"4216",82.31083,688.58765
"4217",82.44511,688.60095
"4218",82.354774,688.61426
"4219",82.09354,688.62756
"4220",81.73464,688.64087
"4221",81.34402,688.6542
"4222",80.96315,688.6675
"4223",80.621346,688.6808
"4224",80.33326,688.6941
"4225",80.09888,688.7074
"4226",79.91333,688.7207
"4227",79.77417,688.734
"4228",79.67895,688.7473
"4229",79.63012,688.7606
"4230",79.635,688.7739
"4231",79.691154,688.78723
"4232",79.79614,688.80054
"4233",79.92554,688.81384
"4234",80.05737,688.82715
"4235",80.15991,688.84045
"4236",80.21362,688.85376
"4237",80.2063,688.86707
"4238",80.15259,688.8804
"4239",80.05737,688.8937
"4240",79.937744,688.907
"4241",79.81079,688.9203
"4242",79.68383,688.9336
"4243",79.5642,688.9469
"4244",79.45434,688.9602
"4245",79.35424,688.9735
"4246",79.26879,688.9868
"4247",79.19798,689.0001
"4248",79.14427,689.0134
"4249",79.10521,689.02673
"4250",79.078354,689.04004
"4251",79.061264,689.05334
"4252",79.05394,689.06665
"4253",79.05882,689.07996
"4254",79.07103,689.09326
"4255",79.08812,689.10657
"4256",79.11009,689.1199
"4257",79.132065,689.1332
"4258",79.149155,689.1465
"4259",79.16136,689.1598
"4260",79.168686,689.1731
"4261",79.168686,689.1864
"4262",79.1638,689.1997
"4263",79.15404,689.213
"4264",79.15404,689.2263
"4265",79.200424,689.2396
"4266",79.35424,689.2529
"4267",79.65453,689.26624
"4268",80.111084,689.27954
"4269",80.6775,689.29285
"4270",81.25857,689.30615
"4271",81.74441,689.31946
"4272",82.04715,689.33276
"4273",82.13016,689.34607
"4274",82.01785,689.3594
"4275",81.76639,689.3727
"4276",81.43923,689.386
"4277",81.08278,689.3993
"4278",80.74586,689.4126
"4279",80.44312,689.4259
"4280",80.18921,689.4392
"4281",79.98657,689.4525
"4282",79.83276,689.4658
"4283",79.72045,689.4791
"4284",79.65453,689.49243
"4285",79.63744,689.50574
"4286",79.676506,689.51904
"4287",79.76196,689.53235
"4288",79.88403,689.54565
"4289",80.01587,689.55896
"4290",80.128174,689.57227
"4291",80.20386,689.5856
"4292",80.22583,689.5989
"4293",80.19409,689.6122
"4294",80.12329,689.6255
"4295",80.01831,689.6388
"4296",79.89624,689.6521
"4297",79.766846,689.6654
"4298",79.64233,689.6787
"4299",79.53002,689.692
"4300",79.432365,689.7053
"4301",79.34936,689.7186
"4302",79.28344,689.73193
"4303",79.237045,689.74524
"4304",79.19798,689.75854
"4305",79.17357,689.77185
"4306",79.15892,689.78516
"4307",79.15404,689.79846
"4308",79.15404,689.81177
"4309",79.15892,689.8251
"4310",79.168686,689.8384
"4311",79.19066,689.8517
"4312",79.217514,689.865
"4313",79.24681,689.8783
"4314",79.27123,689.8916
"4315",79.28344,689.9049
"4316",79.28344,689.9182
"4317",79.273674,689.9315
"4318",79.2517,689.9448
"4319",79.22972,689.9581
"4320",79.21263,689.97144
"4321",79.23949,689.98474
"4322",79.36889,689.99805
"4323",79.65209,690.01135
"4324",80.10864,690.02466
"4325",80.69459,690.03796
"4326",81.324486,690.0513
"4327",81.881134,690.0646
"4328",82.26444,690.0779
"4329",82.423134,690.0912
"4330",82.36942,690.1045
"4331",82.15457,690.1178
"4332",81.84207,690.1311
"4333",81.495384,690.1444
"4334",81.15602,690.1577
"4335",80.85329,690.171
"4336",80.601814,690.1843
"4337",80.39918,690.19763
"4338",80.235596,690.21094
"4339",80.1062,690.22424
"4340",80.008545,690.23755
"4341",79.94751,690.25085
"4342",79.923096,690.26416
"4343",79.94751,690.27747
"4344",80.008545,690.2908
"4345",80.08911,690.3041
"4346",80.164795,690.3174
"4347",80.218506,690.3307
"4348",80.233154,690.344
"4349",80.20386,690.3573
"4350",80.13794,690.3706
"4351",80.042725,690.3839
"4352",79.93042,690.3972
"4353",79.81079,690.4105
"4354",79.693596,690.4238
"4355",79.58129,690.43713
"4356",79.48119,690.45044
"4357",79.398186,690.46375
"4358",79.32983,690.47705
"4359",79.26879,690.49036
"4360",79.2224,690.50366
"4361",79.183334,690.51697
"4362",79.149155,690.5303
"4363",79.11986,690.5436
"4364",79.097885,690.5569
"4365",79.08812,690.5702
"4366",79.08812,690.5835
"4367",79.09544,690.5968
"4368",79.11253,690.6101
"4369",79.13451,690.6234
"4370",79.15648,690.6367
"4371",79.168686,690.65
"4372",79.17113,690.6633
"4373",79.15892,690.67664
"4374",79.13695,690.68994
"4375",79.11009,690.70325
"4376",79.10033,690.71655
"4377",79.15404,690.72986
"4378",79.32983,690.74316
"4379",79.66918,690.7565
"4380",80.177,690.7698
"4381",80.78981,690.7831
"4382",81.41238,690.7964
"4383",81.92752,690.8097
"4384",82.2449,690.823
"4385",82.33524,690.8363
"4386",82.22293,690.8496
"4387",81.971466,690.8629
"4388",81.651634,690.8762
"4389",81.3196,690.8895
"4390",81.01198,690.90283
"4391",80.75319,690.91614
"4392",80.54566,690.92944
"4393",80.38697,690.94275
"4394",80.26246,690.95605
"4395",80.16235,690.96936
"4396",80.076904,690.98267
"4397",80.008545,690.996
"4398",79.9646,691.0093
"4399",79.95239,691.0226
"4400",79.97681,691.0359
"4401",80.02319,691.0492
"4402",80.079346,691.0625
"4403",80.11841,691.0758
"4404",80.12085,691.0891
"4405",80.08911,691.1024
"4406",80.025635,691.1157
"4407",79.9353,691.129
"4408",79.83276,691.14233
"4409",79.72289,691.15564
"4410",79.61059,691.16895
"4411",79.500725,691.18225
"4412",79.3933,691.19556
"4413",79.30053,691.20886
"4414",79.22728,691.22217
"4415",79.17357,691.2355
"4416",79.132065,691.2488
"4417",79.10521,691.2621
"4418",79.080795,691.2754
"4419",79.05882,691.2887
"4420",79.03685,691.302
"4421",79.01976,691.3153
"4422",79.01488,691.3286
"4423",79.01488,691.3419
"4424",79.027084,691.3552
"4425",79.044174,691.3685
"4426",79.06615,691.38184
"4427",79.078354,691.39514
"4428",79.080795,691.40845
"4429",79.07103,691.42175
"4430",79.04906,691.43506
"4431",79.01732,691.44836
"4432",78.98314,691.4617
"4433",78.94652,691.475
"4434",78.92943,691.4883
"4435",78.97826,691.5016
"4436",79.14671,691.5149
"4437",79.48608,691.5282
"4438",80.00122,691.5415
"4439",80.64088,691.5548
"4440",81.30007,691.5681
"4441",81.85916,691.5814
"4442",82.21805,691.5947
"4443",82.34257,691.60803
"4444",82.25956,691.62134
"4445",82.02762,691.63464
"4446",81.71755,691.64795
"4447",81.38796,691.66125
"4448",81.08522,691.67456
"4449",80.831314,691.68787
"4450",80.635994,691.7012
"4451",80.49195,691.7145
"4452",80.38941,691.7278
"4453",80.30396,691.7411
"4454",80.22339,691.7544
"4455",80.147705,691.7677
"4456",80.08667,691.781
"4457",80.045166,691.7943
"4458",80.03296,691.8076
"4459",80.04028,691.8209
"4460",80.062256,691.8342
"4461",80.076904,691.84753
"4462",80.07202,691.86084
"4463",80.03784,691.87415
"4464",79.974365,691.88745
"4465",79.888916,691.90076
"4466",79.783936,691.91406
"4467",79.674065,691.92737
"4468",79.55932,691.9407
"4469",79.449455,691.954
"4470",79.34692,691.9673
"4471",79.25414,691.9806
"4472",79.17601,691.9939
"4473",79.10765,692.0072
"4474",79.05638,692.0205
"4475",79.012436,692.0338
"4476",78.97826,692.0471
"4477",78.95384,692.0604
"4478",78.941635,692.0737
"4479",78.92943,692.08704
"4480",78.924545,692.10034
"4481",78.922104,692.11365
"4482",78.91966,692.12695
"4483",78.91234,692.14026
"4484",78.9099,692.15356
"4485",78.907455,692.1669
"4486",78.905014,692.1802
"4487",78.89769,692.1935
"4488",78.890366,692.2068
"4489",78.88304,692.2201
"4490",78.870834,692.2334
"4491",78.84886,692.2467
"4492",78.82445,692.26
"4493",78.79271,692.2733
"4494",78.75853,692.2866
"4495",78.729225,692.2999
"4496",78.751205,692.31323
"4497",78.87816,692.32654
"4498",79.17113,692.33984
"4499",79.656975,692.35315
"4500",80.29664,692.36646
"4501",81.00221,692.37976
"4502",81.651634,692.39307
"4503",82.13016,692.4064
"4504",82.36454,692.4197
"4505",82.3621,692.433
"4506",82.176544,692.4463
"4507",81.881134,692.4596
"4508",81.54421,692.4729
"4509",81.22438,692.4862
"4510",80.95094,692.4995
"4511",80.740974,692.5128
"4512",80.58961,692.5261
"4513",80.479744,692.5394
"4514",80.394295,692.55273
"4515",80.31373,692.56604
"4516",80.233154,692.57935
"4517",80.15991,692.59265
"4518",80.10132,692.60596
"4519",80.0647,692.61926
"4520",80.062256,692.63257
"4521",80.07446,692.6459
"4522",80.08911,692.6592
"4523",80.09155,692.6725
"4524",80.079346,692.6858
"4525",80.042725,692.6991
"4526",79.98169,692.7124
"4527",79.89868,692.7257
"4528",79.801025,692.739
"4529",79.68627,692.7523
"4530",79.56664,692.7656
"4531",79.449455,692.77893
"4532",79.34203,692.79224
"4533",79.24925,692.80554
"4534",79.17601,692.81885
"4535",79.11986,692.83215
"4536",79.080795,692.84546
"4537",79.046616,692.85876
"4538",79.0222,692.8721
"4539",79.00023,692.8854
"4540",78.98314,692.8987
"4541",78.97337,692.912
"4542",78.96849,692.9253
"4543",78.96605,692.9386
"4544",78.96117,692.9519
"4545",78.95628,692.9652
"4546",78.94652,692.9785
"4547",78.93675,692.9918
"4548",78.92699,693.0051
"4549",78.922104,693.01843
"4550",78.91966,693.03174
"4551",78.91722,693.04504
"4552",78.907455,693.05835
"4553",78.89769,693.07166
"4554",78.88304,693.08496
"4555",78.86839,693.09827
"4556",78.84886,693.1116
"4557",78.83177,693.1249
"4558",78.81712,693.1382
"4559",78.83421,693.1515
"4560",78.92943,693.1648
"4561",79.166245,693.1781
"4562",79.58129,693.1914
"4563",80.16724,693.2047
"4564",80.848404,693.218
"4565",81.51003,693.2313
"4566",82.03006,693.2446
"4567",82.32792,693.25793
"4568",82.388954,693.27124
"4569",82.247345,693.28455
"4570",81.97879,693.29785
"4571",81.651634,693.31116
"4572",81.322044,693.32446
