"","ppg","time"
"1",79.30297,20.34143
"2",78.77074,20.354736
"3",78.25315,20.368103
"4",77.76242,20.381409
"5",77.30831,20.394775
"6",76.893265,20.408081
"7",76.52705,20.421448
"8",76.21454,20.434753
"9",75.96063,20.44812
"10",75.772644,20.461426
"11",75.63592,20.474731
"12",75.545586,20.488098
"13",75.48211,20.501404
"14",75.43084,20.51477
"15",75.37713,20.528076
"16",75.32586,20.541443
"17",75.27215,20.554749
"18",75.21843,20.568115
"19",75.159836,20.58142
"20",75.0988,20.594788
"21",75.03288,20.608093
"22",74.95964,20.621399
"23",74.881516,20.634766
"24",74.78874,20.648071
"25",74.68131,20.661438
"26",74.55436,20.674744
"27",74.4152,20.68811
"28",74.2736,20.701416
"29",74.161285,20.714783
"30",74.144196,20.728088
"31",74.33463,20.741394
"32",74.90105,20.75476
"33",75.99237,20.768066
"34",77.67696,20.781433
"35",79.871826,20.794739
"36",82.35233,20.808105
"37",84.8011,20.821411
"38",86.91783,20.834778
"39",88.48524,20.848083
"40",89.4374,20.86145
"41",89.81583,20.874756
"42",89.73037,20.888062
"43",89.31533,20.901428
"44",88.68543,20.914734
"45",87.94324,20.9281
"46",87.16197,20.941406
"47",86.380714,20.954773
"48",85.62142,20.968079
"49",84.89632,20.981445
"50",84.210266,20.994751
"51",83.580376,21.008118
"52",83.02373,21.021423
"53",82.562294,21.034729
"54",82.21561,21.048096
"55",81.988556,21.061401
"56",81.87137,21.074768
"57",81.832306,21.088074
"58",81.829865,21.10144
"59",81.82254,21.114746
"60",81.76639,21.128113
"61",81.634544,21.141418
"62",81.41482,21.154785
"63",81.09987,21.16809
"64",80.70191,21.181396
"65",80.23071,21.194763
"66",79.7058,21.208069
"67",79.151596,21.221436
"68",78.59739,21.234741
"69",78.065155,21.248108
"70",77.5671,21.261414
"71",77.117874,21.27478
"72",76.71992,21.288086
"73",76.3708,21.301453
"74",76.068054,21.314758
"75",75.81415,21.328064
"76",75.60906,21.34143
"77",75.44793,21.354736
"78",75.32586,21.368103
"79",75.23552,21.381409
"80",75.16228,21.394775
"81",75.0988,21.408081
"82",75.037766,21.421448
"83",74.97429,21.434753
"84",74.91081,21.44806
"85",74.85466,21.461426
"86",74.79607,21.474731
"87",74.73502,21.488098
"88",74.66178,21.501404
"89",74.581215,21.51477
"90",74.49088,21.528076
"91",74.39811,21.541443
"92",74.30045,21.554749
"93",74.20279,21.568115
"94",74.107574,21.58142
"95",74.022125,21.594727
"96",73.970856,21.608093
"97",74.03677,21.621399
"98",74.35172,21.634766
"99",75.08415,21.648071
"100",76.37324,21.661438
"101",78.24094,21.674744
"102",80.567635,21.68811
"103",83.09209,21.701416
"104",85.49447,21.714783
"105",87.48913,21.728088
"106",88.90517,21.741394
"107",89.7084,21.75476
"108",89.96231,21.768066
"109",89.77432,21.781433
"110",89.26894,21.794739
"111",88.5536,21.808105
"112",87.71862,21.821411
"113",86.82262,21.834778
"114",85.909515,21.848083
"115",85.00374,21.86145
"116",84.13458,21.874756
"117",83.32891,21.888062
"118",82.62333,21.901428
"119",82.05203,21.914734
"120",81.64675,21.9281
"121",81.41482,21.941406
"122",81.341576,21.954773
"123",81.3904,21.968079
"124",81.51003,21.981445
"125",81.6321,21.994751
"126",81.7029,22.008118
"127",81.68337,22.021423
"128",81.54665,22.034729
"129",81.29519,22.048096
"130",80.94118,22.061401
"131",80.49683,22.074768
"132",79.98413,22.088074
"133",79.429924,22.10144
"134",78.86107,22.114746
"135",78.29221,22.128113
"136",77.752655,22.141418
"137",77.25704,22.154785
"138",76.81026,22.16809
"139",76.419624,22.181396
"140",76.09003,22.194763
"141",75.81903,22.208069
"142",75.60418,22.221436
"143",75.45281,22.234741
"144",75.352715,22.248108
"145",75.301445,22.261414
"146",75.29412,22.27478
"147",75.31609,22.288086
"148",75.352715,22.301453
"149",75.39422,22.314758
"150",75.43572,22.328064
"151",75.4699,22.34143
"152",75.50164,22.354736
"153",75.52361,22.368103
"154",75.5407,22.381409
"155",75.55535,22.394775
"156",75.56512,22.408081
"157",75.57,22.421448
"158",75.56756,22.434753
"159",75.53826,22.44806
"160",75.47967,22.461426
"161",75.39666,22.474731
"162",75.301445,22.488098
"163",75.23552,22.501404
"164",75.2868,22.51477
"165",75.5993,22.528076
"166",76.34394,22.541443
"167",77.6672,22.554749
"168",79.59106,22.568115
"169",81.98123,22.58142
"170",84.56916,22.594727
"171",87.01305,22.608093
"172",89.01991,22.621399
"173",90.41886,22.634766
"174",91.18303,22.648071
"175",91.39056,22.661438
"176",91.16106,22.674744
"177",90.61906,22.68811
"178",89.87442,22.701416
"179",89.01259,22.714783
"180",88.10193,22.728088
"181",87.186386,22.741394
"182",86.29771,22.75476
"183",85.46029,22.768066
"184",84.68635,22.781433
"185",84.00519,22.794739
"186",83.44366,22.808105
"187",83.01396,22.821411
"188",82.73319,22.834778
"189",82.58915,22.848083
"190",82.545204,22.86145
"191",82.55009,22.874756
"192",82.55253,22.888062
"193",82.50126,22.901428
"194",82.3621,22.914734
"195",82.125275,22.9281
"196",81.79324,22.941406
"197",81.38552,22.954773
"198",80.91188,22.968079
"199",80.38453,22.981445
"200",79.82056,22.994751
"201",79.22972,23.008118
"202",78.6218,23.021423
"203",78.02121,23.034729
"204",77.44991,23.048096
"205",76.93721,23.061401
"206",76.49775,23.074768
"207",76.14374,23.088074
"208",75.860535,23.10144
"209",75.63592,23.114746
"210",75.45281,23.128113
"211",75.29412,23.141418
"212",75.159836,23.154724
"213",75.04753,23.16809
"214",74.95476,23.181396
"215",74.87175,23.194763
"216",74.80583,23.208069
"217",74.74967,23.221436
"218",74.70573,23.234741
"219",74.666664,23.248108
"220",74.63737,23.261414
"221",74.61295,23.27478
"222",74.59586,23.288086
"223",74.59098,23.301392
"224",74.59342,23.314758
"225",74.59342,23.328064
"226",74.58366,23.34143
"227",74.55436,23.354736
"228",74.50309,23.368103
"229",74.444496,23.381409
"230",74.42252,23.394775
"231",74.50065,23.408081
"232",74.8156,23.421448
"233",75.543144,23.434753
"234",76.824905,23.44806
"235",78.69993,23.461426
"236",81.05592,23.474731
"237",83.63409,23.488098
"238",86.10483,23.501404
"239",88.16052,23.51477
"240",89.61562,23.528076
"241",90.43351,23.541443
"242",90.68009,23.554749
"243",90.47501,23.568115
"244",89.952545,23.58142
"245",89.21767,23.594727
"246",88.36317,23.608093
"247",87.45495,23.621399
"248",86.53208,23.634766
"249",85.62142,23.648071
"250",84.74738,23.661438
"251",83.931946,23.674744
"252",83.20439,23.68811
"253",82.59403,23.701416
"254",82.13748,23.714783
"255",81.84451,23.728088
"256",81.7029,23.741394
"257",81.688255,23.75476
"258",81.75662,23.768066
"259",81.84451,23.781433
"260",81.898224,23.794739
"261",81.866486,23.808105
"262",81.73464,23.821411
"263",81.48318,23.834778
"264",81.129166,23.848083
"265",80.689705,23.86145
"266",80.18677,23.874756
"267",79.64233,23.888062
"268",79.07591,23.901428
"269",78.5095,23.914734
"270",77.960175,23.9281
"271",77.44259,23.941406
"272",76.97383,23.954773
"273",76.56367,23.968079
"274",76.21698,23.981445
"275",75.93378,23.994751
"276",75.70916,24.008118
"277",75.53094,24.021423
"278",75.389336,24.034729
"279",75.27703,24.048096
"280",75.18669,24.061401
"281",75.11833,24.074768
"282",75.071945,24.088074
"283",75.04265,24.10144
"284",75.03288,24.114746
"285",75.04021,24.128113
"286",75.054855,24.141418
"287",75.07683,24.154724
"288",75.09148,24.16809
"289",75.09148,24.181396
"290",75.07439,24.194763
"291",75.035324,24.208069
"292",74.97917,24.221436
"293",74.91081,24.234741
"294",74.85222,24.248108
"295",74.830246,24.261414
"296",74.91081,24.27478
"297",75.21599,24.288086
"298",75.90448,24.301392
"299",77.11543,24.314758
"300",78.90013,24.328064
"301",81.15846,24.34143
"302",83.648735,24.354736
"303",86.05112,24.368103
"304",88.060425,24.381409
"305",89.481346,24.394775
"306",90.26017,24.408081
"307",90.45548,24.421448
"308",90.1918,24.434753
"309",89.59609,24.44806
"310",88.7831,24.461426
"311",87.84558,24.474731
"312",86.83971,24.488098
"313",85.81186,24.501404
"314",84.79378,24.51477
"315",83.82208,24.528076
"316",82.930954,24.541443
"317",82.16434,24.554749
"318",81.5613,24.568115
"319",81.15114,24.58142
"320",80.94362,24.594727
"321",80.92653,24.608093
"322",81.05348,24.621399
"323",81.26345,24.634766
"324",81.480736,24.648071
"325",81.64187,24.661438
"326",81.69558,24.674744
"327",81.619896,24.68811
"328",81.40505,24.701416
"329",81.06569,24.714783
"330",80.62379,24.728088
"331",80.10132,24.741394
"332",79.52758,24.75476
"333",78.93431,24.768066
"334",78.348366,24.781433
"335",77.786835,24.794739
"336",77.264366,24.808105
"337",76.79561,24.821411
"338",76.387886,24.834778
"339",76.04608,24.848083
"340",75.76288,24.86139
"341",75.543144,24.874756
"342",75.37957,24.888062
"343",75.26238,24.901428
"344",75.18669,24.914734
"345",75.15495,24.9281
"346",75.159836,24.941406
"347",75.19646,24.954773
"348",75.25506,24.968079
"349",75.33074,24.981445
"350",75.41131,24.994751
"351",75.48455,25.008057
"352",75.53582,25.021423
"353",75.562675,25.034729
"354",75.55047,25.048096
"355",75.50652,25.061401
"356",75.43816,25.074768
"357",75.36736,25.088074
"358",75.338066,25.10144
"359",75.43572,25.114746
"360",75.79706,25.128113
"361",76.575874,25.141418
"362",77.891815,25.154724
"363",79.742424,25.16809
"364",81.988556,25.181396
"365",84.368965,25.194763
"366",86.5687,25.208069
"367",88.32166,25.221436
"368",89.481346,25.234741
"369",90.03311,25.248108
"370",90.055084,25.261414
"371",89.66445,25.27478
"372",88.98329,25.288086
"373",88.11658,25.301392
"374",87.14,25.314758
"375",86.10239,25.328064
"376",85.04036,25.34143
"377",83.99054,25.354736
"378",82.99931,25.368103
"379",82.11551,25.381409
"380",81.3904,25.394775
"381",80.87038,25.408081
"382",80.58228,25.421448
"383",80.51392,25.434753
"384",80.62623,25.44806
"385",80.848404,25.461426
"386",81.09987,25.474731
"387",81.30007,25.488098
"388",81.38796,25.501404
"389",81.33425,25.51477
"390",81.13405,25.528076
"391",80.799576,25.541443
"392",80.35279,25.554749
"393",79.82056,25.568115
"394",79.23216,25.58142
"395",78.61448,25.594727
"396",77.994354,25.608093
"397",77.3962,25.621399
"398",76.83711,25.634766
"399",76.33662,25.648071
"400",75.90448,25.661438
"401",75.5407,25.674744
"402",75.24773,25.68811
"403",75.02312,25.701416
"404",74.8571,25.714783
"405",74.74967,25.728088
"406",74.69108,25.741394
"407",74.67399,25.75476
"408",74.69108,25.768066
"409",74.737465,25.781433
"410",74.80095,25.794739
"411",74.87175,25.808105
"412",74.94255,25.821411
"413",75.00603,25.834778
"414",75.052414,25.848083
"415",75.07927,25.86139
"416",75.09392,25.874756
"417",75.11833,25.888062
"418",75.208664,25.901428
"419",75.47723,25.914734
"420",76.0827,25.9281
"421",77.20332,25.941406
"422",78.924545,25.954773
"423",81.18532,25.968079
"424",83.76349,25.981445
"425",86.346535,25.994751
"426",88.602425,26.008057
"427",90.28214,26.021423
"428",91.302666,26.034729
"429",91.70306,26.048096
"430",91.59319,26.061401
"431",91.104904,26.074768
"432",90.35783,26.088074
"433",89.45449,26.10144
"434",88.47303,26.114746
"435",87.464714,26.128113
"436",86.468605,26.141418
"437",85.51888,26.154724
"438",84.63996,26.16809
"439",83.85382,26.181396
"440",83.19951,26.194763
"441",82.701454,26.208069
"442",82.37675,26.221436
"443",82.22049,26.234741
"444",82.2034,26.248108
"445",82.27421,26.261414
"446",82.371864,26.27478
"447",82.43046,26.288086
"448",82.40116,26.301392
"449",82.24979,26.314758
"450",81.96658,26.328064
"451",81.56374,26.34143
"452",81.06569,26.354736
"453",80.50416,26.368103
"454",79.920654,26.381409
"455",79.33715,26.394775
"456",78.77562,26.408081
"457",78.25315,26.421448
"458",77.77707,26.434753
"459",77.36202,26.44806
"460",77.015335,26.461426
"461",76.73945,26.474731
"462",76.53437,26.488098
"463",76.40742,26.501404
"464",76.35859,26.51477
"465",76.37812,26.528076
"466",76.45136,26.541443
"467",76.57343,26.554749
"468",76.72724,26.568054
"469",76.89815,26.58142
"470",77.07393,26.594727
"471",77.24483,26.608093
"472",77.39864,26.621399
"473",77.51095,26.634766
"474",77.5671,26.648071
"475",77.56222,26.661438
"476",77.506065,26.674744
"477",77.44991,26.68811
"478",77.486534,26.701416
"479",77.752655,26.714722
"480",78.380104,26.728088
"481",79.43725,26.741394
"482",80.89235,26.75476
"483",82.598915,26.768066
"484",84.332344,26.781433
"485",85.858246,26.794739
"486",87.010605,26.808105
"487",87.71374,26.821411
"488",87.97009,26.834778
"489",87.833374,26.848083
"490",87.39391,26.86139
"491",86.7396,26.874756
"492",85.9559,26.888062
"493",85.10872,26.901428
"494",84.25422,26.914734
"495",83.424126,26.9281
"496",82.63065,26.941406
"497",81.89334,26.954773
"498",81.231705,26.968079
"499",80.67506,26.981445
"500",80.25025,26.994751
"501",79.98657,27.008057
"502",79.88159,27.021423
"503",79.923096,27.034729
"504",80.0647,27.048096
"505",80.25025,27.061401
"506",80.41627,27.074768
"507",80.50904,27.088074
"508",80.48951,27.10144
"509",80.34791,27.114746
"510",80.08423,27.128113
"511",79.71801,27.141418
"512",79.273674,27.154724
"513",78.77562,27.16809
"514",78.25071,27.181396
"515",77.71603,27.194763
"516",77.19356,27.208069
"517",76.70283,27.221436
"518",76.25849,27.234741
"519",75.86786,27.248108
"520",75.54803,27.261414
"521",75.29656,27.27478
"522",75.106125,27.288086
"523",74.97185,27.301392
"524",74.88396,27.314758
"525",74.83757,27.328064
"526",74.82536,27.34143
"527",74.84245,27.354736
"528",74.879074,27.368103
"529",74.93034,27.381409
"530",74.986496,27.394775
"531",75.04021,27.408081
"532",75.08171,27.421448
"533",75.10124,27.434753
"534",75.089035,27.44806
"535",75.04021,27.461426
"536",74.96452,27.474731
"537",74.90105,27.488098
"538",74.9279,27.501404
"539",75.18181,27.51477
"540",75.83368,27.528076
"541",77.01778,27.541443
"542",78.768295,27.554749
"543",80.970474,27.568054
"544",83.3753,27.58142
"545",85.67269,27.594727
"546",87.58434,27.608093
"547",88.93935,27.621399
"548",89.703514,27.634766
"549",89.9379,27.648071
"550",89.74746,27.661438
"551",89.24696,27.674744
"552",88.54139,27.68811
"553",87.711296,27.701416
"554",86.82994,27.714722
"555",85.94125,27.728088
"556",85.07454,27.741394
"557",84.2591,27.75476
"558",83.51934,27.768066
"559",82.88701,27.781433
"560",82.388954,27.794739
"561",82.054474,27.808105
"562",81.88846,27.821411
"563",81.87381,27.834778
"564",81.95926,27.848083
"565",82.091095,27.86139
"566",82.2034,27.874756
"567",82.23758,27.888062
"568",82.15701,27.901428
"569",81.94949,27.914734
"570",81.617455,27.9281
"571",81.17799,27.941406
"572",80.65797,27.954773
"573",80.08667,27.968079
"574",79.4934,27.981445
"575",78.905014,27.994751
"576",78.3386,28.008057
"577",77.81125,28.021423
"578",77.332726,28.034729
"579",76.91524,28.048096
"580",76.558784,28.061401
"581",76.265816,28.074768
"582",76.033875,28.088074
"583",75.862976,28.10144
"584",75.7409,28.114746
"585",75.665215,28.128113
"586",75.62127,28.141418
"587",75.60418,28.154724
"588",75.5993,28.16809
"589",75.5993,28.181396
"590",75.59197,28.194763
"591",75.57,28.208069
"592",75.528496,28.221436
"593",75.457695,28.234741
"594",75.36004,28.248108
"595",75.2404,28.261414
"596",75.10857,28.27472
"597",75.00847,28.288086
"598",75.037766,28.301392
"599",75.34295,28.314758
"600",76.07538,28.328064
"601",77.34493,28.34143
"602",79.11986,28.354736
"603",81.24391,28.368103
"604",83.458305,28.381409
"605",85.47982,28.394775
"606",87.08873,28.408081
"607",88.17761,28.421448
"608",88.74647,28.434753
"609",88.86366,28.44806
"610",88.6244,28.461426
"611",88.11658,28.474731
"612",87.430534,28.488098
"613",86.64439,28.501404
"614",85.81186,28.51477
"615",84.97688,28.528076
"616",84.16632,28.541443
"617",83.41192,28.554749
"618",82.73319,28.568115
"619",82.159454,28.58142
"620",81.71755,28.594788
"621",81.41726,28.608093
"622",81.253685,28.62146
"623",81.20973,28.634766
"624",81.24147,28.648132
"625",81.290306,28.661438
"626",81.307396,28.674744
"627",81.25857,28.68811
"628",81.112076,28.701416
"629",80.86305,28.714783
"630",80.52369,28.728088
"631",80.10864,28.741455
"632",79.635,28.75476
"633",79.13451,28.768127
"634",78.6218,28.781433
"635",78.116425,28.7948
"636",77.63546,28.808105
"637",77.19112,28.821472
"638",76.79561,28.834778
"639",76.46113,28.848145
"640",76.190125,28.86145
"641",75.982605,28.874817
"642",75.826355,28.888123
"643",75.716484,28.901428
"644",75.6408,28.914795
"645",75.596855,28.9281
"646",75.59197,28.941467
"647",75.62371,28.954773
"648",75.68963,28.96814
"649",75.77753,28.981445
"650",75.87274,28.994812
"651",75.95819,29.008118
"652",76.019226,29.021484
"653",76.050964,29.03479
"654",76.050964,29.048157
"655",76.02899,29.061462
"656",75.97772,29.07483
"657",75.894714,29.088135
"658",75.78485,29.10144
"659",75.67254,29.114807
"660",75.62371,29.128113
"661",75.772644,29.14148
"662",76.282906,29.154785
"663",77.28878,29.168152
"664",78.82201,29.181458
"665",80.77272,29.194824
"666",82.913864,29.20813
"667",84.96956,29.221497
"668",86.69077,29.234802
"669",87.92615,29.248169
"670",88.64637,29.261475
"671",88.8954,29.274841
"672",88.763565,29.288147
"673",88.35096,29.301453
"674",87.74792,29.31482
"675",87.03502,29.328125
"676",86.28062,29.341492
"677",85.52621,29.354797
"678",84.79622,29.368164
"679",84.11017,29.38147
"680",83.4876,29.394836
"681",82.94316,29.408142
"682",82.50614,29.421509
"683",82.19119,29.434814
"684",82.005646,29.448181
"685",81.93729,29.461487
"686",81.94705,29.474854
"687",81.991,29.48816
"688",82.020294,29.501526
"689",81.99344,29.514832
"690",81.881134,29.528137
"691",81.668724,29.541504
"692",81.356224,29.55481
"693",80.95094,29.568176
"694",80.4773,29.581482
"695",79.954834,29.594849
"696",79.415276,29.608154
"697",78.87816,29.621521
"698",78.363014,29.634827
"699",77.88693,29.648193
"700",77.45968,29.661499
"701",77.08858,29.674866
"702",76.773636,29.688171
"703",76.51728,29.701538
"704",76.30732,29.714844
"705",76.138855,29.72821
"706",75.999695,29.741516
"707",75.880066,29.754822
"708",75.775085,29.768188
"709",75.67986,29.781494
"710",75.59441,29.79486
"711",75.51629,29.808167
"712",75.44305,29.821533
"713",75.369804,29.834839
"714",75.29412,29.848206
"715",75.21355,29.861511
"716",75.123215,29.874878
"717",75.020676,29.888184
"718",74.90593,29.90155
"719",74.77165,29.914856
"720",74.62272,29.928223
"721",74.45426,29.941528
"722",74.268715,29.954834
"723",74.07095,29.9682
"724",73.89273,29.981506
"725",73.78287,29.994873
"726",73.8439,30.008179
"727",74.232086,30.021545
"728",75.11345,30.034851
"729",76.57343,30.048218
"730",78.572975,30.061523
"731",80.93141,30.07489
"732",83.35577,30.088196
"733",85.540855,30.101562
"734",87.25231,30.114868
"735",88.39002,30.128235
"736",88.956436,30.14154
"737",89.04677,30.154846
"738",88.75868,30.168213
"739",88.20691,30.181519
"740",87.48669,30.194885
"741",86.676125,30.20819
"742",85.82895,30.221558
"743",84.98665,30.234863
"744",84.16632,30.24823
"745",83.389946,30.261536
"746",82.684364,30.274902
"747",82.08621,30.288208
"748",81.62478,30.301575
"749",81.32693,30.31488
"750",81.19264,30.328247
"751",81.197525,30.341553
"752",81.29275,30.35492
"753",81.4197,30.368225
"754",81.514915,30.38153
"755",81.529564,30.394897
"756",81.43191,30.408203
"757",81.2195,30.42157
"758",80.89235,30.434875
"759",80.47242,30.448242
"760",79.98169,30.461548
"761",79.44213,30.474915
"762",78.873276,30.48822
"763",78.2971,30.501587
"764",77.738,30.514893
"765",77.21309,30.52826
"766",76.73701,30.541565
"767",76.32685,30.554932
"768",75.98749,30.568237
"769",75.72137,30.581604
"770",75.52361,30.59491
"771",75.38445,30.608215
"772",75.29168,30.621582
"773",75.23796,30.634888
"774",75.21355,30.648254
"775",75.211105,30.66156
"776",75.21599,30.674927
"777",75.22575,30.688232
"778",75.23552,30.7016
"779",75.24773,30.714905
"780",75.25994,30.728271
"781",75.26971,30.741577
"782",75.27215,30.754944
"783",75.26238,30.76825
"784",75.22575,30.781616
"785",75.16716,30.794922
"786",75.071945,30.808228
"787",74.94255,30.821594
"788",74.78142,30.8349
"789",74.60563,30.848267
"790",74.444496,30.861572
"791",74.36149,30.874939
"792",74.46647,30.888245
"793",74.92058,30.901611
"794",75.880066,30.914917
"795",77.43038,30.928284
"796",79.5227,30.94159
"797",81.95926,30.954956
"798",84.44221,30.968262
"799",86.64927,30.981628
"800",88.33631,30.994934
"801",89.3959,31.00824
"802",89.85489,31.021606
"803",89.80362,31.034912
"804",89.36172,31.048279
"805",88.65125,31.061584
"806",87.7699,31.074951
"807",86.77867,31.088257
"808",85.73617,31.101624
"809",84.68635,31.11493
"810",83.67071,31.128296
"811",82.738075,31.141602
"812",81.94217,31.154968
"813",81.33669,31.168274
"814",80.96315,31.18164
"815",80.833755,31.194946
"816",80.91676,31.208313
"817",81.15358,31.221619
"818",81.45632,31.234924
"819",81.74197,31.248291
"820",81.92752,31.261597
"821",81.96658,31.274963
"822",81.84451,31.288269
"823",81.56863,31.301636
"824",81.15602,31.314941
"825",80.64088,31.328308
"826",80.059814,31.341614
"827",79.44213,31.35498
"828",78.81712,31.368286
"829",78.21652,31.381653
"830",77.65499,31.394958
"831",77.15694,31.408325
"832",76.732124,31.42163
"833",76.37812,31.434998
"834",76.09491,31.448303
"835",75.87274,31.461609
"836",75.701836,31.474976
"837",75.57,31.488281
"838",75.4699,31.501648
"839",75.39422,31.514954
"840",75.34051,31.52832
"841",75.30633,31.541626
"842",75.284355,31.554993
"843",75.27459,31.568298
"844",75.27459,31.581665
"845",75.26971,31.59497
"846",75.245285,31.608337
"847",75.18913,31.621643
"848",75.09148,31.63501
"849",74.96208,31.648315
"850",74.80339,31.661621
"851",74.63981,31.674988
"852",74.529945,31.688293
"853",74.57633,31.70166
"854",74.94499,31.714966
"855",75.83368,31.728333
"856",77.366905,31.741638
"857",79.52514,31.755005
"858",82.12039,31.76831
"859",84.83284,31.781677
"860",87.308464,31.794983
"861",89.25674,31.80835
"862",90.5507,31.821655
"863",91.19035,31.835022
"864",91.27825,31.848328
"865",90.93645,31.861633
"866",90.304115,31.875
"867",89.49111,31.888306
"868",88.587776,31.901672
"869",87.65514,31.914978
"870",86.73716,31.928345
"871",85.855804,31.94165
"872",85.02327,31.955017
"873",84.2591,31.968323
"874",83.580376,31.98169
"875",83.018845,31.994995
"876",82.60136,32.00836
"877",82.33036,32.021667
"878",82.196075,32.035034
"879",82.159454,32.04834
"880",82.16922,32.061707
"881",82.16434,32.075012
"882",82.10086,32.088318
"883",81.94461,32.101685
"884",81.68337,32.11499
"885",81.31472,32.128357
"886",80.84108,32.141663
"887",80.27955,32.15503
"888",79.656975,32.168335
"889",78.995346,32.1817
"890",78.32395,32.195007
"891",77.6672,32.208374
"892",77.049515,32.22168
"893",76.48554,32.235046
"894",75.98505,32.248352
"895",75.560234,32.26172
"896",75.21355,32.275024
"897",74.93767,32.28839
"898",74.73014,32.301697
"899",74.58366,32.315002
"900",74.48356,32.32837
"901",74.424965,32.341675
"902",74.39811,32.35504
"903",74.40055,32.368347
"904",74.4152,32.381714
"905",74.43961,32.39502
"906",74.461586,32.408386
"907",74.476234,32.42169
"908",74.47379,32.43506
"909",74.44694,32.448364
"910",74.390785,32.46173
"911",74.305336,32.475037
"912",74.195465,32.488403
"913",74.06607,32.50171
"914",73.953766,32.515015
"915",73.936676,32.52838
"916",74.14908,32.541687
"917",74.793625,32.555054
"918",76.06317,32.56836
"919",78.02365,32.581726
"920",80.570076,32.59503
"921",83.43145,32.6084
"922",86.23178,32.621704
"923",88.61219,32.63507
"924",90.34562,32.648376
"925",91.37591,32.661743
"926",91.76898,32.67505
"927",91.65911,32.688416
"928",91.17082,32.70172
"929",90.43839,32.715027
"930",89.566795,32.728394
"931",88.636604,32.7417
"932",87.70397,32.755066
"933",86.803085,32.76837
"934",85.95102,32.78174
"935",85.14778,32.795044
"936",84.39826,32.80841
"937",83.72686,32.821716
"938",83.16289,32.835083
"939",82.73075,32.84839
"940",82.44511,32.861755
"941",82.286415,32.87506
"942",82.22781,32.888428
"943",82.210724,32.901733
"944",82.18143,32.9151
"945",82.091095,32.928406
"946",81.90799,32.94171
"947",81.619896,32.95508
"948",81.22438,32.968384
"949",80.73609,32.98175
"950",80.164795,32.995056
"951",79.537346,33.008423
"952",78.873276,33.02173
"953",78.19699,33.035095
"954",77.53536,33.0484
"955",76.912796,33.061768
"956",76.34394,33.075073
"957",75.84589,33.08844
"958",75.41863,33.101746
"959",75.0695,33.115112
"960",74.79118,33.128418
"961",74.581215,33.141785
"962",74.42985,33.15509
"963",74.33219,33.168396
"964",74.27604,33.181763
"965",74.251625,33.19507
"966",74.251625,33.208435
"967",74.26383,33.22174
"968",74.29069,33.235107
"969",74.32487,33.248413
"970",74.356606,33.26178
"971",74.37858,33.275085
"972",74.390785,33.288452
"973",74.38102,33.301758
"974",74.33463,33.315125
"975",74.25651,33.32843
"976",74.13931,33.341797
"977",73.985504,33.355103
"978",73.82193,33.36841
"979",73.69985,33.381775
"980",73.71206,33.39508
"981",74.02457,33.408447
"982",74.84245,33.421753
"983",76.32929,33.43512
"984",78.504616,33.448425
"985",81.20729,33.461792
"986",84.122375,33.475098
"987",86.85924,33.488464
"988",89.07851,33.50177
"989",90.59464,33.515137
"990",91.388115,33.528442
"991",91.561455,33.54181
"992",91.244064,33.555115
"993",90.579994,33.56842
"994",89.686424,33.581787
"995",88.66346,33.595093
"996",87.57946,33.60846
"997",86.48814,33.621765
"998",85.42367,33.63513
"999",84.41535,33.648438
"1000",83.492485,33.661804
"1001",82.69901,33.67511
"1002",82.06668,33.688477
"1003",81.62966,33.701782
"1004",81.39529,33.71515
"1005",81.34402,33.728455
"1006",81.427025,33.74182
"1007",81.57351,33.755127
"1008",81.705345,33.768494
"1009",81.76395,33.7818
"1010",81.69314,33.795105
"1011",81.47585,33.80847
"1012",81.109634,33.821777
"1013",80.61402,33.835144
"1014",80.01099,33.84845
"1015",79.33471,33.861816
"1016",78.61448,33.875122
"1017",77.87717,33.88849
"1018",77.15938,33.901794
"1019",76.48066,33.91516
"1020",75.860535,33.928467
"1021",75.31365,33.941833
"1022",74.844894,33.95514
"1023",74.4567,33.968506
"1024",74.14664,33.98181
"1025",73.91226,33.99518
"1026",73.74624,34.008484
"1027",73.64126,34.02179
"1028",73.582664,34.035156
"1029",73.55581,34.048462
"1030",73.55337,34.06183
"1031",73.56069,34.075134
"1032",73.57778,34.0885
"1033",73.599754,34.101807
"1034",73.62661,34.115173
"1035",73.651024,34.12848
"1036",73.67788,34.141846
"1037",73.69741,34.15515
"1038",73.70229,34.168518
"1039",73.69253,34.181824
"1040",73.66079,34.19519
"1041",73.60464,34.208496
"1042",73.54116,34.2218
"1043",73.50942,34.23517
"1044",73.602196,34.248474
"1045",73.970856,34.26184
"1046",74.84245,34.275146
"1047",76.43183,34.288513
"1048",78.80003,34.30182
"1049",81.78836,34.315186
"1050",85.067215,34.32849
"1051",88.19714,34.341858
"1052",90.775314,34.355164
"1053",92.560005,34.36853
"1054",93.524376,34.381836
"1055",93.785614,34.395203
"1056",93.5024,34.40851
"1057",92.83589,34.421814
"1058",91.92767,34.43518
"1059",90.8925,34.448486
"1060",89.8085,34.461853
"1061",88.741585,34.47516
"1062",87.71374,34.488525
"1063",86.7396,34.50183
"1064",85.83383,34.515198
"1065",85.01106,34.528503
"1066",84.29084,34.54187
"1067",83.700005,34.555176
"1068",83.26055,34.568542
"1069",82.97002,34.58185
"1070",82.804,34.595215
"1071",82.72343,34.60852
"1072",82.67216,34.621887
"1073",82.59647,34.635193
"1074",82.44999,34.6485
"1075",82.19852,34.661865
"1076",81.83475,34.67517
"1077",81.358665,34.688538
"1078",80.780045,34.701843
"1079",80.12329,34.71521
"1080",79.412834,34.728516
"1081",78.66575,34.741882
"1082",77.91379,34.755188
"1083",77.17891,34.768555
"1084",76.4831,34.78186
"1085",75.84833,34.795227
"1086",75.29412,34.808533
"1087",74.82536,34.8219
"1088",74.43717,34.835205
"1089",74.12955,34.84857
"1090",73.89761,34.861877
"1091",73.72915,34.875183
"1092",73.62173,34.88855
"1093",73.56313,34.901855
"1094",73.54604,34.915222
"1095",73.548485,34.928528
"1096",73.568016,34.941895
"1097",73.59243,34.9552
"1098",73.616844,34.968567
"1099",73.64126,34.981873
"1100",73.66323,34.99524
"1101",73.67788,35.008545
"1102",73.68276,35.02191
"1103",73.670555,35.035217
"1104",73.63149,35.048584
"1105",73.568016,35.06189
"1106",73.48501,35.075195
"1107",73.392235,35.088562
"1108",73.323875,35.101868
"1109",73.338524,35.115234
"1110",73.56313,35.12854
"1111",74.18814,35.141907
"1112",75.45281,35.155212
"1113",77.503624,35.16858
"1114",80.274666,35.181885
"1115",83.492485,35.19525
"1116",86.746925,35.208557
"1117",89.60342,35.221924
"1118",91.72991,35.23523
"1119",93.014114,35.248596
"1120",93.52682,35.2619
"1121",93.42672,35.275208
"1122",92.87251,35.288574
"1123",92.015564,35.30188
"1124",90.98039,35.315247
"1125",89.85733,35.328552
"1126",88.71473,35.34192
"1127",87.59167,35.355225
"1128",86.51743,35.36859
"1129",85.51156,35.381897
"1130",84.58625,35.395264
"1131",83.78302,35.40857
"1132",83.12871,35.421936
"1133",82.65751,35.43524
"1134",82.37675,35.44861
"1135",82.266884,35.461914
"1136",82.27421,35.47528
"1137",82.337685,35.488586
"1138",82.38163,35.501892
"1139",82.340126,35.51526
"1140",82.176544,35.528564
"1141",81.87625,35.54193
"1142",81.444115,35.555237
"1143",80.89967,35.568604
"1144",80.26002,35.58191
"1145",79.554436,35.595276
"1146",78.80492,35.60858
"1147",78.03586,35.62195
"1148",77.27657,35.635254
"1149",76.558784,35.64862
"1150",75.90692,35.661926
"1151",75.338066,35.675293
"1152",74.85954,35.6886
"1153",74.47135,35.701965
"1154",74.16861,35.71527
"1155",73.936676,35.728577
"1156",73.7731,35.741943
"1157",73.66811,35.75525
"1158",73.60952,35.768616
"1159",73.585106,35.78192
"1160",73.59243,35.795288
"1161",73.6144,35.808594
"1162",73.64858,35.82196
"1163",73.69497,35.835266
"1164",73.738914,35.848633
"1165",73.78287,35.86194
"1166",73.82681,35.875305
"1167",73.86099,35.88861
"1168",73.88541,35.901978
"1169",73.89761,35.915283
"1170",73.89517,35.92859
"1171",73.86832,35.941956
"1172",73.81949,35.95526
"1173",73.75601,35.968628
"1174",73.70229,35.981934
"1175",73.70962,35.9953
"1176",73.88785,36.008606
"1177",74.40543,36.021973
"1178",75.48699,36.03528
"1179",77.30099,36.048645
"1180",79.85474,36.06195
"1181",82.930954,36.075317
"1182",86.153656,36.088623
"1183",89.0956,36.10199
"1184",91.393,36.115295
"1185",92.85542,36.1286
"1186",93.49996,36.141968
"1187",93.46334,36.155273
"1188",92.909134,36.16864
"1189",91.98871,36.181946
"1190",90.84123,36.195312
"1191",89.56924,36.20862
"1192",88.24597,36.221985
"1193",86.91783,36.23529
"1194",85.63363,36.248657
"1195",84.43244,36.261963
"1196",83.370415,36.27533
"1197",82.49882,36.288635
"1198",81.87137,36.302002
"1199",81.514915,36.315308
"1200",81.427025,36.328674
"1201",81.5613,36.34198
"1202",81.83963,36.355286
"1203",82.161896,36.368652
"1204",82.4329,36.381958
"1205",82.56718,36.395325
"1206",82.52079,36.40863
"1207",82.28153,36.421997
"1208",81.85672,36.435303
"1209",81.287865,36.44867
"1210",80.601814,36.461975
"1211",79.84741,36.47534
"1212",79.05638,36.488647
"1213",78.2678,36.502014
"1214",77.51095,36.51532
"1215",76.81026,36.528687
"1216",76.18768,36.541992
"1217",75.65545,36.55536
"1218",75.21843,36.568665
"1219",74.87175,36.58197
"1220",74.61051,36.595337
"1221",74.42985,36.608643
"1222",74.31266,36.62201
"1223",74.246735,36.635315
"1224",74.22232,36.64868
"1225",74.23453,36.661987
"1226",74.2736,36.675354
"1227",74.337074,36.68866
"1228",74.41276,36.702026
"1229",74.49088,36.715332
"1230",74.564125,36.7287
"1231",74.617836,36.742004
"1232",74.63981,36.75537
"1233",74.62272,36.768677
"1234",74.56657,36.781982
"1235",74.476234,36.79535
"1236",74.38102,36.808655
"1237",74.32975,36.82202
"1238",74.41764,36.835327
"1239",74.8156,36.848694
"1240",75.7409,36.862
"1241",77.37423,36.875366
"1242",79.73022,36.88867
"1243",82.62821,36.90204
"1244",85.711754,36.915344
"1245",88.5658,36.92871
"1246",90.8217,36.942017
"1247",92.29389,36.955383
"1248",92.982376,36.96869
"1249",93.00923,36.981995
"1250",92.523384,36.99536
"1251",91.67132,37.008667
"1252",90.58488,37.022034
"1253",89.36172,37.03534
"1254",88.07263,37.048706
"1255",86.77379,37.06201
"1256",85.50912,37.07538
"1257",84.32014,37.088684
"1258",83.25811,37.10205
"1259",82.374306,37.115356
"1260",81.71999,37.128723
"1261",81.324486,37.14203
"1262",81.18288,37.155396
"1263",81.25124,37.1687
"1264",81.45388,37.182068
"1265",81.69802,37.195374
"1266",81.89578,37.20868
"1267",81.971466,37.222046
"1268",81.881134,37.23535
"1269",81.61257,37.24872
"1270",81.18288,37.262024
"1271",80.618904,37.27539
"1272",79.94995,37.288696
"1273",79.217514,37.302063
"1274",78.45335,37.31537
"1275",77.68673,37.328735
"1276",76.93965,37.34204
"1277",76.24872,37.355408
"1278",75.63348,37.368713
"1279",75.10857,37.38208
"1280",74.67643,37.395386
"1281",74.34196,37.408752
"1282",74.09537,37.42206
"1283",73.92691,37.435364
"1284",73.82193,37.44873
"1285",73.7731,37.462036
"1286",73.763336,37.475403
"1287",73.78531,37.48871
"1288",73.829254,37.502075
"1289",73.88785,37.51538
"1290",73.953766,37.528748
"1291",74.02457,37.542053
"1292",74.09537,37.55542
"1293",74.15396,37.568726
"1294",74.195465,37.582092
"1295",74.212555,37.595398
"1296",74.19791,37.608765
"1297",74.15396,37.62207
"1298",74.092926,37.635376
"1299",74.04898,37.648743
"1300",74.10513,37.66205
"1301",74.407875,37.675415
"1302",75.20134,37.68872
"1303",76.715034,37.702087
"1304",79.03685,37.715393
"1305",82.02762,37.72876
"1306",85.350426,37.742065
"1307",88.55604,37.755432
"1308",91.21721,37.768738
"1309",93.08003,37.782104
"1310",94.103,37.79541
"1311",94.40818,37.808777
"1312",94.15427,37.822083
"1313",93.504845,37.83539
"1314",92.59663,37.848755
"1315",91.53948,37.86206
"1316",90.423744,37.875427
"1317",89.322655,37.888733
"1318",88.27039,37.9021
"1319",87.276726,37.915405
"1320",86.35874,37.928772
"1321",85.52621,37.942078
"1322",84.79622,37.955444
"1323",84.18829,37.96875
"1324",83.73907,37.982117
"1325",83.4461,37.995422
"1326",83.284966,38.00879
"1327",83.20683,38.022095
"1328",83.15068,38.03546
"1329",83.055466,38.048767
"1330",82.87724,38.062073
"1331",82.58915,38.07544
"1332",82.19119,38.088745
"1333",81.69314,38.10211
"1334",81.09987,38.115417
"1335",80.4358,38.128784
"1336",79.72045,38.14209
"1337",78.97826,38.155457
"1338",78.23605,38.168762
"1339",77.523155,38.18213
"1340",76.859085,38.195435
"1341",76.25849,38.2088
"1342",75.733574,38.222107
"1343",75.2868,38.235474
"1344",74.93034,38.24878
"1345",74.652016,38.262146
"1346",74.444496,38.27545
"1347",74.29801,38.288757
"1348",74.20279,38.302124
"1349",74.144196,38.31543
"1350",74.1149,38.328796
"1351",74.107574,38.342102
"1352",74.107574,38.35547
"1353",74.11246,38.368774
"1354",74.11978,38.38214
"1355",74.11734,38.395447
"1356",74.09537,38.408813
"1357",74.04898,38.42212
"1358",73.96597,38.435486
"1359",73.8439,38.44879
"1360",73.69009,38.46216
"1361",73.52651,38.475464
"1362",73.39712,38.48877
"1363",73.39468,38.502136
"1364",73.69009,38.51544
"1365",74.50797,38.52881
"1366",76.03143,38.542114
"1367",78.29221,38.55548
"1368",81.12184,38.568787
"1369",84.190735,38.582153
"1370",87.08629,38.59546
"1371",89.44717,38.608826
"1372",91.087814,38.62213
"1373",91.99603,38.635498
"1374",92.26215,38.648804
"1375",92.02777,38.66217
"1376",91.4345,38.675476
"1377",90.60197,38.68878
"1378",89.635155,38.70215
"1379",88.619514,38.715454
"1380",87.61364,38.72882
"1381",86.64683,38.742126
"1382",85.73861,38.755493
"1383",84.89876,38.7688
"1384",84.14191,38.782166
"1385",83.49493,38.79547
"1386",82.98222,38.808838
"1387",82.61845,38.822144
"1388",82.4036,38.83551
"1389",82.30839,38.848816
"1390",82.28397,38.862183
"1391",82.27421,38.87549
"1392",82.22049,38.888855
"1393",82.08621,38.90216
"1394",81.84207,38.915466
"1395",81.48562,38.928833
"1396",81.02174,38.94214
"1397",80.46754,38.955505
"1398",79.835205,38.96881
"1399",79.149155,38.982178
"1400",78.44358,38.995483
"1401",77.747765,39.00885
"1402",77.086136,39.022156
"1403",76.48066,39.035522
"1404",75.948425,39.04883
"1405",75.491875,39.062195
"1406",75.11345,39.0755
"1407",74.810715,39.088867
"1408",74.58366,39.102173
"1409",74.42252,39.11554
"1410",74.31754,39.128845
"1411",74.25895,39.14215
"1412",74.2272,39.155518
"1413",74.215,39.168823
"1414",74.215,39.18219
"1415",74.22232,39.195496
"1416",74.2272,39.208862
"1417",74.2272,39.222168
"1418",74.212555,39.235535
"1419",74.18082,39.24884
"1420",74.12222,39.262207
"1421",74.02945,39.275513
"1422",73.9025,39.28888
"1423",73.73647,39.302185
"1424",73.5436,39.31555
"1425",73.35317,39.328857
"1426",73.23842,39.342163
"1427",73.32632,39.35553
"1428",73.829254,39.368835
"1429",74.95232,39.382202
"1430",76.80293,39.395508
"1431",79.31762,39.408875
"1432",82.23758,39.42218
"1433",85.18196,39.435547
"1434",87.767456,39.448853
"1435",89.720604,39.46222
"1436",90.94621,39.475525
"1437",91.48333,39.48889
"1438",91.44915,39.502197
"1439",90.98039,39.515564
"1440",90.20889,39.52887
"1441",89.24452,39.542175
"1442",88.18494,39.555542
"1443",87.096054,39.568848
"1444",86.02426,39.582214
"1445",84.996414,39.59552
"1446",84.03693,39.608887
"1447",83.18486,39.622192
"1448",82.48661,39.63556
"1449",81.97879,39.648865
"1450",81.69314,39.66223
"1451",81.62722,39.675537
"1452",81.72976,39.688904
"1453",81.92996,39.70221
"1454",82.13504,39.715576
"1455",82.26444,39.72888
"1456",82.25956,39.74225
"1457",82.091095,39.755554
"1458",81.75662,39.76886
"1459",81.27566,39.782227
"1460",80.672615,39.795532
"1461",79.98657,39.8089
"1462",79.24925,39.822205
"1463",78.49729,39.83557
"1464",77.75998,39.848877
"1465",77.06416,39.862244
"1466",76.42939,39.87555
"1467",75.8703,39.888916
"1468",75.3991,39.90222
"1469",75.018234,39.91559
"1470",74.72526,39.928894
"1471",74.50797,39.94226
"1472",74.354164,39.955566
"1473",74.25407,39.968933
"1474",74.20523,39.98224
"1475",74.20035,39.995544
"1476",74.23697,40.00891
"1477",74.305336,40.022217
"1478",74.39323,40.035583
"1479",74.486,40.04889
"1480",74.56657,40.062256
"1481",74.63004,40.07556
"1482",74.65446,40.08893
"1483",74.6276,40.102234
"1484",74.53971,40.1156
"1485",74.390785,40.128906
"1486",74.1857,40.142273
"1487",73.95621,40.15558
"1488",73.738914,40.168945
"1489",73.62661,40.18225
"1490",73.7731,40.195557
"1491",74.39323,40.208923
"1492",75.67254,40.22223
"1493",77.679405,40.235596
"1494",80.27955,40.2489
"1495",83.18486,40.262268
"1496",85.997406,40.275574
"1497",88.360725,40.28894
"1498",90.04532,40.302246
"1499",90.99992,40.315613
"1500",91.2929,40.32892
"1501",91.05119,40.342285
"1502",90.41154,40.35559
"1503",89.49355,40.368958
"1504",88.39979,40.382263
"1505",87.21324,40.39557
"1506",85.9852,40.408936
"1507",84.76936,40.42224
"1508",83.612114,40.435608
"1509",82.56962,40.448914
"1510",81.71267,40.46228
"1511",81.094986,40.475586
"1512",80.75563,40.488953
"1513",80.689705,40.50226
"1514",80.85573,40.515625
"1515",81.16823,40.52893
"1516",81.52712,40.542297
"1517",81.83475,40.555603
"1518",82.005646,40.56897
"1519",81.988556,40.582275
"1520",81.778595,40.595642
"1521",81.38308,40.608948
"1522",80.833755,40.622253
"1523",80.16968,40.63562
"1524",79.44457,40.648926
"1525",78.692604,40.662292
"1526",77.95773,40.6756
"1527",77.26925,40.688965
"1528",76.654,40.70227
"1529",76.121765,40.715637
"1530",75.68963,40.728943
"1531",75.352715,40.74231
"1532",75.10857,40.755615
"1533",74.94255,40.768982
"1534",74.844894,40.782288
"1535",74.80095,40.795654
"1536",74.79607,40.80896
"1537",74.81804,40.822327
"1538",74.861984,40.835632
"1539",74.92058,40.848938
"1540",74.99382,40.862305
"1541",75.07439,40.87561
"1542",75.15495,40.888977
"1543",75.22087,40.902283
"1544",75.25994,40.91565
"1545",75.245285,40.928955
"1546",75.174484,40.94232
"1547",75.04753,40.955627
"1548",74.896164,40.968994
"1549",74.77165,40.9823
"1550",74.776535,40.995667
"1551",75.089035,41.008972
"1552",75.945984,41.02234
"1553",77.52071,41.035645
"1554",79.84253,41.04895
"1555",82.735634,41.062317
"1556",85.875336,41.075623
"1557",88.85634,41.08899
"1558",91.32708,41.102295
"1559",93.09712,41.11566
"1560",94.14694,41.128967
"1561",94.554665,41.142334
"1562",94.43992,41.15564
"1563",93.927216,41.169006
"1564",93.138626,41.182312
"1565",92.18646,41.19568
"1566",91.1635,41.208984
"1567",90.14542,41.22235
"1568",89.178604,41.235657
"1569",88.27772,41.248962
"1570",87.4403,41.26233
"1571",86.66636,41.275635
"1572",85.96323,41.289
"1573",85.347984,41.302307
"1574",84.83772,41.315674
"1575",84.44709,41.32898
"1576",84.16632,41.342346
"1577",83.963684,41.35565
"1578",83.809875,41.36902
"1579",83.65118,41.382324
"1580",83.45098,41.39569
"1581",83.17998,41.408997
"1582",82.81377,41.422363
"1583",82.34501,41.43567
"1584",81.77371,41.449036
"1585",81.112076,41.46234
"1586",80.38209,41.475647
"1587",79.61059,41.489014
"1588",78.82445,41.50232
"1589",78.048065,41.515686
"1590",77.30831,41.52899
"1591",76.6247,41.54236
"1592",76.0119,41.555664
"1593",75.48455,41.56903
"1594",75.0573,41.582336
"1595",74.72282,41.595703
"1596",74.48356,41.60901
"1597",74.32731,41.622375
"1598",74.246735,41.63568
"1599",74.21744,41.649048
"1600",74.23453,41.662354
"1601",74.27848,41.67572
"1602",74.33219,41.689026
"1603",74.390785,41.70233
"1604",74.44938,41.7157
"1605",74.49821,41.729004
"1606",74.53239,41.74237
"1607",74.547035,41.755676
"1608",74.527504,41.769043
"1609",74.45426,41.78235
"1610",74.319984,41.795715
"1611",74.124664,41.80902
"1612",73.89029,41.822388
"1613",73.67788,41.835693
"1614",73.62905,41.84906
"1615",73.94888,41.862366
"1616",74.847336,41.875732
"1617",76.436714,41.889038
"1618",78.658424,41.902344
"1619",81.28298,41.91571
"1620",83.980774,41.929016
"1621",86.414894,41.942383
"1622",88.33875,41.95569
"1623",89.652245,41.969055
"1624",90.37003,41.98236
"1625",90.57267,41.995728
"1626",90.36027,42.009033
"1627",89.84024,42.0224
"1628",89.13466,42.035706
"1629",88.341194,42.049072
"1630",87.53796,42.062378
"1631",86.751816,42.075745
"1632",85.99985,42.08905
"1633",85.27718,42.102356
"1634",84.58381,42.115723
"1635",83.931946,42.12903
"1636",83.346,42.142395
"1637",82.862595,42.1557
"1638",82.493935,42.169067
"1639",82.2449,42.182373
"1640",82.091095,42.19574
"1641",81.986115,42.209045
"1642",81.883575,42.222412
"1643",81.73464,42.235718
"1644",81.51003,42.249084
"1645",81.18288,42.26239
"1646",80.75319,42.275757
"1647",80.22827,42.289062
"1648",79.62768,42.30243
"1649",78.97337,42.315735
"1650",78.29954,42.32904
"1651",77.628136,42.342407
"1652",76.99092,42.355713
"1653",76.39521,42.36908
"1654",75.862976,42.382385
"1655",75.41375,42.395752
"1656",75.052414,42.409058
"1657",74.76677,42.422424
"1658",74.54459,42.43573
"1659",74.36393,42.449097
"1660",74.20767,42.462402
"1661",74.06851,42.47577
"1662",73.94888,42.489075
"1663",73.85367,42.50244
"1664",73.780426,42.515747
"1665",73.72915,42.529114
"1666",73.69253,42.54242
"1667",73.66567,42.555725
"1668",73.63882,42.56909
"1669",73.602196,42.582397
"1670",73.55581,42.595764
"1671",73.497215,42.60907
"1672",73.42397,42.622437
"1673",73.32876,42.635742
"1674",73.20668,42.64911
"1675",73.043106,42.662415
"1676",72.833145,42.67578
"1677",72.58167,42.689087
"1678",72.342415,42.702454
"1679",72.22278,42.71576
"1680",72.410774,42.729126
"1681",73.14076,42.74243
"1682",74.59586,42.755737
"1683",76.788284,42.769104
"1684",79.54223,42.78241
"1685",82.52567,42.795776
"1686",85.34066,42.809082
"1687",87.65026,42.82245
"1688",89.28603,42.835754
"1689",90.23819,42.84912
"1690",90.597084,42.862427
"1691",90.48966,42.875793
"1692",90.03555,42.8891
"1693",89.36172,42.902466
"1694",88.56092,42.91577
"1695",87.711296,42.92914
"1696",86.85191,42.942444
"1697",86.012054,42.95575
"1698",85.206375,42.969116
"1699",84.44709,42.98242
"1700",83.75372,42.99579
"1701",83.160446,43.009094
"1702",82.69413,43.02246
"1703",82.371864,43.035767
"1704",82.18143,43.049133
"1705",82.09598,43.06244
"1706",82.07156,43.075806
"1707",82.056915,43.08911
"1708",82.01053,43.102478
"1709",81.8909,43.115784
"1710",81.67605,43.12915
"1711",81.35134,43.142456
"1712",80.921646,43.155823
"1713",80.39185,43.16913
"1714",79.781494,43.182434
"1715",79.10765,43.1958
"1716",78.38987,43.209106
"1717",77.65499,43.222473
"1718",76.95186,43.23578
"1719",76.35615,43.249146
"1720",75.96063,43.26245
"1721",75.841,43.275818
"1722",76.053406,43.289124
"1723",76.5832,43.30249
"1724",77.366905,43.315796
"1725",78.28001,43.329163
"1726",79.18089,43.34247
"1727",79.93286,43.355835
"1728",80.43336,43.36914
"1729",80.6067,43.382507
"1730",80.430916,43.395813
"1731",79.91333,43.40912
"1732",79.10033,43.422485
"1733",78.04562,43.43579
"1734",76.8127,43.449158
"1735",75.48211,43.462463
"1736",74.14664,43.47583
"1737",72.921036,43.489136
"1738",71.90784,43.502502
"1739",71.202255,43.51581
"1740",70.872665,43.529175
"1741",70.93126,43.54248
"1742",71.34142,43.555847
"1743",72.047,43.569153
"1744",72.98207,43.58252
"1745",74.107574,43.595825
"1746",75.421074,43.60913
"1747",76.912796,43.622498
"1748",78.55833,43.635803
"1749",80.28199,43.64917
"1750",81.97391,43.662476
"1751",83.49493,43.675842
"1752",84.72541,43.689148
"1753",85.59457,43.702515
"1754",86.0853,43.71582
"1755",86.21225,43.729187
"1756",86.01938,43.742493
"1757",85.57259,43.75586
"1758",84.9427,43.769165
"1759",84.190735,43.78253
"1760",83.370415,43.795837
"1761",82.513466,43.809143
"1762",81.62234,43.82251
"1763",80.68726,43.835815
"1764",79.71557,43.849182
"1765",78.72678,43.862488
"1766",77.769745,43.875854
"1767",76.91768,43.88916
"1768",76.24628,43.902527
"1769",75.826355,43.915833
"1770",75.69451,43.9292
"1771",75.83612,43.942505
"1772",76.19989,43.95587
"1773",76.70283,43.969177
"1774",77.2375,43.982544
"1775",77.7087,43.99585
"1776",78.05295,44.009216
"1777",78.238495,44.022522
"1778",78.27268,44.035828
"1779",78.17502,44.049194
"1780",77.98459,44.0625
"1781",77.738,44.075867
"1782",77.454796,44.089172
"1783",77.15694,44.10254
"1784",76.8542,44.115845
"1785",76.561226,44.12921
"1786",76.297554,44.142517
"1787",76.09003,44.155884
"1788",75.95575,44.16919
"1789",75.92401,44.182556
"1790",76.016785,44.19586
"1791",76.241394,44.20923
"1792",76.5832,44.222534
"1793",77.01289,44.2359
"1794",77.486534,44.249207
"1795",77.94064,44.262512
"1796",78.311745,44.27588
"1797",78.553444,44.289185
"1798",78.63889,44.30255
"1799",78.55833,44.315857
"1800",78.32151,44.329224
"1801",77.95285,44.34253
"1802",77.47921,44.355896
"1803",76.93233,44.3692
"1804",76.35615,44.38257
"1805",75.77997,44.395874
"1806",75.27215,44.40918
"1807",74.932785,44.422546
"1808",74.91325,44.435852
"1809",75.38201,44.44922
"1810",76.46113,44.462524
"1811",78.153046,44.47589
"1812",80.31129,44.489197
"1813",82.667274,44.502502
"1814",84.893875,44.51587
"1815",86.712746,44.529175
"1816",87.957886,44.54254
"1817",88.59022,44.555847
"1818",88.64881,44.569214
"1819",88.23865,44.58252
"1820",87.47448,44.595886
"1821",86.468605,44.60919
"1822",85.30648,44.622498
"1823",84.054016,44.635864
"1824",82.75517,44.64917
"1825",81.446556,44.662537
"1826",80.177,44.675842
"1827",79.0222,44.68921
"1828",78.05295,44.702515
"1829",77.35714,44.71588
"1830",76.995804,44.729187
"1831",76.99092,44.742493
"1832",77.31808,44.75586
"1833",77.90402,44.769165
"1834",78.63889,44.78253
"1835",79.3933,44.795837
"1836",80.042725,44.809204
"1837",80.51392,44.82251
"1838",80.75319,44.835815
"1839",80.76051,44.849182
"1840",80.550545,44.862488
"1841",80.164795,44.875854
"1842",79.63744,44.88916
"1843",79.00755,44.902527
"1844",78.311745,44.915833
"1845",77.58663,44.92914
"1846",76.85664,44.942505
"1847",76.155945,44.95581
"1848",75.511406,44.969177
"1849",74.949875,44.982483
"1850",74.486,44.99585
"1851",74.12955,45.009155
"1852",73.8732,45.022522
"1853",73.71206,45.035828
"1854",73.633934,45.049133
"1855",73.62173,45.0625
"1856",73.66567,45.075806
"1857",73.74868,45.089172
"1858",73.85611,45.102478
"1859",73.97574,45.115845
"1860",74.090485,45.12915
"1861",74.18814,45.142517
"1862",74.25895,45.155823
"1863",74.285805,45.16913
"1864",74.285805,45.182495
"1865",74.29801,45.1958
"1866",74.43229,45.209167
"1867",74.91081,45.222473
"1868",76.02167,45.23584
"1869",77.99191,45.249146
"1870",80.84108,45.26245
"1871",84.33967,45.275818
"1872",88.03845,45.289124
"1873",91.424736,45.30249
"1874",94.06882,45.315796
"1875",95.76074,45.329163
"1876",96.52491,45.34247
"1877",96.52735,45.355774
"1878",95.95361,45.36914
"1879",94.97948,45.382446
"1880",93.753876,45.395813
"1881",92.39399,45.40912
"1882",90.97795,45.422485
"1883",89.55947,45.43579
"1884",88.165405,45.449158
"1885",86.820175,45.462463
"1886",85.56039,45.47577
"1887",84.439766,45.489136
"1888",83.51934,45.50244
"1889",82.85771,45.51581
"1890",82.47929,45.529114
"1891",82.374306,45.54248
"1892",82.48173,45.555786
"1893",82.70878,45.569153
"1894",82.95537,45.58246
"1895",83.123825,45.595764
"1896",83.14824,45.60913
"1897",82.99443,45.622437
"1898",82.66239,45.635803
"1899",82.16922,45.64911
"1900",81.54177,45.662476
"1901",80.82155,45.67578
"1902",80.0354,45.689087
"1903",79.21507,45.702454
"1904",78.380104,45.71576
"1905",77.557335,45.729126
"1906",76.76631,45.74243
"1907",76.016785,45.7558
"1908",75.33318,45.769104
"1909",74.73502,45.78241
"1910",74.229645,45.795776
"1911",73.82681,45.809082
"1912",73.51919,45.82245
"1913",73.29946,45.835754
"1914",73.15297,45.84912
"1915",73.06264,45.862427
"1916",73.01381,45.875793
"1917",72.99184,45.8891
"1918",72.972305,45.902405
"1919",72.94301,45.91577
"1920",72.89418,45.929077
"1921",72.83803,45.942444
"1922",72.82338,45.95575
"1923",72.98451,45.969116
"1924",73.5436,45.98242
"1925",74.76677,45.99579
"1926",76.81514,46.009094
"1927",79.62768,46.0224
"1928",82.91875,46.035767
"1929",86.25376,46.049072
"1930",89.17128,46.06244
"1931",91.334404,46.075745
"1932",92.628365,46.08911
"1933",93.12398,46.102417
"1934",92.979935,46.115723
"1935",92.35493,46.12909
"1936",91.39788,46.142395
"1937",90.23819,46.15576
"1938",88.97597,46.169067
"1939",87.69421,46.182434
"1940",86.44907,46.19574
"1941",85.26498,46.209045
"1942",84.16144,46.222412
"1943",83.15068,46.235718
"1944",82.252235,46.249084
"1945",81.497826,46.26239
"1946",80.92409,46.275757
"1947",80.55787,46.289062
"1948",80.4065,46.30243
"1949",80.44312,46.315735
"1950",80.61402,46.32904
"1951",80.84108,46.342407
"1952",81.04616,46.355713
"1953",81.163345,46.36908
"1954",81.15114,46.382385
"1955",80.990005,46.395752
"1956",80.68238,46.409058
"1957",80.25269,46.422424
"1958",79.727776,46.43573
"1959",79.13451,46.449036
"1960",78.49485,46.462402
"1961",77.83322,46.475708
"1962",77.17647,46.489075
"1963",76.541695,46.50238
"1964",75.948425,46.515747
"1965",75.41619,46.529053
"1966",74.95964,46.54236
"1967",74.57633,46.555725
"1968",74.2736,46.56903
"1969",74.04166,46.582397
"1970",73.87564,46.595703
"1971",73.76578,46.60907
"1972",73.70718,46.622375
"1973",73.68276,46.63568
"1974",73.68032,46.649048
"1975",73.67788,46.662354
"1976",73.65835,46.67572
"1977",73.616844,46.689026
"1978",73.55337,46.702393
"1979",73.51186,46.7157
"1980",73.59243,46.729065
"1981",73.98306,46.74237
"1982",74.915695,46.755676
"1983",76.5539,46.769043
"1984",78.88304,46.78235
"1985",81.688255,46.795715
"1986",84.610664,46.80902
"1987",87.2401,46.822388
"1988",89.249405,46.835693
"1989",90.49699,46.84906
"1990",91.00481,46.862366
"1991",90.899826,46.87567
"1992",90.33585,46.889038
"1993",89.45693,46.902344
"1994",88.38514,46.91571
"1995",87.220566,46.929016
"1996",86.04379,46.942383
"1997",84.89632,46.95569
"1998",83.80255,46.968994
"1999",82.78691,46.98236
"2000",81.883575,46.995667
"2001",81.112076,47.009033
"2002",80.51881,47.02234
"2003",80.13794,47.035706
"2004",79.98169,47.04901
"2005",80.0354,47.062317
"2006",80.25025,47.075684
"2007",80.53834,47.08899
"2008",80.81911,47.102356
"2009",81.01686,47.11566
"2010",81.077896,47.12903
"2011",80.98268,47.142334
"2012",80.740974,47.1557
"2013",80.36744,47.169006
"2014",79.8938,47.182312
"2015",79.34936,47.19568
"2016",78.75853,47.208984
"2017",78.150604,47.22235
"2018",77.54757,47.235657
"2019",76.96895,47.249023
"2020",76.439156,47.26233
"2021",75.9704,47.275696
"2022",75.58221,47.289
"2023",75.28191,47.302307
"2024",75.071945,47.315674
"2025",74.9572,47.32898
"2026",74.9279,47.342346
"2027",74.96208,47.35565
"2028",75.04753,47.36902
"2029",75.15495,47.382324
"2030",75.25506,47.39563
"2031",75.32586,47.408997
"2032",75.352715,47.422302
"2033",75.335625,47.43567
"2034",75.28924,47.448975
"2035",75.24773,47.46234
"2036",75.31121,47.475647
"2037",75.6408,47.488953
"2038",76.422066,47.50232
"2039",77.77707,47.515625
"2040",79.68383,47.52899
"2041",81.971466,47.542297
"2042",84.349434,47.555664
"2043",86.49058,47.56897
"2044",88.13855,47.582336
"2045",89.178604,47.595642
"2046",89.618065,47.608948
"2047",89.532616,47.622314
"2048",89.041885,47.63562
"2049",88.26795,47.648987
"2050",87.31823,47.662292
"2051",86.29282,47.67566
"2052",85.262535,47.688965
"2053",84.26154,47.70233
"2054",83.31182,47.715637
"2055",82.42802,47.728943
"2056",81.634544,47.74231
"2057",80.970474,47.755615
"2058",80.47242,47.768982
"2059",80.17456,47.782288
"2060",80.08423,47.795654
"2061",80.17944,47.80896
"2062",80.396736,47.822266
"2063",80.66773,47.835632
"2064",80.91432,47.848938
"2065",81.07301,47.862305
"2066",81.10231,47.87561
"2067",80.98512,47.888977
"2068",80.726326,47.902283
"2069",80.35279,47.91559
"2070",79.888916,47.928955
"2071",79.36645,47.94226
"2072",78.82201,47.955627
"2073",78.277565,47.968933
"2074",77.752655,47.9823
"2075",77.26681,47.995605
"2076",76.82979,48.008972
"2077",76.45136,48.022278
"2078",76.13397,48.035583
"2079",75.877625,48.04895
"2080",75.682304,48.062256
"2081",75.545586,48.075623
"2082",75.46014,48.08893
"2083",75.421074,48.102295
"2084",75.41619,48.1156
"2085",75.43816,48.128967
"2086",75.46746,48.142273
"2087",75.491875,48.15558
"2088",75.494316,48.168945
"2089",75.46746,48.18225
"2090",75.403984,48.195618
"2091",75.31609,48.208923
"2092",75.2404,48.22229
"2093",75.264824,48.235596
"2094",75.55291,48.2489
"2095",76.282906,48.262268
"2096",77.574425,48.275574
"2097",79.40795,48.28894
"2098",81.617455,48.302246
"2099",83.92462,48.315613
"2100",86.01694,48.32892
"2101",87.638054,48.342224
"2102",88.6659,48.35559
"2103",89.110245,48.368896
"2104",89.04677,48.382263
"2105",88.58045,48.39557
"2106",87.82849,48.408936
"2107",86.90318,48.42224
"2108",85.90219,48.435608
"2109",84.9012,48.448914
"2110",83.949036,48.46222
"2111",83.072556,48.475586
"2112",82.286415,48.48889
"2113",81.60769,48.50226
"2114",81.058365,48.515564
"2115",80.65797,48.52893
"2116",80.4358,48.542236
"2117",80.38453,48.555603
"2118",80.47242,48.56891
"2119",80.64088,48.582214
"2120",80.82643,48.59558
"2121",80.95827,48.608887
"2122",80.99245,48.622253
"2123",80.90456,48.63556
"2124",80.69215,48.648926
"2125",80.365,48.66223
"2126",79.94995,48.675537
"2127",79.47631,48.688904
"2128",78.96849,48.70221
"2129",78.45579,48.715576
"2130",77.95773,48.72888
"2131",77.49386,48.74225
"2132",77.07393,48.755554
"2133",76.71015,48.76886
"2134",76.40742,48.782227
"2135",76.16815,48.795532
"2136",75.98749,48.8089
"2137",75.86786,48.822205
"2138",75.79706,48.83557
"2139",75.76288,48.848877
"2140",75.76776,48.862244
"2141",75.79706,48.87555
"2142",75.841,48.888855
"2143",75.88983,48.90222
"2144",75.93622,48.915527
"2145",75.965515,48.928894
"2146",75.965515,48.9422
"2147",75.928894,48.955566
"2148",75.85565,48.968872
"2149",75.75311,48.98224
"2150",75.648125,48.995544
"2151",75.60906,49.00885
"2152",75.76288,49.022217
"2153",76.280464,49.035522
"2154",77.296104,49.04889
"2155",78.83177,49.062195
"2156",80.7776,49.07556
"2157",82.90654,49.088867
"2158",84.92561,49.102173
"2159",86.58335,49.11554
"2160",87.725945,49.128845
"2161",88.31922,49.142212
"2162",88.41688,49.155518
"2163",88.10437,49.168884
"2164",87.49157,49.18219
"2165",86.69077,49.195496
"2166",85.79721,49.208862
"2167",84.876785,49.222168
"2168",83.97833,49.235535
"2169",83.123825,49.24884
"2170",82.33524,49.262207
"2171",81.64187,49.275513
"2172",81.07057,49.28888
"2173",80.65797,49.302185
"2174",80.4358,49.31549
"2175",80.4065,49.328857
"2176",80.53834,49.342163
"2177",80.77272,49.35553
"2178",81.03639,49.368835
"2179",81.25613,49.382202
"2180",81.373314,49.395508
"2181",81.358665,49.408875
"2182",81.197525,49.42218
"2183",80.91188,49.435486
"2184",80.52369,49.448853
"2185",80.0647,49.46216
"2186",79.569084,49.475525
"2187",79.05394,49.48883
"2188",78.54612,49.502197
"2189",78.065155,49.515503
"2190",77.625694,49.52881
"2191",77.23506,49.542175
"2192",76.910355,49.55548
"2193",76.65644,49.568848
"2194",76.470894,49.582153
"2195",76.34394,49.59552
"2196",76.27314,49.608826
"2197",76.241394,49.62213
"2198",76.23895,49.635498
"2199",76.25605,49.648804
"2200",76.280464,49.66217
"2201",76.30244,49.675476
"2202",76.31953,49.688843
"2203",76.32685,49.70215
"2204",76.30732,49.715515
"2205",76.25117,49.72882
"2206",76.1535,49.742126
"2207",76.00946,49.755493
"2208",75.83124,49.7688
"2209",75.648125,49.782166
"2210",75.53338,49.79547
"2211",75.62615,49.808838
"2212",76.102234,49.822144
"2213",77.09346,49.83551
"2214",78.62913,49.848816
"2215",80.59449,49.86212
"2216",82.75273,49.87549
"2217",84.805984,49.888794
"2218",86.49546,49.90216
"2219",87.66003,49.915466
"2220",88.26795,49.928833
"2221",88.36805,49.94214
"2222",88.05066,49.955444
"2223",87.42809,49.96881
"2224",86.60532,49.982117
"2225",85.68246,49.995483
"2226",84.72541,50.00879
"2227",83.78302,50.022156
"2228",82.879684,50.03546
"2229",82.04715,50.048767
"2230",81.31716,50.062134
"2231",80.73121,50.07544
"2232",80.33326,50.088806
"2233",80.15015,50.10211
"2234",80.17944,50.11548
"2235",80.37476,50.128784
"2236",80.672615,50.14215
"2237",80.987564,50.155457
"2238",81.24635,50.168762
"2239",81.38796,50.18213
"2240",81.38552,50.195435
"2241",81.22926,50.2088
"2242",80.93385,50.222107
"2243",80.52125,50.235474
"2244",80.025635,50.24878
"2245",79.48119,50.262146
"2246",78.91234,50.27545
"2247",78.345924,50.288757
"2248",77.806366,50.302124
"2249",77.313194,50.31543
"2250",76.87862,50.328796
"2251",76.51728,50.342102
"2252",76.23163,50.35547
"2253",76.016785,50.368774
"2254",75.86786,50.38208
"2255",75.775085,50.395447
"2256",75.72381,50.408752
"2257",75.70672,50.42212
"2258",75.718925,50.435425
"2259",75.75067,50.44879
"2260",75.79462,50.462097
"2261",75.843445,50.475403
"2262",75.88739,50.48877
"2263",75.91913,50.502075
"2264",75.92401,50.51544
"2265",75.89227,50.528748
"2266",75.81659,50.542114
"2267",75.68719,50.55542
"2268",75.508965,50.568787
"2269",75.30877,50.582092
"2270",75.14519,50.595398
"2271",75.159836,50.608765
"2272",75.55047,50.62207
"2273",76.50996,50.635437
"2274",78.12619,50.648743
"2275",80.31373,50.66211
"2276",82.82597,50.675415
"2277",85.32357,50.68878
"2278",87.47936,50.702087
"2279",89.0663,50.715393
"2280",90.006256,50.72876
"2281",90.34806,50.742065
"2282",90.1918,50.755432
"2283",89.6498,50.768738
"2284",88.84169,50.782104
"2285",87.87976,50.79541
"2286",86.86412,50.808716
"2287",85.858246,50.822083
"2288",84.9012,50.83539
"2289",84.017395,50.848755
"2290",83.228806,50.86206
"2291",82.55253,50.875427
"2292",82.01785,50.888733
"2293",81.654076,50.90204
"2294",81.48318,50.915405
"2295",81.4905,50.92871
"2296",81.634544,50.942078
"2297",81.84207,50.955383
"2298",82.04471,50.96875
"2299",82.176544,50.982056
"2300",82.193634,50.995422
"2301",82.07156,51.008728
"2302",81.812775,51.022034
"2303",81.4197,51.0354
"2304",80.92409,51.048706
"2305",80.34791,51.062073
"2306",79.72289,51.07538
"2307",79.078354,51.088745
"2308",78.44602,51.10205
"2309",77.85031,51.115417
"2310",77.30343,51.128723
"2311",76.81514,51.14203
"2312",76.40009,51.155396
"2313",76.053406,51.1687
"2314",75.77997,51.182068
"2315",75.577324,51.195374
"2316",75.43572,51.20874
"2317",75.34783,51.222046
"2318",75.301445,51.23535
"2319",75.29168,51.24872
"2320",75.30633,51.262024
"2321",75.33318,51.27539
"2322",75.36004,51.288696
"2323",75.38201,51.302063
"2324",75.37957,51.31537
"2325",75.34295,51.328674
"2326",75.26238,51.34204
"2327",75.125656,51.355347
"2328",74.93523,51.368713
"2329",74.69352,51.38202
"2330",74.42985,51.395386
"2331",74.21744,51.40869
"2332",74.18326,51.42206
"2333",74.529945,51.435364
"2334",75.47234,51.44867
"2335",77.117874,51.462036
"2336",79.398186,51.47534
"2337",82.07156,51.48871
"2338",84.78401,51.502014
"2339",87.17906,51.51538
"2340",88.990616,51.528687
"2341",90.12344,51.542053
"2342",90.60929,51.55536
"2343",90.55314,51.568665
"2344",90.06241,51.58203
"2345",89.2665,51.595337
"2346",88.2826,51.608704
"2347",87.21324,51.62201
"2348",86.12924,51.635376
"2349",85.07454,51.64868
"2350",84.07599,51.661987
"2351",83.158005,51.675354
"2352",82.357216,51.68866
"2353",81.70779,51.702026
"2354",81.25124,51.715332
"2355",81.01442,51.7287
"2356",80.990005,51.742004
"2357",81.13161,51.75531
"2358",81.375755,51.768677
"2359",81.6321,51.781982
"2360",81.82742,51.79535
"2361",81.90311,51.808655
"2362",81.8201,51.82202
"2363",81.57351,51.835327
"2364",81.17555,51.848694
"2365",80.6482,51.862
"2366",80.02319,51.875305
"2367",79.33715,51.88867
"2368",78.62913,51.901978
"2369",77.92844,51.915344
"2370",77.26681,51.92865
"2371",76.663765,51.942017
"2372",76.13641,51.955322
"2373",75.69451,51.96869
"2374",75.34295,51.981995
"2375",75.07927,51.9953
"2376",74.89372,52.008667
"2377",74.77165,52.021973
"2378",74.703285,52.03534
"2379",74.67399,52.048645
"2380",74.67399,52.06201
"2381",74.69352,52.075317
"2382",74.73014,52.088623
"2383",74.77165,52.10199
"2384",74.813156,52.115295
"2385",74.844894,52.128662
"2386",74.85466,52.141968
"2387",74.82292,52.155334
"2388",74.737465,52.16864
"2389",74.5861,52.181946
"2390",74.36149,52.195312
"2391",74.06607,52.20862
"2392",73.738914,52.221985
"2393",73.43862,52.23529
"2394",73.29214,52.248657
"2395",73.51675,52.261963
"2396",74.35172,52.27533
"2397",75.94354,52.288635
"2398",78.260475,52.30194
"2399",81.06569,52.315308
"2400",83.9881,52.328613
"2401",86.607765,52.34198
"2402",88.61219,52.355286
"2403",89.86221,52.368652
"2404",90.389565,52.381958
"2405",90.31632,52.395325
"2406",89.776764,52.40863
"2407",88.91005,52.421936
"2408",87.83093,52.435303
"2409",86.63218,52.44861
"2410",85.37484,52.461975
"2411",84.10773,52.47528
"2412",82.882126,52.488647
"2413",81.75174,52.501953
"2414",80.78737,52.51526
"2415",80.0647,52.528625
"2416",79.64233,52.54193
"2417",79.54223,52.555298
"2418",79.73266,52.568604
"2419",80.1355,52.58197
"2420",80.64088,52.595276
"2421",81.12428,52.60858
"2422",81.49294,52.62195
"2423",81.67361,52.635254
"2424",81.634544,52.64862
"2425",81.38064,52.661926
"2426",80.938736,52.675293
"2427",80.343025,52.6886
"2428",79.64721,52.701965
"2429",78.89525,52.71527
"2430",78.12375,52.728577
"2431",77.366905,52.741943
"2432",76.654,52.75525
"2433",76.00214,52.768616
"2434",75.42596,52.78192
"2435",74.93767,52.795288
"2436",74.54948,52.808594
"2437",74.26139,52.82196
"2438",74.06119,52.835266
"2439",73.94156,52.84857
"2440",73.88785,52.86194
"2441",73.882965,52.875244
"2442",73.91226,52.88861
"2443",73.96353,52.901917
"2444",74.03189,52.915283
"2445",74.10513,52.92859
"2446",74.175934,52.941895
"2447",74.23697,52.95526
"2448",74.2736,52.968567
"2449",74.26627,52.981934
"2450",74.20279,52.99524
"2451",74.08316,53.008606
"2452",73.90982,53.02191
"2453",73.71938,53.035217
"2454",73.582664,53.048584
"2455",73.64858,53.06189
"2456",74.16617,53.075256
"2457",75.40154,53.088562
"2458",77.4963,53.10193
"2459",80.37476,53.115234
"2460",83.72686,53.1286
"2461",87.10094,53.141907
"2462",90.037994,53.155212
"2463",92.21576,53.16858
"2464",93.524376,53.181885
"2465",94.049286,53.19525
"2466",93.93698,53.208557
"2467",93.34615,53.221924
"2468",92.42329,53.23523
"2469",91.302666,53.248596
"2470",90.09659,53.2619
"2471",88.87831,53.275208
"2472",87.70641,53.288574
"2473",86.60044,53.30188
"2474",85.5848,53.315247
"2475",84.67414,53.328552
"2476",83.90509,53.34192
"2477",83.30694,53.355225
"2478",82.91142,53.36853
"2479",82.720985,53.381897
"2480",82.70634,53.395203
"2481",82.804,53.40857
"2482",82.94072,53.421875
"2483",83.038376,53.43524
"2484",83.03105,53.448547
"2485",82.87724,53.461853
"2486",82.56718,53.47522
"2487",82.11063,53.488525
"2488",81.52468,53.501892
"2489",80.83864,53.515198
"2490",80.079346,53.528564
"2491",79.28344,53.54187
"2492",78.47776,53.555237
"2493",77.69894,53.568542
"2494",76.964066,53.58185
"2495",76.30488,53.595215
"2496",75.733574,53.60852
"2497",75.26238,53.621887
"2498",74.8864,53.635193
"2499",74.60563,53.64856
"2500",74.40543,53.661865
"2501",74.27116,53.675232
"2502",74.19058,53.688538
"2503",74.15396,53.701843
"2504",74.14908,53.71521
"2505",74.16373,53.728516
"2506",74.19058,53.741882
"2507",74.21988,53.755188
"2508",74.23941,53.768555
"2509",74.24185,53.78186
"2510",74.20767,53.795166
"2511",74.13443,53.808533
"2512",73.99527,53.82184
"2513",73.797516,53.835205
"2514",73.55337,53.84851
"2515",73.31655,53.861877
"2516",73.2018,53.875183
"2517",73.42153,53.88849
"2518",74.24185,53.901855
"2519",75.87274,53.91516
"2520",78.32395,53.928528
"2521",81.38064,53.941833
"2522",84.65949,53.9552
"2523",87.70397,53.968506
"2524",90.14053,53.981873
"2525",91.77875,53.99518
"2526",92.628365,54.008484
"2527",92.80171,54.02185
"2528",92.44526,54.035156
"2529",91.69817,54.048523
"2530",90.69474,54.06183
"2531",89.55703,54.075195
"2532",88.377815,54.0885
"2533",87.22301,54.101868
"2534",86.1268,54.115173
"2535",85.11604,54.12848
"2536",84.2005,54.141846
"2537",83.40948,54.15515
"2538",82.774704,54.168518
"2539",82.337685,54.181824
"2540",82.11795,54.19519
"2541",82.09598,54.208496
"2542",82.21561,54.2218
"2543",82.39384,54.23517
"2544",82.547646,54.248474
"2545",82.60868,54.26184
"2546",82.528114,54.275146
"2547",82.29862,54.288513
"2548",81.92752,54.30182
"2549",81.42947,54.315125
"2550",80.831314,54.32849
"2551",80.15747,54.341797
"2552",79.43725,54.355164
"2553",78.69749,54.36847
"2554",77.962616,54.381836
"2555",77.25704,54.39514
"2556",76.60761,54.40851
"2557",76.03143,54.421814
"2558",75.53338,54.43512
"2559",75.123215,54.448486
"2560",74.79607,54.461792
"2561",74.53239,54.47516
"2562",74.3151,54.488464
"2563",74.13687,54.50183
"2564",73.987946,54.515137
"2565",73.865875,54.528503
"2566",73.7731,54.54181
"2567",73.70229,54.555115
"2568",73.651024,54.56848
"2569",73.60464,54.581787
"2570",73.548485,54.595154
"2571",73.46548,54.60846
"2572",73.340965,54.621826
"2573",73.17494,54.63513
"2574",72.952774,54.648438
"2575",72.691536,54.661804
"2576",72.41566,54.67511
"2577",72.17151,54.688477
"2578",72.07141,54.701782
"2579",72.31556,54.71515
"2580",73.16762,54.728455
"2581",74.830246,54.74176
"2582",77.330284,54.755127
"2583",80.46021,54.768433
"2584",83.83185,54.7818
"2585",86.98619,54.795105
"2586",89.532616,54.80847
"2587",91.268486,54.821777
"2588",92.191345,54.835144
"2589",92.41596,54.84845
"2590",92.09125,54.861755
"2591",91.36126,54.875122
"2592",90.37003,54.888428
"2593",89.232315,54.901794
"2594",88.043335,54.9151
"2595",86.86412,54.928467
"2596",85.73617,54.941772
"2597",84.69123,54.95514
"2598",83.75128,54.968445
"2599",82.95293,54.98175
"2600",82.340126,54.995117
"2601",81.94949,55.008423
"2602",81.78592,55.02179
"2603",81.8201,55.035095
"2604",81.986115,55.048462
"2605",82.19852,55.061768
"2606",82.37919,55.075073
"2607",82.45487,55.08844
"2608",82.37675,55.101746
"2609",82.13748,55.115112
"2610",81.74197,55.128418
"2611",81.19997,55.141785
"2612",80.54566,55.15509
"2613",79.81079,55.168396
"2614",79.03197,55.181763
"2615",78.24582,55.19507
"2616",77.48409,55.208435
"2617",76.78096,55.22174
"2618",76.15839,55.235107
"2619",75.62615,55.248413
"2620",75.18913,55.26178
"2621",74.84245,55.275085
"2622",74.57877,55.28839
"2623",74.39567,55.301758
"2624",74.2736,55.315063
"2625",74.21011,55.32843
"2626",74.18326,55.341736
"2627",74.18326,55.355103
"2628",74.20523,55.36841
"2629",74.23453,55.381775
"2630",74.26627,55.39508
"2631",74.29069,55.408386
"2632",74.302895,55.421753
"2633",74.29069,55.43506
"2634",74.23941,55.448425
"2635",74.13443,55.46173
"2636",73.970856,55.475098
"2637",73.75601,55.488403
"2638",73.50698,55.50171
"2639",73.272606,55.515076
"2640",73.15297,55.52838
"2641",73.33608,55.541748
"2642",74.05875,55.555054
"2643",75.53338,55.56842
"2644",77.806366,55.581726
"2645",80.71168,55.59503
"2646",83.897766,55.6084
"2647",86.93736,55.621704
"2648",89.444725,55.63507
"2649",91.19035,55.648376
"2650",92.14252,55.661743
"2651",92.39399,55.67505
"2652",92.08392,55.688416
"2653",91.35882,55.70172
"2654",90.3505,55.715027
"2655",89.18837,55.728394
"2656",87.96277,55.7417
"2657",86.7396,55.755066
"2658",85.56283,55.76837
"2659",84.46662,55.78174
"2660",83.4876,55.795044
"2661",82.669716,55.80841
"2662",82.06668,55.821716
"2663",81.71023,55.835022
"2664",81.61013,55.84839
"2665",81.722435,55.861694
"2666",81.97391,55.87506
"2667",82.266884,55.888367
"2668",82.5037,55.901733
"2669",82.61356,55.91504
"2670",82.55253,55.928345
"2671",82.30595,55.94171
"2672",81.88846,55.955017
"2673",81.324486,55.968384
"2674",80.65064,55.98169
"2675",79.906006,55.995056
"2676",79.13939,56.00836
"2677",78.382545,56.021667
"2678",77.67452,56.035034
"2679",77.03975,56.04834
"2680",76.49287,56.061707
"2681",76.0412,56.075012
"2682",75.682304,56.08838
"2683",75.39666,56.101685
"2684",75.176926,56.11505
"2685",75.01091,56.128357
"2686",74.881516,56.141663
"2687",74.78386,56.15503
"2688",74.71549,56.168335
"2689",74.67643,56.1817
"2690",74.66422,56.195007
"2691",74.669106,56.208374
"2692",74.683754,56.22168
"2693",74.69596,56.235046
"2694",74.686195,56.248352
"2695",74.634926,56.261658
"2696",74.53483,56.275024
"2697",74.371254,56.28833
"2698",74.141754,56.301697
"2699",73.85367,56.315002
"2700",73.53628,56.32837
"2701",73.24086,56.341675
"2702",73.05287,56.35498
"2703",73.13832,56.368347
"2704",73.73403,56.381653
"2705",75.04509,56.39502
"2706",77.14961,56.408325
"2707",79.91577,56.42169
"2708",83.03349,56.434998
"2709",86.09506,56.448303
"2710",88.70008,56.46167
"2711",90.597084,56.474976
"2712",91.72259,56.488342
"2713",92.140076,56.501648
"2714",91.97162,56.515015
"2715",91.36126,56.52832
"2716",90.443275,56.541687
"2717",89.34463,56.554993
"2718",88.16052,56.5683
"2719",86.959335,56.581665
"2720",85.785,56.59497
"2721",84.67658,56.608337
"2722",83.665825,56.621643
"2723",82.80156,56.63501
"2724",82.13992,56.648315
"2725",81.72488,56.661682
"2726",81.566185,56.674988
"2727",81.6321,56.688293
"2728",81.85428,56.70166
"2729",82.13504,56.714966
"2730",82.37919,56.728333
"2731",82.49882,56.74164
"2732",82.45243,56.755005
"2733",82.22049,56.76831
"2734",81.80545,56.781616
"2735",81.24147,56.794983
"2736",80.56519,56.80829
"2737",79.818115,56.821655
"2738",79.03197,56.83496
"2739",78.25315,56.848328
"2740",77.503624,56.861633
"2741",76.81514,56.87494
"2742",76.20477,56.888306
"2743",75.682304,56.90161
"2744",75.2575,56.914978
"2745",74.92546,56.928284
"2746",74.68131,56.94165
"2747",74.510414,56.954956
"2748",74.407875,56.968323
"2749",74.35172,56.98163
"2750",74.33463,56.994934
"2751",74.337074,57.0083
"2752",74.35905,57.021606
"2753",74.390785,57.034973
"2754",74.42741,57.04828
"2755",74.45426,57.061646
"2756",74.46891,57.07495
"2757",74.459145,57.088318
"2758",74.41276,57.101624
"2759",74.31754,57.11493
"2760",74.17105,57.128296
"2761",73.968414,57.1416
"2762",73.72671,57.15497
"2763",73.47036,57.168274
"2764",73.28237,57.18164
"2765",73.306786,57.194946
"2766",73.76578,57.208252
"2767",74.896164,57.22162
"2768",76.81758,57.234924
"2769",79.45922,57.24829
"2770",82.547646,57.261597
"2771",85.67513,57.274963
"2772",88.431526,57.28827
"2773",90.51408,57.301575
"2774",91.80316,57.31494
"2775",92.34272,57.328247
"2776",92.25483,57.341614
"2777",91.683525,57.35492
"2778",90.76799,57.368286
"2779",89.637596,57.38159
"2780",88.40467,57.39496
"2781",87.149765,57.408264
"2782",85.92172,57.42157
"2783",84.76448,57.434937
"2784",83.70977,57.448242
"2785",82.80156,57.46161
"2786",82.091095,57.474915
"2787",81.62966,57.48828
"2788",81.43191,57.501587
"2789",81.47341,57.514954
"2790",81.69802,57.52826
"2791",82.005646,57.541565
"2792",82.29862,57.55493
"2793",82.48905,57.568237
"2794",82.51591,57.581604
"2795",82.357216,57.59491
"2796",82.00809,57.608276
"2797",81.495384,57.621582
"2798",80.848404,57.634888
"2799",80.113525,57.648254
"2800",79.3225,57.66156
"2801",78.519264,57.674927
"2802",77.733116,57.688232
"2803",77.00069,57.7016
"2804",76.34394,57.714905
"2805",75.78485,57.72821
"2806",75.3283,57.741577
"2807",74.97673,57.754883
"2808",74.71549,57.76825
"2809",74.53483,57.781555
"2810",74.41764,57.79492
"2811",74.34928,57.808228
"2812",74.319984,57.821594
"2813",74.31754,57.8349
"2814",74.33463,57.848206
"2815",74.36149,57.861572
"2816",74.40055,57.874878
"2817",74.43473,57.888245
"2818",74.4567,57.90155
"2819",74.45426,57.914917
"2820",74.41764,57.928223
"2821",74.33219,57.94159
"2822",74.19302,57.954895
"2823",73.99283,57.9682
"2824",73.7438,57.981567
"2825",73.47036,57.994873
"2826",73.233536,58.00824
"2827",73.16029,58.021545
"2828",73.45571,58.034912
"2829",74.36637,58.048218
"2830",76.07294,58.061523
"2831",78.57542,58.07489
"2832",81.64919,58.088196
"2833",84.91341,58.101562
"2834",87.91882,58.11487
"2835",90.301674,58.128235
"2836",91.86908,58.14154
"2837",92.62592,58.154846
"2838",92.68452,58.168213
"2839",92.20355,58.18152
"2840",91.33196,58.194885
"2841",90.20889,58.20819
"2842",88.94911,58.221558
"2843",87.64294,58.234863
"2844",86.348976,58.24823
"2845",85.103836,58.261536
"2846",83.95636,58.27484
"2847",82.95293,58.288208
"2848",82.15213,58.301514
"2849",81.602806,58.31488
"2850",81.33669,58.328186
"2851",81.341576,58.341553
"2852",81.55398,58.35486
"2853",81.881134,58.368225
"2854",82.21561,58.38153
"2855",82.4622,58.394836
"2856",82.545204,58.408203
"2857",82.4329,58.42151
"2858",82.11795,58.434875
"2859",81.61501,58.44818
"2860",80.96315,58.461548
"2861",80.198975,58.474854
"2862",79.37377,58.48816
"2863",78.52659,58.501526
"2864",77.696495,58.51483
"2865",76.91524,58.5282
"2866",76.209656,58.541504
"2867",75.596855,58.55487
"2868",75.089035,58.568176
"2869",74.683754,58.581482
"2870",74.38346,58.59485
"2871",74.16617,58.608154
"2872",74.02701,58.62152
"2873",73.94156,58.634827
"2874",73.89273,58.648193
"2875",73.87564,58.6615
"2876",73.88785,58.674866
"2877",73.9147,58.68817
"2878",73.953766,58.701477
"2879",73.99527,58.714844
"2880",74.02701,58.72815
"2881",74.03433,58.741516
"2882",74.00992,58.75482
"2883",73.93912,58.76819
"2884",73.81949,58.781494
"2885",73.64614,58.79486
"2886",73.426414,58.808167
"2887",73.19203,58.821472
"2888",73.006485,58.83484
"2889",73.01625,58.848145
"2890",73.44839,58.86151
"2891",74.55436,58.874817
"2892",76.50019,58.888184
"2893",79.256584,58.90149
"2894",82.55253,58.914795
"2895",85.96323,58.92816
"2896",89.03456,58.941467
"2897",91.407646,58.954834
"2898",92.92622,58.96814
"2899",93.61715,58.981506
"2900",93.62203,58.994812
"2901",93.09712,59.008118
"2902",92.191345,59.021484
"2903",91.04387,59.03479
"2904",89.77432,59.048157
"2905",88.465706,59.061462
"2906",87.17662,59.07483
"2907",85.95102,59.088135
"2908",84.823074,59.1015
"2909",83.83673,59.114807
"2910",83.04082,59.128113
"2911",82.48173,59.14148
"2912",82.18875,59.154785
"2913",82.142365,59.16815
"2914",82.28153,59.181458
"2915",82.52079,59.194824
"2916",82.75273,59.20813
"2917",82.89189,59.221497
"2918",82.87236,59.234802
"2919",82.67216,59.248108
"2920",82.286415,59.261475
"2921",81.73708,59.27478
"2922",81.05348,59.288147
"2923",80.26978,59.301453
"2924",79.4226,59.31482
"2925",78.551,59.328125
"2926",77.69405,59.34143
"2927",76.88106,59.354797
"2928",76.138855,59.368103
"2929",75.491875,59.38147
"2930",74.94255,59.394775
"2931",74.486,59.408142
"2932",74.12222,59.421448
"2933",73.84146,59.434753
"2934",73.633934,59.44812
"2935",73.48501,59.461426
"2936",73.39468,59.474792
"2937",73.35073,59.4881
"2938",73.34829,59.501465
"2939",73.38247,59.51477
"2940",73.43374,59.528137
"2941",73.494774,59.541443
"2942",73.55337,59.55475
"2943",73.58999,59.568115
"2944",73.59243,59.58142
"2945",73.55581,59.594788
"2946",73.47036,59.608093
"2947",73.323875,59.62146
"2948",73.12367,59.634766
"2949",72.89418,59.648132
"2950",72.689095,59.661438
"2951",72.620735,59.674744
"2952",72.89662,59.68811
"2953",73.780426,59.701416
"2954",75.48699,59.714783
"2955",78.06271,59.72809
"2956",81.31716,59.741455
"2957",84.857254,59.75476
"2958",88.199585,59.768066
"2959",90.9218,59.781433
"2960",92.78706,59.79474
"2961",93.76608,59.808105
"2962",93.97604,59.82141
"2963",93.58297,59.834778
"2964",92.75044,59.848083
"2965",91.632256,59.86139
"2966",90.35783,59.874756
"2967",89.03212,59.88806
"2968",87.71862,59.90143
"2969",86.46372,59.914734
"2970",85.29916,59.9281
"2971",84.25178,59.941406
"2972",83.36553,59.954773
"2973",82.69169,59.96808
"2974",82.269325,59.981384
"2975",82.09842,59.99475
"2976",82.142365,60.008057
"2977",82.33036,60.021423
"2978",82.57206,60.03473
"2979",82.76494,60.048096
"2980",82.83086,60.0614
"2981",82.72587,60.074768
"2982",82.425575,60.088074
"2983",81.94705,60.10138
"2984",81.31472,60.114746
"2985",80.567635,60.12805
"2986",79.744865,60.14142
"2987",78.887924,60.154724
"2988",78.030975,60.16809
"2989",77.20332,60.181396
"2990",76.439156,60.194702
"2991",75.76044,60.20807
"2992",75.17937,60.221375
"2993",74.70084,60.23474
"2994",74.322426,60.248047
"2995",74.03677,60.261414
"2996",73.82681,60.27472
"2997",73.68276,60.288025
"2998",73.59243,60.30139
"2999",73.5436,60.314697
"3000",73.52163,60.328064
"3001",73.52407,60.34137
"3002",73.53628,60.354736
"3003",73.55337,60.368042
"3004",73.56069,60.38141
"3005",73.56069,60.394714
"3006",73.53628,60.40802
"3007",73.480125,60.421387
"3008",73.375145,60.434692
"3009",73.22133,60.44806
"3010",73.01137,60.461365
"3011",72.762344,60.47473
"3012",72.52552,60.488037
"3013",72.38636,60.501404
"3014",72.51331,60.51471
"3015",73.16518,60.528015
"3016",74.58854,60.54138
"3017",76.895706,60.554688
"3018",79.98169,60.568054
"3019",83.50469,60.58136
"3020",86.99596,60.594727
"3021",89.99161,60.608032
"3022",92.1767,60.621338
"3023",93.45113,60.634705
"3024",93.890594,60.64801
"3025",93.66842,60.661377
"3026",92.95308,60.674683
"3027",91.90326,60.68805
"3028",90.66056,60.701355
"3029",89.33242,60.71466
"3030",88.00427,60.728027
"3031",86.71763,60.741333
"3032",85.51644,60.7547
"3033",84.43488,60.768005
"3034",83.509575,60.781372
"3035",82.77959,60.794678
"3036",82.28886,60.808044
"3037",82.056915,60.82135
"3038",82.05936,60.834656
"3039",82.22781,60.848022
"3040",82.47196,60.86133
"3041",82.68925,60.874695
"3042",82.79912,60.888
"3043",82.74296,60.901367
"3044",82.496376,60.914673
"3045",82.0618,60.92804
"3046",81.45876,60.941345
"3047",80.726326,60.95465
"3048",79.90112,60.968018
"3049",79.027084,60.981323
"3050",78.150604,60.99469
"3051",77.30831,61.007996
"3052",76.52216,61.021362
"3053",75.82147,61.034668
"3054",75.21599,61.047974
"3055",74.720375,61.06134
"3056",74.32487,61.074646
"3057",74.02701,61.088013
"3058",73.80972,61.10132
"3059",73.66079,61.114685
"3060",73.568016,61.12799
"3061",73.52163,61.141296
"3062",73.51186,61.154663
"3063",73.52651,61.16797
"3064",73.55825,61.181335
"3065",73.59731,61.19464
"3066",73.63149,61.208008
"3067",73.653465,61.221313
"3068",73.651024,61.23468
"3069",73.61196,61.247986
"3070",73.52163,61.26129
"3071",73.37026,61.27466
"3072",73.16762,61.287964
"3073",72.92592,61.30133
"3074",72.689095,61.314636
"3075",72.535286,61.328003
"3076",72.63294,61.34131
"3077",73.216446,61.354675
"3078",74.53971,61.36798
"3079",76.73701,61.381287
"3080",79.727776,61.394653
"3081",83.19707,61.40796
"3082",86.693214,61.421326
"3083",89.7499,61.43463
"3084",92.02777,61.447998
"3085",93.41207,61.461304
"3086",93.96384,61.47461
"3087",93.832,61.487976
"3088",93.18501,61.50128
"3089",92.18402,61.51465
"3090",90.9633,61.527954
"3091",89.64248,61.54132
"3092",88.309456,61.554626
"3093",87.01305,61.567932
"3094",85.79721,61.5813
"3095",84.68879,61.594604
"3096",83.7293,61.60797
"3097",82.967575,61.621277
"3098",82.44999,61.634644
"3099",82.19119,61.64795
"3100",82.17166,61.661316
"3101",82.32304,61.67462
"3102",82.547646,61.687927
"3103",82.75029,61.701294
"3104",82.847946,61.7146
"3105",82.78691,61.727966
"3106",82.53788,61.741272
"3107",82.10086,61.75464
"3108",81.50027,61.767944
"3109",80.762955,61.78131
"3110",79.9353,61.794617
"3111",79.05638,61.807922
"3112",78.17502,61.82129
"3113",77.330284,61.834595
"3114",76.55146,61.84796
"3115",75.860535,61.861267
"3116",75.27459,61.874634
"3117",74.79851,61.88794
"3118",74.42741,61.901245
"3119",74.15396,61.91461
"3120",73.968414,61.927917
"3121",73.848785,61.941284
"3122",73.79019,61.95459
"3123",73.777985,61.967957
"3124",73.795074,61.981262
"3125",73.83414,61.994568
"3126",73.88052,62.007935
"3127",73.919586,62.02124
"3128",73.93912,62.034607
"3129",73.92935,62.047913
"3130",73.88541,62.06128
"3131",73.79263,62.074585
"3132",73.64858,62.08795
"3133",73.445946,62.101257
"3134",73.19203,62.114563
"3135",72.90883,62.12793
"3136",72.64271,62.141235
"3137",72.47913,62.154602
"3138",72.59144,62.167908
"3139",73.22621,62.181274
"3140",74.62516,62.19458
"3141",76.90059,62.207947
"3142",79.94263,62.221252
"3143",83.42901,62.23456
"3144",86.890976,62.247925
"3145",89.87198,62.26123
"3146",92.05707,62.274597
"3147",93.33883,62.287903
"3148",93.7905,62.30127
"3149",93.56832,62.314575
"3150",92.85054,62.32788
"3151",91.8056,62.341248
"3152",90.57023,62.354553
"3153",89.26162,62.36792
"3154",87.955444,62.381226
"3155",86.693214,62.394592
"3156",85.504234,62.407898
"3157",84.43,62.421204
"3158",83.50469,62.43457
"3159",82.78203,62.447876
"3160",82.303505,62.461243
"3161",82.08377,62.47455
"3162",82.09842,62.487915
"3163",82.27177,62.50122
"3164",82.511024,62.514587
"3165",82.720985,62.527893
"3166",82.81377,62.5412
"3167",82.738075,62.554565
"3168",82.4744,62.56787
"3169",82.02762,62.581238
"3170",81.41726,62.594543
"3171",80.6775,62.60791
"3172",79.84985,62.621216
"3173",78.9807,62.634583
"3174",78.116425,62.64789
"3175",77.296104,62.661194
"3176",76.55146,62.67456
"3177",75.8996,62.687866
"3178",75.34783,62.701233
"3179",74.896164,62.71454
"3180",74.53727,62.727905
"3181",74.26627,62.74121
"3182",74.06851,62.754517
"3183",73.92935,62.767883
"3184",73.83658,62.78119
"3185",73.78287,62.794556
"3186",73.75357,62.80786
"3187",73.738914,62.821228
"3188",73.73403,62.834534
"3189",73.73647,62.84784
"3190",73.73647,62.861206
"3191",73.724266,62.87451
"3192",73.69497,62.88788
"3193",73.633934,62.901184
"3194",73.52651,62.91455
"3195",73.36294,62.927856
"3196",73.14076,62.941223
"3197",72.87221,62.95453
"3198",72.58167,62.967834
"3199",72.342415,62.9812
"3200",72.29603,62.994507
"3201",72.674446,63.007874
"3202",73.74624,63.02118
"3203",75.68963,63.034546
"3204",78.49729,63.04785
"3205",81.91531,63.06122
"3206",85.49935,63.074524
"3207",88.75868,63.08783
"3208",91.30999,63.101196
"3209",92.962845,63.114502
"3210",93.731895,63.12787
"3211",93.7612,63.141174
"3212",93.23872,63.15454
"3213",92.33051,63.167847
"3214",91.18303,63.181152
"3215",89.91348,63.19452
"3216",88.60731,63.207825
"3217",87.31579,63.22119
"3218",86.07797,63.234497
"3219",84.9305,63.247864
"3220",83.92218,63.26117
"3221",83.106735,63.274475
"3222",82.53544,63.28784
"3223",82.23514,63.301147
"3224",82.18631,63.314514
"3225",82.337685,63.32782
"3226",82.58915,63.341187
"3227",82.83818,63.354492
"3228",82.99199,63.36786
"3229",82.984665,63.381165
"3230",82.78935,63.39447
"3231",82.406044,63.407837
"3232",81.85916,63.421143
"3233",81.17555,63.43451
"3234",80.39918,63.447815
"3235",79.57397,63.46118
"3236",78.73655,63.474487
"3237",77.92355,63.487854
"3238",77.1667,63.50116
"3239",76.48066,63.514465
"3240",75.87274,63.527832
"3241",75.34783,63.541138
"3242",74.91325,63.554504
"3243",74.56901,63.56781
"3244",74.31754,63.581177
"3245",74.158844,63.594482
"3246",74.08072,63.607788
"3247",74.06119,63.621155
"3248",74.0856,63.63446
"3249",74.13931,63.647827
"3250",74.21011,63.661133
"3251",74.288246,63.6745
"3252",74.36637,63.687805
"3253",74.42985,63.70111
"3254",74.46403,63.714478
"3255",74.44938,63.727783
"3256",74.371254,63.74115
"3257",74.21744,63.754456
"3258",73.99039,63.767822
"3259",73.69741,63.781128
"3260",73.36538,63.794495
"3261",73.06508,63.8078
"3262",72.91371,63.821106
"3263",73.11635,63.834473
"3264",73.92447,63.84778
"3265",75.545586,63.861145
"3266",78.009,63.87445
"3267",81.126724,63.887817
"3268",84.51301,63.901123
"3269",87.69665,63.91449
"3270",90.267494,63.927795
"3271",92.00336,63.9411
"3272",92.87007,63.954468
"3273",92.9897,63.967773
"3274",92.523384,63.98114
"3275",91.64202,63.994446
"3276",90.494545,64.00781
"3277",89.215225,64.02112
"3278",87.887085,64.034424
"3279",86.571144,64.04779
"3280",85.31136,64.0611
"3281",84.14679,64.07446
"3282",83.123825,64.08777
"3283",82.30106,64.101135
"3284",81.73464,64.11444
"3285",81.45876,64.12775
"3286",81.45144,64.14111
"3287",81.64675,64.15442
"3288",81.94705,64.167786
"3289",82.23758,64.18109
"3290",82.425575,64.19446
"3291",82.442665,64.20776
"3292",82.25712,64.22113
"3293",81.8616,64.234436
"3294",81.28054,64.24774
"3295",80.5481,64.26111
"3296",79.70336,64.274414
"3297",78.79271,64.28778
"3298",77.872284,64.30109
"3299",76.98604,64.31445
"3300",76.175476,64.32776
"3301",75.46746,64.341125
"3302",74.881516,64.35443
"3303",74.42008,64.36774
"3304",74.08072,64.3811
"3305",73.84146,64.39441
"3306",73.687645,64.407776
"3307",73.58755,64.42108
"3308",73.52163,64.43445
"3309",73.477684,64.447754
"3310",73.45083,64.46106
"3311",73.443504,64.47443
"3312",73.45571,64.48773
"3313",73.48989,64.5011
"3314",73.53872,64.514404
"3315",73.59243,64.52777
"3316",73.633934,64.54108
"3317",73.651024,64.55438
"3318",73.633934,64.56775
"3319",73.568016,64.581055
"3320",73.45571,64.59442
"3321",73.29458,64.60773
"3322",73.109024,64.62109
"3323",72.938126,64.6344
"3324",72.87465,64.647766
"3325",73.094376,64.66107
"3326",73.865875,64.67438
"3327",75.45037,64.687744
"3328",77.94797,64.70105
"3329",81.22682,64.71442
"3330",84.92317,64.72772
"3331",88.54627,64.74109
"3332",91.62493,64.754395
"3333",93.85886,64.76776
"3334",95.16502,64.78107
"3335",95.638664,64.79437
"3336",95.44091,64.80774
"3337",94.74265,64.821045
"3338",93.712364,64.83441
"3339",92.51118,64.84772
"3340",91.2636,64.861084
"3341",90.055084,64.87439
"3342",88.92714,64.887695
"3343",87.88953,64.90106
"3344",86.93248,64.91437
"3345",86.06088,64.927734
"3346",85.3016,64.94104
"3347",84.69367,64.95441
"3348",84.2591,64.96771
"3349",84.00275,64.98102
"3350",83.88312,64.994385
"3351",83.83917,65.00769
"3352",83.80011,65.02106
"3353",83.69756,65.03436
"3354",83.48272,65.04773
"3355",83.123825,65.061035
"3356",82.61356,65.0744
"3357",81.95926,65.08771
"3358",81.18776,65.10101
"3359",80.33326,65.11438
"3360",79.43481,65.127686
"3361",78.53147,65.14105
"3362",77.66476,65.15436
"3363",76.86397,65.167725
"3364",76.15106,65.18103
"3365",75.5407,65.1944
"3366",75.037766,65.2077
"3367",74.63737,65.22101
"3368",74.33219,65.234375
"3369",74.10269,65.24768
"3370",73.944,65.26105
"3371",73.83414,65.27435
"3372",73.763336,65.28772
"3373",73.71938,65.301025
"3374",73.69253,65.31433
"3375",73.67788,65.3277
"3376",73.66567,65.341
"3377",73.64858,65.35437
"3378",73.6144,65.367676
"3379",73.55825,65.38104
"3380",73.46792,65.39435
"3381",73.32632,65.40765
"3382",73.13344,65.42102
"3383",72.884415,65.434326
"3384",72.59388,65.44769
"3385",72.28626,65.461
"3386",72.02014,65.474365
"3387",71.885864,65.48767
"3388",72.06653,65.50104
"3389",72.80873,65.51434
"3390",74.34684,65.52765
"3391",76.76387,65.541016
"3392",79.923096,65.55432
"3393",83.46563,65.56769
"3394",86.9276,65.58099
"3395",89.864655,65.59436
"3396",91.99603,65.607666
"3397",93.24849,65.62103
"3398",93.70992,65.63434
"3399",93.53658,65.647644
"3400",92.8896,65.66101
"3401",91.932556,65.67432
"3402",90.80461,65.68768
"3403",89.61562,65.70099
"3404",88.448616,65.714355
"3405",87.33532,65.72766
"3406",86.28794,65.74097
"3407",85.32357,65.75433
"3408",84.454414,65.76764
"3409",83.71465,65.781006
"3410",83.14824,65.79431
"3411",82.78691,65.80768
"3412",82.616005,65.820984
"3413",82.59403,65.83429
"3414",82.6453,65.84766
"3415",82.69413,65.86096
"3416",82.669716,65.87433
"3417",82.51591,65.887634
"3418",82.2034,65.901
"3419",81.722435,65.91431
"3420",81.092545,65.92767
"3421",80.3357,65.94098
"3422",79.4934,65.954285
"3423",78.6096,65.96765
"3424",77.72091,65.98096
"3425",76.87129,65.99432
"3426",76.085144,66.00763
"3427",75.38445,66.020996
"3428",74.78874,66.0343
"3429",74.30045,66.04767
"3430",73.9147,66.060974
"3431",73.62173,66.07428
"3432",73.411766,66.08765
"3433",73.26528,66.10095
"3434",73.17006,66.11432
"3435",73.11635,66.127625
"3436",73.091934,66.14099
"3437",73.08705,66.1543
"3438",73.1017,66.1676
"3439",73.12367,66.18097
"3440",73.145645,66.194275
"3441",73.15541,66.20764
"3442",73.14076,66.22095
"3443",73.09682,66.234314
"3444",73.01625,66.24762
"3445",72.8893,66.260925
"3446",72.71351,66.27429
"3447",72.48402,66.2876
"3448",72.20813,66.300964
"3449",71.905396,66.31427
"3450",71.622185,66.32764
"3451",71.45129,66.34094
"3452",71.58068,66.35431
"3453",72.271614,66.367615
"3454",73.77554,66.38092
"3455",76.20477,66.39429
"3456",79.43481,66.40759
"3457",83.11406,66.42096
"3458",86.744484,66.434265
"3459",89.85245,66.44763
"3460",92.12543,66.46094
"3461",93.46334,66.474304
"3462",93.95407,66.48761
"3463",93.76364,66.500916
"3464",93.08003,66.51428
"3465",92.06683,66.52759
"3466",90.87053,66.540955
"3467",89.60586,66.55426
"3468",88.34608,66.56763
"3469",87.12779,66.58093
"3470",85.97543,66.59424
"3471",84.910965,66.607605
"3472",83.97589,66.62091
"3473",83.21416,66.63428
"3474",82.669716,66.64758
"3475",82.36698,66.66095
"3476",82.29618,66.674255
"3477",82.39872,66.68756
"3478",82.58427,66.70093
"3479",82.76494,66.71423
"3480",82.85039,66.7276
"3481",82.777145,66.740906
"3482",82.51591,66.75427
"3483",82.056915,66.76758
"3484",81.42458,66.780945
"3485",80.6482,66.79425
"3486",79.76196,66.807556
"3487",78.8098,66.82092
"3488",77.83078,66.83423
"3489",76.859085,66.847595
"3490",75.9411,66.8609
"3491",75.0988,66.87427
"3492",74.36149,66.88757
"3493",73.75113,66.90094
"3494",73.26528,66.914246
"3495",72.903946,66.92755
"3496",72.6598,66.94092
"3497",72.515755,66.95422
"3498",72.45228,66.96759
"3499",72.44984,66.980896
"3500",72.47425,66.99426
"3501",72.49378,67.00757
"3502",72.4889,67.020874
"3503",72.464485,67.03424
"3504",72.43763,67.04755
"3505",72.410774,67.06091
"3506",72.39124,67.07422
"3507",72.36439,67.087585
"3508",72.31556,67.10089
"3509",72.21301,67.1142
"3510",72.042114,67.12756
"3511",71.800415,67.14087
"3512",71.502556,67.154236
"3513",71.17296,67.16754
"3514",70.87755,67.18091
"3515",70.71885,67.194214
"3516",70.87511,67.20758
"3517",71.61242,67.22089
"3518",73.179825,67.23419
"3519",75.68963,67.24756
"3520",79.03685,67.260864
"3521",82.9041,67.27423
"3522",86.79088,67.28754
"3523",90.1918,67.3009
"3524",92.74311,67.31421
"3525",94.312965,67.327576
"3526",94.9453,67.34088
"3527",94.801254,67.35419
"3528",94.0737,67.36755
"3529",92.95308,67.38086
"3530",91.58343,67.394226
"3531",90.074615,67.40753
"3532",88.50477,67.4209
"3533",86.93736,67.434204
"3534",85.44076,67.44751
"3535",84.1004,67.46088
"3536",83.004196,67.47418
"3537",82.23758,67.48755
"3538",81.849396,67.500854
"3539",81.83719,67.51422
"3540",82.13748,67.52753
"3541",82.62821,67.54083
"3542",83.16533,67.5542
"3543",83.612114,67.567505
"3544",83.86603,67.58087
"3545",83.86359,67.59418
"3546",83.58526,67.607544
"3547",83.05058,67.62085
"3548",82.30595,67.63422
"3549",81.41238,67.64752
"3550",80.430916,67.66083
"3551",79.42016,67.674194
"3552",78.42893,67.6875
"3553",77.47921,67.70087
"3554",76.58564,67.71417
"3555",75.76532,67.72754
"3556",75.02556,67.740845
"3557",74.39323,67.75421
"3558",73.87564,67.76752
"3559",73.48989,67.78082
"3560",73.21889,67.79419
"3561",73.04555,67.807495
"3562",72.935684,67.82086
"3563",72.86488,67.83417
"3564",72.816055,67.847534
"3565",72.77455,67.86084
"3566",72.742805,67.874146
"3567",72.725716,67.88751
"3568",72.72083,67.90082
"3569",72.71839,67.914185
"3570",72.70374,67.92749
"3571",72.66468,67.94086
"3572",72.59388,67.95416
"3573",72.49134,67.96747
"3574",72.37415,67.980835
"3575",72.24963,67.99414
"3576",72.147095,68.00751
"3577",72.12512,68.02081
"3578",72.32288,68.03418
"3579",72.97475,68.047485
"3580",74.35172,68.06085
"3581",76.612495,68.07416
"3582",79.693596,68.08746
"3583",83.29717,68.10083
"3584",86.976425,68.114136
"3585",90.247955,68.1275
"3586",92.755325,68.14081
"3587",94.36912,68.154175
"3588",95.1284,68.16748
"3589",95.17967,68.18085
"3590",94.6865,68.19415
"3591",93.81735,68.20746
"3592",92.72602,68.220825
"3593",91.54192,68.23413
"3594",90.355385,68.2475
"3595",89.22255,68.2608
"3596",88.15564,68.27417
"3597",87.15465,68.287476
"3598",86.236664,68.30078
"3599",85.418785,68.31415
"3600",84.73762,68.32745
"3601",84.2298,68.34082
"3602",83.90753,68.354126
"3603",83.74883,68.36749
"3604",83.700005,68.3808
"3605",83.69512,68.394104
"3606",83.67071,68.40747
"3607",83.560844,68.42078
"3608",83.32647,68.43414
"3609",82.96025,68.44745
"3610",82.45487,68.460815
"3611",81.82498,68.47412
"3612",81.0901,68.48749
"3613",80.28687,68.50079
"3614",79.43969,68.5141
"3615",78.57786,68.527466
"3616",77.733116,68.54077
"3617",76.927444,68.55414
"3618",76.17792,68.567444
"3619",75.50408,68.58081
"3620",74.92058,68.59412
"3621",74.43473,68.60748
"3622",74.05386,68.62079
"3623",73.7731,68.634094
"3624",73.57778,68.64746
"3625",73.445946,68.66077
"3626",73.358055,68.67413
"3627",73.289696,68.68744
"3628",73.22133,68.700806
"3629",73.15297,68.71411
"3630",73.08217,68.72742
"3631",73.01137,68.74078
"3632",72.93324,68.75409
"3633",72.85512,68.767456
"3634",72.762344,68.78076
"3635",72.64759,68.79413
"3636",72.498665,68.807434
"3637",72.31312,68.82074
"3638",72.09094,68.83411
"3639",71.8468,68.84741
"3640",71.60754,68.86078
"3641",71.45129,68.874084
"3642",71.54162,68.88745
"3643",72.13977,68.90076
"3644",73.55093,68.91412
"3645",75.95575,68.92743
"3646",79.30785,68.940735
"3647",83.282524,68.9541
"3648",87.3695,68.96741
"3649",91.01701,68.980774
"3650",93.81735,68.99408
"3651",95.60204,69.00745
"3652",96.42481,69.02075
"3653",96.45899,69.03412
"3654",95.89746,69.047424
"3655",94.925766,69.06073
"3656",93.70992,69.0741
"3657",92.386665,69.0874
"3658",91.05119,69.10077
"3659",89.76944,69.114075
"3660",88.55848,69.12744
"3661",87.42565,69.14075
"3662",86.383156,69.15405
"3663",85.45541,69.16742
"3664",84.67414,69.180725
"3665",84.085754,69.19409
"3666",83.70977,69.2074
"3667",83.529106,69.220764
"3668",83.49493,69.23407
"3669",83.52178,69.247375
"3670",83.52178,69.26074
"3671",83.41924,69.27405
"3672",83.16533,69.287415
"3673",82.74784,69.30072
"3674",82.16434,69.31409
"3675",81.43679,69.32739
"3676",80.59205,69.34076
"3677",79.65453,69.354065
"3678",78.65354,69.36737
"3679",77.6379,69.38074
"3680",76.64423,69.39404
"3681",75.72137,69.40741
"3682",74.896164,69.420715
"3683",74.19058,69.43408
"3684",73.616844,69.44739
"3685",73.17494,69.460754
"3686",72.850235,69.47406
"3687",72.63294,69.487366
"3688",72.498665,69.50073
"3689",72.427864,69.51404
"3690",72.40101,69.527405
"3691",72.40589,69.54071
"3692",72.43275,69.55408
"3693",72.47669,69.56738
"3694",72.532845,69.58069
"3695",72.59388,69.594055
"3696",72.65736,69.60736
"3697",72.71351,69.62073
"3698",72.74769,69.63403
"3699",72.75258,69.6474
"3700",72.706184,69.660706
"3701",72.59144,69.67401
"3702",72.40101,69.68738
"3703",72.13977,69.70068
"3704",71.82483,69.71405
"3705",71.505,69.727356
"3706",71.255974,69.74072
"3707",71.23888,69.75403
"3708",71.707634,69.767395
"3709",72.98207,69.7807
"3710",75.27215,69.79401
"3711",78.55833,69.80737
"3712",82.545204,69.82068
"3713",86.729836,69.834045
"3714",90.51896,69.84735
"3715",93.44869,69.86072
"3716",95.30175,69.87402
"3717",96.112305,69.88739
"3718",96.05859,69.900696
"3719",95.34814,69.914
"3720",94.19333,69.92737
"3721",92.752884,69.940674
"3722",91.15129,69.95404
"3723",89.478905,69.96735
"3724",87.80652,69.98071
"3725",86.18051,69.99402
"3726",84.66682,70.007324
"3727",83.34112,70.02069
"3728",82.28153,70.034
"3729",81.56374,70.04736
"3730",81.22926,70.06067
"3731",81.25613,70.074036
"3732",81.56374,70.08734
"3733",82.022736,70.10065
"3734",82.48905,70.11401
"3735",82.828415,70.12732
"3736",82.948044,70.140686
"3737",82.79912,70.15399
"3738",82.38407,70.16736
"3739",81.72488,70.180664
"3740",80.8777,70.19403
"3741",79.8938,70.20734
"3742",78.82201,70.22064
"3743",77.72091,70.23401
"3744",76.64423,70.247314
"3745",75.63836,70.26068
"3746",74.737465,70.27399
"3747",73.968414,70.28735
"3748",73.34829,70.30066
"3749",72.867325,70.314026
"3750",72.515755,70.32733
"3751",72.27894,70.34064
"3752",72.13245,70.354004
"3753",72.05432,70.36731
"3754",72.03723,70.38068
"3755",72.06653,70.39398
"3756",72.13245,70.40735
"3757",72.22766,70.420654
"3758",72.34974,70.43396
"3759",72.47669,70.44733
"3760",72.586555,70.46063
"3761",72.66712,70.474
"3762",72.69398,70.487305
"3763",72.64271,70.50067
"3764",72.51331,70.51398
"3765",72.318,70.52728
"3766",72.08118,70.54065
"3767",71.84924,70.553955
"3768",71.74181,70.56732
"3769",71.96399,70.58063
"3770",72.82338,70.593994
"3771",74.63004,70.6073
"3772",77.523155,70.62067
"3773",81.356224,70.63397
"3774",85.70931,70.64728
"3775",89.98917,70.660645
"3776",93.61959,70.67395
"3777",96.21973,70.68732
"3778",97.706566,70.70062
"3779",98.194855,70.71399
"3780",97.901886,70.727295
"3781",97.04738,70.74066
"3782",95.82178,70.75397
"3783",94.374,70.76727
"3784",92.823685,70.78064
"3785",91.25872,70.793945
"3786",89.72793,70.80731
"3787",88.27039,70.82062
"3788",86.91783,70.833984
"3789",85.71908,70.84729
"3790",84.73029,70.860596
"3791",83.99542,70.87396
"3792",83.543755,70.88727
"3793",83.353325,70.900635
"3794",83.35577,70.91394
"3795",83.45098,70.92731
"3796",83.53643,70.94061
"3797",83.5169,70.95392
"3798",83.32647,70.967285
"3799",82.930954,70.98059
"3800",82.340126,70.99396
"3801",81.566185,71.00726
"3802",80.64088,71.02063
"3803",79.60082,71.033936
"3804",78.49729,71.0473
"3805",77.366905,71.06061
"3806",76.25117,71.07391
"3807",75.20378,71.08728
"3808",74.25895,71.100586
"3809",73.43862,71.11395
"3810",72.7599,71.12726
"3811",72.22278,71.140625
"3812",71.81262,71.15393
"3813",71.517204,71.1673
"3814",71.31701,71.1806
"3815",71.19249,71.19391
"3816",71.133896,71.207275
"3817",71.12413,71.22058
"3818",71.15831,71.23395
"3819",71.2169,71.24725
"3820",71.29015,71.26062
"3821",71.363396,71.273926
"3822",71.41711,71.28723
"3823",71.44152,71.3006
"3824",71.42199,71.3139
"3825",71.346306,71.32727
"3826",71.21202,71.340576
"3827",71.04112,71.35394
"3828",70.8629,71.36725
"3829",70.745705,71.380554
"3830",70.82872,71.39392
"3831",71.36584,71.40723
"3832",72.69886,71.42059
"3833",75.07927,71.4339
"3834",78.536354,71.447266
"3835",82.78935,71.46057
"3836",87.31579,71.47394
"3837",91.49554,71.48724
"3838",94.803696,71.50055
"3839",96.99611,71.513916
"3840",98.0972,71.52722
"3841",98.29496,71.54059
"3842",97.81644,71.553894
"3843",96.87892,71.56726
"3844",95.66308,71.58057
"3845",94.30808,71.59393
"3846",92.93355,71.60724
"3847",91.60784,71.620544
"3848",90.36027,71.63391
"3849",89.18349,71.64722
"3850",88.0824,71.66058
"3851",87.05455,71.67389
"3852",86.12192,71.687256
"3853",85.31869,71.70056
"3854",84.68635,71.71387
"3855",84.227356,71.727234
"3856",83.9173,71.74054
"3857",83.70977,71.75391
"3858",83.53643,71.76721
"3859",83.32403,71.78058
"3860",83.02617,71.793884
"3861",82.61112,71.80719
"3862",82.0618,71.82056
"3863",81.375755,71.83386
"3864",80.57252,71.84723
"3865",79.66918,71.860535
"3866",78.692604,71.8739
"3867",77.67452,71.88721
"3868",76.663765,71.90057
"3869",75.69451,71.91388
"3870",74.79118,71.927185
"3871",73.98306,71.94055
"3872",73.28237,71.95386
"3873",72.69642,71.967224
"3874",72.22278,71.98053
"3875",71.86633,71.9939
"3876",71.60998,72.0072
"3877",71.43908,72.02057
"3878",71.33654,72.033875
"3879",71.28527,72.04718
"3880",71.26574,72.06055
"3881",71.26818,72.07385
"3882",71.27795,72.08722
"3883",71.28771,72.100525
"3884",71.29015,72.11389
"3885",71.27306,72.1272
"3886",71.23155,72.1405
"3887",71.15343,72.15387
"3888",71.026474,72.167175
"3889",70.85069,72.18054
"3890",70.63096,72.19385
"3891",70.3917,72.207214
"3892",70.18417,72.22052
"3893",70.12558,72.233826
"3894",70.435646,72.24719
"3895",71.43908,72.2605
"3896",73.41665,72.273865
"3897",76.473335,72.28717
"3898",80.413826,72.30054
"3899",84.78401,72.31384
"3900",88.990616,72.32721
"3901",92.48432,72.340515
"3902",94.93797,72.35382
"3903",96.30518,72.36719
"3904",96.72022,72.38049
"3905",96.4004,72.39386
"3906",95.56298,72.407166
"3907",94.39353,72.42053
"3908",93.04585,72.43384
"3909",91.64446,72.447205
"3910",90.267494,72.46051
"3911",88.956436,72.473816
"3912",87.72106,72.48718
"3913",86.56382,72.50049
"3914",85.49691,72.513855
"3915",84.55695,72.52716
"3916",83.78058,72.54053
"3917",83.209274,72.55383
"3918",82.847946,72.56714
"3919",82.669716,72.580505
"3920",82.60868,72.59381
"3921",82.58671,72.60718
"3922",82.52079,72.62048
"3923",82.34745,72.63385
"3924",82.02762,72.647156
"3925",81.549095,72.66046
"3926",80.91188,72.67383
"3927",80.128174,72.68713
"3928",79.22972,72.7005
"3929",78.25315,72.713806
"3930",77.23018,72.72717
"3931",76.207214,72.74048
"3932",75.22331,72.753845
"3933",74.322426,72.76715
"3934",73.52163,72.78046
"3935",72.84291,72.79382
"3936",72.29359,72.80713
"3937",71.86389,72.820496
"3938",71.54406,72.8338
"3939",71.31701,72.84717
"3940",71.17052,72.86047
"3941",71.08507,72.87384
"3942",71.04845,72.887146
"3943",71.046005,72.90045
"3944",71.063095,72.91382
"3945",71.09483,72.927124
"3946",71.131454,72.94049
"3947",71.16319,72.9538
"3948",71.19005,72.96716
"3949",71.20714,72.98047
"3950",71.20958,72.993774
"3951",71.182724,73.00714
"3952",71.114365,73.02045
"3953",70.994736,73.03381
"3954",70.818954,73.04712
"3955",70.6041,73.060486
"3956",70.39658,73.07379
"3957",70.279396,73.0871
"3958",70.41123,73.100464
"3959",71.06798,73.11377
"3960",72.569466,73.12714
"3961",75.142746,73.14044
"3962",78.75365,73.15381
"3963",83.07744,73.167114
"3964",87.55993,73.18048
"3965",91.58587,73.19379
"3966",94.66941,73.20709
"3967",96.60059,73.22046
"3968",97.43557,73.233765
"3969",97.376976,73.24713
"3970",96.66163,73.26044
"3971",95.49462,73.2738
"3972",94.0444,73.28711
"3973",92.45258,73.300476
"3974",90.811935,73.31378
"3975",89.18837,73.32709
"3976",87.620964,73.340454
"3977",86.1561,73.35376
"3978",84.840164,73.36713
"3979",83.73174,73.38043
"3980",82.90166,73.3938
"3981",82.40116,73.407104
"3982",82.22781,73.42041
"3983",82.33036,73.43378
"3984",82.60136,73.44708
"3985",82.913864,73.46045
"3986",83.14336,73.473755
"3987",83.19707,73.48712
"3988",83.018845,73.50043
"3989",82.59647,73.51373
"3990",81.94461,73.5271
"3991",81.10231,73.540405
"3992",80.11841,73.55377
"3993",79.03929,73.56708
"3994",77.91623,73.580444
"3995",76.80293,73.59375
"3996",75.74334,73.60712
"3997",74.78142,73.62042
"3998",73.94644,73.63373
"3999",73.24574,73.647095
"4000",72.68421,73.6604
"4001",72.24963,73.67377
"4002",71.92737,73.68707
"4003",71.707634,73.70044
"4004",71.5758,73.713745
"4005",71.517204,73.72711
"4006",71.51232,73.74042
"4007",71.53918,73.75372
"4008",71.59045,73.76709
"4009",71.65148,73.780396
"4010",71.7174,73.79376
"4011",71.783325,73.80707
"4012",71.834595,73.820435
"4013",71.86389,73.83374
"4014",71.85901,73.847046
"4015",71.8053,73.86041
"4016",71.69543,73.87372
"4017",71.52941,73.887085
"4018",71.32189,73.90039
"4019",71.097275,73.91376
"4020",70.92638,73.92706
"4021",70.93614,73.94037
"4022",71.35119,73.953735
"4023",72.49134,73.96704
"4024",74.64713,73.98041
"4025",77.891815,73.99371
"4026",82.00076,74.00708
"4027",86.4979,74.020386
"4028",90.758224,74.03375
"4029",94.21286,74.04706
"4030",96.52735,74.06036
"4031",97.672386,74.07373
"4032",97.81644,74.087036
"4033",97.19386,74.1004
"4034",96.03418,74.11371
"4035",94.53025,74.127075
"4036",92.823685,74.14038
"4037",91.019455,74.15375
"4038",89.18837,74.16705
"4039",87.38903,74.18036
"4040",85.68734,74.193726
"4041",84.159,74.20703
"4042",82.8748,74.2204
"4043",81.92508,74.2337
"4044",81.36111,74.24707
"4045",81.18532,74.260376
"4046",81.339134,74.27368
"4047",81.71755,74.28705
"4048",82.178986,74.300354
"4049",82.581825,74.31372
"4050",82.80888,74.32703
"4051",82.78691,74.34039
"4052",82.48417,74.3537
"4053",81.91287,74.367004
"4054",81.109634,74.38037
"4055",80.1355,74.39368
"4056",79.04906,74.40704
"4057",77.91135,74.42035
"4058",76.78096,74.433716
"4059",75.70916,74.44702
"4060",74.73502,74.46039
"4061",73.88052,74.473694
"4062",73.15785,74.487
"4063",72.57191,74.50037
"4064",72.11536,74.51367
"4065",71.78088,74.52704
"4066",71.55871,74.540344
"4067",71.43664,74.55371
"4068",71.39269,74.56702
"4069",71.412224,74.58038
"4070",71.47326,74.59369
"4071",71.56359,74.606995
"4072",71.673454,74.62036
"4073",71.79065,74.63367
"4074",71.91272,74.64703
"4075",72.025024,74.66034
"4076",72.112915,74.673706
"4077",72.16174,74.68701
"4078",72.1593,74.70032
"4079",72.10315,74.713684
"4080",71.99817,74.72699
"4081",71.86389,74.74036
"4082",71.74914,74.75366
"4083",71.744255,74.76703
"4084",72.0177,74.780334
"4085",72.86244,74.79364
"4086",74.62272,74.80701
"4087",77.506065,74.82031
"4088",81.427025,74.83368
"4089",85.994965,74.846985
"4090",90.60685,74.86035
"4091",94.623024,74.87366
"4092",97.567406,74.887024
"4093",99.27154,74.90033
"4094",99.842834,74.913635
"4095",99.51568,74.927
"4096",98.53666,74.94031
"4097",97.11818,74.953674
"4098",95.43847,74.96698
"4099",93.6318,74.98035
"4100",91.78851,74.99365
"4101",89.9794,75.00702
"4102",88.255745,75.020325
"4103",86.678566,75.03363
"4104",85.30404,75.047
"4105",84.20294,75.0603
"4106",83.43633,75.07367
"4107",83.02373,75.086975
"4108",82.94072,75.10034
"4109",83.104294,75.11365
"4110",83.39727,75.12695
"4111",83.67559,75.14032
"4112",83.83185,75.153625
"4113",83.78546,75.16699
"4114",83.49737,75.1803
"4115",82.97246,75.193665
"4116",82.230255,75.20697
"4117",81.31228,75.220276
"4118",80.26246,75.23364
"4119",79.132065,75.24695
"4120",77.9675,75.260315
"4121",76.83223,75.27362
"4122",75.76776,75.28699
"4123",74.810715,75.30029
"4124",73.985504,75.31366
"4125",73.30923,75.326965
"4126",72.77699,75.34027
"4127",72.38392,75.35364
"4128",72.11536,75.36694
"4129",71.9469,75.38031
"4130",71.86145,75.393616
"4131",71.84192,75.40698
"4132",71.86633,75.42029
"4133",71.922485,75.433655
"4134",72.00305,75.44696
"4135",72.09094,75.460266
"4136",72.17151,75.47363
"4137",72.232544,75.48694
"4138",72.256966,75.500305
"4139",72.234985,75.51361
"4140",72.15686,75.52698
"4141",72.02014,75.54028
"4142",71.8468,75.55359
"4143",71.67101,75.566956
"4144",71.57824,75.58026
"4145",71.7174,75.59363
"4146",72.34486,75.60693
"4147",73.777985,75.6203
"4148",76.23895,75.633606
"4149",79.708244,75.64691
"4150",83.87335,75.66028
"4151",88.21912,75.673584
"4152",92.140076,75.68695
"4153",95.15282,75.70026
"4154",97.040054,75.71362
"4155",97.84573,75.72693
"4156",97.75784,75.740295
"4157",96.99611,75.7536
"4158",95.77783,75.76691
"4159",94.27146,75.78027
"4160",92.60395,75.79358
"4161",90.87053,75.806946
"4162",89.1371,75.82025
"4163",87.45495,75.83362
"4164",85.88266,75.846924
"4165",84.49592,75.86029
"4166",83.372856,75.8736
"4167",82.581825,75.8869
"4168",82.17166,75.90027
"4169",82.11795,75.913574
"4170",82.340126,75.92694
"4171",82.71122,75.94025
"4172",83.09209,75.95361
"4173",83.34844,75.96692
"4174",83.39727,75.980225
"4175",83.194626,75.99359
"4176",82.735634,76.0069
"4177",82.04715,76.02026
"4178",81.17311,76.03357
"4179",80.16235,76.046936
"4180",79.07103,76.06024
"4181",77.95285,76.07355
"4182",76.87373,76.086914
"4183",75.86786,76.10022
"4184",74.966965,76.11359
"4185",74.19302,76.12689
"4186",73.55581,76.14026
"4187",73.05287,76.153564
"4188",72.67933,76.16693
"4189",72.42298,76.18024
"4190",72.26429,76.19354
"4191",72.183716,76.20691
"4192",72.16174,76.220215
"4193",72.181274,76.23358
"4194",72.22278,76.24689
"4195",72.28382,76.260254
"4196",72.35706,76.27356
"4197",72.427864,76.28693
"4198",72.47669,76.30023
"4199",72.48646,76.31354
"4200",72.44007,76.326904
"4201",72.33265,76.34021
"4202",72.166626,76.35358
"4203",71.96887,76.36688
"4204",71.776,76.38025
"4205",71.66857,76.393555
"4206",71.79309,76.40692
"4207",72.413216,76.42023
"4208",73.82437,76.43359
"4209",76.22186,76.4469
"4210",79.57397,76.460266
"4211",83.57061,76.47357
"4212",87.70397,76.48694
"4213",91.405205,76.500244
"4214",94.22995,76.51361
"4215",95.992676,76.52692
"4216",96.73487,76.54028
"4217",96.62989,76.55359
"4218",94.72068,76.58026
"4219",93.26559,76.59363
"4220",91.65179,76.60693
"4221",89.969635,76.6203
"4222",88.28016,76.633606
"4223",86.6395,76.64697
"4224",85.120926,76.66028
"4225",83.80011,76.673645
"4226",82.76494,76.68695
"4227",82.08865,76.70032
"4228",81.79324,76.71362
"4229",81.84451,76.72699
"4230",82.144806,76.740295
"4231",82.55497,76.75366
"4232",82.94072,76.76697
"4233",83.177536,76.780334
"4234",83.18486,76.79364
"4235",82.93584,76.80701
"4236",82.44022,76.82031
"4237",81.72976,76.83368
"4238",80.85329,76.846985
"4239",79.86694,76.86035
"4240",78.82201,76.87366
"4241",77.77219,76.887024
"4242",76.76143,76.90033
"4243",75.826355,76.9137
"4244",75.001144,76.927
"4245",74.302895,76.94037
"4246",73.7438,76.953674
"4247",73.31655,76.96704
"4248",73.00893,76.98035
"4249",72.80629,76.99371
"4250",72.68665,77.00702
"4251",72.62806,77.020386
"4252",72.62562,77.03369
"4253",72.65736,77.04706
"4254",72.71107,77.06036
"4255",72.77211,77.07373
"4256",72.83559,77.087036
"4257",72.884415,77.1004
"4258",72.903946,77.11371
"4259",72.886856,77.127075
"4260",72.82338,77.14038
"4261",72.7013,77.15375
"4262",72.518196,77.16705
"4263",72.29847,77.18042
"4264",72.07385,77.193726
"4265",71.920044,77.20709
"4266",71.98108,77.2204
"4267",72.50843,77.233765
"4268",73.78775,77.24707
"4269",76.019226,77.26044
"4270",79.18822,77.27374
"4271",83.0164,77.28711
"4272",87.01793,77.300415
"4273",90.64347,77.31378
"4274",93.45602,77.32709
"4275",95.25536,77.340454
"4276",96.06836,77.35376
"4277",96.05859,77.36713
"4278",95.41894,77.38043
"4279",94.33738,77.3938
"4280",92.9604,77.407104
"4281",91.41009,77.42047
"4282",89.776764,77.43378
"4283",88.13367,77.44714
"4284",86.54185,77.46045
"4285",85.06477,77.473816
"4286",83.78058,77.48712
"4287",82.774704,77.50049
"4288",82.11551,77.513794
"4289",81.82498,77.52716
"4290",81.87625,77.54047
"4291",82.16922,77.55383
"4292",82.57694,77.56714
"4293",82.95781,77.580505
"4294",83.19707,77.59381
"4295",83.2166,77.60718
"4296",82.98222,77.62048
"4297",82.5037,77.63385
"4298",81.812775,77.647156
"4299",80.955826,77.66052
"4300",79.991455,77.67383
"4301",78.97337,77.687195
"4302",77.95285,77.7005
"4303",76.97627,77.71387
"4304",76.08026,77.72717
"4305",75.28924,77.74054
"4306",74.617836,77.753845
"4307",74.075836,77.76721
"4308",73.65591,77.78052
"4309",73.34829,77.793884
"4310",73.14076,77.80719
"4311",73.01625,77.82056
"4312",72.955215,77.83386
"4313",72.938126,77.84723
"4314",72.952774,77.860535
"4315",72.98451,77.8739
"4316",73.02846,77.88721
"4317",73.077286,77.90057
"4318",73.11879,77.91388
"4319",73.13832,77.927246
"4320",73.128555,77.94055
"4321",73.0724,77.95392
"4322",72.95033,77.967224
"4323",72.76723,77.98059
"4324",72.52552,77.9939
"4325",72.25941,78.00726
"4326",72.02014,78.02057
"4327",71.92493,78.033936
"4328",72.183716,78.04724
"4329",73.08217,78.06061
"4330",74.85954,78.07391
"4331",77.60372,78.08728
"4332",81.14137,78.100586
"4333",85.05989,78.11395
"4334",88.82948,78.12726
"4335",91.95941,78.140625
"4336",94.151825,78.15393
"4337",95.343254,78.1673
"4338",95.65087,78.1806
"4339",95.257805,78.19397
"4340",94.35935,78.207275
"4341",93.11177,78.22064
"4342",91.65179,78.23395
"4343",90.08438,78.247314
"4344",88.482796,78.26062
"4345",86.908066,78.27399
"4346",85.42611,78.28729
"4347",84.11017,78.30066
"4348",83.038376,78.313965
"4349",82.2913,78.32733
"4350",81.91043,78.34064
"4351",81.87625,78.354004
"4352",82.11795,78.36731
"4353",82.51591,78.38068
"4354",82.93584,78.39398
"4355",83.250786,78.40735
"4356",83.3753,78.420654
"4357",83.25811,78.43402
"4358",82.88701,78.44733
"4359",82.28397,78.46069
"4360",81.495384,78.474
"4361",80.5774,78.487366
"4362",79.586174,78.50067
"4363",78.5803,78.51404
"4364",77.611046,78.52734
"4365",76.71015,78.54071
"4366",75.90936,78.554016
"4367",75.228195,78.56738
"4368",74.67399,78.58069
"4369",74.246735,78.594055
"4370",73.934235,78.60736
"4371",73.721825,78.62073
"4372",73.59243,78.63403
"4373",73.52407,78.6474
"4374",73.49966,78.660706
"4375",73.514305,78.67407
"4376",73.548485,78.68738
"4377",73.59487,78.700745
"4378",73.64614,78.71405
"4379",73.69009,78.72742
"4380",73.70718,78.74072
"4381",73.69253,78.75409
"4382",73.62661,78.767395
"4383",73.48989,78.78076
"4384",73.28481,78.79407
"4385",73.01625,78.807434
"4386",72.71107,78.82074
"4387",72.4181,78.83411
"4388",72.24719,78.84741
"4389",72.38392,78.86078
"4390",73.08705,78.874084
"4391",74.60319,78.88745
"4392",77.04219,78.90076
"4393",80.274666,78.91412
"4394",83.93683,78.92743
"4395",87.53796,78.940796
"4396",90.60929,78.9541
"4397",92.82857,78.96747
"4398",94.10788,78.980774
"4399",94.53269,78.99414
"4400",94.26658,79.00745
"4401",93.48531,79.02081
"4402",92.34028,79.03412
"4403",90.9633,79.047485
"4404",89.45693,79.06079
"4405",87.89197,79.07416
"4406",86.33433,79.08746
"4407",84.84993,79.10083
"4408",83.51446,79.114136
"4409",82.41825,79.1275
"4410",81.64919,79.14081
"4411",81.253685,79.154175
"4412",81.2195,79.16748
"4413",81.47585,79.18085
"4414",81.898224,79.19415
"4415",82.34501,79.20752
"4416",82.68192,79.220825
"4417",82.81621,79.23419
"4418",82.701454,79.2475
"4419",82.33524,79.260864
"4420",81.739525,79.27417
"4421",80.95827,79.28754
"4422",80.04761,79.30084
"4423",79.06859,79.31421
"4424",78.07004,79.327515
"4425",77.100784,79.34088
"4426",76.20477,79.35419
"4427",75.406425,79.36755
"4428",74.72282,79.38086
"4429",74.161285,79.394226
"4430",73.72915,79.40753
"4431",73.41421,79.4209
"4432",73.2018,79.434204
"4433",73.0724,79.44757
"4434",73.006485,79.46088
"4435",72.98695,79.47424
"4436",72.99672,79.48755
"4437",73.023575,79.500916
"4438",73.06508,79.51422
"4439",73.10414,79.52759
"4440",73.14076,79.54089
"4441",73.15785,79.55426
"4442",73.15053,79.567566
"4443",73.09926,79.58093
"4444",72.98451,79.59424
"4445",72.80385,79.607605
"4446",72.56458,79.62091
"4447",72.30091,79.63428
"4448",72.07385,79.64758
"4449",72.010376,79.66095
"4450",72.33753,79.674255
"4451",73.35317,79.68762
"4452",75.29168,79.70093
"4453",78.19699,79.714294
"4454",81.84207,79.7276
"4455",85.78989,79.74097
"4456",89.5082,79.75427
"4457",92.53559,79.76764
"4458",94.625465,79.780945
"4459",95.75098,79.79431
"4460",96.03906,79.80762
"4461",95.66796,79.820984
"4462",94.81102,79.83429
"4463",93.6318,79.84766
"4464",92.27436,79.86096
"4465",90.851,79.87433
"4466",89.43496,79.887634
"4467",88.06775,79.901
"4468",86.78111,79.91431
"4469",85.60189,79.92767
"4470",84.58625,79.94098
"4471",83.78302,79.954346
"4472",83.24101,79.96765
"4473",82.96513,79.98102
"4474",82.92363,79.99432
"4475",83.03349,80.00769
"4476",83.18974,80.020996
"4477",83.29229,80.03436
"4478",83.25811,80.04767
"4479",83.035934,80.061035
"4480",82.61112,80.07434
"4481",81.99344,80.08771
"4482",81.20973,80.10101
"4483",80.30396,80.11438
"4484",79.32494,80.127686
"4485",78.32151,80.14105
"4486",77.33761,80.15436
"4487",76.41474,80.167725
"4488",75.58709,80.18103
"4489",74.87175,80.1944
"4490",74.27116,80.2077
"4491",73.79019,80.22107
"4492",73.41909,80.234375
"4493",73.145645,80.24774
"4494",72.955215,80.26105
"4495",72.833145,80.274414
"4496",72.76723,80.28772
"4497",72.73304,80.30109
"4498",72.723274,80.31439
"4499",72.72816,80.32776
"4500",72.73304,80.341064
"4501",72.73548,80.35443
"4502",72.72816,80.36774
"4503",72.70374,80.3811
"4504",72.65003,80.39441
"4505",72.55482,80.407776
"4506",72.40589,80.42108
"4507",72.1886,80.43445
"4508",71.91272,80.447754
"4509",71.59777,80.46112
"4510",71.3048,80.47443
"4511",71.12901,80.48779
"4512",71.28039,80.5011
"4513",72.044556,80.514465
"4514",73.704735,80.52777
"4515",76.3708,80.54114
"4516",79.89136,80.55444
"4517",83.878235,80.56781
"4518",87.79675,80.581116
"4519",91.13664,80.59448
"4520",93.57076,80.60779
"4521",95.02342,80.621155
"4522",95.58007,80.63446
"4523",95.42382,80.64783
"4524",94.73289,80.66113
"4525",93.66842,80.6745
"4526",92.384224,80.687805
"4527",91.00725,80.70117
"4528",89.62539,80.71448
"4529",88.2826,80.727844
"4530",87.00572,80.74115
"4531",85.81918,80.75452
"4532",84.754715,80.76782
"4533",83.86359,80.78119
"4534",83.194626,80.794495
"4535",82.77959,80.80786
"4536",82.60624,80.82117
"4537",82.62089,80.83453
"4538",82.72587,80.84784
"4539",82.82109,80.861206
"4540",82.82353,80.87451
