"","ppg","time"
"1",77.64767,86.27017
"2",77.662315,86.28354
"3",77.679405,86.296844
"4",77.69161,86.31021
"5",77.71114,86.32352
"6",77.786835,86.33688
"7",78.00168,86.35019
"8",78.45579,86.363556
"9",79.19554,86.37686
"10",80.18921,86.39023
"11",81.31472,86.403534
"12",82.40116,86.4169
"13",83.2752,86.43021
"14",83.826965,86.44357
"15",84.04181,86.45688
"16",83.966125,86.470245
"17",83.67803,86.48355
"18",83.26299,86.49692
"19",82.791794,86.51022
"20",82.32548,86.52359
"21",81.898224,86.536896
"22",81.52712,86.55026
"23",81.21706,86.56357
"24",80.96315,86.576935
"25",80.75563,86.59024
"26",80.587166,86.60361
"27",80.46754,86.61691
"28",80.396736,86.63028
"29",80.38209,86.643585
"30",80.41871,86.65695
"31",80.48463,86.67026
"32",80.550545,86.683624
"33",80.58961,86.69693
"34",80.58228,86.7103
"35",80.52125,86.7236
"36",80.41871,86.73697
"37",80.26978,86.750275
"38",80.093994,86.76364
"39",79.8938,86.77695
"40",79.676506,86.79031
"41",79.449455,86.80362
"42",79.22972,86.816986
"43",79.02464,86.83029
"44",78.84154,86.84366
"45",78.677956,86.856964
"46",78.54612,86.87033
"47",78.44602,86.88364
"48",78.37766,86.897
"49",78.34104,86.91031
"50",78.33372,86.923676
"51",78.35081,86.93698
"52",78.38499,86.95035
"53",78.43626,86.96365
"54",78.502174,86.97702
"55",78.57542,86.990326
"56",78.64866,87.00369
"57",78.71702,87.017
"58",78.768295,87.030365
"59",78.80003,87.04367
"60",78.81224,87.05704
"61",78.80736,87.07034
"62",78.79515,87.08371
"63",78.78294,87.097015
"64",78.785385,87.11038
"65",78.80492,87.12369
"66",78.8513,87.137054
"67",78.924545,87.15036
"68",79.012436,87.16373
"69",79.10277,87.17703
"70",79.17845,87.1904
"71",79.237045,87.203705
"72",79.26879,87.21707
"73",79.281,87.23038
"74",79.273674,87.243744
"75",79.24925,87.25705
"76",79.20531,87.27042
"77",79.13695,87.28372
"78",79.05882,87.29709
"79",79.01976,87.310394
"80",79.11009,87.32376
"81",79.41772,87.33707
"82",79.98169,87.35043
"83",80.77028,87.36374
"84",81.68337,87.377106
"85",82.57206,87.39041
"86",83.27764,87.40378
"87",83.702446,87.41708
"88",83.82941,87.43045
"89",83.6878,87.443756
"90",83.346,87.45712
"91",82.88701,87.47043
"92",82.38651,87.483795
"93",81.89578,87.4971
"94",81.44167,87.51047
"95",81.03395,87.52377
"96",80.67506,87.53714
"97",80.37232,87.550446
"98",80.12085,87.56381
"99",79.937744,87.57712
"100",79.83032,87.590485
"101",79.80347,87.60379
"102",79.85474,87.61716
"103",79.971924,87.63046
"104",80.12573,87.64383
"105",80.28687,87.657135
"106",80.413826,87.6705
"107",80.48707,87.68381
"108",80.48951,87.697174
"109",80.42115,87.71048
"110",80.2942,87.72385
"111",80.128174,87.73715
"112",79.94751,87.75052
"113",79.77417,87.763824
"114",79.622795,87.77719
"115",79.50561,87.7905
"116",79.429924,87.80386
"117",79.40063,87.81717
"118",79.40795,87.830536
"119",79.43969,87.84384
"120",79.48119,87.85721
"121",79.51293,87.870514
"122",79.52758,87.88388
"123",79.517815,87.89719
"124",79.49584,87.91055
"125",79.46899,87.92386
"126",79.447014,87.937225
"127",79.42748,87.95053
"128",79.41039,87.9639
"129",79.3933,87.9772
"130",79.36889,87.99057
"131",79.33227,88.003876
"132",79.281,88.01724
"133",79.219955,88.03055
"134",79.13695,88.043915
"135",79.03441,88.05722
"136",78.9099,88.07059
"137",78.765854,88.08389
"138",78.60471,88.09726
"139",78.450905,88.110565
"140",78.32639,88.12393
"141",78.260475,88.13724
"142",78.24582,88.150604
"143",78.27512,88.16391
"144",78.32151,88.17728
"145",78.3679,88.19058
"146",78.40208,88.20395
"147",78.42893,88.217255
"148",78.46067,88.23062
"149",78.50706,88.24393
"150",78.63401,88.25729
"151",78.92699,88.2706
"152",79.447014,88.283966
"153",80.198975,88.29727
"154",81.11452,88.31064
"155",82.0618,88.323944
"156",82.87236,88.33731
"157",83.42901,88.35062
"158",83.685356,88.36398
"159",83.67803,88.37729
"160",83.46319,88.390656
"161",83.11162,88.40396
"162",82.69413,88.41733
"163",82.25956,88.43063
"164",81.83963,88.444
"165",81.461205,88.457306
"166",81.13649,88.47067
"167",80.85817,88.48398
"168",80.63111,88.497345
"169",80.45533,88.51065
"170",80.33326,88.52402
"171",80.27711,88.53732
"172",80.28687,88.55069
"173",80.36988,88.563995
"174",80.5066,88.57736
"175",80.672615,88.59067
"176",80.82887,88.604034
"177",80.9485,88.61734
"178",81.007095,88.63071
"179",80.99489,88.64401
"180",80.921646,88.65738
"181",80.799576,88.670685
"182",80.6482,88.68405
"183",80.4773,88.69736
"184",80.306404,88.710724
"185",80.13794,88.72403
"186",79.97925,88.7374
"187",79.83765,88.7507
"188",79.71313,88.76407
"189",79.603264,88.777374
"190",79.51537,88.79074
"191",79.43969,88.80405
"192",79.378654,88.81741
"193",79.33471,88.83072
"194",79.30785,88.844086
"195",79.30053,88.85739
"196",79.31518,88.87076
"197",79.35424,88.88406
"198",79.40551,88.89743
"199",79.466545,88.910736
"200",79.520256,88.9241
"201",79.55688,88.93741
"202",79.569084,88.950775
"203",79.57397,88.96408
"204",79.57397,88.97745
"205",79.57885,88.99075
"206",79.586174,89.00412
"207",79.59106,89.017426
"208",79.569084,89.03079
"209",79.51049,89.0441
"210",79.43481,89.057465
"211",79.34936,89.07077
"212",79.28344,89.08414
"213",79.27123,89.09744
"214",79.41039,89.11081
"215",79.87915,89.124115
"216",80.89235,89.13748
"217",82.42802,89.15079
"218",84.15411,89.164154
"219",85.575035,89.17746
"220",86.261086,89.19083
"221",86.014496,89.20413
"222",84.98909,89.2175
"223",83.71465,89.230804
"224",82.791794,89.24417
"225",82.57694,89.25748
"226",83.075,89.27084
"227",84.09064,89.28415
"228",85.32357,89.297516
"229",86.47349,89.31082
"230",87.33776,89.32419
"231",87.80408,89.337494
"232",87.84558,89.35086
"233",87.501335,89.36417
"234",86.869,89.37753
"235",86.048676,89.39084
"236",85.138016,89.404205
"237",84.22247,89.41751
"238",83.36065,89.43088
"239",82.581825,89.44418
"240",81.89334,89.45755
"241",81.29763,89.470856
"242",80.80202,89.48422
"243",80.413826,89.49753
"244",80.128174,89.510895
"245",79.94751,89.5242
"246",79.871826,89.53757
"247",79.88403,89.55087
"248",79.9646,89.56424
"249",80.07446,89.577545
"250",80.17944,89.59091
"251",80.25269,89.60422
"252",80.28443,89.617584
"253",80.27711,89.63089
"254",80.2478,89.64426
"255",80.201416,89.65756
"256",80.147705,89.67093
"257",80.08423,89.684235
"258",80.01343,89.6976
"259",79.93286,89.71091
"260",79.84009,89.72427
"261",79.73266,89.73758
"262",79.603264,89.750946
"263",79.43969,89.76425
"264",79.234604,89.77762
"265",78.992905,89.790924
"266",78.729225,89.80429
"267",78.46555,89.8176
"268",78.22629,89.83096
"269",78.030975,89.84427
"270",77.88937,89.857635
"271",77.81125,89.87094
"272",77.789276,89.88431
"273",77.821014,89.89761
"274",77.891815,89.91098
"275",77.98703,89.924286
"276",78.08713,89.93765
"277",78.17258,89.95096
"278",78.23117,89.964325
"279",78.24826,89.97763
"280",78.22385,89.991
"281",78.15793,90.0043
"282",78.065155,90.01767
"283",77.95773,90.030975
"284",77.857635,90.04434
"285",77.786835,90.05765
"286",77.7551,90.071014
"287",77.7551,90.08432
"288",77.789276,90.09769
"289",77.840546,90.11099
"290",77.90646,90.12436
"291",77.98947,90.137665
"292",78.1384,90.15103
"293",78.42649,90.16434
"294",78.92943,90.177704
"295",79.64965,90.19101
"296",80.55787,90.20438
"297",81.55398,90.21768
"298",82.5037,90.23105
"299",83.27032,90.244354
"300",83.773254,90.25772
"301",83.99054,90.27103
"302",83.94171,90.28439
"303",83.682915,90.2977
"304",83.29229,90.311066
"305",82.845505,90.32437
"306",82.4036,90.33774
"307",82.005646,90.35104
"308",81.6614,90.36441
"309",81.36355,90.377716
"310",81.0901,90.39108
"311",80.82887,90.40439
"312",80.58961,90.417755
"313",80.37476,90.43106
"314",80.201416,90.44443
"315",80.08179,90.45773
"316",80.02319,90.4711
"317",80.01099,90.484406
"318",80.0354,90.49777
"319",80.08179,90.51108
"320",80.147705,90.524445
"321",80.22339,90.53775
"322",80.29664,90.55112
"323",80.35279,90.56442
"324",80.377205,90.57779
"325",80.343025,90.591095
"326",80.24048,90.60446
"327",80.07446,90.61777
"328",79.85474,90.631134
"329",79.605705,90.64444
"330",79.34203,90.65781
"331",79.080795,90.67111
"332",78.82445,90.68448
"333",78.58762,90.697784
"334",78.37034,90.71115
"335",78.17502,90.72446
"336",78.01633,90.73782
"337",77.89426,90.75113
"338",77.80881,90.764496
"339",77.75998,90.7778
"340",77.747765,90.79117
"341",77.769745,90.804474
"342",77.823456,90.81784
"343",77.91379,90.83115
"344",78.03342,90.84451
"345",78.17258,90.85782
"346",78.31907,90.871185
"347",78.46311,90.88449
"348",78.58518,90.89786
"349",78.68772,90.91116
"350",78.76341,90.92453
"351",78.819565,90.937836
"352",78.856186,90.9512
"353",78.88548,90.96451
"354",78.9099,90.977875
"355",78.93675,90.99118
"356",78.97337,91.00455
"357",79.029526,91.01785
"358",79.13451,91.03122
"359",79.364006,91.044525
"360",79.801025,91.05789
"361",80.479744,91.0712
"362",81.38308,91.084564
"363",82.4329,91.09787
"364",83.4876,91.11124
"365",84.3885,91.12454
"366",85.02571,91.13791
"367",85.35287,91.151215
"368",85.36996,91.16458
"369",85.12337,91.17789
"370",84.67414,91.19125
"371",84.09796,91.20456
"372",83.46319,91.217926
"373",82.81377,91.23123
"374",82.20096,91.2446
"375",81.66384,91.257904
"376",81.22926,91.27127
"377",80.89723,91.28458
"378",80.672615,91.29794
"379",80.5481,91.31125
"380",80.50904,91.324615
"381",80.55543,91.33792
"382",80.69703,91.35129
"383",80.94118,91.36459
"384",81.248795,91.37796
"385",81.57351,91.391266
"386",81.85184,91.40463
"387",82.02762,91.41794
"388",82.07156,91.431305
"389",81.986115,91.44461
"390",81.80545,91.45798
"391",81.55154,91.47128
"392",81.25124,91.48465
"393",80.919205,91.497955
"394",80.56275,91.51132
"395",80.18677,91.52463
"396",79.798584,91.537994
"397",79.4226,91.5513
"398",79.07591,91.56467
"399",78.7805,91.57797
"400",78.54612,91.59134
"401",78.37034,91.604645
"402",78.25071,91.61801
"403",78.167694,91.63132
"404",78.09689,91.644684
"405",78.030975,91.65799
"406",77.96994,91.67136
"407",77.90402,91.68466
"408",77.83322,91.69803
"409",77.769745,91.711334
"410",77.71847,91.7247
"411",77.67452,91.73801
"412",77.6379,91.75137
"413",77.611046,91.76468
"414",77.59884,91.778046
"415",77.5964,91.79135
"416",77.61349,91.80472
"417",77.64767,91.81802
"418",77.69161,91.83139
"419",77.730675,91.844696
"420",77.7551,91.85806
"421",77.77219,91.87137
"422",77.83566,91.884735
"423",78.03342,91.89804
"424",78.46067,91.91141
"425",79.15892,91.92471
"426",80.10132,91.93808
"427",81.18532,91.951385
"428",82.26444,91.96475
"429",83.20195,91.97806
"430",83.90021,91.991425
"431",84.315254,92.00473
"432",84.454414,92.0181
"433",84.34455,92.0314
"434",84.03204,92.04477
"435",83.57549,92.058075
"436",83.035934,92.07144
"437",82.46708,92.08475
"438",81.90555,92.098114
"439",81.373314,92.11142
"440",80.88014,92.12479
"441",80.43336,92.13809
"442",80.042725,92.15146
"443",79.7351,92.164764
"444",79.537346,92.17813
"445",79.466545,92.19144
"446",79.53002,92.2048
"447",79.710686,92.21811
"448",79.9646,92.231476
"449",80.24048,92.24478
"450",80.479744,92.25815
"451",80.64576,92.271454
"452",80.71168,92.28482
"453",80.68482,92.29813
"454",80.5774,92.31149
"455",80.413826,92.3248
"456",80.216064,92.338165
"457",80.0061,92.35147
"458",79.79614,92.36484
"459",79.588615,92.37814
"460",79.3933,92.39151
"461",79.200424,92.404816
"462",79.01732,92.41818
"463",78.836655,92.43149
"464",78.66819,92.444855
"465",78.51438,92.45816
"466",78.37522,92.47153
"467",78.24826,92.48483
"468",78.12863,92.4982
"469",78.01633,92.511505
"470",77.91867,92.52487
"471",77.84543,92.53818
"472",77.81125,92.551544
"473",77.821014,92.56485
"474",77.874725,92.57822
"475",77.962616,92.59152
"476",78.0676,92.60489
"477",78.1799,92.618195
"478",78.28489,92.63156
"479",78.38499,92.64487
"480",78.470436,92.65823
"481",78.53391,92.67154
"482",78.56809,92.684906
"483",78.56809,92.69821
"484",78.555885,92.71158
"485",78.607155,92.724884
"486",78.836655,92.73825
"487",79.33715,92.75156
"488",80.1355,92.76492
"489",81.180435,92.77823
"490",82.33036,92.791595
"491",83.40948,92.8049
"492",84.27375,92.81827
"493",84.84749,92.83157
"494",85.12337,92.84494
"495",85.13313,92.858246
"496",84.9305,92.87161
"497",84.576485,92.88492
"498",84.12482,92.898285
"499",83.62676,92.91159
"500",83.11406,92.92496
"501",82.60624,92.93826
"502",82.11063,92.95163
"503",81.634544,92.964935
"504",81.20241,92.9783
"505",80.8362,92.99161
"506",80.56275,93.004974
"507",80.4065,93.01828
"508",80.36744,93.03165
"509",80.4358,93.04495
"510",80.567635,93.05832
"511",80.71656,93.071625
"512",80.833755,93.08499
"513",80.885025,93.0983
"514",80.848404,93.111664
"515",80.723885,93.12497
"516",80.52857,93.138336
"517",80.28199,93.15164
"518",80.00122,93.16501
"519",79.708244,93.178314
"520",79.41772,93.19168
"521",79.132065,93.20499
"522",78.85863,93.21835
"523",78.59739,93.23166
"524",78.35569,93.245026
"525",78.135956,93.25833
"526",77.95041,93.2717
"527",77.803925,93.285
"528",77.69894,93.29837
"529",77.6379,93.311676
"530",77.60616,93.32504
"531",77.60128,93.33835
"532",77.62081,93.351715
"533",77.67452,93.36502
"534",77.75754,93.37839
"535",77.872284,93.39169
"536",78.013885,93.40506
"537",78.16525,93.418365
"538",78.2971,93.43173
"539",78.39475,93.44504
"540",78.44358,93.458405
"541",78.44602,93.47171
"542",78.41184,93.48508
"543",78.35325,93.49838
"544",78.294655,93.51175
"545",78.29221,93.525055
"546",78.42649,93.53842
"547",78.785385,93.55173
"548",79.432365,93.565094
"549",80.36744,93.5784
"550",81.497826,93.59177
"551",82.68192,93.60507
"552",83.75128,93.61844
"553",84.576485,93.631744
"554",85.09163,93.64511
"555",85.28695,93.65842
"556",85.19661,93.67178
"557",84.88411,93.68509
"558",84.422676,93.698456
"559",83.86847,93.71176
"560",83.28008,93.72513
"561",82.69169,93.738434
"562",82.127716,93.7518
"563",81.602806,93.76511
"564",81.13649,93.77847
"565",80.743416,93.79178
"566",80.448006,93.805145
"567",80.26002,93.81845
"568",80.19409,93.83182
"569",80.24292,93.84512
"570",80.37965,93.85849
"571",80.567635,93.871796
"572",80.765396,93.88516
"573",80.919205,93.89847
"574",80.99489,93.911835
"575",80.972916,93.92514
"576",80.85817,93.93851
"577",80.66285,93.95181
"578",80.413826,93.96518
"579",80.13306,93.978485
"580",79.84741,93.99185
"581",79.55688,94.00516
"582",79.27123,94.018524
"583",78.99046,94.03183
"584",78.71702,94.0452
"585",78.450905,94.0585
"586",78.19943,94.07187
"587",77.96994,94.085175
"588",77.769745,94.09854
"589",77.60128,94.11185
"590",77.47921,94.12521
"591",77.3962,94.13852
"592",77.347374,94.151886
"593",77.32052,94.16519
"594",77.30587,94.17856
"595",77.296104,94.191864
"596",77.298546,94.20523
"597",77.31808,94.21854
"598",77.35958,94.2319
"599",77.4255,94.24521
"600",77.50118,94.258575
"601",77.57931,94.27188
"602",77.642784,94.28525
"603",77.70626,94.29855
"604",77.806366,94.31192
"605",78.030975,94.325226
"606",78.48264,94.33859
"607",79.23216,94.3519
"608",80.2649,94.365265
"609",81.495384,94.37857
"610",82.76738,94.39194
"611",83.90265,94.40524
"612",84.76448,94.41861
"613",85.27474,94.431915
"614",85.435875,94.44528
"615",85.29427,94.45859
"616",84.92073,94.471954
"617",84.3885,94.48526
"618",83.78058,94.49863
"619",83.15556,94.51193
"620",82.55741,94.5253
"621",82.005646,94.538605
"622",81.512474,94.55197
"623",81.08522,94.56528
"624",80.72144,94.57864
"625",80.42115,94.59195
"626",80.184326,94.605316
"627",80.01587,94.61862
"628",79.91333,94.63199
"629",79.871826,94.645294
"630",79.88403,94.65866
"631",79.920654,94.67197
"632",79.95972,94.68533
"633",79.9646,94.69864
"634",79.91089,94.712006
"635",79.78638,94.72531
"636",79.59594,94.73868
"637",79.34692,94.75198
"638",79.061264,94.76535
"639",78.75609,94.778656
"640",78.44602,94.79202
"641",78.14572,94.80533
"642",77.874725,94.818695
"643",77.642784,94.832
"644",77.44259,94.84537
"645",77.264366,94.85867
"646",77.086136,94.87204
"647",76.90059,94.885345
"648",76.70771,94.89871
"649",76.52216,94.91202
"650",76.36591,94.925385
"651",76.263374,94.93869
"652",76.21698,94.95206
"653",76.20477,94.96536
"654",76.19745,94.97873
"655",76.16327,94.992035
"656",76.07782,95.0054
"657",75.93622,95.01871
"658",75.74578,95.032074
"659",75.52361,95.04538
"660",75.299,95.05875
"661",75.09148,95.07205
"662",74.96208,95.08542
"663",75.01091,95.098724
"664",75.352715,95.11209
"665",76.053406,95.1254
"666",77.11055,95.13876
"667",78.4387,95.15207
"668",79.871826,95.165436
"669",81.22194,95.17874
"670",82.33036,95.19211
"671",83.106735,95.205414
"672",83.52178,95.21878
"673",83.60723,95.232086
"674",83.41924,95.24545
"675",83.035934,95.25876
"676",82.533,95.272125
"677",81.97635,95.28543
"678",81.41238,95.2988
"679",80.86549,95.3121
"680",80.35279,95.32547
"681",79.903564,95.338776
"682",79.551994,95.35214
"683",79.344475,95.36545
"684",79.31762,95.378815
"685",79.49096,95.39212
"686",79.86206,95.40549
"687",80.39185,95.41879
"688",81.02663,95.43216
"689",81.71267,95.445465
"690",82.39872,95.45883
"691",83.03349,95.47214
"692",83.56573,95.485504
"693",83.966125,95.49881
"694",84.210266,95.51218
"695",84.29572,95.52548
"696",84.224915,95.53885
"697",84.017395,95.552155
"698",83.69268,95.56552
"699",83.29717,95.57883
"700",82.862595,95.59219
"701",82.423134,95.6055
"702",82.003204,95.618866
"703",81.60525,95.63217
"704",81.22682,95.64554
"705",80.86061,95.658844
"706",80.51881,95.67221
"707",80.218506,95.68552
"708",79.98169,95.69888
"709",79.80835,95.71219
"710",79.70336,95.725555
"711",79.64721,95.73886
"712",79.61303,95.75223
"713",79.586174,95.76553
"714",79.551994,95.7789
"715",79.500725,95.792206
"716",79.43481,95.80557
"717",79.3933,95.81888
"718",79.43481,95.832245
"719",79.65209,95.84555
"720",80.14038,95.85892
"721",80.938736,95.87222
"722",82.01053,95.88559
"723",83.243454,95.898895
"724",84.48615,95.91226
"725",85.575035,95.92557
"726",86.41245,95.938934
"727",86.96422,95.95224
"728",87.257195,95.96561
"729",87.32067,95.97891
"730",87.1815,95.99228
"731",86.8568,96.005585
"732",86.366066,96.01895
"733",85.73861,96.03226
"734",84.996414,96.04562
"735",84.16632,96.05893
"736",83.27764,96.072296
"737",82.36454,96.0856
"738",81.49294,96.09897
"739",80.74586,96.112274
"740",80.19653,96.12564
"741",79.88159,96.13895
"742",79.77905,96.15231
"743",79.83032,96.16562
"744",79.94263,96.178986
"745",80.03784,96.19229
"746",80.05493,96.20566
"747",79.9646,96.21896
"748",79.73754,96.23233
"749",79.38598,96.245636
"750",78.924545,96.259
"751",78.39475,96.27231
"752",77.840546,96.285675
"753",77.298546,96.29898
"754",76.79561,96.31235
"755",76.34394,96.32565
"756",75.95575,96.33902
"757",75.62859,96.352325
"758",75.36004,96.36569
"759",75.15251,96.379
"760",74.9987,96.392365
"761",74.89128,96.40567
"762",74.82536,96.41904
"763",74.80095,96.43234
"764",74.813156,96.44571
"765",74.85466,96.459015
"766",74.92302,96.47238
"767",75.01091,96.48569
"768",75.106125,96.499054
"769",75.1989,96.51236
"770",75.284355,96.52573
"771",75.36004,96.53903
"772",75.41375,96.5524
"773",75.44793,96.565704
"774",75.457695,96.57907
"775",75.44793,96.59238
"776",75.43328,96.60574
"777",75.46746,96.61905
"778",75.64324,96.632416
"779",76.0827,96.64572
"780",76.87129,96.65909
"781",78.02365,96.67239
"782",79.45922,96.68576
"783",81.00954,96.699066
"784",82.46708,96.71243
"785",83.66094,96.72574
"786",84.488594,96.739105
"787",84.92561,96.75241
"788",85.01106,96.76578
"789",84.805984,96.77908
"790",84.386055,96.79245
"791",83.83673,96.805756
"792",83.22392,96.81912
"793",82.59159,96.83243
"794",81.97391,96.845795
"795",81.38796,96.8591
"796",80.84596,96.87247
"797",80.377205,96.88577
"798",80.01587,96.89914
"799",79.79126,96.912445
"800",79.71801,96.92581
"801",79.78638,96.93912
"802",79.96704,96.952484
"803",80.201416,96.96579
"804",80.4358,96.97916
"805",80.61646,96.99246
"806",80.706795,97.00583
"807",80.68238,97.019135
"808",80.54078,97.0325
"809",80.30396,97.04581
"810",79.991455,97.05917
"811",79.63744,97.07248
"812",79.26391,97.085846
"813",78.89525,97.09915
"814",78.53391,97.11252
"815",78.19211,97.125824
"816",77.87961,97.13919
"817",77.60372,97.1525
"818",77.37179,97.16586
"819",77.18379,97.17917
"820",77.03975,97.192535
"821",76.93477,97.20584
"822",76.86885,97.21921
"823",76.84688,97.23251
"824",76.85664,97.24588
"825",76.89815,97.259186
"826",76.96651,97.27255
"827",77.049515,97.28586
"828",77.13008,97.299225
"829",77.19844,97.31253
"830",77.242386,97.3259
"831",77.24971,97.3392
"832",77.222855,97.35257
"833",77.171585,97.365875
"834",77.13985,97.37924
"835",77.22041,97.39255
"836",77.5256,97.405914
"837",78.16037,97.41922
"838",79.15404,97.43259
"839",80.445564,97.44589
"840",81.89334,97.45926
"841",83.29473,97.472565
"842",84.454414,97.48593
"843",85.26009,97.49924
"844",85.66537,97.5126
"845",85.69222,97.52591
"846",85.4139,97.539276
"847",84.91341,97.55258
"848",84.281075,97.56595
"849",83.595024,97.579254
"850",82.90166,97.59262
"851",82.230255,97.60593
"852",81.600365,97.61929
"853",81.02174,97.6326
"854",80.52369,97.645966
"855",80.13794,97.65927
"856",79.886475,97.67264
"857",79.79126,97.68594
"858",79.84985,97.69931
"859",80.02319,97.712616
"860",80.26002,97.72598
"861",80.499275,97.73929
"862",80.68726,97.752655
"863",80.7776,97.76596
"864",80.75319,97.77933
"865",80.61402,97.79263
"866",80.37965,97.806
"867",80.06958,97.819305
"868",79.71557,97.83267
"869",79.34692,97.84598
"870",78.9807,97.859344
"871",78.63889,97.87265
"872",78.33372,97.88602
"873",78.07248,97.89932
"874",77.84787,97.91269
"875",77.66964,97.925995
"876",77.52804,97.93936
"877",77.418175,97.95267
"878",77.33761,97.966034
"879",77.2839,97.97934
"880",77.24971,97.99271
"881",77.225296,98.00601
"882",77.208206,98.01938
"883",77.19844,98.032684
"884",77.18379,98.04605
"885",77.14961,98.05936
"886",77.08858,98.07272
"887",77.00313,98.08603
"888",76.90791,98.099396
"889",76.824905,98.1127
"890",76.773636,98.12607
"891",76.74677,98.13937
"892",76.732124,98.15274
"893",76.70771,98.166046
"894",76.65644,98.17941
"895",76.59785,98.19272
"896",76.60517,98.206085
"897",76.81026,98.21939
"898",77.33761,98.23276
"899",78.27268,98.24606
"900",79.60815,98.25943
"901",81.22926,98.272736
"902",82.9456,98.2861
"903",84.53254,98.29941
"904",85.80698,98.312775
"905",86.67124,98.32608
"906",87.10094,98.33945
"907",87.13756,98.35275
"908",86.854355,98.36612
"909",86.35386,98.379425
"910",85.7264,98.39279
"911",85.04768,98.4061
"912",84.368965,98.419464
"913",83.719536,98.43277
"914",83.106735,98.44614
"915",82.54032,98.45944
"916",82.04227,98.47281
"917",81.64431,98.486115
"918",81.38064,98.49948
"919",81.27566,98.51279
"920",81.32937,98.52615
"921",81.51003,98.53946
"922",81.76639,98.552826
"923",82.020294,98.56613
"924",82.20828,98.5795
"925",82.27909,98.592804
"926",82.210724,98.60617
"927",82.005646,98.61948
"928",81.68093,98.63284
"929",81.26833,98.64615
"930",80.80202,98.659515
"931",80.2942,98.67282
"932",79.75708,98.68619
"933",79.22484,98.69949
"934",78.73411,98.71286
"935",78.30686,98.726166
"936",77.95773,98.73953
"937",77.679405,98.75284
"938",77.46456,98.766205
"939",77.296104,98.77951
"940",77.16914,98.79288
"941",77.07637,98.80618
"942",77.0251,98.81955
"943",77.00313,98.832855
"944",76.995804,98.84622
"945",76.98848,98.85953
"946",76.981155,98.872894
"947",76.97383,98.8862
"948",76.961624,98.89957
"949",76.95186,98.91287
"950",76.93965,98.92624
"951",76.92256,98.939545
"952",76.895706,98.95291
"953",76.859085,98.96622
"954",76.8127,98.97958
"955",76.76387,98.99289
"956",76.71015,99.006256
"957",76.654,99.01956
"958",76.595406,99.03293
"959",76.53681,99.046234
"960",76.51728,99.0596
"961",76.62226,99.07291
"962",76.995804,99.08627
"963",77.75021,99.09958
"964",78.93431,99.112946
"965",80.49195,99.12625
"966",82.25956,99.13962
"967",84.00763,99.15292
"968",85.51156,99.16629
"969",86.61753,99.179596
"970",87.27184,99.19296
"971",87.481804,99.20627
"972",87.31335,99.219635
"973",86.854355,99.23294
"974",86.204926,99.24631
"975",85.45785,99.25961
"976",84.69611,99.27298
"977",83.96857,99.286285
"978",83.29717,99.29965
"979",82.69901,99.31296
"980",82.18143,99.326324
"981",81.75662,99.33963
"982",81.444115,99.353
"983",81.26833,99.3663
"984",81.22682,99.37967
"985",81.304955,99.392975
"986",81.45876,99.40634
"987",81.634544,99.41965
"988",81.77371,99.433014
"989",81.829865,99.44632
"990",81.761505,99.45969
"991",81.55642,99.47299
"992",81.234146,99.48636
"993",80.83864,99.499664
"994",80.40894,99.51303
"995",79.96948,99.52634
"996",79.52758,99.5397
"997",79.08568,99.55301
"998",78.64622,99.566376
"999",78.21408,99.57968
"1000",77.80881,99.59305
"1001",77.44503,99.60635
"1002",77.12764,99.61972
"1003",76.8542,99.633026
"1004",76.62226,99.64639
"1005",76.439156,99.6597
"1006",76.317085,99.673065
"1007",76.25849,99.68637
"1008",76.263374,99.69974
"1009",76.32685,99.71304
"1010",76.436714,99.72641
"1011",76.578316,99.739716
"1012",76.734566,99.75308
"1013",76.8835,99.76639
"1014",77.00313,99.779755
"1015",77.083694,99.79306
"1016",77.12276,99.80643
"1017",77.12276,99.81973
"1018",77.0959,99.8331
"1019",77.04463,99.846405
"1020",76.97139,99.85977
"1021",76.88106,99.87308
"1022",76.78096,99.886444
"1023",76.67841,99.89975
"1024",76.592964,99.91312
"1025",76.57343,99.92642
"1026",76.732124,99.93979
"1027",77.19356,99.953094
"1028",78.05539,99.96646
"1029",79.33227,99.97977
"1030",80.92897,99.99313
"1031",82.652626,100.00644
"1032",84.26154,100.019806
"1033",85.55306,100.03311
"1034",86.414894,100.04648
"1035",86.8275,100.059784
"1036",86.83238,100.07315
"1037",86.51499,100.08646
"1038",85.960785,100.09982
"1039",85.262535,100.11313
"1040",84.49836,100.126495
"1041",83.719536,100.1398
"1042",82.96513,100.15317
"1043",82.252235,100.16647
"1044",81.59548,100.17984
"1045",81.01442,100.193146
"1046",80.54566,100.20651
"1047",80.22339,100.21982
"1048",80.06958,100.233185
"1049",80.09155,100.24649
"1050",80.25025,100.25986
"1051",80.499275,100.27316
"1052",80.77272,100.28653
"1053",81.01198,100.299835
"1054",81.16823,100.3132
"1055",81.21217,100.32651
"1056",81.13405,100.339874
"1057",80.936295,100.35318
"1058",80.638435,100.36655
"1059",80.2649,100.37985
"1060",79.84009,100.39322
"1061",79.398186,100.406525
"1062",78.958725,100.41989
"1063",78.538795,100.4332
"1064",78.150604,100.44656
"1065",77.80148,100.45987
"1066",77.488976,100.473236
"1067",77.222855,100.48654
"1068",77.00313,100.49991
"1069",76.83223,100.513214
"1070",76.71015,100.52658
"1071",76.63447,100.53989
"1072",76.60029,100.55325
"1073",76.60517,100.56656
"1074",76.64423,100.579926
"1075",76.700386,100.59323
"1076",76.76387,100.6066
"1077",76.82735,100.6199
"1078",76.8835,100.63327
"1079",76.929886,100.646576
"1080",76.96895,100.65994
"1081",77.00313,100.67325
"1082",77.02754,100.686615
"1083",77.03975,100.69992
"1084",77.03975,100.71329
"1085",77.02998,100.72659
"1086",77.00801,100.73996
"1087",76.97383,100.753265
"1088",76.944534,100.76663
"1089",76.964066,100.77994
"1090",77.14717,100.793304
"1091",77.63546,100.80661
"1092",78.53147,100.81998
"1093",79.852295,100.83328
"1094",81.50515,100.84665
"1095",83.299614,100.859955
"1096",84.998856,100.87332
"1097",86.397804,100.88663
"1098",87.379265,100.899994
"1099",87.91394,100.9133
"1100",88.0238,100.92667
"1101",87.782104,100.93997
"1102",87.26696,100.95334
"1103",86.58091,100.966644
"1104",85.80698,100.98001
"1105",85.00374,100.99332
"1106",84.21271,101.00668
"1107",83.47051,101.01999
"1108",82.78447,101.033356
"1109",82.18143,101.04666
"1110",81.6907,101.06003
"1111",81.341576,101.07333
"1112",81.15602,101.0867
"1113",81.129166,101.100006
"1114",81.24147,101.11337
"1115",81.43679,101.12668
"1116",81.654076,101.140045
"1117",81.83719,101.15335
"1118",81.94217,101.16672
"1119",81.92996,101.18002
"1120",81.79813,101.19339
"1121",81.55398,101.206696
"1122",81.21217,101.22006
"1123",80.799576,101.23337
"1124",80.343025,101.246735
"1125",79.869385,101.26004
"1126",79.395744,101.27341
"1127",78.93675,101.28671
"1128",78.50706,101.30008
"1129",78.11398,101.313385
"1130",77.76486,101.32675
"1131",77.469444,101.34006
"1132",77.222855,101.353424
"1133",77.03487,101.36673
"1134",76.895706,101.3801
"1135",76.80293,101.3934
"1136",76.75166,101.40677
"1137",76.73945,101.420074
"1138",76.75166,101.43344
"1139",76.78096,101.44675
"1140",76.82002,101.46011
"1141",76.86397,101.47342
"1142",76.90303,101.486786
"1143",76.93477,101.50009
"1144",76.9543,101.51346
"1145",76.961624,101.526764
"1146",76.95918,101.54013
"1147",76.946976,101.55344
"1148",76.929886,101.5668
"1149",76.90547,101.58011
"1150",76.87373,101.593475
"1151",76.82979,101.60678
"1152",76.773636,101.62015
"1153",76.72236,101.63345
"1154",76.7248,101.64682
"1155",76.895706,101.660126
"1156",77.37423,101.67349
"1157",78.27268,101.6868
"1158",79.603264,101.700165
"1159",81.27566,101.71347
"1160",83.09697,101.72684
"1161",84.81575,101.74014
"1162",86.2269,101.75351
"1163",87.201035,101.766815
"1164",87.71374,101.78018
"1165",87.79675,101.79349
"1166",87.53063,101.806854
"1167",87.00572,101.82016
"1168",86.30991,101.83353
"1169",85.521324,101.84683
"1170",84.70344,101.8602
"1171",83.888,101.873505
"1172",83.10918,101.88687
"1173",82.38651,101.90018
"1174",81.74929,101.91354
"1175",81.231705,101.92685
"1176",80.86305,101.940216
"1177",80.67017,101.95352
"1178",80.655525,101.96689
"1179",80.78493,101.980194
"1180",81.007095,101.99356
"1181",81.25613,102.00687
"1182",81.46853,102.02023
"1183",81.59304,102.03354
"1184",81.600365,102.046906
"1185",81.480736,102.06021
"1186",81.248795,102.07358
"1187",80.921646,102.08688
"1188",80.52613,102.10025
"1189",80.08179,102.113556
"1190",79.61547,102.12692
"1191",79.14427,102.14023
"1192",78.68772,102.153595
"1193",78.260475,102.1669
"1194",77.874725,102.18027
"1195",77.53536,102.19357
"1196",77.24727,102.20694
"1197",77.00557,102.220245
"1198",76.81514,102.23361
"1199",76.67597,102.24692
"1200",76.58808,102.260284
"1201",76.54658,102.27359
"1202",76.541695,102.28696
"1203",76.56611,102.30026
"1204",76.60761,102.31363
"1205",76.65888,102.326935
"1206",76.717476,102.3403
"1207",76.773636,102.35361
"1208",76.822464,102.366974
"1209",76.86153,102.38028
"1210",76.8835,102.39365
"1211",76.88838,102.40695
"1212",76.8835,102.42032
"1213",76.86641,102.433624
"1214",76.83711,102.44699
"1215",76.79317,102.4603
"1216",76.74433,102.47366
"1217",76.68574,102.48697
"1218",76.61982,102.500336
"1219",76.58564,102.51364
"1220",76.66865,102.52701
"1221",77.00801,102.54031
"1222",77.72091,102.55368
"1223",78.86351,102.566986
"1224",80.38453,102.58035
"1225",82.11551,102.59366
"1226",83.824524,102.607025
"1227",85.28695,102.62033
"1228",86.346535,102.6337
"1229",86.94713,102.647
"1230",87.10826,102.66037
"1231",86.89586,102.673676
"1232",86.400246,102.68704
"1233",85.70687,102.70035
"1234",84.9012,102.713715
"1235",84.04913,102.72702
"1236",83.19707,102.74039
"1237",82.374306,102.75369
"1238",81.61257,102.76706
"1239",80.936295,102.780365
"1240",80.37965,102.79373
"1241",79.98169,102.80704
"1242",79.77417,102.820404
"1243",79.766846,102.83371
"1244",79.937744,102.84708
"1245",80.233154,102.86038
"1246",80.587166,102.87375
"1247",80.92409,102.887054
"1248",81.17311,102.90042
"1249",81.29763,102.91373
"1250",81.2781,102.92709
"1251",81.12428,102.9404
"1252",80.848404,102.953766
"1253",80.482185,102.96707
"1254",80.05737,102.98044
"1255",79.605705,102.993744
"1256",79.151596,103.00711
"1257",78.71946,103.02042
"1258",78.31907,103.03378
"1259",77.95773,103.04709
"1260",77.63546,103.060455
"1261",77.35714,103.07376
"1262",77.1252,103.08713
"1263",76.94209,103.10043
"1264",76.81026,103.1138
"1265",76.734566,103.127106
"1266",76.700386,103.14047
"1267",76.70283,103.15378
"1268",76.73945,103.167145
"1269",76.80293,103.18045
"1270",76.876175,103.19382
"1271",76.9543,103.20712
"1272",77.02998,103.22049
"1273",77.09346,103.233795
"1274",77.13985,103.24716
"1275",77.171585,103.26047
"1276",77.19356,103.273834
"1277",77.20088,103.28714
"1278",77.19112,103.30051
"1279",77.16914,103.31381
"1280",77.13252,103.32718
"1281",77.07881,103.340485
"1282",77.02266,103.35385
"1283",77.00557,103.36716
"1284",77.134964,103.38052
"1285",77.55001,103.39383
"1286",78.363014,103.407196
"1287",79.61791,103.4205
"1288",81.24147,103.43387
"1289",83.04814,103.447174
"1290",84.8011,103.46054
"1291",86.28062,103.47385
"1292",87.34264,103.48721
"1293",87.938354,103.50052
"1294",88.094604,103.513885
"1295",87.87488,103.52719
"1296",87.37194,103.54056
"1297",86.676125,103.55386
"1298",85.872894,103.56723
"1299",85.03792,103.580536
"1300",84.21759,103.5939
"1301",83.43633,103.60721
"1302",82.718544,103.620575
"1303",82.091095,103.63388
"1304",81.583275,103.64725
"1305",81.22682,103.66055
"1306",81.04616,103.67392
"1307",81.0486,103.687225
"1308",81.197525,103.70059
"1309",81.43923,103.7139
"1310",81.70779,103.727264
"1311",81.93729,103.74057
"1312",82.074005,103.75394
"1313",82.08621,103.76724
"1314",81.969025,103.78061
"1315",81.72976,103.793915
"1316",81.38552,103.80728
"1317",80.972916,103.82059
"1318",80.516365,103.833954
"1319",80.04028,103.84726
"1320",79.55932,103.86063
"1321",79.097885,103.87393
"1322",78.66819,103.8873
"1323",78.28001,103.900604
"1324",77.945526,103.91397
"1325",77.6672,103.92728
"1326",77.44015,103.94064
"1327",77.26681,103.95395
"1328",77.14229,103.967316
"1329",77.066605,103.98062
"1330",77.032425,103.99399
"1331",77.032425,104.00729
"1332",77.0544,104.02066
"1333",77.09346,104.033966
"1334",77.14229,104.04733
"1335",77.19112,104.06064
"1336",77.23262,104.074005
"1337",77.261925,104.08731
"1338",77.279015,104.10068
"1339",77.27657,104.11398
"1340",77.25704,104.12735
"1341",77.225296,104.140656
"1342",77.18623,104.15402
"1343",77.137405,104.16733
"1344",77.07881,104.180695
"1345",77.00801,104.194
"1346",76.93965,104.20737
"1347",76.912796,104.22067
"1348",77.03731,104.23404
"1349",77.45724,104.247345
"1350",78.294655,104.26071
"1351",79.58373,104.27402
"1352",81.25124,104.287384
"1353",83.11894,104.30069
"1354",84.93782,104.31406
"1355",86.47349,104.32736
"1356",87.57458,104.34073
"1357",88.18738,104.354034
"1358",88.32899,104.3674
"1359",88.077515,104.38071
"1360",87.52819,104.39407
"1361",86.78844,104.40738
"1362",85.94614,104.420746
"1363",85.0721,104.43405
"1364",84.21515,104.44742
"1365",83.404594,104.460724
"1366",82.65995,104.47409
"1367",82.005646,104.4874
"1368",81.478294,104.50076
"1369",81.10475,104.51407
"1370",80.907,104.527435
"1371",80.88747,104.54074
"1372",81.02174,104.55411
"1373",81.248795,104.56741
"1374",81.50027,104.58078
"1375",81.71023,104.594086
"1376",81.832306,104.60745
"1377",81.82742,104.62076
"1378",81.688255,104.634125
"1379",81.42214,104.64743
"1380",81.058365,104.6608
"1381",80.621346,104.6741
"1382",80.14526,104.68747
"1383",79.65942,104.700775
"1384",79.18089,104.71414
"1385",78.7219,104.72745
"1386",78.2971,104.740814
"1387",77.91135,104.75412
"1388",77.56954,104.76749
"1389",77.279015,104.78079
"1390",77.04707,104.79416
"1391",76.87129,104.807465
"1392",76.749214,104.82083
"1393",76.67841,104.83414
"1394",76.64179,104.8475
"1395",76.629585,104.86081
"1396",76.63447,104.874176
"1397",76.64912,104.88748
"1398",76.66865,104.90085
"1399",76.69062,104.914154
"1400",76.71015,104.92752
"1401",76.7248,104.94083
"1402",76.72724,104.95419
"1403",76.717476,104.9675
"1404",76.69306,104.980865
"1405",76.65888,104.99417
"1406",76.61982,105.00754
"1407",76.575874,105.02084
"1408",76.51972,105.03421
"1409",76.456245,105.047516
"1410",76.37812,105.06088
"1411",76.299995,105.07419
"1412",76.2707,105.087555
"1413",76.419624,105.10086
"1414",76.88594,105.11423
"1415",77.786835,105.12753
"1416",79.149155,105.1409
"1417",80.8777,105.154205
"1418",82.76738,105.16757
"1419",84.56184,105.18088
"1420",86.029144,105.194244
"1421",87.03746,105.20755
"1422",87.55016,105.22092
"1423",87.603874,105.23422
"1424",87.276726,105.24759
"1425",86.676125,105.260895
"1426",85.90219,105.27426
"1427",85.03792,105.28757
"1428",84.15411,105.300934
"1429",83.29473,105.31424
"1430",82.493935,105.32761
"1431",81.76395,105.34091
"1432",81.13405,105.35428
"1433",80.63355,105.367584
"1434",80.30152,105.38095
"1435",80.15747,105.39426
"1436",80.2063,105.40762
"1437",80.40894,105.42093
"1438",80.69947,105.434296
"1439",81.00221,105.4476
"1440",81.24635,105.46097
"1441",81.37087,105.47427
"1442",81.35134,105.48764
"1443",81.18532,105.500946
"1444",80.89235,105.51431
"1445",80.50172,105.52762
"1446",80.05005,105.540985
"1447",79.55932,105.55429
"1448",79.05882,105.56766
"1449",78.56565,105.58096
"1450",78.09445,105.59433
"1451",77.66476,105.607635
"1452",77.281456,105.621
"1453",76.9543,105.63431
"1454",76.6833,105.647675
"1455",76.47578,105.66098
"1456",76.32441,105.67435
"1457",76.23163,105.68765
"1458",76.192566,105.70102
"1459",76.19989,105.714325
"1460",76.23407,105.72769
"1461",76.29023,105.741
"1462",76.351265,105.754364
"1463",76.41718,105.76767
"1464",76.47822,105.78104
"1465",76.53681,105.79434
"1466",76.58564,105.80771
"1467",76.6247,105.821014
"1468",76.646675,105.83438
"1469",76.65888,105.84769
"1470",76.65156,105.86105
"1471",76.6247,105.87436
"1472",76.575874,105.887726
"1473",76.5124,105.90103
"1474",76.43427,105.9144
"1475",76.387886,105.927704
"1476",76.46601,105.94107
"1477",76.81514,105.95438
"1478",77.56466,105.96774
"1479",78.77074,105.98105
"1480",80.38697,105.994415
"1481",82.2449,106.00772
"1482",84.102844,106.02109
"1483",85.72152,106.03439
"1484",86.9276,106.04776
"1485",87.64294,106.061066
"1486",87.8822,106.07443
"1487",87.70153,106.08774
"1488",87.19615,106.101105
"1489",86.46372,106.11441
"1490",85.61166,106.12778
"1491",84.71076,106.14108
"1492",83.826965,106.15445
"1493",82.98955,106.167755
"1494",82.22049,106.18112
"1495",81.54421,106.19443
"1496",80.987564,106.207794
"1497",80.587166,106.2211
"1498",80.36744,106.23447
"1499",80.34058,106.24777
"1500",80.48463,106.26114
"1501",80.743416,106.274445
"1502",81.04372,106.28781
"1503",81.31472,106.30112
"1504",81.4905,106.31448
"1505",81.53689,106.32779
"1506",81.43435,106.341156
"1507",81.19264,106.35446
"1508",80.8362,106.36783
"1509",80.396736,106.381134
"1510",79.91089,106.3945
"1511",79.40795,106.40781
"1512",78.9099,106.42117
"1513",78.42893,106.43448
"1514",77.979706,106.447845
"1515",77.576866,106.46115
"1516",77.23018,106.47452
"1517",76.944534,106.48782
"1518",76.72236,106.50119
"1519",76.56611,106.514496
"1520",76.46601,106.52786
"1521",76.41474,106.54117
"1522",76.402534,106.554535
"1523",76.42695,106.56784
"1524",76.47578,106.58121
"1525",76.53925,106.59451
"1526",76.60761,106.60788
"1527",76.67841,106.621185
"1528",76.734566,106.63455
"1529",76.773636,106.64786
"1530",76.79317,106.661224
"1531",76.79561,106.67453
"1532",76.7834,106.6879
"1533",76.76143,106.7012
"1534",76.72724,106.71457
"1535",76.6833,106.727875
"1536",76.63203,106.74124
"1537",76.578316,106.75455
"1538",76.524605,106.767914
"1539",76.473335,106.78122
"1540",76.44648,106.794586
"1541",76.52216,106.80789
"1542",76.84444,106.82126
"1543",77.557335,106.834564
"1544",78.751205,106.84793
"1545",80.4065,106.86124
"1546",82.37919,106.8746
"1547",84.420235,106.88791
"1548",86.25132,106.901276
"1549",87.67223,106.91458
"1550",88.57801,106.92795
"1551",88.956436,106.94125
"1552",88.868546,106.95462
"1553",88.40711,106.967926
"1554",87.68444,106.98129
"1555",86.80797,106.9946
"1556",85.86557,107.007965
"1557",84.92561,107.02127
"1558",84.03693,107.03464
"1559",83.21904,107.04794
"1560",82.50126,107.06131
"1561",81.90311,107.074615
"1562",81.45388,107.08798
"1563",81.17311,107.10129
"1564",81.075455,107.114655
"1565",81.13893,107.12796
"1566",81.322044,107.14133
"1567",81.55886,107.15463
"1568",81.78104,107.168
"1569",81.92996,107.181305
"1570",81.9617,107.19467
"1571",81.85672,107.20798
"1572",81.61501,107.221344
"1573",81.253685,107.23465
"1574",80.799576,107.24802
"1575",80.28443,107.26132
"1576",79.742424,107.27469
"1577",79.19554,107.287994
"1578",78.66819,107.30136
"1579",78.17502,107.31467
"1580",77.730675,107.32803
"1581",77.347374,107.34134
"1582",77.02998,107.354706
"1583",76.77852,107.36801
"1584",76.58808,107.38138
"1585",76.456245,107.394684
"1586",76.37568,107.40805
"1587",76.33662,107.42136
"1588",76.334175,107.43472
"1589",76.36103,107.44803
"1590",76.40742,107.461395
"1591",76.45869,107.4747
"1592",76.50507,107.48807
"1593",76.544136,107.50137
"1594",76.56611,107.51474
"1595",76.56855,107.528046
"1596",76.54902,107.54141
"1597",76.51484,107.55472
"1598",76.46357,107.568085
"1599",76.39765,107.58139
"1600",76.32929,107.59476
"1601",76.265816,107.60806
"1602",76.20477,107.62143
"1603",76.14862,107.634735
"1604",76.09735,107.6481
"1605",76.04608,107.66141
"1606",75.999695,107.674774
"1607",76.019226,107.68808
"1608",76.224304,107.70145
"1609",76.76875,107.71475
"1610",77.76242,107.72812
"1611",79.23216,107.741425
"1612",81.07301,107.75479
"1613",83.06767,107.7681
"1614",84.95491,107.78146
"1615",86.49546,107.79477
"1616",87.55749,107.808136
"1617",88.097046,107.82144
"1618",88.15808,107.83481
"1619",87.816284,107.848114
"1620",87.183945,107.86148
"1621",86.363625,107.87479
"1622",85.46029,107.88815
"1623",84.53986,107.90146
"1624",83.65362,107.914825
"1625",82.82353,107.92813
"1626",82.07156,107.9415
"1627",81.41482,107.9548
"1628",80.88747,107.96817
"1629",80.51881,107.981476
"1630",80.32838,107.99484
"1631",80.31617,108.00815
"1632",80.44068,108.021515
"1633",80.64576,108.03482
"1634",80.86305,108.04819
"1635",81.024185,108.06149
"1636",81.08522,108.07486
"1637",81.024185,108.088165
"1638",80.8362,108.10153
"1639",80.533455,108.11484
"1640",80.14282,108.128204
"1641",79.691154,108.14151
"1642",79.202866,108.15488
"1643",78.71458,108.16818
"1644",78.24094,108.18155
"1645",77.806366,108.194855
"1646",77.42306,108.20822
"1647",77.09346,108.22153
"1648",76.82002,108.23489
"1649",76.60761,108.2482
"1650",76.44892,108.261566
"1651",76.33662,108.27487
"1652",76.265816,108.28824
"1653",76.23407,108.301544
"1654",76.22919,108.31491
"1655",76.24628,108.32822
"1656",76.27802,108.34158
"1657",76.314644,108.35489
"1658",76.35371,108.368256
"1659",76.385445,108.38156
"1660",76.402534,108.39493
"1661",76.404976,108.40823
"1662",76.39521,108.4216
"1663",76.385445,108.434906
"1664",76.37568,108.44827
"1665",76.37324,108.46158
"1666",76.383,108.474945
"1667",76.39277,108.48825
"1668",76.39765,108.50162
"1669",76.39521,108.51492
"1670",76.383,108.52829
"1671",76.36591,108.541595
"1672",76.34394,108.55496
"1673",76.34638,108.56827
"1674",76.453804,108.581635
"1675",76.79561,108.59494
"1676",77.49386,108.60831
"1677",78.59739,108.62161
"1678",80.05493,108.63498
"1679",81.70779,108.648285
"1680",83.32891,108.66165
"1681",84.68391,108.67496
"1682",85.63119,108.688324
"1683",86.1268,108.70163
"1684",86.202484,108.715
"1685",85.926605,108.7283
"1686",85.399254,108.74167
"1687",84.715645,108.754974
"1688",83.95148,108.76834
"1689",83.16533,108.78165
"1690",82.408485,108.79501
"1691",81.70046,108.80832
"1692",81.05592,108.821686
"1693",80.499275,108.83499
"1694",80.05005,108.84836
"1695",79.744865,108.861664
"1696",79.603264,108.87503
"1697",79.63256,108.888336
"1698",79.81079,108.9017
"1699",80.09155,108.91501
"1700",80.411385,108.928375
"1701",80.70191,108.94168
"1702",80.907,108.95505
"1703",80.987564,108.96835
"1704",80.93141,108.98172
"1705",80.74586,108.995026
"1706",80.45289,109.00839
"1707",80.08423,109.0217
"1708",79.674065,109.035065
"1709",79.24681,109.04837
"1710",78.82689,109.06174
"1711",78.42893,109.07504
"1712",78.0676,109.08841
"1713",77.752655,109.101715
"1714",77.488976,109.11508
"1715",77.281456,109.12839
"1716",77.12276,109.141754
"1717",77.01289,109.15506
"1718",76.95186,109.16843
"1719",76.93477,109.18173
"1720",76.95674,109.1951
"1721",77.00557,109.208405
"1722",77.07393,109.22177
"1723",77.154495,109.23508
"1724",77.23506,109.24844
"1725",77.30099,109.26175
"1726",77.349815,109.275116
"1727",77.38155,109.28842
"1728",77.39376,109.30179
"1729",77.3962,109.315094
"1730",77.38644,109.32846
"1731",77.37179,109.34177
"1732",77.35226,109.35513
"1733",77.3254,109.36844
"1734",77.28634,109.381805
"1735",77.2375,109.39511
"1736",77.17891,109.40848
"1737",77.13008,109.42178
"1738",77.13985,109.43515
"1739",77.315636,109.448456
"1740",77.77707,109.46182
"1741",78.607155,109.47513
"1742",79.80591,109.488495
"1743",81.270775,109.5018
"1744",82.80644,109.51517
"1745",84.20538,109.52847
"1746",85.28207,109.54184
"1747",85.95102,109.555145
"1748",86.20981,109.56851
"1749",86.10483,109.58182
"1750",85.72152,109.595184
"1751",85.15022,109.60849
"1752",84.46906,109.62186
"1753",83.74639,109.63516
"1754",83.03349,109.64853
"1755",82.35966,109.661835
"1756",81.74197,109.6752
"1757",81.19508,109.68851
"1758",80.73365,109.70187
"1759",80.38697,109.71518
"1760",80.17456,109.728546
"1761",80.10864,109.74185
"1762",80.17944,109.75522
"1763",80.36256,109.768524
"1764",80.59937,109.78189
"1765",80.833755,109.7952
"1766",81.01442,109.80856
"1767",81.10719,109.82187
"1768",81.0901,109.835236
"1769",80.96315,109.84854
"1770",80.743416,109.86191
"1771",80.448006,109.87521
"1772",80.10864,109.88858
"1773",79.75464,109.901886
"1774",79.40307,109.91525
"1775",79.07347,109.92856
"1776",78.77562,109.941925
"1777",78.51438,109.95523
"1778",78.294655,109.9686
"1779",78.116425,109.9819
"1780",77.977264,109.99527
"1781",77.872284,110.008575
"1782",77.79172,110.02194
"1783",77.738,110.03525
"1784",77.71114,110.048615
"1785",77.71114,110.06192
"1786",77.733116,110.07529
"1787",77.77463,110.08859
"1788",77.83566,110.10196
"1789",77.90646,110.115265
"1790",77.98947,110.12863
"1791",78.082245,110.14194
"1792",78.18234,110.155304
"1793",78.28733,110.16861
"1794",78.380104,110.18198
"1795",78.450905,110.19528
"1796",78.49729,110.20865
"1797",78.51194,110.221954
"1798",78.49241,110.23532
"1799",78.44602,110.24863
"1800",78.37034,110.26199
"1801",78.2678,110.2753
"1802",78.16037,110.288666
"1803",78.10422,110.30197
"1804",78.2092,110.31534
"1805",78.59495,110.32864
"1806",79.34692,110.34201
"1807",80.482185,110.355316
"1808",81.90799,110.36868
"1809",83.43145,110.38199
"1810",84.82796,110.395355
"1811",85.909515,110.40866
"1812",86.58091,110.42203
"1813",86.8275,110.43533
"1814",86.712746,110.4487
"1815",86.31968,110.462006
"1816",85.74593,110.47537
"1817",85.06966,110.48868
"1818",84.34699,110.502045
"1819",83.631645,110.51535
"1820",82.967575,110.52872
"1821",82.36942,110.54202
"1822",81.85184,110.55539
"1823",81.43435,110.568695
"1824",81.12428,110.58206
"1825",80.9485,110.59537
"1826",80.91432,110.608734
"1827",81.007095,110.62204
"1828",81.19264,110.63541
"1829",81.42214,110.64871
"1830",81.6321,110.66208
"1831",81.77371,110.675385
"1832",81.8201,110.68875
"1833",81.75662,110.70206
"1834",81.57839,110.71542
"1835",81.307396,110.72873
"1836",80.96559,110.742096
"1837",80.57984,110.7554
"1838",80.17456,110.76877
"1839",79.76929,110.782074
"1840",79.38354,110.79544
"1841",79.029526,110.80875
"1842",78.71458,110.82211
"1843",78.44114,110.83542
"1844",78.21164,110.848785
"1845",78.02365,110.86209
"1846",77.87961,110.87546
"1847",77.77951,110.88876
"1848",77.72091,110.90213
"1849",77.69405,110.915436
"1850",77.696495,110.9288
"1851",77.71847,110.94211
"1852",77.747765,110.955475
"1853",77.77707,110.96878
"1854",77.79904,110.98215
"1855",77.81125,110.99545
"1856",77.80148,111.00882
"1857",77.77219,111.022125
"1858",77.72335,111.03549
"1859",77.659874,111.0488
"1860",77.58663,111.062164
"1861",77.50851,111.07547
"1862",77.42794,111.08884
"1863",77.349815,111.10214
"1864",77.281456,111.11551
"1865",77.222855,111.128815
"1866",77.171585,111.14218
"1867",77.134964,111.15549
"1868",77.13252,111.16885
"1869",77.21309,111.18216
"1870",77.47433,111.195526
"1871",78.0383,111.20883
"1872",78.97093,111.2222
"1873",80.257576,111.235504
"1874",81.7908,111.24887
"1875",83.38506,111.26218
"1876",84.83528,111.27554
"1877",85.96811,111.28885
"1878",86.70054,111.302216
"1879",87.027695,111.31552
"1880",86.98863,111.32889
"1881",86.65659,111.34219
"1882",86.117035,111.35556
"1883",85.44564,111.368866
"1884",84.715645,111.38223
"1885",83.983215,111.39554
"1886",83.28008,111.408905
"1887",82.63065,111.42221
"1888",82.054474,111.43558
"1889",81.57351,111.44888
"1890",81.20973,111.46225
"1891",80.98024,111.475555
"1892",80.89967,111.48892
"1893",80.953384,111.50223
"1894",81.109634,111.515594
"1895",81.31228,111.5289
"1896",81.50759,111.54227
"1897",81.64431,111.55557
"1898",81.68093,111.56894
"1899",81.60769,111.582245
"1900",81.42214,111.59561
"1901",81.13893,111.60892
"1902",80.782486,111.622284
"1903",80.37965,111.63559
"1904",79.95972,111.64896
"1905",79.54467,111.66226
"1906",79.15404,111.67563
"1907",78.80003,111.688934
"1908",78.48997,111.7023
"1909",78.23361,111.71561
"1910",78.030975,111.72897
"1911",77.88449,111.74228
"1912",77.786835,111.755646
"1913",77.72579,111.76895
"1914",77.68185,111.78232
"1915",77.645226,111.79562
"1916",77.611046,111.80899
"1917",77.57931,111.822296
"1918",77.55978,111.83566
"1919",77.55489,111.84897
"1920",77.5671,111.862335
"1921",77.58419,111.87564
"1922",77.5964,111.88901
"1923",77.59884,111.90231
"1924",77.58175,111.91568
"1925",77.54757,111.928986
"1926",77.50118,111.94235
"1927",77.44259,111.95566
"1928",77.37423,111.969025
"1929",77.30587,111.98233
"1930",77.24727,111.9957
"1931",77.25216,112.009
"1932",77.41573,112.02237
"1933",77.84543,112.035675
"1934",78.61448,112.04904
"1935",79.708244,112.06235
"1936",81.03151,112.075714
"1937",82.40116,112.08902
"1938",83.614555,112.10239
"1939",84.52033,112.11569
"1940",85.05745,112.12906
"1941",85.25033,112.142365
"1942",85.15999,112.15573
"1943",84.84505,112.16904
"1944",84.368965,112.1824
"1945",83.78546,112.19571
"1946",83.140915,112.209076
"1947",82.47929,112.22238
"1948",81.85184,112.23575
"1949",81.27322,112.249054
"1950",80.76051,112.26242
"1951",80.32105,112.27573
"1952",79.974365,112.28909
"1953",79.74731,112.3024
"1954",79.66918,112.315765
"1955",79.742424,112.32907
"1956",79.93286,112.34244
"1957",80.19165,112.35574
"1958",80.45289,112.36911
"1959",80.66041,112.382416
"1960",80.77516,112.39578
"1961",80.77516,112.40909
"1962",80.65797,112.422455
"1963",80.44068,112.43576
"1964",80.13794,112.44913
"1965",79.781494,112.46243
"1966",79.3933,112.4758
"1967",78.99779,112.489105
"1968",78.61448,112.50247
"1969",78.260475,112.51578
"1970",77.945526,112.529144
"1971",77.67208,112.54245
"1972",77.44747,112.55582
"1973",77.26681,112.56912
"1974",77.13252,112.58249
"1975",77.04463,112.595795
"1976",76.998245,112.60916
"1977",76.98604,112.62247
"1978",77.00313,112.63583
"1979",77.03975,112.64914
"1980",77.086136,112.662506
"1981",77.134964,112.67581
"1982",77.17403,112.68918
"1983",77.19112,112.702484
"1984",77.18379,112.71585
"1985",77.154495,112.72916
"1986",77.12764,112.74252
"1987",77.1667,112.75583
"1988",77.38155,112.769196
"1989",77.86984,112.7825
"1990",78.69749,112.79587
"1991",79.84253,112.80917
"1992",81.19997,112.82254
"1993",82.59403,112.835846
"1994",83.83673,112.84921
"1995",84.77913,112.86252
"1996",85.36019,112.875885
"1997",85.57015,112.88919
"1998",85.452965,112.90256
"1999",85.07942,112.91586
"2000",84.5301,112.92923
"2001",83.88312,112.942535
"2002",83.20439,112.9559
"2003",82.53788,112.96921
"2004",81.90799,112.982574
"2005",81.33425,112.99588
"2006",80.82399,113.00925
"2007",80.396736,113.02255
"2008",80.08423,113.03592
"2009",79.91333,113.049225
"2010",79.886475,113.06259
"2011",79.991455,113.0759
"2012",80.18677,113.089264
"2013",80.42115,113.10257
"2014",80.64332,113.11594
"2015",80.8069,113.12924
"2016",80.88014,113.14261
"2017",80.85573,113.155914
"2018",80.73853,113.16928
"2019",80.54078,113.18259
"2020",80.27711,113.19595
"2021",79.96948,113.20926
"2022",79.639885,113.222626
"2023",79.28832,113.23593
"2024",78.93919,113.2493
"2025",78.607155,113.2626
"2026",78.30442,113.27597
"2027",78.03586,113.289276
"2028",77.821014,113.30264
"2029",77.65255,113.31595
"2030",77.53292,113.329315
"2031",77.46212,113.34262
"2032",77.437706,113.35599
"2033",77.44259,113.36929
"2034",77.47433,113.38266
"2035",77.51583,113.395966
"2036",77.557335,113.40933
"2037",77.593956,113.42264
"2038",77.61349,113.436005
"2039",77.62081,113.44931
"2040",77.61837,113.46268
"2041",77.65743,113.47598
"2042",77.82834,113.48935
"2043",78.25559,113.502655
"2044",79.027084,113.51602
"2045",80.164795,113.52933
"2046",81.58816,113.542694
"2047",83.13115,113.556
"2048",84.578926,113.56937
"2049",85.750824,113.58267
"2050",86.539406,113.59604
"2051",86.91295,113.609344
"2052",86.90318,113.62271
"2053",86.58579,113.63602
"2054",86.048676,113.64938
"2055",85.384605,113.66269
"2056",84.67658,113.676056
"2057",83.97833,113.68936
"2058",83.319145,113.70273
"2059",82.71122,113.716034
"2060",82.16678,113.7294
"2061",81.69558,113.74271
"2062",81.31716,113.75607
"2063",81.05348,113.76938
"2064",80.92409,113.782745
"2065",80.919205,113.79605
"2066",81.01442,113.80942
"2067",81.15602,113.82272
"2068",81.290306,113.83609
"2069",81.36843,113.849396
"2070",81.3489,113.86276
"2071",81.214615,113.87607
"2072",80.96315,113.889435
"2073",80.61158,113.90274
"2074",80.17944,113.91611
"2075",79.69604,113.92941
"2076",79.185776,113.94278
"2077",78.677956,113.956085
"2078",78.20187,113.96945
"2079",77.77463,113.98276
"2080",77.41329,113.996124
"2081",77.120316,114.00943
"2082",76.88838,114.0228
"2083",76.70283,114.0361
"2084",76.561226,114.04947
"2085",76.456245,114.062775
"2086",76.387886,114.07614
"2087",76.35859,114.08945
"2088",76.36347,114.10281
"2089",76.39033,114.11612
"2090",76.42939,114.129486
"2091",76.46601,114.14279
"2092",76.50263,114.15616
"2093",76.53437,114.169464
"2094",76.56855,114.18283
"2095",76.592964,114.19614
"2096",76.595406,114.2095
"2097",76.575874,114.22281
"2098",76.52949,114.236176
"2099",76.46845,114.24948
"2100",76.436714,114.26285
"2101",76.541695,114.27615
"2102",76.910355,114.28952
"2103",77.64767,114.302826
"2104",78.77806,114.31619
"2105",80.235596,114.3295
"2106",81.85428,114.342865
"2107",83.40948,114.35617
"2108",84.69123,114.36954
"2109",85.57015,114.38284
"2110",86.00717,114.39621
"2111",86.031586,114.409515
"2112",85.72152,114.42288
"2113",85.169754,114.43619
"2114",84.48371,114.449554
"2115",83.74883,114.46286
"2116",83.02617,114.47623
"2117",82.34989,114.48953
"2118",81.73464,114.5029
"2119",81.18776,114.516205
"2120",80.719,114.52957
"2121",80.34547,114.54288
"2122",80.093994,114.556244
"2123",79.971924,114.56955
"2124",79.96704,114.58292
"2125",80.05493,114.59622
"2126",80.181885,114.60959
"2127",80.30152,114.622894
"2128",80.37232,114.63626
"2129",80.36256,114.64957
"2130",80.25269,114.66293
"2131",80.04028,114.67624
"2132",79.73998,114.689606
"2133",79.37377,114.70291
"2134",78.975815,114.71628
"2135",78.57053,114.72958
"2136",78.1799,114.74295
"2137",77.81857,114.756256
"2138",77.488976,114.76962
"2139",77.20332,114.78293
"2140",76.961624,114.796295
"2141",76.773636,114.8096
"2142",76.63691,114.82297
"2143",76.544136,114.83627
"2144",76.49531,114.84964
"2145",76.48066,114.862946
"2146",76.490425,114.87631
"2147",76.51972,114.88962
"2148",76.558784,114.902985
"2149",76.60273,114.91629
"2150",76.64423,114.92966
"2151",76.67109,114.94296
"2152",76.67597,114.95633
"2153",76.66621,114.969635
"2154",76.64179,114.983
"2155",76.612495,114.99631
"2156",76.58564,115.009674
"2157",76.57099,115.02298
"2158",76.558784,115.03635
"2159",76.54658,115.04965
"2160",76.52949,115.06302
"2161",76.50507,115.076324
"2162",76.47578,115.08969
"2163",76.456245,115.103
"2164",76.48554,115.11636
"2165",76.65888,115.12967
"2166",77.0959,115.143036
"2167",77.88205,115.15634
"2168",79.0222,115.16971
"2169",80.428474,115.183014
"2170",81.91287,115.19638
"2171",83.265434,115.20969
"2172",84.30549,115.22305
"2173",84.9427,115.23636
"2174",85.17464,115.249725
"2175",85.05989,115.26303
"2176",84.681465,115.2764
"2177",84.1297,115.2897
"2178",83.492485,115.30307
"2179",82.83818,115.316376
"2180",82.21561,115.32974
"2181",81.64919,115.34305
"2182",81.146255,115.356415
"2183",80.72144,115.36972
"2184",80.38453,115.38309
"2185",80.15015,115.39639
"2186",80.0354,115.40976
"2187",80.04028,115.423065
"2188",80.15259,115.43643
"2189",80.33082,115.44974
"2190",80.5359,115.463104
"2191",80.71656,115.47641
"2192",80.8362,115.48978
"2193",80.86549,115.50308
"2194",80.797134,115.51645
"2195",80.63355,115.529755
"2196",80.39185,115.54312
"2197",80.09888,115.55643
"2198",79.77661,115.56979
"2199",79.449455,115.5831
"2200",79.132065,115.596466
"2201",78.836655,115.60977
"2202",78.56809,115.62314
"2203",78.33372,115.636444
"2204",78.1384,115.64981
"2205",77.977264,115.66312
"2206",77.84787,115.67648
"2207",77.76242,115.68979
"2208",77.713585,115.703156
"2209",77.696495,115.71646
"2210",77.7087,115.72983
"2211",77.74532,115.74313
"2212",77.79172,115.7565
"2213",77.84299,115.769806
"2214",77.8967,115.78317
"2215",77.94797,115.79648
"2216",77.994354,115.809845
"2217",78.02609,115.82315
"2218",78.048065,115.83652
"2219",78.05539,115.84982
"2220",78.05051,115.86319
"2221",78.0383,115.876495
"2222",78.02121,115.88986
"2223",77.994354,115.90317
"2224",77.962616,115.916534
"2225",77.92111,115.92984
"2226",77.872284,115.94321
"2227",77.82834,115.95651
"2228",77.83322,115.96988
"2229",77.97482,115.983185
"2230",78.3679,115.99655
"2231",79.09056,116.00986
"2232",80.14282,116.023224
"2233",81.43923,116.03653
"2234",82.79912,116.0499
"2235",84.02472,116.0632
"2236",84.95491,116.07657
"2237",85.504234,116.089874
"2238",85.67513,116.10324
"2239",85.51644,116.11655
"2240",85.1136,116.12991
"2241",84.54963,116.14322
"2242",83.912415,116.156586
"2243",83.267876,116.16989
"2244",82.65995,116.18326
"2245",82.108185,116.19656
"2246",81.61501,116.20993
"2247",81.18776,116.223236
"2248",80.83864,116.2366
"2249",80.584724,116.24991
"2250",80.45045,116.263275
"2251",80.445564,116.27658
"2252",80.56275,116.28995
"2253",80.77028,116.30325
"2254",81.01442,116.31662
"2255",81.23659,116.329926
"2256",81.3904,116.34329
"2257",81.449,116.3566
"2258",81.39773,116.369965
"2259",81.248795,116.38327
"2260",81.0193,116.39664
"2261",80.73365,116.40994
"2262",80.41627,116.42331
"2263",80.08667,116.436615
"2264",79.764404,116.44998
"2265",79.45922,116.46329
"2266",79.17845,116.476654
"2267",78.92943,116.48996
"2268",78.712135,116.50333
"2269",78.53147,116.51663
"2270",78.38987,116.53
"2271",78.28733,116.543304
"2272",78.22385,116.55667
"2273",78.19211,116.56998
"2274",78.18967,116.58334
"2275",78.21164,116.59665
"2276",78.25315,116.610016
"2277",78.30442,116.62332
"2278",78.35325,116.63669
"2279",78.40208,116.649994
"2280",78.44602,116.66336
"2281",78.47776,116.67667
"2282",78.49485,116.69003
"2283",78.49729,116.70334
"2284",78.4802,116.716705
"2285",78.4387,116.73001
"2286",78.380104,116.74338
"2287",78.311745,116.75668
"2288",78.26536,116.77005
"2289",78.32639,116.783356
"2290",78.59495,116.79672
"2291",79.168686,116.81003
"2292",80.079346,116.823395
"2293",81.26101,116.8367
"2294",82.56718,116.85007
"2295",83.807434,116.86337
"2296",84.80354,116.87674
"2297",85.452965,116.890045
"2298",85.73861,116.90341
"2299",85.69222,116.91672
"2300",85.384605,116.930084
"2301",84.89632,116.94339
"2302",84.30305,116.95676
"2303",83.66827,116.97006
"2304",83.0457,116.98343
"2305",82.46464,116.996735
"2306",81.9324,117.0101
"2307",81.45632,117.02341
"2308",81.05592,117.03677
"2309",80.75075,117.05008
"2310",80.570076,117.063446
"2311",80.52613,117.07675
"2312",80.62623,117.09012
"2313",80.831314,117.103424
"2314",81.08766,117.11679
"2315",81.339134,117.1301
"2316",81.53445,117.14346
"2317",81.6321,117.15677
"2318",81.619896,117.170135
"2319",81.50271,117.18344
"2320",81.290306,117.19681
"2321",81.00954,117.21011
"2322",80.68482,117.22348
"2323",80.33814,117.236786
"2324",79.991455,117.25015
"2325",79.656975,117.26346
"2326",79.34692,117.276825
"2327",79.07347,117.29013
"2328",78.836655,117.3035
"2329",78.63401,117.3168
"2330",78.47288,117.33017
"2331",78.35081,117.343475
"2332",78.27024,117.35684
"2333",78.221405,117.37015
"2334",78.204315,117.383514
"2335",78.21408,117.39682
"2336",78.24338,117.41019
"2337",78.28489,117.42349
"2338",78.331276,117.43686
"2339",78.37522,117.450165
"2340",78.416725,117.46353
"2341",78.44358,117.47684
"2342",78.45335,117.490204
"2343",78.44602,117.50351
"2344",78.42161,117.51688
"2345",78.380104,117.53018
"2346",78.331276,117.54355
"2347",78.27512,117.556854
"2348",78.221405,117.57022
"2349",78.20187,117.58353
"2350",78.30442,117.59689
"2351",78.6511,117.6102
"2352",79.33715,117.623566
"2353",80.38697,117.63687
"2354",81.7322,117.65024
"2355",83.20195,117.66354
"2356",84.58137,117.67691
"2357",85.6849,117.690216
"2358",86.40757,117.70358
"2359",86.729836,117.71689
"2360",86.69077,117.730255
"2361",86.35874,117.74356
"2362",85.82651,117.75693
"2363",85.169754,117.77023
"2364",84.471504,117.7836
"2365",83.7879,117.796906
"2366",83.15068,117.81027
"2367",82.5745,117.82358
"2368",82.06424,117.836945
"2369",81.62722,117.85025
"2370",81.29275,117.86362
"2371",81.077896,117.87692
"2372",81.00954,117.89029
"2373",81.08278,117.903595
"2374",81.270775,117.91696
"2375",81.50759,117.93027
"2376",81.74441,117.943634
"2377",81.91531,117.95694
"2378",81.98123,117.97031
"2379",81.92752,117.98361
"2380",81.75906,117.99698
"2381",81.4905,118.010284
"2382",81.1487,118.02365
"2383",80.76784,118.03696
"2384",80.36256,118.05032
"2385",79.954834,118.06363
"2386",79.56664,118.076996
"2387",79.202866,118.0903
"2388",78.8806,118.10367
"2389",78.59983,118.116974
"2390",78.365456,118.13034
"2391",78.17258,118.14365
"2392",78.01877,118.15701
"2393",77.908905,118.17032
"2394",77.83566,118.183685
"2395",77.803925,118.19699
"2396",77.803925,118.21036
"2397",77.82834,118.22366
"2398",77.86252,118.23703
"2399",77.89914,118.250336
"2400",77.925995,118.2637
"2401",77.943085,118.27701
"2402",77.945526,118.290375
"2403",77.93332,118.30368
"2404",77.91135,118.31705
"2405",77.88205,118.33035
"2406",77.84299,118.34372
"2407",77.79416,118.357025
"2408",77.74044,118.37039
"2409",77.6672,118.3837
"2410",77.58419,118.397064
"2411",77.50851,118.41037
"2412",77.49874,118.42374
"2413",77.662315,118.43704
"2414",78.12375,118.45041
"2415",78.96361,118.463715
"2416",80.177,118.47708
"2417",81.65652,118.49039
"2418",83.20439,118.50375
"2419",84.596016,118.51706
"2420",85.65316,118.530426
"2421",86.2855,118.54373
"2422",86.48814,118.5571
"2423",86.31968,118.570404
"2424",85.86801,118.58377
"2425",85.23079,118.59708
"2426",84.49592,118.61044
"2427",83.736626,118.62375
"2428",83.001755,118.637115
"2429",82.32304,118.65042
"2430",81.71999,118.66379
"2431",81.20241,118.67709
"2432",80.782486,118.69046
"2433",80.48707,118.703766
"2434",80.3357,118.71713
"2435",80.3357,118.73044
"2436",80.462654,118.743805
"2437",80.67994,118.75711
"2438",80.93385,118.77048
"2439",81.15846,118.78378
"2440",81.30251,118.79715
"2441",81.33425,118.810455
"2442",81.24635,118.82382
"2443",81.041275,118.83713
"2444",80.740974,118.850494
"2445",80.37476,118.8638
"2446",79.98413,118.87717
"2447",79.586174,118.89047
"2448",79.200424,118.90384
"2449",78.836655,118.917145
"2450",78.502174,118.93051
"2451",78.19699,118.94382
"2452",77.9382,118.957184
"2453",77.72823,118.97049
"2454",77.56954,118.98386
"2455",77.46212,118.99716
"2456",77.40353,119.01053
"2457",77.37911,119.023834
"2458",77.38644,119.0372
"2459",77.41573,119.05051
"2460",77.45724,119.06387
"2461",77.50118,119.07718
"2462",77.54269,119.090546
"2463",77.574425,119.10385
"2464",77.5964,119.11722
"2465",77.60616,119.13052
"2466",77.60128,119.14389
"2467",77.58175,119.157196
"2468",77.54757,119.17056
"2469",77.49386,119.18387
"2470",77.42306,119.197235
"2471",77.34005,119.21054
"2472",77.24971,119.22391
"2473",77.16182,119.23721
"2474",77.09834,119.25058
"2475",77.134964,119.263885
"2476",77.38888,119.27725
"2477",77.96994,119.29056
"2478",78.93431,119.303925
"2479",80.24536,119.31723
"2480",81.76395,119.3306
"2481",83.2752,119.3439
"2482",84.56916,119.35727
"2483",85.49691,119.370575
"2484",85.994965,119.38394
"2485",86.0853,119.39725
"2486",85.82895,119.410614
"2487",85.313805,119.42392
"2488",84.63996,119.43729
"2489",83.90021,119.45059
"2490",83.158005,119.46396
"2491",82.45731,119.477264
"2492",81.8201,119.49063
"2493",81.25613,119.50394
"2494",80.77272,119.5173
"2495",80.40406,119.53061
"2496",80.16724,119.543976
"2497",80.09155,119.55728
"2498",80.17212,119.57065
"2499",80.37476,119.583954
"2500",80.64576,119.59732
"2501",80.91676,119.61063
"2502",81.129166,119.62399
"2503",81.23903,119.6373
"2504",81.22194,119.650665
"2505",81.075455,119.66397
"2506",80.82399,119.67734
"2507",80.49195,119.69064
"2508",80.1062,119.70401
"2509",79.693596,119.717316
"2510",79.28588,119.73068
"2511",78.89525,119.74399
"2512",78.536354,119.757355
"2513",78.21896,119.77066
"2514",77.95285,119.78403
"2515",77.733116,119.79733
"2516",77.55978,119.8107
"2517",77.435265,119.824005
"2518",77.35958,119.83737
"2519",77.32052,119.85068
"2520",77.31075,119.864044
"2521",77.330284,119.87735
"2522",77.36202,119.89072
"2523",77.40353,119.90402
"2524",77.44747,119.91739
"2525",77.49386,119.930695
"2526",77.53536,119.94406
"2527",77.5671,119.95737
"2528",77.58419,119.97073
"2529",77.58175,119.98404
"2530",77.557335,119.997406
"2531",77.51095,120.01071
"2532",77.44503,120.02408
"2533",77.35958,120.037384
"2534",77.26681,120.05075
"2535",77.205765,120.06406
"2536",77.25216,120.07742
"2537",77.53048,120.09073
"2538",78.14572,120.104095
"2539",79.151596,120.1174
"2540",80.48707,120.13077
"2541",82.005646,120.14407
"2542",83.49493,120.15744
"2543",84.74738,120.170746
"2544",85.61654,120.18411
"2545",86.056,120.19742
"2546",86.08774,120.210785
"2547",85.79233,120.22409
"2548",85.25765,120.23746
"2549",84.58381,120.25076
"2550",83.85138,120.26413
"2551",83.123825,120.277435
"2552",82.4329,120.2908
"2553",81.80057,120.30411
"2554",81.234146,120.317474
"2555",80.75319,120.33078
"2556",80.38697,120.34415
"2557",80.164795,120.35745
"2558",80.10376,120.37082
"2559",80.201416,120.384125
"2560",80.41871,120.39749
"2561",80.69947,120.4108
"2562",80.96803,120.424164
"2563",81.16579,120.43747
"2564",81.26101,120.450836
"2565",81.22438,120.46414
"2566",81.06325,120.47751
"2567",80.78981,120.490814
"2568",80.43824,120.50418
"2569",80.03296,120.51749
"2570",79.60815,120.53085
"2571",79.18822,120.54416
"2572",78.79271,120.557526
"2573",78.433815,120.57083
"2574",78.11398,120.5842
"2575",77.84299,120.5975
"2576",77.62081,120.61087
"2577",77.44503,120.624176
"2578",77.32052,120.63754
"2579",77.24483,120.65085
"2580",77.21065,120.664215
"2581",77.21553,120.67752
"2582",77.24971,120.69089
"2583",77.30099,120.70419
"2584",77.35958,120.71756
"2585",77.42306,120.730865
"2586",77.48165,120.74423
"2587",77.5256,120.75754
"2588",77.557335,120.770905
"2589",77.56466,120.78421
"2590",77.55001,120.79758
"2591",77.51095,120.81088
"2592",77.452354,120.82425
"2593",77.37667,120.837555
"2594",77.32052,120.85092
"2595",77.349815,120.86423
"2596",77.58175,120.877594
"2597",78.135956,120.8909
"2598",79.078354,120.90427
"2599",80.38941,120.91757
"2600",81.94461,120.93094
"2601",83.54131,120.944244
"2602",84.95247,120.95761
"2603",86.00717,120.97092
"2604",86.62241,120.98428
"2605",86.79088,120.99759
"2606",86.57847,121.010956
"2607",86.07797,121.02426
"2608",85.40658,121.03763
"2609",84.65461,121.050934
"2610",83.90753,121.0643
"2611",83.20683,121.07761
"2612",82.57206,121.09097
"2613",82.00809,121.10428
"2614",81.52712,121.117645
"2615",81.146255,121.13095
"2616",80.88258,121.14432
"2617",80.762955,121.15762
"2618",80.78737,121.17099
"2619",80.93141,121.184296
"2620",81.143814,121.19766
"2621",81.36111,121.21097
"2622",81.52712,121.224335
"2623",81.59304,121.23764
"2624",81.53689,121.25101
"2625",81.35378,121.26431
"2626",81.06325,121.27768
"2627",80.69215,121.290985
"2628",80.274666,121.30435
"2629",79.84009,121.31766
"2630",79.412834,121.331024
"2631",79.009995,121.34433
"2632",78.64622,121.3577
"2633",78.32639,121.371
"2634",78.06027,121.38437
"2635",77.84299,121.397675
"2636",77.67208,121.41104
"2637",77.54757,121.42435
"2638",77.46456,121.43771
"2639",77.42306,121.45102
"2640",77.41329,121.464386
"2641",77.43038,121.47769
"2642",77.467,121.49106
"2643",77.506065,121.504364
"2644",77.54269,121.51773
"2645",77.57198,121.53104
"2646",77.58663,121.5444
"2647",77.58663,121.55771
"2648",77.57198,121.571075
"2649",77.54269,121.58438
"2650",77.49142,121.59775
"2651",77.4255,121.61105
"2652",77.34005,121.62442
"2653",77.24483,121.637726
"2654",77.152054,121.65109
"2655",77.11055,121.6644
"2656",77.21065,121.677765
"2657",77.58907,121.69107
"2658",78.35081,121.70444
"2659",79.54467,121.71774
"2660",81.09743,121.73111
"2661",82.83818,121.744415
"2662",84.525215,121.75778
"2663",85.92172,121.77109
"2664",86.873886,121.784454
"2665",87.33044,121.79776
"2666",87.33044,121.81113
"2667",86.96422,121.82443
"2668",86.34165,121.8378
"2669",85.58968,121.851105
"2670",84.81087,121.86447
"2671",84.06378,121.87778
"2672",83.38262,121.89114
"2673",82.78447,121.90445
"2674",82.269325,121.917816
"2675",81.84207,121.93112
"2676",81.51736,121.94449
"2677",81.30984,121.957794
"2678",81.22926,121.97116
"2679",81.25857,121.98447
"2680",81.358665,121.99783
"2681",81.478294,122.01114
"2682",81.56863,122.024506
"2683",81.58816,122.03781
"2684",81.51003,122.05118
"2685",81.322044,122.06448
"2686",81.03883,122.07785
"2687",80.66773,122.091156
"2688",80.23804,122.10452
"2689",79.77661,122.11783
"2690",79.30785,122.131195
"2691",78.8513,122.1445
"2692",78.42893,122.15787
"2693",78.048065,122.17117
"2694",77.713585,122.18454
"2695",77.435265,122.197845
"2696",77.21065,122.21121
"2697",77.03975,122.22452
"2698",76.91768,122.237885
"2699",76.839554,122.25119
"2700",76.79805,122.26456
"2701",76.78096,122.27786
"2702",76.77608,122.29123
"2703",76.77852,122.304535
"2704",76.78096,122.3179
"2705",76.78096,122.33121
"2706",76.76875,122.344574
"2707",76.74677,122.35788
"2708",76.71015,122.37125
"2709",76.66132,122.38455
"2710",76.60273,122.39792
"2711",76.53437,122.411224
"2712",76.46357,122.42459
"2713",76.39765,122.4379
"2714",76.32685,122.45126
"2715",76.25605,122.46457
"2716",76.1828,122.477936
"2717",76.10956,122.49124
"2718",76.0412,122.50461
"2719",76.02655,122.517914
"2720",76.14862,122.53128
"2721",76.544136,122.544586
"2722",77.332726,122.55795
"2723",78.55833,122.57126
"2724",80.14038,122.584625
"2725",81.90799,122.59793
"2726",83.60967,122.6113
"2727",85.00618,122.6246
"2728",85.94125,122.63797
"2729",86.37583,122.651276
"2730",86.348976,122.66464
"2731",85.96323,122.67795
"2732",85.330894,122.691315
"2733",84.578926,122.70462
"2734",83.80011,122.71799
"2735",83.06035,122.73129
"2736",82.39384,122.74466
"2737",81.80789,122.757965
"2738",81.304955,122.77133
"2739",80.88991,122.78464
"2740",80.5774,122.798004
"2741",80.38209,122.81131
"2742",80.31861,122.82468
"2743",80.36256,122.83798
"2744",80.482185,122.85135
"2745",80.618904,122.864655
"2746",80.723885,122.87802
"2747",80.75319,122.89133
"2748",80.69459,122.90469
"2749",80.533455,122.918
"2750",80.27711,122.931366
"2751",79.94507,122.94467
"2752",79.56176,122.95804
"2753",79.15648,122.971344
"2754",78.751205,122.98471
"2755",78.363014,122.99802
"2756",78.00412,123.01138
"2757",77.67696,123.02469
"2758",77.39132,123.038055
"2759",77.14717,123.05136
"2760",76.95186,123.06473
"2761",76.80293,123.07803
"2762",76.70283,123.0914
"2763",76.64423,123.104706
"2764",76.62226,123.11807
"2765",76.63203,123.13138
"2766",76.663765,123.144745
"2767",76.70527,123.15805
"2768",76.74433,123.17142
"2769",76.77608,123.18472
"2770",76.790726,123.19809
"2771",76.790726,123.211395
"2772",76.77852,123.22476
"2773",76.756546,123.23807
"2774",76.734566,123.251434
"2775",76.71015,123.26474
"2776",76.68818,123.27811
"2777",76.663765,123.29141
"2778",76.64179,123.30478
"2779",76.61738,123.318085
"2780",76.592964,123.33145
"2781",76.56367,123.34476
"2782",76.52949,123.35812
"2783",76.490425,123.37143
"2784",76.45869,123.384796
"2785",76.45869,123.3981
"2786",76.575874,123.41147
"2787",76.93233,123.424774
"2788",77.642784,123.43814
"2789",78.74876,123.45145
"2790",80.20386,123.46481
"2791",81.84207,123.47812
"2792",83.43389,123.491486
"2793",84.74738,123.50479
"2794",85.63851,123.51816
"2795",86.05844,123.53146
"2796",86.04379,123.54483
"2797",85.68734,123.558136
"2798",85.103836,123.5715
"2799",84.4007,123.58481
"2800",83.66827,123.598175
"2801",82.97246,123.61148
"2802",82.34745,123.62485
"2803",81.795685,123.63815
"2804",81.3196,123.65152
"2805",80.92409,123.664825
"2806",80.62379,123.67819
"2807",80.43824,123.6915
"2808",80.37965,123.704865
"2809",80.44312,123.71817
"2810",80.601814,123.73154
"2811",80.799576,123.74484
"2812",80.98268,123.75821
"2813",81.10231,123.771515
"2814",81.126724,123.78488
"2815",81.03639,123.79819
"2816",80.833755,123.811554
"2817",80.54566,123.82486
"2818",80.18921,123.83823
"2819",79.7937,123.85153
"2820",79.3933,123.8649
"2821",79.00511,123.878204
"2822",78.643776,123.89157
"2823",78.32395,123.90488
"2824",78.05051,123.91824
"2825",77.82834,123.93155
"2826",77.65499,123.944916
"2827",77.5256,123.95822
"2828",77.44503,123.97159
"2829",77.40597,123.98489
"2830",77.40597,123.99826
"2831",77.43038,124.011566
"2832",77.47433,124.02493
"2833",77.523155,124.03824
"2834",77.56954,124.051605
"2835",77.60616,124.06491
"2836",77.628136,124.07828
"2837",77.642784,124.09158
"2838",77.642784,124.10495
"2839",77.63058,124.118256
"2840",77.608604,124.13162
"2841",77.576866,124.14493
"2842",77.53536,124.158295
"2843",77.486534,124.1716
"2844",77.43038,124.18497
"2845",77.36935,124.19827
"2846",77.30099,124.21164
"2847",77.23506,124.224945
"2848",77.17403,124.23831
"2849",77.154495,124.25162
"2850",77.25704,124.264984
"2851",77.60616,124.27829
"2852",78.311745,124.29166
"2853",79.40795,124.30496
"2854",80.8362,124.31833
"2855",82.42802,124.331635
"2856",83.96124,124.345
"2857",85.21858,124.35831
"2858",86.06821,124.37167
"2859",86.468605,124.38498
"2860",86.46128,124.398346
"2861",86.1268,124.41165
"2862",85.56771,124.42502
"2863",84.88411,124.438324
"2864",84.16144,124.45169
"2865",83.46319,124.465
"2866",82.82597,124.47836
"2867",82.262,124.49167
"2868",81.78104,124.505035
"2869",81.38552,124.51834
"2870",81.08034,124.53171
"2871",80.885025,124.54501
"2872",80.81178,124.55838
"2873",80.850845,124.571686
"2874",80.98268,124.58505
"2875",81.163345,124.59836
"2876",81.33425,124.611725
"2877",81.446556,124.62503
"2878",81.46609,124.6384
"2879",81.3782,124.6517
"2880",81.180435,124.66507
"2881",80.89235,124.678375
"2882",80.533455,124.69174
"2883",80.1355,124.70505
"2884",79.725334,124.718414
"2885",79.3225,124.73172
"2886",78.941635,124.74509
"2887",78.59983,124.75839
"2888",78.30442,124.77176
"2889",78.05295,124.785065
"2890",77.85275,124.79843
"2891",77.70626,124.81174
"2892",77.60616,124.8251
"2893",77.55001,124.83841
"2894",77.52804,124.851776
"2895",77.5378,124.86508
"2896",77.56466,124.87845
"2897",77.60372,124.891754
"2898",77.64767,124.90512
"2899",77.68673,124.91843
"2900",77.71847,124.93179
"2901",77.74044,124.9451
"2902",77.747765,124.958466
"2903",77.738,124.97177
"2904",77.71603,124.98514
"2905",77.68185,124.99844
"2906",77.6379,125.01181
"2907",77.58419,125.025116
"2908",77.52804,125.03848
"2909",77.46456,125.05179
"2910",77.401085,125.065155
"2911",77.33517,125.07846
"2912",77.27413,125.09183
"2913",77.23018,125.10513
"2914",77.25948,125.1185
"2915",77.469444,125.131805
"2916",77.994354,125.14517
"2917",78.924545,125.15848
"2918",80.25025,125.171844
"2919",81.8616,125.18515
"2920",83.546196,125.19852
"2921",85.05989,125.21182
"2922",86.20981,125.22519
"2923",86.905624,125.238495
"2924",87.14244,125.25186
"2925",86.99107,125.26517
"2926",86.54185,125.278534
"2927",85.90219,125.29184
"2928",84.41535,125.31851
"2929",83.71221,125.33188
"2930",83.07988,125.345184
"2931",82.52567,125.35855
"2932",82.04959,125.37186
"2933",81.6614,125.38522
"2934",81.36355,125.39853
"2935",81.16823,125.411896
"2936",81.092545,125.4252
"2937",81.126724,125.43857
"2938",81.24147,125.45187
"2939",81.38064,125.46524
"2940",81.497826,125.478546
"2941",81.55154,125.49191
"2942",81.51003,125.50522
"2943",81.36355,125.518585
"2944",81.1194,125.53189
"2945",80.797134,125.54526
"2946",80.41627,125.55856
"2947",80.0061,125.57193
"2948",79.588615,125.585236
"2949",79.183334,125.5986
"2950",78.80492,125.61191
"2951",78.467995,125.625275
"2952",78.17258,125.63858
"2953",77.925995,125.65195
"2954",77.72335,125.66525
"2955",77.56954,125.67862
"2956",77.45968,125.691925
"2957",77.38888,125.70529
"2958",77.349815,125.7186
"2959",77.34005,125.731964
"2960",77.349815,125.74527
"2961",77.37423,125.75864
"2962",77.40597,125.77194
"2963",77.435265,125.78531
"2964",77.45968,125.798615
"2965",77.47433,125.81198
"2966",77.47921,125.82529
"2967",77.46456,125.83865
"2968",77.43282,125.85196
"2969",77.39132,125.865326
"2970",77.34493,125.87863
"2971",77.296104,125.892
"2972",77.24971,125.905304
"2973",77.21065,125.91867
"2974",77.17403,125.93198
"2975",77.13252,125.94534
"2976",77.08858,125.95865
"2977",77.03975,125.972015
"2978",77.00313,125.98532
"2979",77.03731,125.99869
"2980",77.2546,126.01199
"2981",77.786835,126.02536
"2982",78.72434,126.038666
"2983",80.05005,126.05203
"2984",81.64431,126.06534
"2985",83.29473,126.078705
"2986",84.7596,126.09201
"2987",85.84848,126.10538
"2988",86.47593,126.11868
"2989",86.64927,126.13205
"2990",86.43931,126.145355
"2991",85.95102,126.15872
"2992",85.28695,126.17203
"2993",84.542305,126.185394
"2994",83.79523,126.1987
"2995",83.09453,126.21207
"2996",82.46708,126.22537
"2997",81.91531,126.23874
"2998",81.444115,126.252045
"2999",81.05348,126.26541
"3000",80.76051,126.27872
"3001",80.5774,126.29208
"3002",80.51881,126.30539
"3003",80.57496,126.318756
"3004",80.72144,126.33206
"3005",80.89723,126.34543
"3006",81.05592,126.358734
"3007",81.146255,126.3721
"3008",81.146255,126.38541
"3009",81.041275,126.39877
"3010",80.84108,126.41208
"3011",80.55787,126.425446
"3012",80.216064,126.43875
"3013",79.835205,126.45212
"3014",79.43969,126.46542
"3015",79.046616,126.47879
"3016",78.67307,126.492096
"3017",78.328835,126.50546
"3018",78.028534,126.51877
"3019",77.77463,126.532135
"3020",77.57198,126.54544
"3021",77.41329,126.55881
"3022",77.296104,126.57211
"3023",77.21309,126.58548
"3024",77.16426,126.598785
"3025",77.14717,126.61215
"3026",77.16182,126.62546
"3027",77.196,126.638824
"3028",77.242386,126.65213
"3029",77.28878,126.6655
"3030",77.330284,126.6788
"3031",77.35958,126.69217
"3032",77.37423,126.705475
"3033",77.37423,126.71884
"3034",77.35714,126.73215
"3035",77.330284,126.745514
"3036",77.29366,126.75882
"3037",77.2546,126.77219
"3038",77.21309,126.78549
"3039",77.17647,126.79886
"3040",77.14229,126.812164
"3041",77.10811,126.82553
"3042",77.07637,126.83884
"3043",77.03975,126.8522
"3044",76.998245,126.86551
"3045",76.978714,126.878876
"3046",77.06416,126.89218
"3047",77.37179,126.90555
"3048",78.02609,126.91885
"3049",79.06859,126.93222
"3050",80.45045,126.945526
"3051",82.01053,126.95889
"3052",83.53155,126.9722
"3053",84.791336,126.985565
"3054",85.6556,126.99887
"3055",86.08774,127.01224
"3056",86.12436,127.02554
"3057",85.838715,127.03891
"3058",85.32845,127.052216
"3059",84.67658,127.06558
"3060",83.963684,127.07889
"3061",83.24834,127.092255
"3062",82.57694,127.10556
"3063",81.96658,127.11893
"3064",81.42458,127.13223
"3065",80.96071,127.1456
"3066",80.587166,127.158905
"3067",80.325935,127.17227
"3068",80.20386,127.18558
"3069",80.22583,127.198944
"3070",80.37476,127.21225
"3071",80.61158,127.22562
"3072",80.87038,127.23892
"3073",81.09743,127.25229
"3074",81.24635,127.265594
"3075",81.29275,127.27896
"3076",81.22438,127.29227
"3077",81.0486,127.30563
"3078",80.78737,127.31894
"3079",80.465096,127.332306
"3080",80.10376,127.34561
"3081",79.73022,127.35898
"3082",79.35668,127.372284
"3083",79.00023,127.38565
"3084",78.67307,127.39896
"3085",78.382545,127.41232
"3086",78.13107,127.42563
"3087",77.92355,127.438995
"3088",77.75754,127.4523
"3089",77.64034,127.46567
"3090",77.56466,127.47897
"3091",77.53048,127.49234
"3092",77.53292,127.505646
"3093",77.56954,127.51901
"3094",77.625694,127.53232
"3095",77.69161,127.545685
"3096",77.76242,127.55899
"3097",77.82834,127.57236
"3098",77.88693,127.58566
"3099",77.92844,127.59903
"3100",77.95285,127.612335
"3101",77.95773,127.6257
"3102",77.95041,127.63901
"3103",77.93332,127.652374
"3104",77.91135,127.66568
"3105",77.87961,127.67905
"3106",77.84299,127.69235
"3107",77.789276,127.70572
"3108",77.72335,127.719025
"3109",77.65255,127.73239
"3110",77.58907,127.7457
"3111",77.593956,127.75906
"3112",77.786835,127.77237
"3113",78.28733,127.785736
"3114",79.1638,127.79904
"3115",80.39918,127.81241
"3116",81.87625,127.825714
"3117",83.39483,127.83908
"3118",84.735176,127.85239
"3119",85.72884,127.86575
"3120",86.30991,127.87906
"3121",86.48814,127.892426
"3122",86.32212,127.90573
"3123",85.89487,127.9191
"3124",85.29427,127.9324
"3125",84.6009,127.94577
"3126",83.88068,127.959076
"3127",83.175095,127.97244
"3128",82.50614,127.98575
"3129",81.881134,127.999115
"3130",81.322044,128.01242
"3131",80.848404,128.02579
"3132",80.49439,128.0391
"3133",80.28687,128.05246
"3134",80.25269,128.06577
"3135",80.37476,128.07913
"3136",80.621346,128.09244
"3137",80.92653,128.1058
"3138",81.22682,128.11911
"3139",81.461205,128.13248
"3140",81.58816,128.14578
"3141",81.58816,128.15915
"3142",81.45876,128.17245
"3143",81.214615,128.18582
"3144",80.89235,128.19913
"3145",80.51881,128.2125
"3146",80.11841,128.2258
"3147",79.71557,128.23917
"3148",79.32983,128.25247
"3149",78.96605,128.26584
"3150",78.63645,128.27914
"3151",78.348366,128.29251
"3152",78.101776,128.30582
"3153",77.8967,128.31918
"3154",77.73556,128.33249
"3155",77.62081,128.34586
"3156",77.54757,128.35916
"3157",77.51095,128.37253
"3158",77.51095,128.38583
"3159",77.54513,128.3992
"3160",77.60128,128.4125
"3161",77.67208,128.42587
"3162",77.747765,128.43918
"3163",77.81613,128.45255
"3164",77.86984,128.46585
"3165",77.90402,128.47922
"3166",77.91379,128.49252
"3167",77.90402,128.50589
"3168",77.872284,128.5192
"3169",77.81613,128.53256
"3170",77.76242,128.54587
"3171",77.77463,128.55923
"3172",77.96506,128.57254
"3173",78.45579,128.5859
"3174",79.31762,128.59921
"3175",80.52613,128.61258
"3176",81.9617,128.62589
"3177",83.42657,128.63925
"3178",84.71076,128.65256
"3179",85.662926,128.66592
"3180",86.21469,128.67923
"3181",86.37827,128.6926
"3182",86.204926,128.7059
"3183",85.7728,128.71927
"3184",85.16731,128.73257
"3185",84.46906,128.74594
"3186",83.74151,128.75925
"3187",83.035934,128.77261
"3188",82.371864,128.78592
"3189",81.75662,128.79929
"3190",81.20485,128.81259
"3191",80.73609,128.82596
"3192",80.38697,128.83926
"3193",80.18921,128.85263
"3194",80.16724,128.86594
"3195",80.31129,128.8793
"3196",80.57496,128.89261
"3197",80.89479,128.90598
"3198",81.20241,128.91928
"3199",81.43191,128.93265
"3200",81.54177,128.94595
"3201",81.512474,128.95932
"3202",81.35378,128.97263
"3203",81.0901,128.986
"3204",80.74586,128.9993
"3205",80.35523,129.01266
"3206",79.94995,129.02597
"3207",79.53979,129.03934
"3208",79.14427,129.05264
"3209",78.77562,129.06601
"3210",78.44602,129.07932
"3211",78.16037,129.09268
"3212",77.92111,129.10599
"3213",77.733116,129.11935
"3214",77.591515,129.13266
"3215",77.49386,129.14603
"3216",77.435265,129.15933
"3217",77.418175,129.1727
"3218",77.435265,129.186
"3219",77.47433,129.19937
"3220",77.53536,129.21268
"3221",77.60372,129.22604
"3222",77.67452,129.23935
"3223",77.733116,129.25272
"3224",77.77219,129.26602
"3225",77.786835,129.27939
"3226",77.77951,129.2927
"3227",77.75021,129.30606
"3228",77.733116,129.31937
"3229",77.803925,129.33273
"3230",78.07248,129.34604
"3231",78.658424,129.3594
"3232",79.62035,129.37271
"3233",80.92897,129.38608
"3234",82.45243,129.39938
"3235",83.99054,129.41275
"3236",85.32601,129.42606
"3237",86.29771,129.43942
"3238",86.84215,129.45273
"3239",86.744484,129.4794
"3240",86.2562,129.49277
"3241",85.60677,129.50607
"3242",84.87923,129.51944
"3243",84.13214,129.53275
"3244",83.41436,129.54611
"3245",82.7454,129.55942
"3246",82.13992,129.57278
"3247",81.60769,129.58609
"3248",81.17067,129.59946
"3249",80.86305,129.61276
"3250",80.71168,129.62613
"3251",80.71656,129.63943
"3252",80.85817,129.6528
"3253",81.08522,129.6661
"3254",81.33425,129.67947
"3255",81.54177,129.69278
"3256",81.6614,129.70615
"3257",81.668724,129.71945
"3258",81.549095,129.73282
"3259",81.307396,129.74612
"3260",80.96559,129.75949
"3261",80.55787,129.7728
"3262",80.10864,129.78616
"3263",79.64965,129.79947
"3264",79.20775,129.81284
"3265",78.79271,129.82614
"3266",78.4094,129.83951
"3267",78.07004,129.85281
"3268",77.77463,129.86618
"3269",77.53048,129.87949
"3270",77.34005,129.89285
"3271",77.208206,129.90616
"3272",77.13252,129.91953
"3273",77.100784,129.93283
"3274",77.103226,129.9462
"3275",77.13008,129.9595
"3276",77.17403,129.97287
"3277",77.225296,129.98618
"3278",77.279015,129.99954
"3279",77.32052,130.01285
"3280",77.34493,130.02621
"3281",77.34249,130.03952
"3282",77.30831,130.05289
"3283",77.242386,130.0662
"3284",77.15938,130.07956
"3285",77.07881,130.09286
"3286",77.049515,130.10623
"3287",77.18623,130.11954
"3288",77.61349,130.1329
"3289",78.42161,130.14621
"3290",79.622795,130.15958
"3291",81.109634,130.17288
"3292",82.69657,130.18625
"3293",84.15167,130.19955
"3294",85.27718,130.21292
"3295",85.97055,130.22623
"3296",86.2269,130.2396
"3297",86.0975,130.2529
"3298",85.67269,130.26627
"3299",85.050125,130.27957
"3300",84.332344,130.29294
"3301",83.59014,130.30624
"3302",82.87724,130.31961
"3303",82.21561,130.33292
"3304",81.62234,130.34628
"3305",81.10231,130.35959
"3306",80.6775,130.37296
"3307",80.36988,130.38626
"3308",80.21118,130.39963
"3309",80.201416,130.41293
"3310",80.32105,130.4263
"3311",80.52613,130.4396
"3312",80.75563,130.45297
"3313",80.9485,130.46628
"3314",81.058365,130.47964
"3315",81.058365,130.49295
"3316",80.94118,130.50632
"3317",80.71412,130.51962
"3318",80.396736,130.53299
"3319",80.02075,130.5463
"3320",79.61059,130.55966
"3321",79.19066,130.57297
"3322",78.77562,130.58633
"3323",78.382545,130.59964
"3324",78.02365,130.613
"3325",77.70626,130.62631
"3326",77.44015,130.63968
"3327",77.23018,130.65298
"3328",77.07393,130.66635
"3329",76.96651,130.67966
"3330",76.90547,130.69302
"3331",76.88594,130.70633
"3332",76.90059,130.7197
"3333",76.95186,130.733
"3334",77.02266,130.74637
"3335",77.100784,130.75967
"3336",77.171585,130.77304
"3337",77.22774,130.78635
"3338",77.26681,130.79971
"3339",77.281456,130.81302
"3340",77.27169,130.82639
"3341",77.2375,130.83969
"3342",77.17647,130.85306
"3343",77.09346,130.86636
"3344",77.00069,130.87973
"3345",76.946976,130.89304
"3346",77.02266,130.9064
"3347",77.3547,130.91971
"3348",78.05295,130.93307
"3349",79.15648,130.94638
"3350",80.604256,130.95975
"3351",82.22293,130.97305
"3352",83.78546,130.98642
"3353",85.06966,130.99973
"3354",85.93149,131.01309
"3355",86.327,131.0264
"3356",86.295265,131.03976
"3357",85.924164,131.05307
"3358",85.32113,131.06644
"3359",84.596016,131.07974
"3360",83.83429,131.09311
"3361",83.09453,131.10641
"3362",82.406044,131.11978
"3363",81.78348,131.13309
"3364",81.23659,131.14645
"3365",80.78737,131.15976
"3366",80.46021,131.17313
"3367",80.28443,131.18643
"3368",80.26978,131.1998
"3369",80.39918,131.2131
"3370",80.621346,131.22647
"3371",80.88258,131.23978
"3372",81.10231,131.25314
"3373",81.234146,131.26645
"3374",81.24391,131.27982
"3375",81.12184,131.29312
"3376",80.87526,131.30649
"3377",80.52857,131.3198
"3378",80.113525,131.33316
"3379",79.66674,131.34647
"3380",79.21507,131.35983
"3381",78.7805,131.37314
"3382",78.37766,131.3865
"3383",78.011444,131.39981
"3384",77.696495,131.41318
"3385",77.43038,131.42648
"3386",77.222855,131.43985
"3387",77.07881,131.45316
"3388",76.99336,131.46652
"3389",76.95918,131.47983
"3390",76.964066,131.4932
"3391",77.00557,131.5065
"3392",77.07149,131.51987
"3393",77.14473,131.53317
"3394",77.21797,131.54654
"3395",77.27657,131.55984
"3396",77.31808,131.57321
"3397",77.330284,131.58652
"3398",77.315636,131.59988
"3399",77.27413,131.61319
"3400",77.21065,131.62656
"3401",77.13252,131.63986
"3402",77.069046,131.65323
"3403",77.100784,131.66653
"3404",77.33761,131.6799
"3405",77.90402,131.6932
"3406",78.870834,131.70657
"3407",80.21118,131.71988
"3408",81.795685,131.73325
"3409",83.40948,131.74655
"3410",84.823074,131.75992
"3411",85.86313,131.77322
"3412",86.44907,131.78659
"3413",86.59556,131.7999
"3414",86.37095,131.81326
"3415",85.88266,131.82657
"3416",85.23079,131.83994
"3417",84.51789,131.85324
"3418",83.81232,131.86661
"3419",83.15068,131.87991
"3420",82.55253,131.89328
"3421",82.0325,131.90659
"3422",81.59548,131.91995
"3423",81.25857,131.93326
"3424",81.04372,131.94662
"3425",80.96071,131.95993
"3426",81.004654,131.9733
"3427",81.14137,131.9866
"3428",81.31716,131.99997
"3429",81.47585,132.01328
"3430",81.566185,132.02664
"3431",81.54665,132.03995
"3432",81.40261,132.05331
"3433",81.143814,132.06662
"3434",80.79469,132.07999
"3435",80.37965,132.09329
"3436",79.93042,132.10666
"3437",79.47875,132.11996
"3438",79.04173,132.13333
"3439",78.63645,132.14664
"3440",78.27024,132.16
"3441",77.95773,132.17331
"3442",77.70138,132.18668
"3443",77.506065,132.19998
"3444",77.366905,132.21335
"3445",77.279015,132.22665
"3446",77.239944,132.24002
"3447",77.23506,132.25333
"3448",77.24971,132.2667
"3449",77.27657,132.28
"3450",77.30831,132.29337
"3451",77.332726,132.30667
"3452",77.35226,132.32004
"3453",77.35714,132.33334
"3454",77.3547,132.34671
"3455",77.34005,132.36002
"3456",77.313194,132.37338
"3457",77.27169,132.38669
"3458",77.21553,132.40005
"3459",77.14229,132.41336
"3460",77.05928,132.42673
"3461",76.961624,132.44003
"3462",76.86397,132.4534
"3463",76.7834,132.4667
"3464",76.788284,132.48007
"3465",76.995804,132.49338
"3466",77.54757,132.50674
"3467",78.54612,132.52005
"3468",79.98413,132.53342
"3469",81.74929,132.54672
"3470",83.614555,132.56009
"3471",85.316246,132.5734
"3472",86.62974,132.58676
"3473",87.43786,132.60007
"3474",87.728386,132.61343
"3475",87.569695,132.62674
"3476",87.07652,132.6401
"3477",86.380714,132.65341
"3478",85.60433,132.66678
"3479",84.83528,132.68008
"3480",84.1297,132.69345
"3481",83.50225,132.70676
"3482",82.95781,132.72012
"3483",82.496376,132.73343
"3484",82.125275,132.7468
"3485",81.85672,132.7601
"3486",81.7029,132.77347
"3487",81.66384,132.78677
"3488",81.71023,132.80014
"3489",81.80057,132.81345
"3490",81.87869,132.82681
"3491",81.89578,132.84012
"3492",81.81766,132.85349
"3493",81.62966,132.86679
"3494",81.33425,132.88016
"3495",80.95094,132.89346
"3496",80.51148,132.90683
"3497",80.03784,132.92014
"3498",79.55932,132.9335
"3499",79.09056,132.94681
"3500",78.65354,132.96017
"3501",78.25559,132.97348
"3502",77.908905,132.98685
"3503",77.61593,133.00015
"3504",77.38155,133.01352
"3505",77.20088,133.02682
"3506",77.07149,133.04019
"3507",76.98848,133.0535
"3508",76.944534,133.06686
"3509",76.927444,133.08017
"3510",76.929886,133.09354
"3511",76.93965,133.10684
"3512",76.94942,133.12021
"3513",76.94942,133.13351
"3514",76.93965,133.14688
"3515",76.91524,133.16019
"3516",76.87129,133.17355
"3517",76.805374,133.18686
"3518",76.72968,133.20023
"3519",76.64423,133.21353
"3520",76.5539,133.2269
"3521",76.46601,133.2402
"3522",76.38056,133.25357
"3523",76.29023,133.26688
"3524",76.19745,133.28024
"3525",76.09735,133.29355
"3526",75.99725,133.30692
"3527",75.90204,133.32022
"3528",75.81659,133.33359
"3529",75.76532,133.3469
"3530",75.79706,133.36026
"3531",76.03143,133.37357
"3532",76.60517,133.38693
"3533",77.63058,133.40024
"3534",79.11986,133.4136
"3535",80.97536,133.42691
"3536",82.97978,133.44028
"3537",84.859695,133.45358
"3538",86.37095,133.46695
"3539",87.37194,133.48026
"3540",87.835815,133.49362
"3541",87.8114,133.50693
"3542",87.40856,133.5203
"3543",86.75914,133.5336
"3544",85.977875,133.54697
"3545",85.16731,133.56027
"3546",84.38361,133.57364
"3547",83.6585,133.58694
"3548",83.004196,133.60031
"3549",82.42802,133.61362
"3550",81.94461,133.62698
"3551",81.57351,133.64029
"3552",81.341576,133.65366
"3553",81.24635,133.66696
"3554",81.270775,133.68033
"3555",81.36355,133.69363
"3556",81.47585,133.707
"3557",81.54665,133.7203
"3558",81.53445,133.73367
"3559",81.41238,133.74698
"3560",81.17067,133.76035
"3561",80.82399,133.77365
"3562",80.394295,133.78702
"3563",79.91821,133.80032
"3564",79.429924,133.81369
"3565",78.95384,133.827
"3566",78.5095,133.84036
"3567",78.101776,133.85367
"3568",77.74044,133.86703
"3569",77.4255,133.88034
"3570",77.16426,133.8937
"3571",76.95674,133.90701
"3572",76.81514,133.92038
"3573",76.732124,133.93369
"3574",76.700386,133.94705
"3575",76.70527,133.96036
"3576",76.734566,133.97372
"3577",76.76875,133.98703
"3578",76.80049,134.0004
"3579",76.82979,134.0137
"3580",76.859085,134.02707
"3581",76.88106,134.04037
"3582",76.90059,134.05374
"3583",76.912796,134.06705
"3584",76.910355,134.08041
"3585",76.895706,134.09372
"3586",76.86885,134.10709
"3587",76.839554,134.12039
"3588",76.80049,134.13376
"3589",76.76143,134.14706
"3590",76.717476,134.16043
"3591",76.66865,134.17374
"3592",76.610054,134.1871
"3593",76.53681,134.20041
"3594",76.453804,134.21378
"3595",76.36103,134.22708
"3596",76.29267,134.24045
"3597",76.33906,134.25375
"3598",76.654,134.26712
"3599",77.383995,134.28043
"3600",78.60227,134.2938
"3601",80.272224,134.3071
"3602",82.21805,134.32047
"3603",84.16388,134.33377
"3604",85.83139,134.34714
"3605",87.01793,134.36044
"3606",87.65026,134.37381
"3607",87.743034,134.38712
"3608",87.39391,134.40048
"3609",86.727394,134.41379
"3610",85.88266,134.42715
"3611",84.972,134.44046
"3612",84.09552,134.45383
"3613",83.299614,134.46713
"3614",82.61112,134.4805
"3615",82.03006,134.4938
"3616",81.55886,134.50717
"3617",81.21217,134.52048
"3618",81.007095,134.53384
"3619",80.955826,134.54715
"3620",81.0486,134.56052
"3621",81.24635,134.57382
"3622",81.4905,134.58719
"3623",81.71755,134.6005
"3624",81.87381,134.61386
"3625",81.91287,134.62717
"3626",81.80789,134.64053
"3627",81.5613,134.65384
"3628",81.18776,134.6672
"3629",80.71656,134.68051
"3630",80.19165,134.69388
"3631",79.64721,134.70718
"3632",79.11253,134.72055
"3633",78.60227,134.73386
"3634",78.1384,134.74722
"3635",77.72579,134.76053
"3636",77.37911,134.7739
"3637",77.10811,134.7872
"3638",76.92012,134.80057
"3639",76.807816,134.81387
"3640",76.76631,134.82724
"3641",76.77852,134.84055
"3642",76.824905,134.85391
"3643",76.88838,134.86722
"3644",76.94942,134.88058
"3645",77.00069,134.89389
"3646",77.03487,134.90726
"3647",77.0544,134.92056
"3648",77.05928,134.93393
"3649",77.0544,134.94724
"3650",77.03731,134.9606
"3651",77.01289,134.9739
"3652",76.97627,134.98727
"3653",76.927444,135.00058
"3654",76.86641,135.01395
"3655",76.80049,135.02725
"3656",76.72724,135.04062
"3657",76.646675,135.05392
"3658",76.56367,135.06729
"3659",76.48798,135.0806
"3660",76.46601,135.09396
"3661",76.612495,135.10727
"3662",77.07881,135.12064
"3663",77.98703,135.13394
"3664",79.378654,135.14731
"3665",81.17067,135.16061
"3666",83.15556,135.17398
"3667",85.05989,135.18729
"3668",86.62241,135.20065
"3669",87.67712,135.21396
"3670",88.17761,135.22733
"3671",88.16052,135.24063
"3672",87.73815,135.254
"3673",87.027695,135.2673
"3674",86.1561,135.28067
"3675",85.22102,135.29398
"3676",84.30549,135.30734
"3677",83.46075,135.32065
"3678",82.718544,135.33401
"3679",82.09354,135.34732
"3680",81.59548,135.36069
"3681",81.231705,135.374
"3682",81.00221,135.38736
"3683",80.91188,135.40067
"3684",80.9485,135.41403
"3685",81.08034,135.42734
"3686",81.25613,135.4407
"3687",81.409935,135.45401
"3688",81.48318,135.46738
"3689",81.43191,135.48068
"3690",81.24147,135.49405
"3691",80.919205,135.50735
"3692",80.49439,135.52072
"3693",80.00122,135.53403
"3694",79.47143,135.5474
"3695",78.941635,135.5607
"3696",78.42649,135.57407
"3697",77.95041,135.58737
"3698",77.53048,135.60074
"3699",77.17403,135.61404
"3700",76.89082,135.62741
"3701",76.67841,135.64072
"3702",76.53193,135.65408
"3703",76.44404,135.66739
"3704",76.404976,135.68076
"3705",76.39521,135.69406
"3706",76.41474,135.70743
"3707",76.456245,135.72073
"3708",76.507515,135.7341
"3709",76.56367,135.7474
"3710",76.62226,135.76077
"3711",76.67353,135.77408
"3712",76.71259,135.78745
"3713",76.73701,135.80075
"3714",76.74677,135.81412
"3715",76.74677,135.82742
"3716",76.734566,135.84079
"3717",76.71259,135.8541
"3718",76.68818,135.86746
"3719",76.65888,135.88077
"3720",76.63447,135.89413
"3721",76.610054,135.90744
"3722",76.58564,135.9208
"3723",76.561226,135.93411
"3724",76.53193,135.94748
"3725",76.49775,135.96078
"3726",76.49287,135.97415
"3727",76.60761,135.98746
"3728",76.99092,136.00082
"3729",77.79904,136.01413
"3730",79.10765,136.0275
"3731",80.885025,136.0408
"3732",82.95781,136.05417
"3733",85.04768,136.06747
"3734",86.869,136.08084
"3735",88.21179,136.09415
"3736",88.98573,136.10751
"3737",89.20302,136.12082
"3738",88.94911,136.13419
"3739",88.34852,136.14749
"3740",87.52087,136.16086
"3741",86.573586,136.17416
"3742",85.59945,136.18753
"3743",84.661934,136.20084
"3744",83.792786,136.2142
"3745",83.00664,136.22751
"3746",82.32548,136.24088
"3747",81.761505,136.25418
"3748",81.339134,136.26755
"3749",81.08278,136.28085
"3750",80.99977,136.29422
"3751",81.06813,136.30753
"3752",81.24391,136.32089
"3753",81.45876,136.3342
"3754",81.64675,136.34756
"3755",81.74929,136.36087
"3756",81.7322,136.37424
"3757",81.57839,136.38754
"3758",81.287865,136.40091
"3759",80.88991,136.41422
"3760",80.411385,136.42758
"3761",79.90112,136.44089
"3762",79.38842,136.45425
"3763",78.89769,136.46756
"3764",78.4387,136.48093
"3765",78.013885,136.49423
"3766",77.61837,136.5076
"3767",77.24727,136.5209
"3768",76.912796,136.53427
"3769",76.627144,136.54758
"3770",76.40009,136.56094
"3771",76.23651,136.57425
"3772",76.13153,136.58762
"3773",76.070496,136.60092
"3774",76.036316,136.61429
"3775",76.02167,136.6276
"3776",76.019226,136.64096
"3777",76.02167,136.65427
"3778",76.02899,136.66763
"3779",76.03143,136.68094
"3780",76.02411,136.6943
"3781",76.00458,136.70761
"3782",75.96796,136.72098
"3783",75.91913,136.73428
"3784",75.85809,136.74765
"3785",75.78241,136.76096
"3786",75.69207,136.77432
"3787",75.58953,136.78763
"3788",75.48211,136.801
"3789",75.37957,136.8143
"3790",75.301445,136.82767
"3791",75.32342,136.84097
"3792",75.57,136.85434
"3793",76.17059,136.86765
"3794",77.20332,136.88101
"3795",78.6511,136.89432
"3796",80.36988,136.90768
"3797",82.127716,136.92099
"3798",83.66094,136.93436
"3799",84.77913,136.94766
"3800",85.401695,136.96103
"3801",85.538414,136.97433
"3802",85.27718,136.9877
"3803",84.73029,137.001
"3804",84.000305,137.01437
"3805",83.18486,137.02768
"3806",82.354774,137.04105
"3807",81.55886,137.05435
"3808",80.816666,137.06772
"3809",80.13794,137.08102
"3810",79.52514,137.09439
"3811",78.995346,137.1077
"3812",78.58518,137.12106
"3813",78.34104,137.13437
"3814",78.2971,137.14774
"3815",78.44846,137.16104
"3816",78.74876,137.17441
"3817",79.11742,137.18771
"3818",79.46899,137.20108
"3819",79.73022,137.21439
"3820",79.86206,137.22775
"3821",79.84985,137.24106
"3822",79.70092,137.25443
"3823",79.43725,137.26773
"3824",79.093,137.2811
"3825",78.70481,137.2944
"3826",78.3093,137.30777
"3827",77.9382,137.32108
"3828",77.60372,137.33444
"3829",77.32052,137.34775
"3830",77.086136,137.36111
"3831",76.90303,137.37442
"3832",76.76387,137.38779
"3833",76.67353,137.4011
"3834",76.61738,137.41446
"3835",76.59785,137.42776
"3836",76.60517,137.44113
"3837",76.63935,137.45444
"3838",76.68574,137.4678
"3839",76.74433,137.48111
"3840",76.8127,137.49448
"3841",76.88106,137.50778
"3842",76.95186,137.52115
"3843",77.02022,137.53445
"3844",77.08125,137.54782
"3845",77.120316,137.56113
"3846",77.13985,137.5745
"3847",77.13985,137.5878
"3848",77.14717,137.60117
"3849",77.225296,137.61447
"3850",77.4963,137.62784
"3851",78.07492,137.64114
"3852",79.03197,137.65451
"3853",80.33326,137.66782
"3854",81.849396,137.68118
"3855",83.36553,137.69449
"3856",84.65949,137.70786
"3857",85.56527,137.72116
"3858",86.0267,137.73453
"3859",86.065765,137.74783
"3860",85.76303,137.7612
"3861",85.22835,137.7745
"3862",84.55695,137.78787
"3863",83.83917,137.80118
"3864",83.14336,137.81454
"3865",82.49882,137.82785
"3866",81.91043,137.84122
"3867",81.38064,137.85452
"3868",80.90456,137.86789
"3869",80.49439,137.8812
"3870",80.18921,137.89456
"3871",80.02319,137.90787
"3872",80.008545,137.92123
"3873",80.1355,137.93454
"3874",80.360115,137.9479
"3875",80.621346,137.96121
"3876",80.850845,137.97458
"3877",80.99245,137.98788
"3878",81.01686,138.00125
"3879",80.919205,138.01456
"3880",80.70435,138.02792
"3881",80.39918,138.04123
"3882",80.0354,138.0546
"3883",79.63744,138.0679
"3884",79.219955,138.08127
"3885",78.80736,138.09457
"3886",78.40452,138.10794
"3887",78.01877,138.12125
"3888",77.67696,138.13461
"3889",77.40353,138.14792
"3890",77.20088,138.16129
"3891",77.07149,138.17459
"3892",77.00557,138.18796
"3893",76.99336,138.20126
"3894",77.02022,138.21463
"3895",77.083694,138.22794
"3896",77.1667,138.2413
"3897",77.264366,138.25461
"3898",77.35958,138.26797
"3899",77.44015,138.28128
"3900",77.51827,138.29465
"3901",77.65499,138.30795
"3902",77.95529,138.32132
"3903",78.521706,138.33463
"3904",79.41039,138.34799
"3905",80.57496,138.3613
"3906",81.8909,138.37466
"3907",83.16289,138.38797
"3908",84.19806,138.40134
"3909",84.86214,138.41464
"3910",85.12337,138.42801
"3911",85.02083,138.44131
"3912",84.63752,138.45468
"3913",84.068665,138.46799
"3914",83.404594,138.48135
"3915",82.7161,138.49466
"3916",82.056915,138.50803
"3917",81.43679,138.52133
"3918",80.87038,138.5347
"3919",80.36256,138.548
"3920",79.92798,138.56137
"3921",79.59594,138.57468
"3922",79.40307,138.58804
"3923",79.37377,138.60135
"3924",79.50317,138.61472
"3925",79.764404,138.62802
"3926",80.10132,138.64139
"3927",80.44312,138.6547
"3928",80.726326,138.66806
"3929",80.90944,138.68137
"3930",80.96315,138.69473
"3931",80.88747,138.70804
"3932",80.70191,138.7214
"3933",80.43824,138.73471
"3934",80.13306,138.74808
"3935",79.815674,138.76138
"3936",79.51537,138.77475
"3937",79.23216,138.78806
"3938",78.97337,138.80142
"3939",78.73655,138.81473
"3940",78.52659,138.8281
"3941",78.345924,138.8414
"3942",78.19699,138.85477
"3943",78.08957,138.86807
"3944",78.02609,138.88144
"3945",77.996796,138.89474
"3946",77.996796,138.90811
"3947",78.02121,138.92142
"3948",78.05539,138.93478
"3949",78.09689,138.94809
"3950",78.150604,138.96146
"3951",78.23605,138.97476
"3952",78.4387,138.98813
"3953",78.853745,139.00143
"3954",79.55932,139.0148
"3955",80.56031,139.0281
"3956",81.78348,139.04147
"3957",83.06523,139.05478
"3958",84.207825,139.06815
"3959",85.04524,139.08145
"3960",85.49935,139.09482
"3961",85.57015,139.10812
"3962",85.32357,139.12149
"3963",84.84505,139.1348
"3964",84.224915,139.14816
"3965",83.543755,139.16147
"3966",82.862595,139.17484
"3967",82.22537,139.18814
"3968",81.64919,139.2015
"3969",81.14137,139.21481
"3970",80.70191,139.22818
"3971",80.34058,139.24149
"3972",80.076904,139.25485
"3973",79.9353,139.26816
"3974",79.93286,139.28152
"3975",80.05493,139.29483
"3976",80.26246,139.3082
"3977",80.499275,139.3215
"3978",80.69947,139.33487
"3979",80.82155,139.34818
"3980",80.84596,139.36154
"3981",80.7776,139.37485
"3982",80.63111,139.38821
"3983",80.41627,139.40152
"3984",80.15015,139.41489
"3985",79.852295,139.42819
"3986",79.537346,139.44156
"3987",79.217514,139.45486
"3988",78.91234,139.46823
"3989",78.63401,139.48154
"3990",78.38987,139.4949
"3991",78.17258,139.50821
"3992",77.98703,139.52158
"3993",77.840546,139.53488
"3994",77.733116,139.54825
"3995",77.67208,139.56155
"3996",77.65499,139.57492
"3997",77.67452,139.58823
"3998",77.72335,139.6016
"3999",77.789276,139.6149
"4000",77.86008,139.62827
"4001",77.93088,139.64157
"4002",77.98947,139.65494
"4003",78.04074,139.66824
"4004",78.101776,139.68161
"4005",78.24338,139.69492
"4006",78.5803,139.70828
"4007",79.21019,139.72159
"4008",80.16235,139.73495
"4009",81.373314,139.74826
"4010",82.68925,139.76163
"4011",83.90509,139.77493
"4012",84.8304,139.7883
"4013",85.36996,139.8016
"4014",85.51644,139.81497
"4015",85.32845,139.82828
"4016",84.893875,139.84164
"4017",84.30793,139.85495
"4018",83.65362,139.86832
"4019",82.99443,139.88162
"4020",82.371864,139.89499
"4021",81.79813,139.9083
"4022",81.28054,139.92166
"4023",80.81911,139.93497
"4024",80.430916,139.94833
"4025",80.15015,139.96164
"4026",80.00122,139.975
"4027",80.00366,139.98831
"4028",80.15259,140.00168
"4029",80.40406,140.01498
"4030",80.69703,140.02835
"4031",80.96559,140.04166
"4032",81.160904,140.05502
"4033",81.24635,140.06833
"4034",81.214615,140.0817
"4035",81.07301,140.095
"4036",80.84596,140.10837
"4037",80.55787,140.12167
"4038",80.23071,140.13504
"4039",79.8938,140.14835
"4040",79.554436,140.16171
"4041",79.22728,140.17502
"4042",78.91478,140.18839
"4043",78.6218,140.20169
"4044",78.36057,140.21506
"4045",78.135956,140.22836
"4046",77.94797,140.24173
"4047",77.7966,140.25504
"4048",77.679405,140.2684
"4049",77.60616,140.28171
"4050",77.57931,140.29507
"4051",77.60128,140.30838
"4052",77.662315,140.32175
"4053",77.747765,140.33505
"4054",77.83078,140.34842
"4055",77.89426,140.36172
"4056",77.925995,140.37509
"4057",77.9382,140.3884
"4058",77.98459,140.40176
"4059",78.15549,140.41507
"4060",78.56077,140.42844
"4061",79.281,140.44174
"4062",80.306404,140.45511
"4063",81.53933,140.46841
"4064",82.79912,140.48178
"4065",83.88556,140.49509
"4066",84.647285,140.50845
"4067",85.02083,140.52176
"4068",85.03548,140.53513
"4069",84.76204,140.54843
"4070",84.28596,140.5618
"4071",83.69268,140.5751
"4072",83.04326,140.58847
"4073",82.39872,140.60178
"4074",81.78836,140.61514
"4075",81.22438,140.62845
"4076",80.71656,140.64182
"4077",80.28199,140.65512
"4078",79.937744,140.66849
"4079",79.72045,140.6818
"4080",79.65453,140.69516
"4081",79.74731,140.70847
"4082",79.97925,140.72183
"4083",80.29908,140.73514
"4084",80.62867,140.7485
"4085",80.90944,140.76181
"4086",81.0901,140.77518
"4087",81.1487,140.78848
"4088",81.08766,140.80185
"4089",80.92653,140.81516
"4090",80.68726,140.82852
"4091",80.394295,140.84183
"4092",80.06958,140.8552
"4093",79.727776,140.8685
"4094",79.38598,140.88187
"4095",79.063705,140.89517
"4096",78.76341,140.90854
"4097",78.49241,140.92184
"4098",78.260475,140.93521
"4099",78.07736,140.94852
"4100",77.93576,140.96188
"4101",77.84299,140.97519
"4102",77.789276,140.98856
"4103",77.77219,141.00186
"4104",77.769745,141.01523
"4105",77.78195,141.02853
"4106",77.79904,141.0419
"4107",77.8259,141.0552
"4108",77.872284,141.06857
"4109",77.98947,141.08188
"4110",78.27024,141.09525
"4111",78.8098,141.10855
"4112",79.6643,141.12192
"4113",80.80934,141.13522
"4114",82.12039,141.14859
"4115",83.421684,141.1619
"4116",84.51545,141.17526
"4117",85.262535,141.18857
"4118",85.6141,141.20193
"4119",85.59701,141.21524
"4120",85.28695,141.2286
"4121",84.771805,141.24191
"4122",84.13458,141.25528
"4123",83.44854,141.26859
"4124",82.76494,141.28195
"4125",82.108185,141.29526
"4126",81.495384,141.30862
"4127",80.938736,141.32193
"4128",80.46021,141.3353
"4129",80.08911,141.3486
"4130",79.85962,141.36197
"4131",79.79126,141.37527
"4132",79.888916,141.38864
"4133",80.113525,141.40195
"4134",80.40894,141.41531
"4135",80.70191,141.42862
"4136",80.936295,141.44199
"4137",81.06569,141.45529
"4138",81.06813,141.46866
"4139",80.95094,141.48196
"4140",80.73609,141.49533
"4141",80.45045,141.50864
"4142",80.12573,141.522
"4143",79.783936,141.53531
"4144",79.44457,141.54868
"4145",79.11986,141.56198
"4146",78.82201,141.57535
"4147",78.55833,141.58865
"4148",78.3386,141.60202
"4149",78.15793,141.61533
"4150",78.01877,141.6287
"4151",77.91135,141.642
"4152",77.84299,141.65536
"4153",77.806366,141.66867
"4154",77.80148,141.68204
"4155",77.8259,141.69534
"4156",77.86496,141.70871
"4157",77.91135,141.72202
"4158",77.94064,141.73538
"4159",77.95529,141.74869
"4160",77.945526,141.76205
"4161",77.91623,141.77536
"4162",77.874725,141.78873
"4163",77.8259,141.80203
"4164",77.81125,141.8154
"4165",77.91623,141.8287
"4166",78.2678,141.84207
"4167",78.96605,141.85538
"4168",80.042725,141.86874
"4169",81.41482,141.88205
"4170",82.91142,141.89542
"4171",84.30793,141.90872
"4172",85.40658,141.92209
"4173",86.08774,141.9354
"4174",86.33433,141.94876
"4175",86.19272,141.96207
"4176",85.73861,141.97543
"4177",85.067215,141.98874
"4178",84.281075,142.0021
"4179",83.475395,142.01541
"4180",82.718544,142.02878
"4181",82.037384,142.04208
"4182",81.44167,142.05545
"4183",80.93141,142.06876
"4184",80.516365,142.08212
"4185",80.218506,142.09543
"4186",80.06958,142.1088
"4187",80.08423,142.1221
"4188",80.24536,142.13547
"4189",80.49195,142.14877
"4190",80.76051,142.16214
"4191",80.987564,142.17545
"4192",81.13161,142.18881
"4193",81.17067,142.20212
"4194",81.09743,142.21548
"4195",80.92409,142.22879
"4196",80.66773,142.24216
"4197",80.35279,142.25546
"4198",80.00366,142.26883
"4199",79.639885,142.28214
"4200",79.273674,142.2955
"4201",78.91478,142.3088
"4202",78.57053,142.32217
"4203",78.25315,142.33548
"4204",77.97238,142.34885
"4205",77.73556,142.36215
"4206",77.54757,142.37552
"4207",77.420616,142.38882
"4208",77.347374,142.40219
"4209",77.32052,142.4155
"4210",77.332726,142.42886
"4211",77.36935,142.44217
"4212",77.418175,142.45554
"4213",77.467,142.46884
"4214",77.50851,142.48221
"4215",77.54269,142.49551
"4216",77.57198,142.50888
"4217",77.58663,142.52219
"4218",77.58907,142.53555
"4219",77.574425,142.54886
"4220",77.54269,142.56223
"4221",77.49142,142.57553
"4222",77.418175,142.5889
"4223",77.32784,142.6022
"4224",77.24483,142.61557
"4225",77.24483,142.62888
"4226",77.44503,142.64224
"4227",77.98215,142.65555
"4228",78.93431,142.66891
"4229",80.26978,142.68222
"4230",81.83963,142.69559
"4231",83.424126,142.7089
"4232",84.78401,142.72226
"4233",85.75815,142.73557
"4234",86.2855,142.74893
"4235",86.39048,142.76224
"4236",86.14389,142.7756
"4237",85.63851,142.78891
"4238",84.972,142.80228
"4239",84.22247,142.81558
"4240",83.458305,142.82895
"4241",82.71366,142.84225
"4242",82.003204,142.85562
"4243",81.34402,142.86893
"4244",80.75807,142.8823
"4245",80.28199,142.8956
"4246",79.95972,142.90897
"4247",79.83032,142.92227
"4248",79.8938,142.93564
"4249",80.12329,142.94894
"4250",80.462654,142.96231
"4251",80.833755,142.97562
"4252",81.15846,142.98898
"4253",81.3782,143.00229
"4254",81.463646,143.01566
"4255",81.40017,143.02896
"4256",81.20241,143.04233
"4257",80.89967,143.05563
"4258",80.52125,143.069
"4259",80.08911,143.0823
"4260",79.63256,143.09567
"4261",79.17357,143.10898
"4262",78.73411,143.12234
"4263",78.32639,143.13565
"4264",77.962616,143.14902
"4265",77.64767,143.16232
"4266",77.38155,143.17569
"4267",77.1667,143.189
"4268",76.99336,143.20236
"4269",76.87129,143.21567
"4270",76.79561,143.22903
"4271",76.76387,143.24234
"4272",76.75899,143.2557
"4273",76.773636,143.26901
"4274",76.78584,143.28238
"4275",76.788284,143.29568
"4276",76.77608,143.30905
"4277",76.75166,143.32236
"4278",76.72236,143.33572
"4279",76.680855,143.34903
"4280",76.63935,143.3624
"4281",76.65156,143.3757
"4282",76.824905,143.38907
"4283",77.2839,143.40237
"4284",78.118866,143.41574
"4285",79.32006,143.42905
"4286",80.77516,143.44241
"4287",82.286415,143.45572
"4288",83.631645,143.46909
"4289",84.63264,143.48239
"4290",85.21126,143.49576
"4291",85.382164,143.50906
"4292",85.206375,143.52243
"4293",84.76692,143.53574
"4294",84.159,143.5491
"4295",83.46563,143.56241
"4296",82.75273,143.57578
"4297",82.054474,143.58908
"4298",81.39773,143.60245
"4299",80.79469,143.61575
"4300",80.26978,143.62912
"4301",79.852295,143.64243
"4302",79.57641,143.65579
"4303",79.48119,143.6691
"4304",79.5642,143.68246
"4305",79.801025,143.69577
"4306",80.128174,143.70914
"4307",80.46998,143.72244
"4308",80.75807,143.73581
"4309",80.94362,143.74911
"4310",80.99733,143.76248
"4311",80.91432,143.77579
"4312",80.709236,143.78915
"4313",80.40406,143.80246
"4314",80.025635,143.81583
"4315",79.60815,143.82913
"4316",79.17601,143.8425
"4317",78.751205,143.8558
"4318",78.34348,143.86917
"4319",77.95773,143.88248
"4320",77.59884,143.89584
"4321",77.27657,143.90915
"4322",76.998245,143.92252
"4323",76.77852,143.93582
"4324",76.629585,143.94919
"4325",76.5539,143.9625
"4326",76.53437,143.97586
"4327",76.56367,143.98917
"4328",76.61982,144.00253
"4329",76.69306,144.01584
"4330",76.771194,144.0292
"4331",76.84932,144.04251
"4332",76.910355,144.05588
"4333",76.9543,144.06918
"4334",76.97383,144.08255
"4335",76.96895,144.09586
"4336",76.95186,144.10922
"4337",76.929886,144.12253
"4338",76.927444,144.1359
"4339",77.0251,144.1492
"4340",77.35226,144.16257
"4341",78.03342,144.17587
"4342",79.12962,144.18924
"4343",80.601814,144.20255
"4344",82.29862,144.21591
"4345",83.99054,144.22922
"4346",85.43832,144.24258
"4347",86.47105,144.25589
"4348",87.030136,144.26926
"4349",87.14244,144.28256
"4350",86.88121,144.29593
"4351",86.346535,144.30923
"4352",85.63851,144.3226
"4353",84.84505,144.3359
"4354",84.03937,144.34927
"4355",83.27032,144.36258
"4356",82.55985,144.37595
"4357",81.92752,144.38925
"4358",81.3904,144.40262
"4359",80.972916,144.41592
"4360",80.69215,144.42929
"4361",80.570076,144.4426
"4362",80.61158,144.45596
"4363",80.78493,144.46927
"4364",81.03395,144.48264
"4365",81.28054,144.49594
"4366",81.45632,144.50931
"4367",81.512474,144.52261
"4368",81.4197,144.53598
"4369",81.18288,144.54929
"4370",80.83864,144.56265
"4371",80.41871,144.57596
"4372",79.9646,144.58932
"4373",79.4934,144.60263
"4374",79.03197,144.616
"4375",78.58518,144.6293
"4376",78.170135,144.64267
"4377",77.7966,144.65598
"4378",77.471886,144.66934
"4379",77.20088,144.68265
"4380",76.981155,144.69601
"4381",76.805374,144.70932
"4382",76.66865,144.72269
"4383",76.56855,144.736
"4384",76.507515,144.74936
"4385",76.4831,144.76266
"4386",76.49287,144.77603
"4387",76.53193,144.78934
"4388",76.592964,144.8027
"4389",76.67353,144.81601
"4390",76.76387,144.82938
"4391",76.86153,144.84268
"4392",76.95674,144.85605
"4393",77.04219,144.86935
"4394",77.10567,144.88272
"4395",77.137405,144.89603
"4396",77.137405,144.9094
"4397",77.103226,144.9227
"4398",77.04707,144.93607
"4399",76.978714,144.94937
"4400",76.93477,144.96274
"4401",77.01045,144.97604
"4402",77.34249,144.98941
"4403",78.065155,145.00272
"4404",79.24437,145.01608
"4405",80.833755,145.02939
"4406",82.652626,145.04276
"4407",84.45197,145.05606
"4408",85.97543,145.06943
"4409",87.04967,145.08273
"4410",87.603874,145.0961
"4411",87.66735,145.1094
"4412",87.32311,145.12277
"4413",86.68589,145.13608
"4414",85.87778,145.14944
"4415",84.99153,145.16275
"4416",84.10773,145.17612
"4417",83.267876,145.18942
"4418",82.49149,145.20279
"4419",81.7908,145.2161
"4420",81.18532,145.22946
"4421",80.70435,145.24277
"4422",80.37965,145.25613
"4423",80.23071,145.26944
"4424",80.26246,145.2828
"4425",80.44068,145.29611
"4426",80.71168,145.30948
"4427",81.01198,145.32278
"4428",81.27322,145.33615
"4429",81.43679,145.34946
"4430",81.47097,145.36282
"4431",81.373314,145.37613
"4432",81.1487,145.3895
"4433",80.82399,145.4028
"4434",80.43824,145.41617
"4435",80.01587,145.42947
"4436",79.58373,145.44284
"4437",79.15648,145.45615
"4438",78.751205,145.46951
"4439",78.37522,145.48282
"4440",78.03586,145.49619
"4441",77.733116,145.50949
"4442",77.471886,145.52286
"4443",77.25704,145.53616
"4444",77.09102,145.54953
"4445",76.978714,145.56284
"4446",76.912796,145.5762
"4447",76.893265,145.58951
"4448",76.90547,145.60287
"4449",76.93233,145.61618
"4450",76.96895,145.62955
"4451",77.01045,145.64285
"4452",77.0544,145.65622
"4453",77.09346,145.66953
"4454",77.12764,145.68289
"4455",77.14473,145.6962
"4456",77.137405,145.70956
"4457",77.09346,145.72287
"4458",77.00801,145.73624
"4459",76.87373,145.74954
"4460",76.715034,145.76291
"4461",76.60517,145.77621
"4462",76.680855,145.78958
"4463",77.0959,145.80289
"4464",77.94797,145.81625
"4465",79.23949,145.82956
"4466",80.848404,145.84293
"4467",82.545204,145.85623
"4468",84.08087,145.8696
"4469",85.24788,145.8829
"4470",85.95346,145.89627
"4471",86.185394,145.90958
"4472",85.99985,145.92294
"4473",85.49691,145.93625
"4474",84.78645,145.94962
"4475",83.963684,145.96292
"4476",83.1165,145.97629
"4477",82.29374,145.9896
"4478",81.52224,146.00296
"4479",80.831314,146.01627
"4480",80.235596,146.02963
"4481",79.76929,146.04294
"4482",79.466545,146.0563
"4483",79.35668,146.06961
"4484",79.43969,146.08298
"4485",79.68871,146.09628
"4486",80.042725,146.10965
