"","ppg","time"
"1",79.06859,72.87149
"2",79.0515,72.88483
"3",79.03685,72.89815
"4",79.01732,72.91148
"5",79.00755,72.92482
"6",79.05882,72.93814
"7",79.24681,72.95148
"8",79.65942,72.96481
"9",80.33326,72.97815
"10",81.23903,72.991486
"11",82.262,73.00481
"12",83.23613,73.01814
"13",83.99298,73.03148
"14",84.43488,73.0448
"15",84.54475,73.058136
"16",84.368965,73.07147
"17",83.99542,73.08481
"18",83.51934,73.098145
"19",83.021286,73.111465
"20",82.55741,73.1248
"21",82.16434,73.13814
"22",81.849396,73.15146
"23",81.60769,73.164795
"24",81.409935,73.17813
"25",81.23903,73.19147
"26",81.08522,73.2048
"27",80.953384,73.218124
"28",80.848404,73.23146
"29",80.77516,73.2448
"30",80.73365,73.25812
"31",80.719,73.271454
"32",80.71412,73.28479
"33",80.70435,73.29813
"34",80.672615,73.31146
"35",80.61158,73.32478
"36",80.52125,73.33812
"37",80.40162,73.351456
"38",80.26246,73.36478
"39",80.111084,73.37811
"40",79.95972,73.39145
"41",79.80591,73.404785
"42",79.65942,73.41812
"43",79.517815,73.43144
"44",79.38842,73.44478
"45",79.26879,73.458115
"46",79.15648,73.471436
"47",79.05638,73.48477
"48",78.96605,73.49811
"49",78.887924,73.511444
"50",78.82445,73.52478
"51",78.77074,73.5381
"52",78.729225,73.55144
"53",78.70725,73.56477
"54",78.69749,73.578094
"55",78.70237,73.59143
"56",78.71946,73.60477
"57",78.751205,73.6181
"58",78.78783,73.63144
"59",78.82201,73.64476
"60",78.84886,73.6581
"61",78.86107,73.67143
"62",78.856186,73.68475
"63",78.83177,73.69809
"64",78.79515,73.711426
"65",78.751205,73.72476
"66",78.70237,73.7381
"67",78.66575,73.75142
"68",78.69016,73.764755
"69",78.84886,73.77809
"70",79.2224,73.79141
"71",79.852295,73.80475
"72",80.70435,73.818085
"73",81.671165,73.83142
"74",82.59403,73.84476
"75",83.32403,73.85808
"76",83.756165,73.871414
"77",83.86847,73.88475
"78",83.71465,73.89807
"79",83.370415,73.91141
"80",82.92119,73.92474
"81",82.43778,73.93808
"82",81.97391,73.951416
"83",81.55642,73.96474
"84",81.197525,73.97807
"85",80.89235,73.99141
"86",80.638435,74.00473
"87",80.428474,74.01807
"88",80.2649,74.0314
"89",80.15991,74.04474
"90",80.11841,74.058075
"91",80.13794,74.071396
"92",80.20874,74.08473
"93",80.31129,74.09807
"94",80.411385,74.11139
"95",80.48707,74.124725
"96",80.52613,74.13806
"97",80.516365,74.1514
"98",80.465096,74.164734
"99",80.377205,74.178055
"100",80.26002,74.19139
"101",80.12329,74.20473
"102",79.96948,74.21805
"103",79.81079,74.231384
"104",79.65209,74.24472
"105",79.50317,74.25806
"106",79.36889,74.27139
"107",79.24681,74.28471
"108",79.13451,74.29805
"109",79.03685,74.311386
"110",78.94408,74.32471
"111",78.85863,74.33804
"112",78.79027,74.35138
"113",78.73411,74.364716
"114",78.69749,74.37805
"115",78.67063,74.39137
"116",78.66331,74.40471
"117",78.66819,74.418045
"118",78.68284,74.431366
"119",78.69993,74.4447
"120",78.71946,74.45804
"121",78.73411,74.471375
"122",78.746315,74.48471
"123",78.74876,74.49803
"124",78.74387,74.51137
"125",78.73167,74.524704
"126",78.709694,74.538025
"127",78.677956,74.55136
"128",78.64866,74.5647
"129",78.65598,74.57803
"130",78.76097,74.59137
"131",79.05882,74.60469
"132",79.60815,74.61803
"133",80.413826,74.63136
"134",81.39529,74.644684
"135",82.41337,74.65802
"136",83.29473,74.67136
"137",83.90753,74.68469
"138",84.18829,74.69803
"139",84.16388,74.71135
"140",83.90021,74.724686
"141",83.48272,74.73802
"142",82.99687,74.75134
"143",82.513466,74.76468
"144",82.06424,74.778015
"145",81.66628,74.79135
"146",81.3196,74.80469
"147",81.01442,74.81801
"148",80.740974,74.831345
"149",80.50416,74.84468
"150",80.31129,74.858
"151",80.19165,74.87134
"152",80.15259,74.884674
"153",80.19409,74.89801
"154",80.29908,74.91135
"155",80.44068,74.92467
"156",80.5774,74.938
"157",80.6775,74.95134
"158",80.723885,74.96466
"159",80.69947,74.978
"160",80.61402,74.99133
"161",80.48707,75.00467
"162",80.32838,75.018005
"163",80.15991,75.03133
"164",79.991455,75.04466
"165",79.83032,75.058
"166",79.674065,75.07132
"167",79.52758,75.084656
"168",79.38842,75.09799
"169",79.259026,75.11133
"170",79.14427,75.124664
"171",79.04173,75.137985
"172",78.9514,75.15132
"173",78.870834,75.16466
"174",78.79515,75.17798
"175",78.729225,75.191315
"176",78.6804,75.20465
"177",78.643776,75.21799
"178",78.61936,75.23132
"179",78.607155,75.244644
"180",78.60227,75.25798
"181",78.59983,75.27132
"182",78.59251,75.28464
"183",78.58274,75.29797
"184",78.57542,75.31131
"185",78.58762,75.324646
"186",78.66819,75.33798
"187",78.89281,75.3513
"188",79.33715,75.36464
"189",80.03296,75.377975
"190",80.94362,75.3913
"191",81.95438,75.40463
"192",82.91875,75.41797
"193",83.685356,75.431305
"194",84.15167,75.44464
"195",84.30305,75.45796
"196",84.17853,75.4713
"197",83.8465,75.484634
"198",83.38262,75.497955
"199",82.86992,75.51129
"200",82.3621,75.52463
"201",81.89334,75.537964
"202",81.480736,75.5513
"203",81.12428,75.56462
"204",80.81911,75.57796
"205",80.55787,75.59129
"206",80.35279,75.604614
"207",80.2063,75.61795
"208",80.130615,75.63129
"209",80.12573,75.64462
"210",80.18921,75.65796
"211",80.30152,75.67128
"212",80.42603,75.684616
"213",80.5359,75.69795
"214",80.604256,75.71127
"215",80.61646,75.72461
"216",80.56031,75.737946
"217",80.445564,75.75128
"218",80.289314,75.76462
"219",80.10864,75.77794
"220",79.90845,75.791275
"221",79.708244,75.80461
"222",79.51537,75.81793
"223",79.33227,75.83127
"224",79.15648,75.844604
"225",78.98558,75.85794
"226",78.82933,75.87128
"227",78.69016,75.8846
"228",78.56321,75.897934
"229",78.46067,75.91127
"230",78.37522,75.92459
"231",78.3093,75.93793
"232",78.25803,75.95126
"233",78.21896,75.9646
"234",78.187225,75.977936
"235",78.16037,75.99126
"236",78.135956,76.00459
"237",78.11154,76.01793
"238",78.08957,76.03125
"239",78.08957,76.044586
"240",78.170135,76.05792
"241",78.41428,76.07126
"242",78.907455,76.084595
"243",79.67895,76.097916
"244",80.67994,76.11125
"245",81.79324,76.12459
"246",82.847946,76.13791
"247",83.682915,76.151245
"248",84.2005,76.16458
"249",84.3885,76.17792
"250",84.2884,76.19125
"251",83.97101,76.204575
"252",83.52178,76.21791
"253",83.01396,76.23125
"254",82.511024,76.24457
"255",82.04227,76.257904
"256",81.62478,76.27124
"257",81.26345,76.28458
"258",80.95094,76.29791
"259",80.67506,76.31123
"260",80.43824,76.32457
"261",80.24048,76.337906
"262",80.096436,76.35123
"263",80.01587,76.36456
"264",80.00122,76.3779
"265",80.045166,76.391235
"266",80.12329,76.40457
"267",80.20874,76.41789
"268",80.26734,76.43123
"269",80.27711,76.444565
"270",80.23804,76.457886
"271",80.14526,76.47122
"272",80.00122,76.48456
"273",79.82056,76.497894
"274",79.62035,76.51123
"275",79.415276,76.52455
"276",79.217514,76.53789
"277",79.029526,76.55122
"278",78.856186,76.564545
"279",78.69749,76.57788
"280",78.54124,76.59122
"281",78.39475,76.60455
"282",78.26292,76.61789
"283",78.14328,76.63121
"284",78.04074,76.64455
"285",77.95773,76.65788
"286",77.891815,76.6712
"287",77.84299,76.68454
"288",77.80881,76.697876
"289",77.789276,76.71121
"290",77.77707,76.72455
"291",77.76242,76.73787
"292",77.747765,76.751205
"293",77.74288,76.76454
"294",77.7966,76.77786
"295",77.994354,76.7912
"296",78.42893,76.804535
"297",79.151596,76.81787
"298",80.13306,76.83121
"299",81.28054,76.84453
"300",82.425575,76.857864
"301",83.39727,76.8712
"302",84.07355,76.88452
"303",84.40559,76.89786
"304",84.420235,76.911194
"305",84.18585,76.92453
"306",83.78302,76.93787
"307",83.29473,76.95119
"308",82.78691,76.96452
"309",82.30595,76.97786
"310",81.87381,76.99118
"311",81.49294,77.00452
"312",81.16579,77.01785
"313",80.8777,77.03119
"314",80.62379,77.044525
"315",80.40894,77.057846
"316",80.25025,77.07118
"317",80.15503,77.08452
"318",80.128174,77.09784
"319",80.16235,77.111176
"320",80.233154,77.12451
"321",80.31373,77.13785
"322",80.37232,77.151184
"323",80.38697,77.164505
"324",80.35035,77.17784
"325",80.255135,77.19118
"326",80.10864,77.2045
"327",79.93042,77.217834
"328",79.73266,77.23117
"329",79.5227,77.24451
"330",79.31518,77.25784
"331",79.114975,77.271164
"332",78.924545,77.2845
"333",78.74387,77.29784
"334",78.57542,77.31116
"335",78.42649,77.32449
"336",78.28977,77.33783
"337",78.167694,77.351166
"338",78.06027,77.3645
"339",77.96994,77.37782
"340",77.89426,77.39116
"341",77.83322,77.404495
"342",77.789276,77.417816
"343",77.75754,77.43115
"344",77.73556,77.44449
"345",77.71847,77.457825
"346",77.70138,77.47116
"347",77.68185,77.48448
"348",77.66964,77.49782
"349",77.69161,77.511154
"350",77.81125,77.52449
"351",78.12619,77.53783
"352",78.712135,77.55116
"353",79.588615,77.5645
"354",80.69215,77.577835
"355",81.89578,77.59117
"356",83.02373,77.60451
"357",83.914856,77.61784
"358",84.47883,77.63118
"359",84.698555,77.644516
"360",84.61555,77.65785
"361",84.30793,77.67119
"362",83.86359,77.684525
"363",83.36797,77.69786
"364",82.87724,77.7112
"365",82.425575,77.72453
"366",82.03006,77.73787
"367",81.685814,77.751205
"368",81.38308,77.76454
"369",81.1194,77.77788
"370",80.88991,77.791214
"371",80.706795,77.80455
"372",80.57984,77.81789
"373",80.516365,77.83122
"374",80.516365,77.84456
"375",80.55787,77.857895
"376",80.62379,77.87123
"377",80.68238,77.88457
"378",80.706795,77.8979
"379",80.67994,77.91124
"380",80.59693,77.924576
"381",80.45533,77.93791
"382",80.272224,77.95125
"383",80.059814,77.964584
"384",79.83276,77.97792
"385",79.603264,77.99126
"386",79.378654,78.00459
"387",79.16136,78.01793
"388",78.958725,78.031265
"389",78.768295,78.04462
"390",78.59739,78.05792
"391",78.44114,78.07129
"392",78.30198,78.084595
"393",78.1799,78.09796
"394",78.07248,78.11127
"395",77.979706,78.12463
"396",77.89914,78.13794
"397",77.83566,78.151306
"398",77.79172,78.16461
"399",77.7673,78.17798
"400",77.75998,78.191284
"401",77.75998,78.20465
"402",77.76242,78.21796
"403",77.7551,78.23132
"404",77.733116,78.24463
"405",77.70138,78.257996
"406",77.6672,78.2713
"407",77.659874,78.28467
"408",77.75021,78.29797
"409",78.03586,78.31134
"410",78.60227,78.324646
"411",79.47875,78.33801
"412",80.60914,78.35132
"413",81.8616,78.364685
"414",83.05058,78.37799
"415",84.00519,78.39136
"416",84.62043,78.40466
"417",84.87923,78.41803
"418",84.823074,78.431335
"419",84.53254,78.4447
"420",84.1004,78.45801
"421",83.60967,78.471375
"422",83.123825,78.48468
"423",82.6746,78.49805
"424",82.27665,78.51135
"425",81.92264,78.52472
"426",81.60525,78.538025
"427",81.33181,78.55139
"428",81.10231,78.5647
"429",80.92653,78.578064
"430",80.816666,78.59137
"431",80.77272,78.60474
"432",80.78737,78.61804
"433",80.83864,78.63141
"434",80.902115,78.644714
"435",80.938736,78.65808
"436",80.93385,78.67139
"437",80.86549,78.68475
"438",80.73609,78.69806
"439",80.550545,78.711426
"440",80.32105,78.72473
"441",80.0647,78.7381
"442",79.801025,78.7514
"443",79.53979,78.76477
"444",79.293205,78.778076
"445",79.06615,78.79144
"446",78.86107,78.80475
"447",78.675514,78.818115
"448",78.49973,78.83142
"449",78.33372,78.84479
"450",78.1799,78.85809
"451",78.04074,78.87146
"452",77.91623,78.884766
"453",77.81125,78.89813
"454",77.72579,78.91144
"455",77.65743,78.924805
"456",77.60616,78.93811
"457",77.574425,78.95148
"458",77.55489,78.96478
"459",77.540245,78.97815
"460",77.53048,78.991455
"461",77.51583,79.00482
"462",77.49874,79.01813
"463",77.47433,79.031494
"464",77.44259,79.0448
"465",77.40597,79.05817
"466",77.36935,79.07147
"467",77.36446,79.08484
"468",77.467,79.098145
"469",77.77951,79.11151
"470",78.38499,79.12482
"471",79.29809,79.13818
"472",80.465096,79.15149
"473",81.739525,79.164856
"474",82.933395,79.17816
"475",83.88068,79.19153
"476",84.491035,79.204834
"477",84.74006,79.2182
"478",84.681465,79.23151
"479",84.39094,79.24487
"480",83.95636,79.25818
"481",83.46563,79.271545
"482",82.97246,79.28485
"483",82.51591,79.29822
"484",82.11063,79.31152
"485",81.75418,79.32489
"486",81.43679,79.338196
"487",81.15114,79.35156
"488",80.90944,79.36487
"489",80.719,79.378235
"490",80.59937,79.39154
"491",80.55543,79.40491
"492",80.5774,79.41821
"493",80.635994,79.43158
"494",80.69459,79.444885
"495",80.73365,79.45825
"496",80.72144,79.47156
"497",80.65308,79.484924
"498",80.52857,79.49823
"499",80.35035,79.5116
"500",80.130615,79.5249
"501",79.888916,79.53827
"502",79.635,79.551575
"503",79.38354,79.56494
"504",79.14183,79.57825
"505",78.91722,79.59161
"506",78.70481,79.60492
"507",78.5095,79.618286
"508",78.32639,79.63159
"509",78.16525,79.64496
"510",78.01633,79.658264
"511",77.88937,79.67163
"512",77.78195,79.68494
"513",77.696495,79.6983
"514",77.625694,79.71161
"515",77.574425,79.724976
"516",77.53292,79.73828
"517",77.506065,79.75165
"518",77.49386,79.76495
"519",77.486534,79.77832
"520",77.47921,79.791626
"521",77.471886,79.80499
"522",77.454796,79.8183
"523",77.435265,79.831665
"524",77.40353,79.84497
"525",77.36446,79.85834
"526",77.30831,79.87164
"527",77.24971,79.88501
"528",77.20332,79.898315
"529",77.23262,79.91168
"530",77.42306,79.92499
"531",77.87961,79.938354
"532",78.65354,79.95166
"533",79.73022,79.96503
"534",80.99977,79.97833
"535",82.303505,79.9917
"536",83.455864,80.005005
"537",84.30793,80.01837
"538",84.78645,80.03168
"539",84.90852,80.045044
"540",84.732735,80.05835
"541",84.349434,80.07172
"542",83.84894,80.08502
"543",83.319145,80.09839
"544",82.81865,80.111694
"545",82.37919,80.12506
"546",82.00076,80.13837
"547",81.671165,80.15173
"548",81.38552,80.16504
"549",81.13405,80.178406
"550",80.93141,80.19171
"551",80.78981,80.20508
"552",80.719,80.21838
"553",80.71656,80.23175
"554",80.75807,80.245056
"555",80.81178,80.25842
"556",80.848404,80.27173
"557",80.84352,80.285095
"558",80.78737,80.2984
"559",80.68238,80.31177
"560",80.52613,80.32507
"561",80.33326,80.33844
"562",80.1062,80.351746
"563",79.8645,80.36511
"564",79.61059,80.37842
"565",79.35424,80.391785
"566",79.10277,80.40509
"567",78.86595,80.41846
"568",78.641335,80.43176
"569",78.43626,80.44513
"570",78.25559,80.458435
"571",78.099335,80.4718
"572",77.960175,80.48511
"573",77.840546,80.498474
"574",77.74044,80.51178
"575",77.65743,80.52515
"576",77.591515,80.53845
"577",77.54513,80.55182
"578",77.51339,80.565125
"579",77.4963,80.57849
"580",77.488976,80.5918
"581",77.488976,80.60516
"582",77.49386,80.61847
"583",77.4963,80.631836
"584",77.488976,80.64514
"585",77.467,80.65851
"586",77.43038,80.671814
"587",77.37667,80.68518
"588",77.315636,80.69849
"589",77.28634,80.71185
"590",77.35714,80.72516
"591",77.6379,80.738525
"592",78.21164,80.75183
"593",79.11009,80.7652
"594",80.28687,80.7785
"595",81.59792,80.79187
"596",82.85771,80.805176
"597",83.88556,80.81854
"598",84.5716,80.83185
"599",84.88167,80.845215
"600",84.85481,80.85852
"601",84.57404,80.87189
"602",84.1297,80.88519
"603",83.60479,80.89856
"604",83.06523,80.911865
"605",82.547646,80.92523
"606",82.07645,80.93854
"607",81.651634,80.951904
"608",81.28054,80.96521
"609",80.970474,80.97858
"610",80.73121,80.99188
"611",80.584724,81.00525
"612",80.58228,81.03192
"613",80.70435,81.04523
"614",80.86061,81.05859
"615",81.00954,81.0719
"616",81.109634,81.085266
"617",81.13649,81.09857
"618",81.07301,81.11194
"619",80.92653,81.125244
"620",80.70191,81.13861
"621",80.42603,81.15192
"622",80.12085,81.16528
"623",79.81079,81.17859
"624",79.50317,81.191956
"625",79.217514,81.20526
"626",78.958725,81.21863
"627",78.729225,81.23193
"628",78.52415,81.2453
"629",78.345924,81.258606
"630",78.18967,81.27197
"631",78.05295,81.28528
"632",77.93332,81.298645
"633",77.838104,81.31195
"634",77.76242,81.32532
"635",77.713585,81.33862
"636",77.68185,81.35199
"637",77.6672,81.365295
"638",77.66476,81.37866
"639",77.66476,81.39197
"640",77.659874,81.405334
"641",77.642784,81.41864
"642",77.611046,81.43201
"643",77.56222,81.44531
"644",77.50851,81.45868
"645",77.46212,81.471985
"646",77.49386,81.48535
"647",77.68917,81.49866
"648",78.14572,81.512024
"649",78.91234,81.52533
"650",79.97681,81.5387
"651",81.234146,81.552
"652",82.52079,81.56537
"653",83.64141,81.578674
"654",84.46174,81.59204
"655",84.91585,81.60535
"656",85.01106,81.61871
"657",84.805984,81.63202
"658",84.39094,81.645386
"659",83.861145,81.65869
"660",83.29473,81.67206
"661",82.738075,81.68536
"662",82.22537,81.69873
"663",81.761505,81.712036
"664",81.35134,81.7254
"665",80.99977,81.73871
"666",80.723885,81.752075
"667",80.54322,81.76538
"668",80.47242,81.77875
"669",80.50416,81.79205
"670",80.61646,81.80542
"671",80.77516,81.818726
"672",80.92897,81.83209
"673",81.03639,81.8454
"674",81.06813,81.858765
"675",81.01686,81.87207
"676",80.87526,81.88544
"677",80.65797,81.89874
"678",80.37965,81.91211
"679",80.0647,81.925415
"680",79.73266,81.93878
"681",79.40307,81.95209
"682",79.08812,81.965454
"683",78.79515,81.97876
"684",78.53391,81.99213
"685",78.29954,82.00543
"686",78.09689,82.0188
"687",77.91867,82.032104
"688",77.75998,82.04547
"689",77.61837,82.05878
"690",77.49874,82.07214
"691",77.40597,82.08545
"692",77.332726,82.098816
"693",77.2839,82.11212
"694",77.24971,82.12549
"695",77.22041,82.138794
"696",77.18379,82.15216
"697",77.14473,82.16547
"698",77.100784,82.17883
"699",77.051956,82.19214
"700",77.02266,82.205505
"701",77.07637,82.21881
"702",77.30587,82.23218
"703",77.81369,82.24548
"704",78.643776,82.25885
"705",79.77417,82.272156
"706",81.08034,82.28552
"707",82.38651,82.29883
"708",83.50469,82.312195
"709",84.30793,82.3255
"710",84.73029,82.33887
"711",84.8011,82.35217
"712",84.58137,82.36554
"713",84.16876,82.378845
"714",83.64629,82.39221
"715",83.10185,82.40552
"716",82.581825,82.418884
"717",82.11795,82.43219
"718",81.71023,82.44556
"719",81.3489,82.45886
"720",81.024185,82.47223
"721",80.740974,82.485535
"722",80.5066,82.4989
"723",80.34791,82.51221
"724",80.28443,82.53888
"725",80.35523,82.552246
"726",80.45533,82.56555
"727",80.533455,82.57892
"728",80.55543,82.592224
"729",80.48951,82.60559
"730",80.33082,82.6189
"731",80.08667,82.63226
"732",79.79126,82.64557
"733",79.47631,82.658936
"734",79.168686,82.67224
"735",78.8806,82.68561
"736",78.61936,82.69891
"737",78.37522,82.71228
"738",78.14572,82.725586
"739",77.92111,82.73895
"740",77.696495,82.75226
"741",77.48409,82.765625
"742",77.28878,82.77893
"743",77.1252,82.7923
"744",77.00313,82.8056
"745",76.91768,82.81897
"746",76.86641,82.832275
"747",76.839554,82.84564
"748",76.82735,82.85895
"749",76.81758,82.872314
"750",76.805374,82.88562
"751",76.788284,82.89899
"752",76.75899,82.91229
"753",76.715034,82.92566
"754",76.663765,82.938965
"755",76.63447,82.95233
"756",76.70527,82.96564
"757",76.97627,82.979004
"758",77.54513,82.99231
"759",78.45823,83.00568
"760",79.67895,83.01898
"761",81.077896,83.03235
"762",82.46464,83.045654
"763",83.64629,83.05902
"764",84.491035,83.07233
"765",84.94026,83.08569
"766",85.02571,83.099
"767",84.823074,83.112366
"768",84.437325,83.12567
"769",83.966125,83.13904
"770",83.4876,83.15234
"771",83.05058,83.16571
"772",82.67216,83.179016
"773",82.33524,83.19238
"774",82.03006,83.20569
"775",81.7322,83.219055
"776",81.43923,83.23236
"777",81.17067,83.24573
"778",80.95094,83.25903
"779",80.80202,83.2724
"780",80.723885,83.285706
"781",80.70435,83.29907
"782",80.71656,83.31238
"783",80.72144,83.325745
"784",80.68726,83.33905
"785",80.59693,83.35242
"786",80.445564,83.36572
"787",80.235596,83.37909
"788",79.974365,83.392395
"789",79.68139,83.40576
"790",79.378654,83.41907
"791",79.07591,83.432434
"792",78.785385,83.44574
"793",78.51682,83.45911
"794",78.27512,83.47241
"795",78.05783,83.48578
"796",77.86008,83.499084
"797",77.68429,83.51245
"798",77.523155,83.52576
"799",77.38155,83.53912
"800",77.25704,83.55243
"801",77.154495,83.565796
"802",77.07637,83.5791
"803",77.02266,83.59247
"804",76.98604,83.605774
"805",76.964066,83.61914
"806",76.95918,83.63245
"807",76.95918,83.64581
"808",76.961624,83.65912
"809",76.964066,83.672485
"810",76.95918,83.68579
"811",76.93965,83.69916
"812",76.90547,83.71246
"813",76.8542,83.72583
"814",76.79561,83.739136
"815",76.74677,83.7525
"816",76.77608,83.76581
"817",76.998245,83.779175
"818",77.51827,83.79248
"819",78.41184,83.80585
"820",79.6643,83.81915
"821",81.15846,83.83252
"822",82.69657,83.845825
"823",84.06134,83.85919
"824",85.08186,83.8725
"825",85.680016,83.885864
"826",85.87045,83.89917
"827",85.73373,83.91254
"828",85.37484,83.92584
"829",84.90364,83.93921
"830",84.41047,83.952515
"831",83.95148,83.96588
"832",83.546196,83.97919
"833",83.194626,83.99255
"834",82.8748,84.00586
"835",82.56962,84.019226
"836",82.269325,84.03253
"837",81.97635,84.0459
"838",81.71023,84.059204
"839",81.495384,84.07257
"840",81.3489,84.08588
"841",81.26833,84.09924
"842",81.22926,84.11255
"843",81.20485,84.125916
"844",81.15602,84.13922
"845",81.06325,84.15259
"846",80.90944,84.16589
"847",80.689705,84.17926
"848",80.42359,84.192566
"849",80.12573,84.20593
"850",79.80591,84.21924
"851",79.483635,84.232605
"852",79.17113,84.24591
"853",78.87816,84.25928
"854",78.60471,84.27258
"855",78.35569,84.28595
"856",78.12863,84.299255
"857",77.92111,84.31262
"858",77.73556,84.32593
"859",77.574425,84.339294
"860",77.437706,84.3526
"861",77.3254,84.36597
"862",77.23506,84.37927
"863",77.16426,84.39264
"864",77.10811,84.405945
"865",77.06172,84.41931
"866",77.0251,84.43262
"867",76.99092,84.445984
"868",76.961624,84.45929
"869",76.93477,84.47266
"870",76.912796,84.48596
"871",76.89815,84.49933
"872",76.893265,84.512634
"873",76.88594,84.526
"874",76.86885,84.53931
"875",76.83467,84.55267
"876",76.7834,84.56598
"877",76.71992,84.579346
"878",76.65644,84.59265
"879",76.63447,84.60602
"880",76.73701,84.61932
"881",77.08125,84.63269
"882",77.77219,84.645996
"883",78.86107,84.65936
"884",80.28687,84.67267
"885",81.90311,84.686035
"886",83.48272,84.69934
"887",84.81575,84.71271
"888",85.748375,84.72601
"889",86.23422,84.73938
"890",86.30747,84.752686
"891",86.065765,84.76605
"892",85.626305,84.77936
"893",85.103836,84.792725
"894",84.58869,84.80603
"895",84.12726,84.8194
"896",83.736626,84.8327
"897",83.40215,84.84607
"898",83.09209,84.859375
"899",82.78691,84.87274
"900",82.476845,84.88605
"901",82.16922,84.899414
"902",81.898224,84.91272
"903",81.688255,84.92609
"904",81.55398,84.93939
"905",81.48318,84.95276
"906",81.449,84.966064
"907",81.41482,84.97943
"908",81.35134,84.99274
"909",81.234146,85.0061
"910",81.06081,85.01941
"911",80.831314,85.032776
"912",80.55787,85.04608
"913",80.2478,85.05945
"914",79.923096,85.072754
"915",79.59838,85.08612
"916",79.28832,85.09943
"917",78.99779,85.11279
"918",78.73411,85.1261
"919",78.49485,85.139465
"920",78.277565,85.15277
"921",78.07492,85.16614
"922",77.89426,85.17944
"923",77.738,85.19281
"924",77.60616,85.206116
"925",77.49874,85.21948
"926",77.41329,85.23279
"927",77.34249,85.246155
"928",77.2839,85.25946
"929",77.23262,85.27283
"930",77.188675,85.28613
"931",77.154495,85.2995
"932",77.12764,85.312805
"933",77.09834,85.32617
"934",77.07393,85.33948
"935",77.04219,85.352844
"936",77.00801,85.36615
"937",76.97383,85.37952
"938",76.946976,85.39282
"939",76.92256,85.40619
"940",76.90059,85.419495
"941",76.876175,85.43286
"942",76.84444,85.44617
"943",76.805374,85.45953
"944",76.76387,85.47284
"945",76.72724,85.486206
"946",76.72724,85.49951
"947",76.839554,85.51288
"948",77.19356,85.526184
"949",77.90402,85.53955
"950",79.0222,85.55286
"951",80.50172,85.56622
"952",82.193634,85.57953
"953",83.86359,85.592896
"954",85.27474,85.6062
"955",86.26841,85.61957
"956",86.783554,85.63287
"957",86.86412,85.64624
"958",86.60044,85.659546
"959",86.117035,85.67291
"960",85.53597,85.68622
"961",84.947586,85.699585
"962",84.403145,85.71289
"963",83.91974,85.72626
"964",83.49737,85.73956
"965",83.11894,85.75293
"966",82.76982,85.766235
"967",82.44755,85.7796
"968",82.16922,85.79291
"969",81.94949,85.806274
"970",81.80545,85.81958
"971",81.739525,85.83295
"972",81.73708,85.84625
"973",81.761505,85.85962
"974",81.778595,85.872925
"975",81.74929,85.88629
"976",81.651634,85.8996
"977",81.47585,85.912964
"978",81.22926,85.92627
"979",80.92653,85.93964
"980",80.58961,85.95294
"981",80.23804,85.96631
"982",79.88403,85.979614
"983",79.54223,85.99298
"984",79.22484,86.00629
"985",78.93187,86.01965
"986",78.66819,86.03296
"987",78.43626,86.046326
"988",78.22385,86.05963
"989",78.03342,86.073
"990",77.86252,86.0863
"991",77.713585,86.09967
"992",77.58419,86.112976
"993",77.47921,86.12634
"994",77.39132,86.13965
"995",77.3254,86.153015
"996",77.27169,86.16632
"997",77.22774,86.17969
"998",77.18623,86.19299
"999",77.152054,86.20636
"1000",77.12276,86.219666
"1001",77.09102,86.23303
"1002",77.051956,86.24634
"1003",77.00801,86.259705
"1004",76.9543,86.27301
"1005",76.90059,86.28638
"1006",76.8542,86.29968
"1007",76.81758,86.31305
"1008",76.788284,86.326355
"1009",76.76143,86.33972
"1010",76.72968,86.35303
"1011",76.68818,86.366394
"1012",76.63447,86.3797
"1013",76.578316,86.39307
"1014",76.53437,86.40637
"1015",76.55146,86.41974
"1016",76.72724,86.433044
"1017",77.188675,86.44641
"1018",78.03586,86.45972
"1019",79.290764,86.47308
"1020",80.867935,86.48639
"1021",82.581825,86.499756
"1022",84.18829,86.51306
"1023",85.46761,86.52643
"1024",86.29282,86.539734
"1025",86.63462,86.5531
"1026",86.54429,86.56641
"1027",86.13168,86.57977
"1028",85.523766,86.59308
"1029",84.83528,86.606445
"1030",84.15411,86.61975
"1031",83.53399,86.63312
"1032",82.98955,86.64642
"1033",82.513466,86.65979
"1034",82.091095,86.673096
"1035",81.71023,86.68646
"1036",81.3782,86.69977
"1037",81.112076,86.713135
"1038",80.92653,86.72644
"1039",80.8362,86.73981
"1040",80.82643,86.75311
"1041",80.867935,86.76648
"1042",80.92409,86.779785
"1043",80.953384,86.79315
"1044",80.921646,86.80646
"1045",80.80934,86.819824
"1046",80.61158,86.83313
"1047",80.33814,86.8465
"1048",80.01099,86.8598
"1049",79.656975,86.87317
"1050",79.29565,86.886475
"1051",78.94896,86.89984
"1052",78.6218,86.91315
"1053",78.32639,86.92651
"1054",78.06027,86.93982
"1055",77.81613,86.953186
"1056",77.5964,86.96649
"1057",77.39864,86.97986
"1058",77.21797,86.993164
"1059",77.05928,87.00653
"1060",76.925,87.01984
"1061",76.81514,87.0332
"1062",76.732124,87.04651
"1063",76.67109,87.059875
"1064",76.62226,87.07318
"1065",76.58564,87.08655
"1066",76.55634,87.09985
"1067",76.53193,87.11322
"1068",76.50996,87.126526
"1069",76.49287,87.13989
"1070",76.47822,87.1532
"1071",76.46601,87.166565
"1072",76.45136,87.17987
"1073",76.4416,87.19324
"1074",76.42695,87.20654
"1075",76.41474,87.21991
"1076",76.40009,87.233215
"1077",76.38056,87.24658
"1078",76.351265,87.25989
"1079",76.317085,87.273254
"1080",76.27558,87.28656
"1081",76.243835,87.29993
"1082",76.26826,87.31323
"1083",76.453804,87.3266
"1084",76.92256,87.339905
"1085",77.77219,87.35327
"1086",79.00755,87.36658
"1087",80.5359,87.379944
"1088",82.15701,87.39325
"1089",83.62676,87.40662
"1090",84.749825,87.41992
"1091",85.41146,87.43329
"1092",85.6141,87.446594
"1093",85.42611,87.45996
"1094",84.962234,87.47327
"1095",84.334785,87.48663
"1096",83.64629,87.49994
"1097",82.97734,87.513306
"1098",82.374306,87.52661
"1099",81.846954,87.53998
"1100",81.39773,87.55328
"1101",81.00954,87.56665
"1102",80.67994,87.579956
"1103",80.40406,87.59332
"1104",80.201416,87.60663
"1105",80.08667,87.619995
"1106",80.06714,87.6333
"1107",80.128174,87.64667
"1108",80.24048,87.65997
"1109",80.35523,87.67334
"1110",80.4358,87.686646
"1111",80.45289,87.70001
"1112",80.38941,87.71332
"1113",80.24536,87.726685
"1114",80.03784,87.73999
"1115",79.781494,87.75336
"1116",79.50317,87.76666
"1117",79.21263,87.78003
"1118",78.93187,87.793335
"1119",78.66575,87.8067
"1120",78.41917,87.82001
"1121",78.19699,87.833374
"1122",78.00412,87.84668
"1123",77.83566,87.86005
"1124",77.69161,87.87335
"1125",77.56466,87.88672
"1126",77.45968,87.900024
"1127",77.37423,87.91339
"1128",77.30587,87.9267
"1129",77.25704,87.94006
"1130",77.225296,87.95337
"1131",77.205765,87.966736
"1132",77.19112,87.98004
"1133",77.188675,87.99341
"1134",77.196,88.006714
"1135",77.21309,88.02008
"1136",77.23506,88.03339
"1137",77.261925,88.04675
"1138",77.29122,88.06006
"1139",77.31808,88.073425
"1140",77.33517,88.08673
"1141",77.349815,88.1001
"1142",77.36202,88.1134
"1143",77.366905,88.12677
"1144",77.35714,88.140076
"1145",77.332726,88.15344
"1146",77.30587,88.16675
"1147",77.315636,88.180115
"1148",77.46212,88.19342
"1149",77.874725,88.20679
"1150",78.660866,88.22009
"1151",79.83276,88.23346
"1152",81.30007,88.246765
"1153",82.879684,88.26013
"1154",84.3299,88.27344
"1155",85.44564,88.286804
"1156",86.11215,88.30011
"1157",86.327,88.31348
"1158",86.151215,88.32678
"1159",85.69222,88.34015
"1160",85.06233,88.353455
"1161",84.36408,88.36682
"1162",83.67803,88.38013
"1163",83.053024,88.39349
"1164",82.511024,88.4068
"1165",82.054474,88.420166
"1166",81.67361,88.43347
"1167",81.3489,88.44684
"1168",81.08522,88.460144
"1169",80.88991,88.47351
"1170",80.782486,88.48682
"1171",80.76784,88.50018
"1172",80.83864,88.51349
"1173",80.96315,88.526855
"1174",81.10231,88.54016
"1175",81.20973,88.55353
"1176",81.248795,88.56683
"1177",81.20241,88.5802
"1178",81.075455,88.593506
"1179",80.87526,88.60687
"1180",80.62379,88.62018
"1181",80.343025,88.633545
"1182",80.05249,88.64685
"1183",79.76196,88.66022
"1184",79.48608,88.67352
"1185",79.23216,88.68689
"1186",79.00267,88.700195
"1187",78.79759,88.71356
"1188",78.61448,88.72687
"1189",78.45823,88.740234
"1190",78.32395,88.75354
"1191",78.204315,88.76691
"1192",78.1091,88.78021
"1193",78.0383,88.79358
"1194",77.98459,88.806885
"1195",77.94797,88.82025
"1196",77.93332,88.83356
"1197",77.93332,88.846924
"1198",77.94797,88.86023
"1199",77.96994,88.8736
"1200",78.00168,88.8869
"1201",78.0383,88.90027
"1202",78.07736,88.913574
"1203",78.10666,88.92694
"1204",78.12131,88.94025
"1205",78.116425,88.95361
"1206",78.08713,88.96692
"1207",78.0383,88.980286
"1208",77.994354,88.99359
"1209",78.013885,89.00696
"1210",78.19211,89.02026
"1211",78.658424,89.03363
"1212",79.4934,89.046936
"1213",80.68482,89.0603
"1214",82.127716,89.07361
"1215",83.62432,89.086975
"1216",84.94026,89.10028
"1217",85.88754,89.11365
"1218",86.39048,89.12695
"1219",86.45396,89.14032
"1220",86.16586,89.153625
"1221",85.63119,89.16699
"1222",84.96712,89.1803
"1223",84.2591,89.193665
"1224",83.58282,89.20697
"1225",82.967575,89.22034
"1226",82.43046,89.23364
"1227",81.96414,89.24701
"1228",81.57107,89.260315
"1229",81.25613,89.27368
"1230",81.03395,89.28699
"1231",80.921646,89.300354
"1232",80.92897,89.31366
"1233",81.04616,89.32703
"1234",81.24391,89.34033
"1235",81.46609,89.3537
"1236",81.65896,89.367004
"1237",81.78104,89.38037
"1238",81.80301,89.39368
"1239",81.71755,89.40704
"1240",81.53689,89.42035
"1241",81.28298,89.433716
"1242",80.98268,89.44702
"1243",80.655525,89.46039
"1244",80.32838,89.473694
"1245",80.01343,89.48706
"1246",79.72045,89.50037
"1247",79.45434,89.51373
"1248",79.21507,89.52704
"1249",79.00023,89.540405
"1250",78.8098,89.55371
"1251",78.64622,89.56708
"1252",78.51194,89.58038
"1253",78.41184,89.59375
"1254",78.345924,89.607056
"1255",78.311745,89.62042
"1256",78.30686,89.63373
"1257",78.31907,89.647095
"1258",78.34104,89.6604
"1259",78.35813,89.67377
"1260",78.365456,89.68707
"1261",78.35569,89.70044
"1262",78.328835,89.713745
"1263",78.28733,89.72711
"1264",78.23605,89.74042
"1265",78.21652,89.753784
"1266",78.30442,89.76709
"1267",78.6096,89.78046
"1268",79.22972,89.79376
"1269",80.20874,89.80713
"1270",81.48806,89.820435
"1271",82.90654,89.8338
"1272",84.25422,89.84711
"1273",85.330894,89.86047
"1274",86.00473,89.87378
"1275",86.24643,89.887146
"1276",86.10239,89.90045
"1277",85.67025,89.91382
"1278",85.05501,89.927124
"1279",84.36164,89.94049
"1280",83.67071,89.9538
"1281",83.02617,89.96716
"1282",82.44999,89.98047
"1283",81.94217,89.993835
"1284",81.50515,90.00714
"1285",81.14137,90.02051
"1286",80.8777,90.03381
"1287",80.73609,90.04718
"1288",80.72877,90.060486
"1289",80.85329,90.07385
"1290",81.06569,90.08716
"1291",81.31228,90.100525
"1292",81.532005,90.11383
"1293",81.68093,90.1272
"1294",81.722435,90.1405
"1295",81.64675,90.15387
"1296",81.45876,90.167175
"1297",81.180435,90.18054
"1298",80.84108,90.19385
"1299",80.47242,90.207214
"1300",80.09888,90.22052
"1301",79.73754,90.23389
"1302",79.41039,90.24719
"1303",79.114975,90.26056
"1304",78.856186,90.273865
"1305",78.63157,90.28723
"1306",78.44602,90.30054
"1307",78.2971,90.3139
"1308",78.184784,90.32721
"1309",78.1091,90.340576
"1310",78.06271,90.35388
"1311",78.03342,90.36725
"1312",78.011444,90.380554
"1313",77.98459,90.39392
"1314",77.95041,90.40723
"1315",77.90402,90.42059
"1316",77.857635,90.4339
"1317",77.83566,90.447266
"1318",77.91379,90.46057
"1319",78.19943,90.47394
"1320",78.79515,90.48724
"1321",79.74975,90.50061
"1322",81.01442,90.513916
"1323",82.44511,90.52728
"1324",83.83673,90.54059
"1325",84.98665,90.553955
"1326",85.74593,90.56726
"1327",86.07553,90.58063
"1328",86.00473,90.59393
"1329",85.628746,90.6073
"1330",85.05745,90.620605
"1331",84.403145,90.63397
"1332",83.756165,90.64728
"1333",83.16533,90.660645
"1334",82.6453,90.67395
"1335",82.193634,90.68732
"1336",81.7908,90.70062
"1337",81.427025,90.71399
"1338",81.11452,90.727295
"1339",80.8777,90.74066
"1340",80.740974,90.75397
"1341",80.71412,90.767334
"1342",80.78493,90.78064
"1343",80.91432,90.79401
"1344",81.04372,90.80731
"1345",81.126724,90.82068
"1346",81.12428,90.833984
"1347",81.01442,90.84735
"1348",80.80446,90.86066
"1349",80.51392,90.87402
"1350",80.164795,90.88733
"1351",79.7937,90.900696
"1352",79.4226,90.914
"1353",79.06859,90.92737
"1354",78.74143,90.940674
"1355",78.44602,90.95404
"1356",78.18234,90.96735
"1357",77.95529,90.98071
"1358",77.76242,90.99402
"1359",77.60616,91.007385
"1360",77.48409,91.02069
"1361",77.39376,91.03406
"1362",77.332726,91.04736
"1363",77.29366,91.06073
"1364",77.26681,91.074036
"1365",77.239944,91.0874
"1366",77.20332,91.10071
"1367",77.152054,91.114075
"1368",77.09346,91.12738
"1369",77.05684,91.14075
"1370",77.117874,91.15405
"1371",77.39132,91.16742
"1372",77.98947,91.180725
"1373",78.96117,91.19409
"1374",80.26978,91.2074
"1375",81.76639,91.220764
"1376",83.24834,91.23407
"1377",84.491035,91.24744
"1378",85.347984,91.26074
"1379",85.76303,91.27411
"1380",85.78012,91.287415
"1381",85.489586,91.30078
"1382",85.00862,91.31409
"1383",84.45197,91.32745
"1384",83.912415,91.34076
"1385",83.44366,91.354126
"1386",83.053024,91.36743
"1387",82.720985,91.3808
"1388",82.406044,91.394104
"1389",82.08377,91.40747
"1390",81.739525,91.42078
"1391",81.40017,91.43414
"1392",81.09987,91.44745
"1393",80.88014,91.460815
"1394",80.7483,91.47412
"1395",80.689705,91.48749
"1396",80.672615,91.50079
"1397",80.64576,91.51416
"1398",80.570076,91.527466
"1399",80.41871,91.54083
"1400",80.19409,91.55414
"1401",79.89868,91.567505
"1402",79.55688,91.58081
"1403",79.18822,91.59418
"1404",78.819565,91.60748
"1405",78.46311,91.62085
"1406",78.13107,91.634155
"1407",77.82834,91.64752
"1408",77.55489,91.66083
"1409",77.315636,91.674194
"1410",77.100784,91.6875
"1411",76.912796,91.70087
"1412",76.754105,91.71417
"1413",76.6247,91.72754
"1414",76.524605,91.740845
"1415",76.453804,91.75421
"1416",76.40742,91.76752
"1417",76.37568,91.78088
"1418",76.33906,91.79419
"1419",76.29023,91.807556
"1420",76.22919,91.82086
"1421",76.14862,91.83423
"1422",76.053406,91.847534
"1423",75.97284,91.8609
"1424",75.965515,91.87421
"1425",76.13641,91.88757
"1426",76.60761,91.90088
"1427",77.44991,91.914246
"1428",78.66575,91.92755
"1429",80.13306,91.94092
"1430",81.64187,91.95422
"1431",82.96513,91.96759
"1432",83.931946,91.980896
"1433",84.4593,91.99426
"1434",84.5716,92.00757
"1435",84.36164,92.020935
"1436",83.95392,92.03424
"1437",83.46807,92.04761
"1438",82.99443,92.06091
"1439",82.59403,92.07428
"1440",82.27909,92.087585
"1441",82.02518,92.10095
"1442",81.78104,92.11426
"1443",81.50271,92.127625
"1444",81.16823,92.14093
"1445",80.78737,92.1543
"1446",80.4065,92.1676
"1447",80.076904,92.18097
"1448",79.835205,92.194275
"1449",79.691154,92.20764
"1450",79.61547,92.22095
"1451",79.5642,92.234314
"1452",79.50317,92.24762
"1453",79.398186,92.26099
"1454",79.234604,92.27429
"1455",79.012436,92.28766
"1456",78.74143,92.300964
"1457",78.43626,92.31433
"1458",78.118866,92.32764
"1459",77.803925,92.341
"1460",77.51095,92.35431
"1461",77.25216,92.367676
"1462",77.02266,92.38098
"1463",76.82002,92.39435
"1464",76.64179,92.40765
"1465",76.48554,92.42102
"1466",76.34882,92.434326
"1467",76.23651,92.44769
"1468",76.155945,92.461
"1469",76.102234,92.474365
"1470",76.068054,92.48767
"1471",76.04852,92.50104
"1472",76.04364,92.51434
"1473",76.04608,92.52771
"1474",76.05829,92.541016
"1475",76.07294,92.55438
"1476",76.085144,92.56769
"1477",76.0827,92.581055
"1478",76.06073,92.59436
"1479",76.016785,92.60773
"1480",75.95331,92.62103
"1481",75.88739,92.6344
"1482",75.85565,92.647705
"1483",75.9411,92.66107
"1484",76.265816,92.67438
"1485",76.93721,92.687744
"1486",77.99924,92.70105
"1487",79.38598,92.71442
"1488",80.93385,92.72772
"1489",82.406044,92.74109
"1490",83.5877,92.754395
"1491",84.34699,92.76776
"1492",84.66682,92.78107
"1493",84.613106,92.79443
"1494",84.30793,92.80774
"1495",83.878235,92.821106
"1496",83.43145,92.83441
"1497",83.038376,92.84778
"1498",82.72831,92.861084
"1499",82.493935,92.87445
"1500",82.29618,92.88776
"1501",82.07645,92.90112
"1502",81.80545,92.91443
"1503",81.47097,92.927795
"1504",81.109634,92.9411
"1505",80.75807,92.95447
"1506",80.4773,92.96777
"1507",80.28687,92.98114
"1508",80.181885,92.994446
"1509",80.13306,93.00781
"1510",80.10132,93.02112
"1511",80.05005,93.034485
"1512",79.94995,93.04779
"1513",79.79614,93.06116
"1514",79.586174,93.07446
"1515",79.33715,93.08783
"1516",79.061264,93.101135
"1517",78.77806,93.1145
"1518",78.504616,93.12781
"1519",78.25071,93.141174
"1520",78.02365,93.15448
"1521",77.82834,93.16785
"1522",77.659874,93.18115
"1523",77.51827,93.19452
"1524",77.39864,93.207825
"1525",77.298546,93.22119
"1526",77.22041,93.2345
"1527",77.15938,93.24786
"1528",77.11543,93.26117
"1529",77.083694,93.274536
"1530",77.06172,93.28784
"1531",77.04707,93.30121
"1532",77.032425,93.314514
"1533",77.02266,93.32788
"1534",77.01778,93.34119
"1535",77.01289,93.35455
"1536",77.01045,93.36786
"1537",77.00801,93.39453
"1538",76.998245,93.4079
"1539",76.9836,93.4212
"1540",76.961624,93.43457
"1541",76.929886,93.447876
"1542",76.88838,93.46124
"1543",76.84932,93.47455
"1544",76.824905,93.487915
"1545",76.8835,93.50122
"1546",77.134964,93.51459
"1547",77.70138,93.52789
"1548",78.65598,93.54126
"1549",79.96216,93.554565
"1550",81.48806,93.56793
"1551",83.001755,93.58124
"1552",84.27375,93.594604
"1553",85.13069,93.60791
"1554",85.53353,93.62128
"1555",85.52865,93.63458
"1556",85.23323,93.64795
"1557",84.77913,93.661255
"1558",84.28596,93.67462
"1559",83.83673,93.68793
"1560",83.475395,93.701294
"1561",83.20195,93.7146
"1562",82.98711,93.72797
"1563",82.78447,93.74127
"1564",82.55253,93.75464
"1565",82.26444,93.767944
"1566",81.9324,93.78131
"1567",81.59304,93.79462
"1568",81.29275,93.80798
"1569",81.05592,93.82129
"1570",80.902115,93.834656
"1571",80.816666,93.84796
"1572",80.77272,93.86133
"1573",80.73121,93.87463
"1574",80.66285,93.888
"1575",80.5481,93.901306
"1576",80.377205,93.91467
"1577",80.15747,93.92798
"1578",79.903564,93.941345
"1579",79.63256,93.95465
"1580",79.36645,93.96802
"1581",79.114975,93.98132
"1582",78.887924,93.99469
"1583",78.692604,94.007996
"1584",78.519264,94.02136
"1585",78.3679,94.03467
"1586",78.23605,94.048035
"1587",78.12131,94.06134
"1588",78.02121,94.07471
"1589",77.93576,94.08801
"1590",77.86984,94.10138
"1591",77.81857,94.114685
"1592",77.78439,94.12805
"1593",77.7551,94.14136
"1594",77.73556,94.154724
"1595",77.71847,94.16803
"1596",77.69894,94.1814
"1597",77.67696,94.1947
"1598",77.65011,94.20807
"1599",77.61837,94.221375
"1600",77.58419,94.23474
"1601",77.55001,94.24805
"1602",77.52071,94.26141
"1603",77.506065,94.27472
"1604",77.50118,94.288086
"1605",77.503624,94.30139
"1606",77.503624,94.31476
"1607",77.49874,94.328064
"1608",77.48409,94.34143
"1609",77.46456,94.35474
"1610",77.44015,94.3681
"1611",77.4255,94.38141
"1612",77.45724,94.394775
"1613",77.63058,94.40808
"1614",78.06271,94.42145
"1615",78.853745,94.43475
"1616",80.01587,94.44812
"1617",81.45144,94.461426
"1618",82.95781,94.47479
"1619",84.29572,94.4881
"1620",85.26986,94.501465
"1621",85.78256,94.51477
"1622",85.86313,94.52814
"1623",85.609215,94.54144
"1624",85.14534,94.55481
"1625",84.60334,94.568115
"1626",84.07599,94.58148
"1627",83.62188,94.59479
"1628",83.27032,94.608154
"1629",83.004196,94.62146
"1630",82.78691,94.63483
"1631",82.5745,94.64813
"1632",82.33524,94.6615
"1633",82.05936,94.674805
"1634",81.76395,94.68817
"1635",81.478294,94.70148
"1636",81.24147,94.71484
"1637",81.07301,94.72815
"1638",80.970474,94.741516
"1639",80.91188,94.75482
"1640",80.87038,94.76819
"1641",80.8069,94.781494
"1642",80.70191,94.79486
"1643",80.54566,94.80817
"1644",80.33814,94.82153
"1645",80.09888,94.83484
"1646",79.83765,94.848206
"1647",79.57397,94.86151
"1648",79.31518,94.87488
"1649",79.078354,94.88818
"1650",78.86107,94.90155
"1651",78.66575,94.914856
"1652",78.49241,94.92822
"1653",78.34348,94.94153
"1654",78.2092,94.954895
"1655",78.09445,94.9682
"1656",77.994354,94.98157
"1657",77.91623,94.99487
"1658",77.85275,95.00824
"1659",77.806366,95.021545
"1660",77.769745,95.03491
"1661",77.74044,95.04822
"1662",77.71114,95.061584
"1663",77.679405,95.07489
"1664",77.64767,95.08826
"1665",77.61349,95.10156
"1666",77.58175,95.11493
"1667",77.55245,95.128235
"1668",77.523155,95.1416
"1669",77.4963,95.15491
"1670",77.467,95.168274
"1671",77.44259,95.18158
"1672",77.418175,95.19495
"1673",77.3962,95.20825
"1674",77.37667,95.22162
"1675",77.3547,95.234924
"1676",77.3254,95.24829
"1677",77.28634,95.2616
"1678",77.24971,95.27496
"1679",77.23262,95.28827
"1680",77.30099,95.301636
"1681",77.56466,95.31494
"1682",78.14816,95.32831
"1683",79.09544,95.34161
"1684",80.35523,95.35498
"1685",81.76883,95.368286
"1686",83.1165,95.38165
"1687",84.18097,95.39496
"1688",84.82063,95.408325
"1689",85.01839,95.42163
"1690",84.84505,95.435
"1691",84.41779,95.4483
"1692",83.85626,95.46167
"1693",83.26299,95.474976
"1694",82.720985,95.48834
"1695",82.27665,95.50165
"1696",81.92752,95.515015
"1697",81.6614,95.52832
"1698",81.43923,95.54169
"1699",81.22438,95.55499
"1700",80.99977,95.56836
"1701",80.76784,95.581665
"1702",80.54566,95.59503
"1703",80.365,95.60834
"1704",80.24536,95.621704
"1705",80.19165,95.63501
"1706",80.181885,95.64838
"1707",80.181885,95.66168
"1708",80.16724,95.67505
"1709",80.111084,95.688354
"1710",80.00122,95.70172
"1711",79.84253,95.71503
"1712",79.639885,95.72839
"1713",79.41039,95.7417
"1714",79.1638,95.755066
"1715",78.91966,95.76837
"1716",78.69016,95.78174
"1717",78.485085,95.795044
"1718",78.30442,95.80841
"1719",78.150604,95.82172
"1720",78.01633,95.83508
"1721",77.90158,95.84839
"1722",77.80148,95.861755
"1723",77.71603,95.87506
"1724",77.64767,95.88843
"1725",77.593956,95.90173
"1726",77.55489,95.9151
"1727",77.5256,95.928406
"1728",77.506065,95.94177
"1729",77.49142,95.95508
"1730",77.47677,95.968445
"1731",77.46456,95.98175
"1732",77.45724,95.99512
"1733",77.44503,96.00842
"1734",77.437706,96.02179
"1735",77.43282,96.035095
"1736",77.42794,96.04846
"1737",77.42306,96.06177
"1738",77.41573,96.075134
"1739",77.40597,96.08844
"1740",77.39864,96.10181
"1741",77.39132,96.11511
"1742",77.38155,96.12848
"1743",77.36446,96.141785
"1744",77.34249,96.15515
"1745",77.332726,96.16846
"1746",77.3962,96.18182
"1747",77.642784,96.19513
"1748",78.184784,96.208496
"1749",79.07347,96.2218
"1750",80.26002,96.23517
"1751",81.60525,96.248474
"1752",82.899216,96.26184
"1753",83.93439,96.27515
"1754",84.578926,96.28851
"1755",84.81087,96.30182
"1756",84.67658,96.315186
"1757",84.28596,96.32849
"1758",83.75128,96.34186
"1759",83.175095,96.35516
"1760",82.633095,96.36853
"1761",82.17166,96.381836
"1762",81.80545,96.3952
"1763",81.5198,96.40851
"1764",81.28542,96.421875
"1765",81.07301,96.43518
"1766",80.87282,96.44855
"1767",80.69215,96.46185
"1768",80.54566,96.47522
"1769",80.45533,96.488525
"1770",80.428474,96.50189
"1771",80.45533,96.5152
"1772",80.50904,96.528564
"1773",80.567635,96.54187
"1774",80.59449,96.55524
"1775",80.57496,96.56854
"1776",80.49683,96.58191
"1777",80.365,96.595215
"1778",80.184326,96.60858
"1779",79.974365,96.62189
"1780",79.74731,96.635254
"1781",79.520256,96.64856
"1782",79.30297,96.66193
"1783",79.10277,96.67523
"1784",78.924545,96.6886
"1785",78.77562,96.701904
"1786",78.6511,96.71527
"1787",78.54368,96.72858
"1788",78.44846,96.74194
"1789",78.3679,96.75525
"1790",78.30198,96.768616
"1791",78.25559,96.78192
"1792",78.22385,96.79529
"1793",78.2092,96.80859
"1794",78.204315,96.82196
"1795",78.204315,96.835266
"1796",78.204315,96.84863
"1797",78.20676,96.86194
"1798",78.21652,96.875305
"1799",78.23361,96.88861
"1800",78.25071,96.90198
"1801",78.2678,96.91528
"1802",78.28245,96.92865
"1803",78.28733,96.941956
"1804",78.28245,96.95532
"1805",78.2678,96.96863
"1806",78.24338,96.981995
"1807",78.2092,96.9953
"1808",78.17502,97.00867
"1809",78.16037,97.02197
"1810",78.221405,97.03534
"1811",78.46555,97.048645
"1812",78.995346,97.06201
"1813",79.85962,97.07532
"1814",81.0193,97.088684
"1815",82.3328,97.10199
"1816",83.59258,97.11536
"1817",84.59113,97.12866
"1818",85.19905,97.14203
"1819",85.38705,97.155334
"1820",85.21858,97.1687
"1821",84.79622,97.18201
"1822",84.23468,97.19537
"1823",83.62676,97.20868
"1824",83.04326,97.222046
"1825",82.533,97.23535
"1826",82.11307,97.24872
"1827",81.778595,97.262024
"1828",81.50759,97.27539
"1829",81.28054,97.2887
"1830",81.08766,97.30206
"1831",80.94362,97.31537
"1832",80.85817,97.328735
"1833",80.84596,97.34204
"1834",80.90456,97.35541
"1835",81.01442,97.36871
"1836",81.13405,97.38208
"1837",81.22438,97.395386
"1838",81.26101,97.40875
"1839",81.22438,97.42206
"1840",81.10719,97.435425
"1841",80.92409,97.44873
"1842",80.69459,97.4621
"1843",80.44068,97.4754
"1844",80.181885,97.48877
"1845",79.9353,97.502075
"1846",79.7058,97.51544
"1847",79.49828,97.52875
"1848",79.31518,97.542114
"1849",79.15892,97.55542
"1850",79.0222,97.56879
"1851",78.90013,97.58209
"1852",78.79515,97.59546
"1853",78.70481,97.608765
"1854",78.624245,97.62213
"1855",78.56565,97.63544
"1856",78.52659,97.6488
"1857",78.504616,97.66211
"1858",78.49485,97.675476
"1859",78.49485,97.68878
"1860",78.504616,97.70215
"1861",78.51682,97.715454
"1862",78.53147,97.72882
"1863",78.54124,97.74213
"1864",78.536354,97.75549
"1865",78.51438,97.7688
"1866",78.47776,97.782166
"1867",78.43137,97.79547
"1868",78.380104,97.80884
"1869",78.348366,97.82214
"1870",78.40208,97.83551
"1871",78.63157,97.848816
"1872",79.12962,97.86218
"1873",79.94751,97.87549
"1874",81.03639,97.888855
"1875",82.25956,97.90216
"1876",83.41924,97.91553
"1877",84.315254,97.92883
"1878",84.825516,97.9422
"1879",84.92561,97.955505
"1880",84.681465,97.96887
"1881",84.19318,97.98218
"1882",83.577934,97.995544
"1883",82.930954,98.00885
"1884",82.32304,98.02222
"1885",81.79324,98.03552
"1886",81.34402,98.04889
"1887",80.96803,98.062195
"1888",80.655525,98.07556
"1889",80.396736,98.08887
"1890",80.198975,98.102234
"1891",80.079346,98.11554
"1892",80.05737,98.12891
"1893",80.130615,98.14221
"1894",80.28443,98.15558
"1895",80.47486,98.168884
"1896",80.66041,98.18225
"1897",80.78981,98.19556
"1898",80.833755,98.20892
"1899",80.782486,98.22223
"1900",80.64088,98.235596
"1901",80.42603,98.2489
"1902",80.16968,98.26227
"1903",79.90112,98.27557
"1904",79.635,98.28894
"1905",79.38842,98.302246
"1906",79.1638,98.31561
"1907",78.96605,98.32892
"1908",78.79515,98.342285
"1909",78.6511,98.35559
"1910",78.52659,98.36896
"1911",78.42649,98.38226
"1912",78.345924,98.39563
"1913",78.28489,98.408936
"1914",78.24094,98.4223
"1915",78.21408,98.43561
"1916",78.20187,98.448975
"1917",78.204315,98.46228
"1918",78.21652,98.47565
"1919",78.22873,98.48895
"1920",78.24094,98.50232
"1921",78.24094,98.515625
"1922",78.221405,98.52899
"1923",78.18967,98.5423
"1924",78.170135,98.555664
"1925",78.22873,98.56897
"1926",78.46067,98.58234
"1927",78.96117,98.59564
"1928",79.75952,98.60901
"1929",80.80446,98.622314
"1930",81.95682,98.63568
"1931",83.021286,98.64899
"1932",83.81476,98.66235
"1933",84.2298,98.67566
"1934",84.25422,98.689026
"1935",83.949036,98.70233
"1936",83.41436,98.7157
"1937",82.77226,98.729004
"1938",82.11063,98.74237
"1939",81.50271,98.75568
"1940",80.98024,98.76904
"1941",80.550545,98.78235
"1942",80.198975,98.795715
"1943",79.91333,98.80902
"1944",79.68627,98.82239
"1945",79.52514,98.83569
"1946",79.43969,98.84906
"1947",79.447014,98.862366
"1948",79.54955,98.87573
"1949",79.72289,98.88904
"1950",79.92554,98.902405
"1951",80.11597,98.91571
"1952",80.25025,98.92908
"1953",80.29908,98.94238
"1954",80.25269,98.95575
"1955",80.12573,98.969055
"1956",79.93286,98.98242
"1957",79.70092,98.99573
"1958",79.449455,99.009094
"1959",79.202866,99.0224
"1960",78.97337,99.03577
"1961",78.77318,99.04907
"1962",78.607155,99.06244
"1963",78.470436,99.075745
"1964",78.35813,99.08911
"1965",78.27268,99.10242
"1966",78.2092,99.11578
"1967",78.167694,99.12909
"1968",78.150604,99.142456
"1969",78.150604,99.15576
"1970",78.16525,99.16913
"1971",78.184784,99.182434
"1972",78.19943,99.1958
"1973",78.21164,99.22247
"1974",78.21408,99.23578
"1975",78.23117,99.249146
"1976",78.32395,99.26245
"1977",78.5803,99.27582
"1978",79.08812,99.28912
"1979",79.886475,99.30249
"1980",80.93385,99.315796
"1981",82.091095,99.32916
"1982",83.16777,99.34247
"1983",83.980774,99.355835
"1984",84.41047,99.36914
"1985",84.44465,99.38251
"1986",84.14923,99.39581
"1987",83.631645,99.40918
"1988",83.00664,99.422485
"1989",82.36454,99.43585
"1990",81.78104,99.44916
"1991",81.29275,99.462524
"1992",80.907,99.47583
"1993",80.604256,99.4892
"1994",80.365,99.5025
"1995",80.164795,99.51587
"1996",79.9939,99.529175
"1997",79.871826,99.54254
"1998",79.80835,99.55585
"1999",79.82056,99.569214
"2000",79.90845,99.58252
"2001",80.04761,99.59589
"2002",80.201416,99.60919
"2003",80.32105,99.62256
"2004",80.38209,99.635864
"2005",80.36256,99.64923
"2006",80.26002,99.66254
"2007",80.09155,99.6759
"2008",79.88159,99.68921
"2009",79.65209,99.702576
"2010",79.42748,99.71588
"2011",79.21507,99.72925
"2012",79.027084,99.74255
"2013",78.86839,99.75592
"2014",78.73411,99.769226
"2015",78.62913,99.78259
"2016",78.555885,99.7959
"2017",78.504616,99.809265
"2018",78.47288,99.82257
"2019",78.46067,99.83594
"2020",78.46067,99.84924
"2021",78.46555,99.86261
"2022",78.47532,99.875916
"2023",78.4802,99.88928
"2024",78.47532,99.90259
"2025",78.46555,99.915955
"2026",78.470436,99.92926
"2027",78.53147,99.94263
"2028",78.73655,99.95593
"2029",79.185776,99.9693
"2030",79.923096,99.982605
"2031",80.919205,99.99597
"2032",82.05936,100.00928
"2033",83.160446,100.022644
"2034",84.02472,100.03595
"2035",84.525215,100.04932
"2036",84.63264,100.06262
"2037",84.4007,100.07599
"2038",83.92706,100.089294
"2039",83.336235,100.10266
"2040",82.72587,100.11597
"2041",82.16922,100.12933
"2042",81.70779,100.14264
"2043",81.3489,100.156006
"2044",81.075455,100.16931
"2045",80.85573,100.18268
"2046",80.66773,100.195984
"2047",80.499275,100.20935
"2048",80.35523,100.22266
"2049",80.2478,100.23602
"2050",80.20386,100.24933
"2051",80.22339,100.262695
"2052",80.289314,100.276
"2053",80.36988,100.28937
"2054",80.43824,100.30267
"2055",80.46021,100.31604
"2056",80.41627,100.329346
"2057",80.30396,100.34271
"2058",80.14038,100.35602
"2059",79.937744,100.369385
"2060",79.71557,100.38269
"2061",79.48608,100.39606
"2062",79.26879,100.40936
"2063",79.07347,100.42273
"2064",78.90013,100.436035
"2065",78.751205,100.4494
"2066",78.626686,100.46271
"2067",78.53391,100.476074
"2068",78.46311,100.48938
"2069",78.41917,100.50275
"2070",78.39475,100.51605
"2071",78.39231,100.52942
"2072",78.39475,100.542725
"2073",78.40452,100.55609
"2074",78.41184,100.5694
"2075",78.41184,100.58276
"2076",78.39475,100.59607
"2077",78.3679,100.609436
"2078",78.33616,100.62274
"2079",78.35081,100.63611
"2080",78.49485,100.649414
"2081",78.870834,100.66278
"2082",79.54955,100.67609
"2083",80.51148,100.68945
"2084",81.65652,100.70276
"2085",82.80156,100.716125
"2086",83.74639,100.72943
"2087",84.33967,100.7428
"2088",84.53254,100.7561
"2089",84.37629,100.76947
"2090",83.966125,100.782776
"2091",83.421684,100.79614
"2092",82.847946,100.80945
"2093",82.320595,100.822815
"2094",81.881134,100.83612
"2095",81.54665,100.84949
"2096",81.29763,100.86279
"2097",81.09987,100.87616
"2098",80.919205,100.889465
"2099",80.73609,100.90283
"2100",80.55543,100.91614
"2101",80.38941,100.929504
"2102",80.2649,100.94281
"2103",80.198975,100.95618
"2104",80.19165,100.96948
"2105",80.216064,100.98285
"2106",80.24536,100.996155
"2107",80.25025,101.00952
"2108",80.20874,101.02283
"2109",80.113525,101.036194
"2110",79.9646,101.0495
"2111",79.77905,101.06287
"2112",79.57397,101.07617
"2113",79.361565,101.08954
"2114",79.151596,101.102844
"2115",78.95628,101.11621
"2116",78.77806,101.12952
"2117",78.6218,101.14288
"2118",78.485085,101.15619
"2119",78.37278,101.169556
"2120",78.28489,101.18286
"2121",78.21408,101.19623
"2122",78.15549,101.20953
"2123",78.116425,101.2229
"2124",78.08957,101.236206
"2125",78.07736,101.24957
"2126",78.07736,101.26288
"2127",78.09445,101.276245
"2128",78.11398,101.28955
"2129",78.133514,101.30292
"2130",78.14572,101.31622
"2131",78.14572,101.32959
"2132",78.12863,101.342896
"2133",78.09445,101.35626
"2134",78.05295,101.36957
"2135",78.048065,101.382935
"2136",78.16037,101.39624
"2137",78.502174,101.40961
"2138",79.168686,101.42291
"2139",80.15259,101.43628
"2140",81.358665,101.449585
"2141",82.60624,101.46295
"2142",83.68047,101.47626
"2143",84.40559,101.489624
"2144",84.72297,101.50293
"2145",84.664375,101.5163
"2146",84.32258,101.5296
"2147",83.82208,101.54297
"2148",83.2752,101.556274
"2149",82.76982,101.56964
"2150",82.35233,101.58295
"2151",82.04471,101.59631
"2152",81.82742,101.60962
"2153",81.65652,101.622986
"2154",81.48318,101.63629
"2155",81.29275,101.64966
"2156",81.08278,101.662964
"2157",80.87038,101.67633
"2158",80.689705,101.68964
"2159",80.57252,101.703
"2160",80.52369,101.71631
"2161",80.52369,101.729675
"2162",80.54322,101.74298
"2163",80.5481,101.75635
"2164",80.50904,101.76965
"2165",80.41627,101.78302
"2166",80.2649,101.796326
"2167",80.06958,101.80969
"2168",79.84497,101.823
"2169",79.61059,101.836365
"2170",79.378654,101.84967
"2171",79.15892,101.86304
"2172",78.96117,101.87634
"2173",78.78783,101.88971
"2174",78.641335,101.903015
"2175",78.51194,101.91638
"2176",78.399635,101.92969
"2177",78.29954,101.943054
"2178",78.2092,101.95636
"2179",78.13107,101.96973
"2180",78.0676,101.98303
"2181",78.01877,101.9964
"2182",77.98459,102.009705
"2183",77.96506,102.02307
"2184",77.95285,102.03638
"2185",77.945526,102.04974
"2186",77.94797,102.06305
"2187",77.95285,102.076416
"2188",77.95529,102.08972
"2189",77.95773,102.10309
"2190",77.94797,102.116394
"2191",77.92111,102.12976
"2192",77.872284,102.14307
"2193",77.81125,102.15643
"2194",77.74044,102.16974
"2195",77.69161,102.183105
"2196",77.730675,102.19641
"2197",77.95285,102.20978
"2198",78.470436,102.22308
"2199",79.33715,102.23645
"2200",80.50172,102.249756
"2201",81.8201,102.26312
"2202",83.07988,102.27643
"2203",84.071106,102.289795
"2204",84.65949,102.3031
"2205",84.823074,102.31647
"2206",84.63752,102.32977
"2207",84.21271,102.34314
"2208",83.67803,102.356445
"2209",83.12871,102.36981
"2210",82.63554,102.38312
"2211",82.23514,102.396484
"2212",81.9324,102.40979
"2213",81.69558,102.42316
"2214",81.48806,102.43646
"2215",81.28054,102.44983
"2216",81.058365,102.463135
"2217",80.82399,102.4765
"2218",80.604256,102.48981
"2219",80.430916,102.503174
"2220",80.325935,102.51648
"2221",80.27711,102.52985
"2222",80.26734,102.54315
"2223",80.26734,102.55652
"2224",80.25025,102.569824
"2225",80.18677,102.58319
"2226",80.0647,102.5965
"2227",79.89624,102.60986
"2228",79.68871,102.62317
"2229",79.45922,102.636536
"2230",79.2224,102.64984
"2231",78.995346,102.66321
"2232",78.78783,102.67651
"2233",78.59983,102.68988
"2234",78.4387,102.703186
"2235",78.29954,102.71655
"2236",78.1799,102.72986
"2237",78.07736,102.743225
"2238",77.99191,102.75653
"2239",77.91623,102.7699
"2240",77.86008,102.7832
"2241",77.81613,102.79657
"2242",77.78195,102.809875
"2243",77.7551,102.82324
"2244",77.730675,102.83655
"2245",77.713585,102.849915
"2246",77.696495,102.86322
"2247",77.68185,102.87659
"2248",77.67452,102.88989
"2249",77.67208,102.90326
"2250",77.67452,102.916565
"2251",77.67452,102.92993
"2252",77.67696,102.94324
"2253",77.67452,102.956604
"2254",77.662315,102.96991
"2255",77.63546,102.98328
"2256",77.60616,102.99658
"2257",77.5671,103.00995
"2258",77.52804,103.023254
"2259",77.503624,103.03662
"2260",77.55001,103.04993
"2261",77.76242,103.06329
"2262",78.25315,103.0766
"2263",79.078354,103.089966
"2264",80.20874,103.10327
"2265",81.514915,103.11664
"2266",82.78691,103.129944
"2267",83.809875,103.14331
"2268",84.44221,103.15662
"2269",84.644844,103.16998
"2270",84.48127,103.18329
"2271",84.06378,103.196655
"2272",83.5169,103.20996
"2273",82.9456,103.22333
"2274",82.425575,103.23663
"2275",81.99832,103.25
"2276",81.67361,103.263306
"2277",81.427025,103.27667
"2278",81.22926,103.28998
"2279",81.041275,103.303345
"2280",80.850845,103.31665
"2281",80.65797,103.33002
"2282",80.482185,103.34332
"2283",80.34547,103.35669
"2284",80.272224,103.369995
"2285",80.25025,103.38336
"2286",80.2649,103.39667
"2287",80.289314,103.410034
"2288",80.2942,103.42334
"2289",80.255135,103.43671
"2290",80.16235,103.45001
"2291",80.01587,103.46338
"2292",79.82788,103.476685
"2293",79.61303,103.49005
"2294",79.3933,103.50336
"2295",79.18089,103.51672
"2296",78.98314,103.53003
"2297",78.80736,103.543396
"2298",78.65354,103.5567
"2299",78.519264,103.57007
"2300",78.41184,103.583374
"2301",78.32151,103.59674
"2302",78.24826,103.61005
"2303",78.18967,103.62341
"2304",78.14328,103.63672
"2305",78.10422,103.650085
"2306",78.07004,103.66339
"2307",78.04562,103.67676
"2308",78.02609,103.69006
"2309",78.009,103.70343
"2310",77.99924,103.716736
"2311",77.994354,103.7301
"2312",77.996796,103.74341
"2313",77.99924,103.756775
"2314",78.00168,103.77008
"2315",78.00656,103.78345
"2316",78.011444,103.79675
"2317",78.01633,103.81012
"2318",78.01633,103.823425
"2319",78.011444,103.83679
"2320",78.00412,103.8501
"2321",77.98215,103.863464
"2322",77.95529,103.87677
"2323",77.92111,103.89014
"2324",77.89914,103.90344
"2325",77.92844,103.91681
"2326",78.099335,103.930115
"2327",78.52415,103.94348
"2328",79.276115,103.95679
"2329",80.343025,103.97015
"2330",81.61501,103.98346
"2331",82.899216,103.996826
"2332",83.98566,104.01013
"2333",84.71076,104.0235
"2334",85.013504,104.036804
"2335",84.94026,104.05017
"2336",84.58381,104.06348
"2337",84.05646,104.07684
"2338",83.46563,104.09015
"2339",82.899216,104.103516
"2340",82.408485,104.11682
"2341",82.01785,104.13019
"2342",81.71999,104.14349
"2343",81.49294,104.15686
"2344",81.304955,104.170166
"2345",81.13161,104.18353
"2346",80.972916,104.19684
"2347",80.83864,104.210205
"2348",80.75319,104.22351
"2349",80.719,104.23688
"2350",80.73365,104.25018
"2351",80.77516,104.26355
"2352",80.81911,104.276855
"2353",80.831314,104.29022
"2354",80.797134,104.30353
"2355",80.71168,104.316895
"2356",80.57496,104.3302
"2357",80.394295,104.34357
"2358",80.184326,104.35687
"2359",79.957275,104.37024
"2360",79.73754,104.383545
"2361",79.52514,104.39691
"2362",79.33471,104.41022
"2363",79.168686,104.423584
"2364",79.027084,104.43689
"2365",78.905014,104.45026
"2366",78.79759,104.46356
"2367",78.70237,104.47693
"2368",78.6218,104.490234
"2369",78.553444,104.5036
"2370",78.49485,104.51691
"2371",78.450905,104.53027
"2372",78.42161,104.54358
"2373",78.399635,104.556946
"2374",78.38743,104.57025
"2375",78.380104,104.58362
"2376",78.380104,104.596924
"2377",78.380104,104.61029
"2378",78.380104,104.6236
"2379",78.37278,104.63696
"2380",78.3679,104.65027
"2381",78.363014,104.663635
"2382",78.35813,104.67694
"2383",78.35081,104.69031
"2384",78.33616,104.70361
"2385",78.314186,104.71698
"2386",78.28489,104.730286
"2387",78.24826,104.74365
"2388",78.2092,104.75696
"2389",78.19455,104.770325
"2390",78.25803,104.78363
"2391",78.49973,104.797
"2392",79.0222,104.8103
"2393",79.87915,104.82367
"2394",81.03395,104.836975
"2395",82.34257,104.85034
"2396",83.60967,104.86365
"2397",84.62531,104.877014
"2398",85.25277,104.89032
"2399",85.46273,104.90369
"2400",85.30892,104.91699
"2401",84.88899,104.93036
"2402",84.32014,104.943665
"2403",83.69756,104.95703
"2404",83.106735,104.97034
"2405",82.59403,104.9837
"2406",82.18143,104.99701
"2407",81.85672,105.010376
"2408",81.59304,105.02368
"2409",81.373314,105.03705
"2410",81.180435,105.050354
"2411",81.02174,105.06372
"2412",80.91188,105.07703
"2413",80.87038,105.09039
"2414",80.89235,105.1037
"2415",80.95827,105.117065
"2416",81.03639,105.13037
"2417",81.08766,105.14374
"2418",81.08766,105.15704
"2419",81.02663,105.17041
"2420",80.90456,105.183716
"2421",80.726326,105.19708
"2422",80.50416,105.21039
"2423",80.26002,105.223755
"2424",80.0061,105.23706
"2425",79.75708,105.25043
"2426",79.52514,105.26373
"2427",79.31518,105.2771
"2428",79.132065,105.290405
"2429",78.97337,105.30377
"2430",78.83421,105.31708
"2431",78.71458,105.330444
"2432",78.61204,105.34375
"2433",78.52903,105.35712
"2434",78.45579,105.37042
"2435",78.39475,105.38379
"2436",78.34104,105.397095
"2437",78.2971,105.41046
"2438",78.26292,105.42377
"2439",78.238495,105.43713
"2440",78.221405,105.45044
"2441",78.20676,105.463806
"2442",78.19699,105.47711
"2443",78.184784,105.49048
"2444",78.170135,105.503784
"2445",78.153046,105.51715
"2446",78.135956,105.53046
"2447",78.116425,105.54382
"2448",78.09689,105.55713
"2449",78.07736,105.570496
"2450",78.05783,105.5838
"2451",78.03342,105.59717
"2452",77.99924,105.61047
"2453",77.960175,105.62384
"2454",77.91867,105.637146
"2455",77.90402,105.65051
"2456",77.98703,105.66382
"2457",78.27512,105.677185
"2458",78.86839,105.69049
"2459",79.801025,105.70386
"2460",81.0193,105.71716
"2461",82.371864,105.73053
"2462",83.648735,105.743835
"2463",84.63996,105.7572
"2464",85.22835,105.77051
"2465",85.39193,105.783875
"2466",85.189285,105.79718
"2467",84.72053,105.81055
"2468",84.102844,105.82385
"2469",83.43633,105.83722
"2470",82.804,105.850525
"2471",82.24979,105.86389
"2472",81.795685,105.8772
"2473",81.43191,105.890564
"2474",81.13893,105.90387
"2475",80.902115,105.91724
"2476",80.709236,105.93054
"2477",80.56519,105.94391
"2478",80.482185,105.957214
"2479",80.47242,105.97058
"2480",80.52857,105.98389
"2481",80.62379,105.99725
"2482",80.726326,106.01056
"2483",80.80202,106.023926
"2484",80.81911,106.03723
"2485",80.76784,106.0506
"2486",80.64576,106.0639
"2487",80.462654,106.07727
"2488",80.235596,106.090576
"2489",79.98169,106.10394
"2490",79.72045,106.11725
"2491",79.466545,106.130615
"2492",79.22972,106.14392
"2493",79.0222,106.15729
"2494",78.84154,106.17059
"2495",78.68528,106.18396
"2496",78.551,106.197266
"2497",78.4387,106.21063
"2498",78.3386,106.22394
"2499",78.25071,106.237305
"2500",78.17746,106.25061
"2501",78.116425,106.26398
"2502",78.07248,106.27728
"2503",78.04318,106.29065
"2504",78.02365,106.303955
"2505",78.011444,106.31732
"2506",78.009,106.33063
"2507",78.009,106.343994
"2508",78.013885,106.3573
"2509",78.01633,106.37067
"2510",78.01877,106.38397
"2511",78.01877,106.39734
"2512",78.01633,106.410645
"2513",78.013885,106.42401
"2514",78.011444,106.43732
"2515",77.996796,106.45068
"2516",77.977264,106.46399
"2517",77.943085,106.477356
"2518",77.89914,106.49066
"2519",77.86008,106.50403
"2520",77.86008,106.517334
"2521",77.979706,106.5307
"2522",78.32639,106.54401
"2523",78.99046,106.55737
"2524",79.9939,106.57068
"2525",81.25613,106.584045
"2526",82.61112,106.59735
"2527",83.8465,106.61072
"2528",84.76936,106.62402
"2529",85.279625,106.63739
"2530",85.3724,106.650696
"2531",85.1136,106.66406
"2532",84.610664,106.67737
"2533",83.97101,106.690735
"2534",83.28985,106.70404
"2535",82.6453,106.71741
"2536",82.07889,106.73071
"2537",81.60769,106.74408
"2538",81.22682,106.757385
"2539",80.92653,106.77075
"2540",80.69703,106.78406
"2541",80.533455,106.797424
"2542",80.44312,106.81073
"2543",80.4358,106.8241
"2544",80.499275,106.8374
"2545",80.61646,106.85077
"2546",80.75563,106.864075
"2547",80.8777,106.87744
"2548",80.953384,106.89075
"2549",80.96071,106.90411
"2550",80.88991,106.91742
"2551",80.7483,106.930786
"2552",80.54566,106.94409
"2553",80.30396,106.95746
"2554",80.04028,106.970764
"2555",79.77905,106.98413
"2556",79.52758,106.99744
"2557",79.29565,107.0108
"2558",79.08812,107.02411
"2559",78.907455,107.037476
"2560",78.751205,107.05078
"2561",78.6218,107.06415
"2562",78.5095,107.07745
"2563",78.40696,107.09082
"2564",78.32151,107.104126
"2565",78.24582,107.11749
"2566",78.184784,107.1308
"2567",78.14084,107.144165
"2568",78.11398,107.15747
"2569",78.09689,107.17084
"2570",78.08957,107.18414
"2571",78.09445,107.19751
"2572",78.11398,107.210815
"2573",78.135956,107.22418
"2574",78.16281,107.23749
"2575",78.187225,107.250854
"2576",78.2092,107.26416
"2577",78.21652,107.27753
"2578",78.204315,107.29083
"2579",78.17746,107.3042
"2580",78.1384,107.317505
"2581",78.08713,107.33087
"2582",78.05783,107.34418
"2583",78.116425,107.357544
"2584",78.363014,107.37085
"2585",78.89769,107.38422
"2586",79.76929,107.39752
"2587",80.938736,107.41089
"2588",82.27177,107.424194
"2589",83.56573,107.43756
"2590",84.61555,107.45087
"2591",85.28451,107.46423
"2592",85.53353,107.47754
"2593",85.40902,107.490906
"2594",84.99397,107.50421
"2595",84.403145,107.51758
"2596",83.736626,107.53088
"2597",83.070114,107.54425
"2598",82.45731,107.557556
"2599",81.92996,107.57092
"2600",81.495384,107.58423
"2601",81.146255,107.597595
"2602",80.87526,107.6109
"2603",80.68238,107.62427
"2604",80.567635,107.63757
"2605",80.54322,107.65094
"2606",80.601814,107.664246
"2607",80.72877,107.67761
"2608",80.89723,107.69092
"2609",81.06081,107.704285
"2610",81.18288,107.71759
"2611",81.234146,107.73096
"2612",81.20241,107.74426
"2613",81.08522,107.75763
"2614",80.89967,107.770935
"2615",80.655525,107.7843
"2616",80.37965,107.79761
"2617",80.08667,107.810974
"2618",79.79614,107.82428
"2619",79.5227,107.83765
"2620",79.281,107.85095
"2621",79.078354,107.86432
"2622",78.905014,107.877625
"2623",78.76097,107.89099
"2624",78.63645,107.9043
"2625",78.52903,107.91766
"2626",78.43137,107.93097
"2627",78.348366,107.944336
"2628",78.277565,107.95764
"2629",78.21896,107.97101
"2630",78.17746,107.984314
"2631",78.150604,107.99768
"2632",78.1384,108.01099
"2633",78.1384,108.02435
"2634",78.15793,108.03766
"2635",78.184784,108.051025
"2636",78.21164,108.06433
"2637",78.23361,108.0777
"2638",78.25071,108.091
"2639",78.24826,108.10437
"2640",78.22385,108.117676
"2641",78.1799,108.13104
"2642",78.12619,108.14435
"2643",78.09689,108.157715
"2644",78.167694,108.17102
"2645",78.44358,108.18439
"2646",79.029526,108.19769
"2647",79.9646,108.21106
"2648",81.1902,108.224365
"2649",82.56718,108.23773
"2650",83.89044,108.25104
"2651",84.95979,108.264404
"2652",85.643394,108.27771
"2653",85.89975,108.29108
"2654",85.77768,108.30438
"2655",85.36263,108.31775
"2656",84.76448,108.331055
"2657",84.088196,108.34442
"2658",83.4168,108.35773
"2659",82.804,108.37109
"2660",82.269325,108.3844
"2661",81.81766,108.397766
"2662",81.444115,108.41107
"2663",81.143814,108.42444
"2664",80.92897,108.437744
"2665",80.816666,108.45111
"2666",80.81178,108.46442
"2667",80.91432,108.47778
"2668",81.0901,108.49109
"2669",81.29519,108.504456
"2670",81.47585,108.51776
"2671",81.5906,108.53113
"2672",81.61501,108.54443
"2673",81.53689,108.5578
"2674",81.36843,108.571106
"2675",81.13161,108.58447
"2676",80.84352,108.59778
"2677",80.52857,108.611145
"2678",80.21362,108.62445
"2679",79.903564,108.63782
"2680",79.61303,108.65112
"2681",79.3518,108.66449
"2682",79.1223,108.677795
"2683",78.92943,108.69116
"2684",78.765854,108.70447
"2685",78.62913,108.717834
"2686",78.51194,108.73114
"2687",78.41184,108.74451
"2688",78.32639,108.75781
"2689",78.25315,108.77118
"2690",78.19943,108.784485
"2691",78.16281,108.79785
"2692",78.14328,108.81116
"2693",78.14084,108.824524
"2694",78.14816,108.83783
"2695",78.15793,108.8512
"2696",78.16037,108.8645
"2697",78.15549,108.87787
"2698",78.133514,108.891174
"2699",78.09689,108.90454
"2700",78.05051,108.91785
"2701",77.99924,108.93121
"2702",77.98459,108.94452
"2703",78.09201,108.957886
"2704",78.433815,108.97119
"2705",79.10277,108.98456
"2706",80.12085,108.99786
"2707",81.409935,109.01123
"2708",82.80888,109.024536
"2709",84.105286,109.0379
"2710",85.10872,109.05121
"2711",85.70687,109.064575
"2712",85.88022,109.07788
"2713",85.68734,109.09125
"2714",85.22591,109.10455
"2715",84.610664,109.11792
"2716",83.94171,109.131226
"2717",83.299614,109.14459
"2718",82.72343,109.1579
"2719",82.22537,109.171265
"2720",81.80057,109.18457
"2721",81.446556,109.19794
"2722",81.16823,109.21124
"2723",80.97536,109.22461
"2724",80.88014,109.237915
"2725",80.88991,109.25128
"2726",80.987564,109.26459
"2727",81.13405,109.277954
"2728",81.287865,109.29126
"2729",81.40505,109.30463
"2730",81.45388,109.31793
"2731",81.41482,109.3313
"2732",81.28298,109.344604
"2733",81.06569,109.35797
"2734",80.782486,109.37128
"2735",80.45533,109.38464
"2736",80.10864,109.39795
"2737",79.766846,109.411316
"2738",79.44457,109.42462
"2739",79.15404,109.43799
"2740",78.90013,109.451294
"2741",78.677956,109.46466
"2742",78.487526,109.47797
"2743",78.32151,109.49133
"2744",78.17746,109.50464
"2745",78.05051,109.518005
"2746",77.943085,109.53131
"2747",77.85031,109.54468
"2748",77.77707,109.55798
"2749",77.72091,109.57135
"2750",77.68429,109.584656
"2751",77.66476,109.59802
"2752",77.659874,109.61133
"2753",77.659874,109.624695
"2754",77.65743,109.638
"2755",77.64034,109.65137
"2756",77.60616,109.66467
"2757",77.55489,109.67804
"2758",77.488976,109.691345
"2759",77.43038,109.70471
"2760",77.437706,109.71802
"2761",77.60616,109.731384
"2762",78.04074,109.74469
"2763",78.819565,109.75806
"2764",79.9353,109.77136
"2765",81.28542,109.78473
"2766",82.69413,109.798035
"2767",83.94415,109.8114
"2768",84.859695,109.82471
"2769",85.35531,109.83807
"2770",85.42855,109.85138
"2771",85.15755,109.864746
"2772",84.64973,109.87805
"2773",84.01984,109.89142
"2774",83.36309,109.904724
"2775",82.75029,109.91809
"2776",82.213165,109.9314
"2777",81.75174,109.94476
"2778",81.36599,109.95807
"2779",81.04616,109.971436
"2780",80.799576,109.98474
"2781",80.64088,109.99811
"2782",80.58228,110.01141
"2783",80.621346,110.02478
"2784",80.73853,110.038086
"2785",80.89479,110.05145
"2786",81.03639,110.06476
"2787",81.126724,110.078125
"2788",81.13161,110.09143
"2789",81.04372,110.1048
"2790",80.867935,110.1181
"2791",80.61402,110.13147
"2792",80.30396,110.144775
"2793",79.96704,110.15814
"2794",79.61791,110.17145
"2795",79.281,110.184814
"2796",78.96849,110.19812
"2797",78.692604,110.21149
"2798",78.44602,110.22479
"2799",78.238495,110.23816
"2800",78.06271,110.251465
"2801",77.908905,110.26483
"2802",77.77951,110.27814
"2803",77.67696,110.291504
"2804",77.59884,110.30481
"2805",77.55001,110.31818
"2806",77.52804,110.33148
"2807",77.53048,110.34485
"2808",77.54269,110.358154
"2809",77.54757,110.37152
"2810",77.54513,110.38483
"2811",77.523155,110.39819
"2812",77.47677,110.4115
"2813",77.41085,110.424866
"2814",77.34005,110.43817
"2815",77.28878,110.45154
"2816",77.32052,110.46484
"2817",77.53536,110.47821
"2818",78.03586,110.491516
"2819",78.870834,110.50488
"2820",80.01343,110.51819
"2821",81.34402,110.531555
"2822",82.669716,110.54486
"2823",83.7879,110.55823
"2824",84.55207,110.57153
"2825",84.90852,110.5849
"2826",84.87923,110.598206
"2827",84.55207,110.61157
"2828",84.0296,110.62488
"2829",83.421684,110.638245
"2830",82.80644,110.65155
"2831",82.23758,110.66492
"2832",81.72976,110.67822
"2833",81.28542,110.69159
"2834",80.907,110.704895
"2835",80.59693,110.71826
"2836",80.377205,110.73157
"2837",80.26978,110.744934
"2838",80.28687,110.75824
"2839",80.413826,110.77161
"2840",80.604256,110.78491
"2841",80.80934,110.79828
"2842",80.96559,110.811584
"2843",81.03639,110.82495
"2844",80.99733,110.83826
"2845",80.848404,110.85162
"2846",80.60914,110.86493
"2847",80.30396,110.878296
"2848",79.957275,110.8916
"2849",79.59838,110.90497
"2850",79.24437,110.918274
"2851",78.9099,110.93164
"2852",78.60471,110.94495
"2853",78.331276,110.95831
"2854",78.099335,110.97162
"2855",77.90158,110.984985
"2856",77.747765,110.99829
"2857",77.63546,111.01166
"2858",77.55978,111.02496
"2859",77.51339,111.03833
"2860",77.49142,111.051636
"2861",77.48165,111.065
"2862",77.469444,111.07831
"2863",77.44991,111.091675
"2864",77.41573,111.10498
"2865",77.36935,111.11835
"2866",77.30587,111.13165
"2867",77.24483,111.14502
"2868",77.22041,111.158325
"2869",77.313194,111.17169
"2870",77.61349,111.185
"2871",78.21408,111.198364
"2872",79.13695,111.21167
"2873",80.33326,111.22504
"2874",81.65652,111.23834
"2875",82.913864,111.25171
"2876",83.9173,111.265015
"2877",84.54963,111.27838
"2878",84.77669,111.29169
"2879",84.65217,111.30505
"2880",84.263985,111.31836
"2881",83.72442,111.331726
"2882",83.13603,111.34503
"2883",82.56718,111.3584
"2884",82.04471,111.371704
"2885",81.58083,111.38507
"2886",81.16579,111.39838
"2887",80.79469,111.41174
"2888",80.482185,111.42505
"2889",80.25269,111.438416
"2890",80.128174,111.45172
"2891",80.12573,111.46509
"2892",80.22339,111.47839
"2893",80.38453,111.49176
"2894",80.552986,111.505066
"2895",80.67506,111.51843
"2896",80.709236,111.53174
"2897",80.63355,111.545105
"2898",80.45045,111.55841
"2899",80.17944,111.57178
"2900",79.84009,111.58508
"2901",79.46899,111.59845
"2902",79.093,111.611755
"2903",78.73167,111.62512
"2904",78.40208,111.63843
"2905",78.10666,111.651794
"2906",77.855194,111.6651
"2907",77.64034,111.67847
"2908",77.46456,111.69177
"2909",77.330284,111.70514
"2910",77.23506,111.718445
"2911",77.17403,111.73181
"2912",77.13985,111.74512
"2913",77.120316,111.758484
"2914",77.10567,111.77179
"2915",77.086136,111.78516
"2916",77.051956,111.79846
"2917",77.01289,111.81183
"2918",76.97383,111.825134
"2919",76.97139,111.8385
"2920",77.07881,111.85181
"2921",77.40353,111.86517
"2922",78.03342,111.87848
"2923",79.00267,111.891846
"2924",80.255135,111.90515
"2925",81.64919,111.91852
"2926",82.97734,111.93182
"2927",84.054016,111.94519
"2928",84.75227,111.958496
"2929",85.04036,111.97186
"2930",84.96712,111.98517
"2931",84.630196,111.998535
"2932",84.14679,112.01184
"2933",83.62188,112.02521
"2934",83.12871,112.03851
"2935",82.71122,112.05188
"2936",82.3621,112.065186
"2937",82.04959,112.07855
"2938",81.74441,112.09186
"2939",81.43191,112.105225
"2940",81.126724,112.11853
"2941",80.867935,112.1319
"2942",80.68482,112.1452
"2943",80.59449,112.15857
"2944",80.587166,112.171875
"2945",80.618904,112.18524
"2946",80.6482,112.19855
"2947",80.62623,112.211914
"2948",80.52857,112.22522
"2949",80.34547,112.23859
"2950",80.08179,112.25189
"2951",79.74731,112.26526
"2952",79.37377,112.278564
"2953",78.98802,112.29193
"2954",78.61448,112.30524
"2955",78.27268,112.3186
"2956",77.96994,112.33191
"2957",77.7087,112.345276
"2958",77.48409,112.35858
"2959",77.28878,112.37195
"2960",77.120316,112.385254
"2961",76.981155,112.39862
"2962",76.87129,112.41193
"2963",76.79317,112.42529
"2964",76.74433,112.4386
"2965",76.71015,112.451965
"2966",76.67353,112.46527
"2967",76.6247,112.47864
"2968",76.55634,112.49194
"2969",76.470894,112.50531
"2970",76.385445,112.518616
"2971",76.34882,112.53198
"2972",76.44648,112.54529
"2973",76.78584,112.558655
"2974",77.44503,112.57196
"2975",78.45335,112.58533
"2976",79.73022,112.59863
"2977",81.126724,112.612
"2978",82.42802,112.625305
"2979",83.458305,112.63867
"2980",84.105286,112.65198
"2981",84.35432,112.665344
"2982",84.266426,112.67865
"2983",83.93927,112.69202
"2984",83.492485,112.70532
"2985",83.02617,112.71869
"2986",82.61112,112.731995
"2987",82.27665,112.74536
"2988",82.00809,112.75867
"2989",81.77127,112.77203
"2990",81.512474,112.78534
"2991",81.20973,112.798706
"2992",80.86305,112.81201
"2993",80.51148,112.82538
"2994",80.19165,112.838684
"2995",79.937744,112.85205
"2996",79.76929,112.86536
"2997",79.674065,112.87872
"2998",79.61059,112.89203
"2999",79.53979,112.905396
"3000",79.432365,112.9187
"3001",79.26147,112.93207
"3002",79.0222,112.94537
"3003",78.72434,112.95874
"3004",78.39231,112.972046
"3005",78.04318,112.98541
"3006",77.70138,112.99872
"3007",77.38155,113.012085
"3008",77.086136,113.02539
"3009",76.824905,113.03876
"3010",76.59052,113.05206
"3011",76.39033,113.06543
"3012",76.21942,113.078735
"3013",76.0827,113.0921
"3014",75.98749,113.10541
"3015",75.92645,113.118774
"3016",75.89227,113.13208
"3017",75.877625,113.14545
"3018",75.86786,113.15875
"3019",75.85321,113.17212
"3020",75.826355,113.185425
"3021",75.78729,113.19879
"3022",75.72869,113.2121
"3023",75.65301,113.225464
"3024",75.58465,113.23877
"3025",75.562675,113.25214
"3026",75.67742,113.26544
"3027",76.036316,113.27881
"3028",76.71992,113.292114
"3029",77.74044,113.30548
"3030",79.00511,113.31879
"3031",80.34791,113.33215
"3032",81.56374,113.34546
"3033",82.47929,113.358826
"3034",83.00908,113.37213
"3035",83.160446,113.3855
"3036",83.0164,113.3988
"3037",82.684364,113.41217
"3038",82.28153,113.425476
"3039",81.898224,113.43884
"3040",81.58816,113.45215
"3041",81.36843,113.465515
"3042",81.20973,113.47882
"3043",81.06569,113.49219
"3044",80.88258,113.50549
"3045",80.63355,113.51886
"3046",80.325935,113.532166
"3047",79.99634,113.54553
"3048",79.7058,113.55884
"3049",79.4934,113.572205
"3050",79.36889,113.58551
"3051",79.31762,113.59888
"3052",79.30297,113.61218
"3053",79.276115,113.62555
"3054",79.20775,113.638855
"3055",79.08568,113.65222
"3056",78.9099,113.66553
"3057",78.692604,113.678894
"3058",78.44846,113.6922
"3059",78.19211,113.70557
"3060",77.94797,113.71887
"3061",77.71847,113.73224
"3062",77.51339,113.745544
"3063",77.33517,113.75891
"3064",77.18623,113.77222
"3065",77.06172,113.78558
"3066",76.961624,113.79889
"3067",76.87373,113.812256
"3068",76.805374,113.82556
"3069",76.754105,113.83893
"3070",76.72236,113.852234
"3071",76.70771,113.8656
"3072",76.71015,113.87891
"3073",76.72724,113.89227
"3074",76.754105,113.90558
"3075",76.78584,113.918945
"3076",76.81514,113.93225
"3077",76.839554,113.94562
"3078",76.859085,113.95892
"3079",76.859085,113.97229
"3080",76.841995,113.985596
"3081",76.807816,113.99896
"3082",76.75899,114.01227
"3083",76.70771,114.025635
"3084",76.680855,114.03894
"3085",76.732124,114.05231
"3086",76.95674,114.06561
"3087",77.45968,114.07898
"3088",78.30442,114.092285
"3089",79.45922,114.10565
"3090",80.79469,114.11896
"3091",82.11063,114.132324
"3092",83.19707,114.14563
"3093",83.90753,114.159
"3094",84.20294,114.1723
"3095",84.14191,114.18567
"3096",83.826965,114.198975
"3097",83.387505,114.21234
"3098",82.930954,114.22565
"3099",82.53544,114.23901
"3100",82.23514,114.25232
"3101",82.03006,114.265686
"3102",81.881134,114.27899
"3103",81.73708,114.29236
"3104",81.55398,114.305664
"3105",81.3196,114.31903
"3106",81.04616,114.33234
"3107",80.77028,114.3457
"3108",80.53834,114.35901
"3109",80.38209,114.372375
"3110",80.308846,114.38568
"3111",80.28687,114.39905
"3112",80.28443,114.41235
"3113",80.26734,114.42572
"3114",80.21118,114.439026
"3115",80.096436,114.45239
"3116",79.93042,114.4657
"3117",79.72289,114.479065
"3118",79.4934,114.49237
"3119",79.259026,114.50574
"3120",79.03441,114.51904
"3121",78.836655,114.53241
"3122",78.66575,114.545715
"3123",78.519264,114.55908
"3124",78.40208,114.57239
"3125",78.30198,114.585754
"3126",78.221405,114.59906
"3127",78.153046,114.61243
"3128",78.09689,114.62573
"3129",78.05783,114.6391
"3130",78.028534,114.652405
"3131",78.011444,114.66577
"3132",77.99924,114.67908
"3133",77.996796,114.692444
"3134",77.994354,114.70575
"3135",77.99924,114.71912
"3136",78.009,114.73242
"3137",78.02121,114.74579
"3138",78.03342,114.759094
"3139",78.04562,114.77246
"3140",78.048065,114.78577
"3141",78.04074,114.79913
"3142",78.02121,114.81244
"3143",77.98703,114.825806
"3144",77.943085,114.83911
"3145",77.891815,114.85248
"3146",77.85275,114.86578
"3147",77.874725,114.87915
"3148",78.05051,114.892456
"3149",78.48997,114.90582
"3150",79.26391,114.91913
"3151",80.35523,114.932495
"3152",81.63943,114.9458
"3153",82.916306,114.95917
"3154",83.97101,114.97247
"3155",84.63996,114.98584
"3156",84.876785,114.999146
"3157",84.73762,115.01251
"3158",84.334785,115.02582
"3159",83.80011,115.039185
"3160",83.24834,115.05249
"3161",82.76494,115.06586
"3162",82.388954,115.07916
"3163",82.125275,115.09253
"3164",81.94217,115.105835
"3165",81.78836,115.1192
"3166",81.617455,115.13251
"3167",81.39773,115.145874
"3168",81.13161,115.15918
"3169",80.85329,115.17255
"3170",80.604256,115.18585
"3171",80.42115,115.19922
"3172",80.323494,115.212524
"3173",80.2942,115.22589
"3174",80.29664,115.2392
"3175",80.2942,115.25256
"3176",80.257576,115.26587
"3177",80.16724,115.279236
"3178",80.01831,115.29254
"3179",79.82056,115.30591
"3180",79.5935,115.319214
"3181",79.35912,115.33258
"3182",79.132065,115.34589
"3183",78.92699,115.35925
"3184",78.751205,115.37256
"3185",78.60227,115.385925
"3186",78.47532,115.39923
"3187",78.3679,115.4126
"3188",78.28245,115.4259
"3189",78.21652,115.43927
"3190",78.16525,115.452576
"3191",78.12863,115.46594
"3192",78.101776,115.47925
"3193",78.082245,115.492615
"3194",78.065155,115.50592
"3195",78.05295,115.51929
"3196",78.04074,115.53259
"3197",78.030975,115.54596
"3198",78.02121,115.559265
"3199",78.013885,115.57263
"3200",78.00412,115.58594
"3201",77.99924,115.599304
"3202",77.98947,115.61261
"3203",77.979706,115.62598
"3204",77.9675,115.63928
"3205",77.95285,115.65265
"3206",77.93332,115.665955
"3207",77.91135,115.67932
"3208",77.88449,115.69263
"3209",77.855194,115.70599
"3210",77.83078,115.7193
"3211",77.83078,115.732666
"3212",77.91867,115.74597
"3213",78.20187,115.75934
"3214",78.7805,115.772644
"3215",79.693596,115.78601
"3216",80.87526,115.79932
"3217",82.16434,115.81268
"3218",83.346,115.82599
"3219",84.210266,115.839355
"3220",84.63752,115.85266
"3221",84.63508,115.86603
"3222",84.29328,115.87933
"3223",83.74639,115.8927
"3224",83.12138,115.906006
"3225",82.528114,115.91937
"3226",82.03006,115.93268
"3227",81.64919,115.946045
"3228",81.38308,115.95935
"3229",81.197525,115.97272
"3230",81.04372,115.98602
"3231",80.88014,115.99939
"3232",80.69215,116.012695
"3233",80.482185,116.02606
"3234",80.27955,116.03937
"3235",80.11841,116.052734
"3236",80.01831,116.06604
"3237",79.98657,116.07941
"3238",79.99634,116.09271
"3239",80.01587,116.10608
"3240",80.01343,116.119385
"3241",79.96704,116.13275
"3242",79.85962,116.14606
"3243",79.70092,116.159424
"3244",79.50561,116.17273
"3245",79.290764,116.1861
"3246",79.07347,116.1994
"3247",78.86595,116.21277
"3248",78.677956,116.226074
"3249",78.519264,116.23944
"3250",78.38743,116.25275
"3251",78.28001,116.26611
"3252",78.19455,116.27942
"3253",78.12619,116.292786
"3254",78.07004,116.30609
"3255",78.028534,116.31946
"3256",78.00168,116.33276
"3257",77.994354,116.34613
"3258",77.996796,116.359436
"3259",78.009,116.3728
"3260",78.02121,116.38611
"3261",78.03342,116.399475
"3262",78.0383,116.41278
"3263",78.04074,116.42615
"3264",78.04074,116.43945
"3265",78.04562,116.45282
"3266",78.05539,116.466125
"3267",78.0676,116.47949
"3268",78.0798,116.4928
"3269",78.08713,116.506165
"3270",78.09445,116.51947
"3271",78.09689,116.53284
"3272",78.09689,116.54614
"3273",78.09201,116.55951
"3274",78.08469,116.572815
"3275",78.07248,116.58618
"3276",78.0676,116.59949
"3277",78.13107,116.612854
"3278",78.3679,116.62616
"3279",78.8806,116.63953
"3280",79.72045,116.65283
"3281",80.84352,116.6662
"3282",82.09354,116.679504
"3283",83.25811,116.69287
"3284",84.12726,116.70618
"3285",84.56916,116.71954
"3286",84.58137,116.73285
"3287",84.25666,116.746216
"3288",83.71221,116.75952
"3289",83.08476,116.77289
"3290",82.47196,116.786194
"3291",81.94217,116.79956
"3292",81.5198,116.81287
"3293",81.20973,116.82623
"3294",80.99245,116.83954
"3295",80.82887,116.852905
"3296",80.68238,116.86621
"3297",80.52857,116.87958
"3298",80.36256,116.89288
"3299",80.2063,116.90625
"3300",80.08911,116.919556
"3301",80.025635,116.93292
"3302",80.02075,116.94623
"3303",80.062256,116.959595
"3304",80.113525,116.9729
"3305",80.147705,116.98627
"3306",80.14282,116.99957
"3307",80.08911,117.01294
"3308",79.98657,117.026245
"3309",79.84741,117.03961
"3310",79.68139,117.05292
"3311",79.50317,117.066284
"3312",79.32983,117.07959
"3313",79.17357,117.09296
"3314",79.03441,117.10626
"3315",78.91478,117.11963
"3316",78.81712,117.132935
"3317",78.73899,117.1463
"3318",78.6804,117.15961
"3319",78.641335,117.17297
"3320",78.61936,117.18628
"3321",78.61448,117.199646
"3322",78.6218,117.21295
"3323",78.63157,117.22632
"3324",78.64866,117.239624
"3325",78.66331,117.25299
"3326",78.68284,117.2663
"3327",78.69993,117.27966
"3328",78.71946,117.29297
"3329",78.73899,117.306335
"3330",78.765854,117.31964
"3331",78.79027,117.33301
"3332",78.81224,117.34631
"3333",78.82445,117.35968
"3334",78.83421,117.372986
"3335",78.836655,117.38635
"3336",78.83421,117.39966
"3337",78.82689,117.413025
"3338",78.81468,117.42633
"3339",78.79271,117.4397
"3340",78.77318,117.453
"3341",78.80736,117.46637
"3342",78.98802,117.479675
"3343",79.42504,117.49304
"3344",80.181885,117.50635
"3345",81.22438,117.519714
"3346",82.42069,117.53302
"3347",83.5584,117.54639
"3348",84.43,117.55969
"3349",84.9012,117.57306
"3350",84.947586,117.586365
"3351",84.63996,117.59973
"3352",84.102844,117.61304
"3353",83.455864,117.6264
"3354",82.804,117.63971
"3355",82.21805,117.653076
"3356",81.73708,117.66638
"3357",81.373314,117.67975
"3358",81.10475,117.693054
"3359",80.90456,117.70642
"3360",80.73853,117.71973
"3361",80.58961,117.73309
"3362",80.448006,117.7464
"3363",80.33082,117.759766
"3364",80.2478,117.77307
"3365",80.21362,117.78644
"3366",80.22583,117.79974
"3367",80.2649,117.81311
"3368",80.31129,117.826416
"3369",80.3357,117.83978
"3370",80.323494,117.85309
"3371",80.26246,117.866455
"3372",80.15747,117.87976
"3373",80.01831,117.89313
"3374",79.85474,117.90643
"3375",79.68139,117.9198
"3376",79.51049,117.933105
"3377",79.35424,117.94647
"3378",79.217514,117.95978
"3379",79.10521,117.973145
"3380",79.01488,117.98645
"3381",78.94408,117.99982
"3382",78.88548,118.01312
"3383",78.84154,118.02649
"3384",78.81224,118.039795
"3385",78.79515,118.05316
"3386",78.79027,118.06647
"3387",78.79027,118.079834
"3388",78.79759,118.09314
"3389",78.8098,118.10651
"3390",78.82689,118.11981
"3391",78.8513,118.13318
"3392",78.88548,118.146484
"3393",78.924545,118.15985
"3394",78.96361,118.17316
"3395",79.00267,118.18652
"3396",79.03685,118.19983
"3397",79.05394,118.213196
"3398",79.05638,118.2265
"3399",79.0515,118.23987
"3400",79.03197,118.253174
"3401",79.00267,118.26654
"3402",78.975815,118.27985
"3403",78.98558,118.29321
"3404",79.10033,118.30652
"3405",79.42504,118.319885
"3406",80.05249,118.33319
"3407",80.98512,118.34656
"3408",82.125275,118.35986
"3409",83.28741,118.37323
"3410",84.263985,118.386536
"3411",84.88411,118.3999
"3412",85.07454,118.41321
"3413",84.88167,118.426575
"3414",84.41291,118.43988
"3415",83.790344,118.45325
"3416",83.12627,118.46655
"3417",82.50126,118.47992
"3418",81.97391,118.493225
"3419",81.5613,118.50659
"3420",81.25613,118.5199
"3421",81.02663,118.533264
"3422",80.84108,118.54657
"3423",80.672615,118.55994
"3424",80.51881,118.57324
"3425",80.38453,118.58661
"3426",80.29664,118.599915
"3427",80.26734,118.61328
"3428",80.29664,118.62659
"3429",80.365,118.63995
"3430",80.45045,118.65326
"3431",80.52125,118.666626
"3432",80.5481,118.67993
"3433",80.51881,118.6933
"3434",80.43824,118.706604
"3435",80.31617,118.71997
"3436",80.164795,118.73328
"3437",80.00122,118.74664
"3438",79.83765,118.75995
"3439",79.68139,118.773315
"3440",79.537346,118.78662
"3441",79.41039,118.79999
"3442",79.30053,118.81329
"3443",79.21263,118.82666
"3444",79.13695,118.839966
"3445",79.07591,118.85333
"3446",79.03197,118.86664
"3447",79.00755,118.880005
"3448",78.992905,118.89331
"3449",78.99046,118.90668
"3450",78.99779,118.91998
"3451",79.009995,118.93335
"3452",79.02464,118.946655
"3453",79.03929,118.96002
"3454",79.05882,118.97333
"3455",79.080795,118.986694
"3456",79.10277,119
"3457",79.11986,119.01337
"3458",79.12962,119.02667
"3459",79.12962,119.04004
"3460",79.11986,119.053345
"3461",79.09544,119.06671
"3462",79.063705,119.08002
"3463",79.046616,119.09338
"3464",79.11253,119.10669
"3465",79.364006,119.120056
"3466",79.8938,119.13336
"3467",80.72877,119.14673
"3468",81.79813,119.160034
"3469",82.933395,119.1734
"3470",83.92218,119.18671
"3471",84.59113,119.20007
"3472",84.84749,119.21338
"3473",84.7132,119.226746
"3474",84.27863,119.24005
"3475",83.66338,119.25342
"3476",82.9749,119.26672
"3477",82.30839,119.28009
"3478",81.71755,119.293396
"3479",81.23903,119.30676
"3480",80.87526,119.32007
"3481",80.604256,119.333435
"3482",80.396736,119.34674
"3483",80.22583,119.36011
"3484",80.08667,119.37341
"3485",79.98169,119.38678
"3486",79.91333,119.400085
"3487",79.89868,119.41345
"3488",79.937744,119.42676
"3489",80.01587,119.440125
"3490",80.10132,119.45343
"3491",80.17212,119.4668
"3492",80.198975,119.4801
"3493",80.17944,119.49347
"3494",79.974365,119.52014
"3495",79.82056,119.53345
"3496",79.64965,119.546814
"3497",79.46899,119.56012
"3498",79.293205,119.57349
"3499",79.132065,119.58679
"3500",78.98802,119.60016
"3501",78.86595,119.613464
"3502",78.768295,119.62683
"3503",78.692604,119.64014
"3504",78.62913,119.6535
"3505",78.58274,119.66681
"3506",78.54856,119.680176
"3507",78.53391,119.69348
"3508",78.53147,119.70685
"3509",78.54612,119.72015
"3510",78.572975,119.73352
"3511",78.6096,119.746826
"3512",78.64622,119.76019
"3513",78.675514,119.7735
"3514",78.692604,119.786865
"3515",78.69749,119.80017
"3516",78.68528,119.81354
"3517",78.660866,119.82684
"3518",78.63401,119.84021
"3519",78.64622,119.853516
"3520",78.768295,119.86688
"3521",79.09544,119.88019
"3522",79.69848,119.893555
"3523",80.570076,119.90686
"3524",81.61501,119.92023
"3525",82.65507,119.93353
"3526",83.49981,119.9469
"3527",84.00763,119.960205
"3528",84.119934,119.97357
"3529",83.89288,119.98688
"3530",83.41924,120.000244
"3531",82.81377,120.01355
"3532",82.178986,120.02692
"3533",81.58816,120.04022
"3534",81.08766,120.05359
"3535",80.68726,120.066895
"3536",80.38209,120.08026
"3537",80.15015,120.09357
"3538",79.96948,120.10693
"3539",79.82788,120.12024
"3540",79.727776,120.133606
"3541",79.67895,120.14691
"3542",79.68871,120.16028
"3543",79.75952,120.173584
"3544",79.87427,120.18695
"3545",80.0061,120.20026
"3546",80.11841,120.21362
"3547",80.184326,120.22693
"3548",80.19165,120.240295
"3549",80.13794,120.2536
"3550",80.028076,120.26697
"3551",79.87671,120.28027
"3552",79.7058,120.29364
"3553",79.52758,120.306946
"3554",79.35424,120.32031
"3555",79.1931,120.33362
"3556",79.0515,120.346985
"3557",78.93675,120.36029
"3558",78.836655,120.37366
"3559",78.75365,120.38696
"3560",78.68772,120.40033
"3561",78.643776,120.413635
"3562",78.61448,120.427
"3563",78.60471,120.44031
"3564",78.6096,120.453674
"3565",78.626686,120.46698
"3566",78.64866,120.48035
"3567",78.675514,120.49365
"3568",78.70481,120.50702
"3569",78.73167,120.520325
"3570",78.74876,120.53369
"3571",78.75365,120.547
"3572",78.74876,120.56036
"3573",78.74143,120.57367
"3574",78.77074,120.587036
"3575",78.91722,120.60034
"3576",79.273674,120.61371
"3577",79.89624,120.627014
"3578",80.77272,120.64038
"3579",81.80057,120.65369
"3580",82.80156,120.66705
"3581",83.59014,120.68036
"3582",84.03693,120.693726
"3583",84.105286,120.70703
"3584",83.85138,120.7204
"3585",83.36309,120.7337
"3586",82.757614,120.74707
"3587",82.1326,120.760376
"3588",81.55642,120.77374
"3589",81.06325,120.78705
"3590",80.66773,120.800415
"3591",80.365,120.81372
"3592",80.13306,120.82709
"3593",79.954834,120.84039
"3594",79.82788,120.85376
"3595",79.75708,120.867065
"3596",79.75708,120.88043
"3597",79.823,120.89374
"3598",79.94507,120.907104
"3599",80.09888,120.92041
"3600",80.2478,120.93378
"3601",80.35523,120.94708
"3602",80.39918,120.96045
"3603",80.37232,120.973755
"3604",80.27955,120.98712
"3605",80.14038,121.00043
"3606",79.9646,121.013794
"3607",79.77417,121.0271
"3608",79.586174,121.04047
"3609",79.41039,121.05377
"3610",79.256584,121.06714
"3611",79.12474,121.080444
"3612",79.012436,121.09381
"3613",78.91966,121.10712
"3614",78.84642,121.12048
"3615",78.78783,121.13379
"3616",78.74876,121.147156
"3617",78.729225,121.16046
"3618",78.72678,121.17383
"3619",78.73411,121.18713
"3620",78.751205,121.2005
"3621",78.77318,121.213806
"3622",78.79271,121.22717
"3623",78.802475,121.24048
"3624",78.80736,121.253845
"3625",78.79759,121.26715
"3626",78.77806,121.28052
"3627",78.77806,121.29382
"3628",78.853745,121.30719
"3629",79.09056,121.320496
"3630",79.57641,121.33386
"3631",80.325935,121.34717
"3632",81.28542,121.360535
"3633",82.31327,121.37384
"3634",83.21904,121.38721
"3635",83.83917,121.40051
"3636",84.09064,121.41388
"3637",83.983215,121.427185
"3638",83.60235,121.44055
"3639",83.053024,121.45386
"3640",82.44511,121.467224
"3641",81.85916,121.48053
"3642",81.34646,121.4939
"3643",80.92653,121.5072
"3644",80.59937,121.52057
"3645",80.343025,121.533875
"3646",80.147705,121.54724
"3647",80.00366,121.56055
"3648",79.920654,121.57391
"3649",79.90845,121.58722
"3650",79.974365,121.600586
"3651",80.10864,121.61389
"3652",80.28199,121.62726
"3653",80.45777,121.640564
"3654",80.59937,121.65393
"3655",80.67506,121.66724
"3656",80.67506,121.6806
"3657",80.6067,121.69391
"3658",80.47486,121.707275
"3659",80.30396,121.72058
"3660",80.113525,121.73395
"3661",79.91821,121.74725
"3662",79.73266,121.76062
"3663",79.56664,121.773926
"3664",79.4226,121.78729
"3665",79.30785,121.8006
"3666",79.219955,121.813965
"3667",79.15404,121.82727
"3668",79.10521,121.84064
"3669",79.06859,121.85394
"3670",79.046616,121.86731
"3671",79.03441,121.880615
"3672",79.03197,121.89398
"3673",79.04173,121.90729
"3674",79.0515,121.920654
"3675",79.05638,121.93396
"3676",79.0515,121.94733
"3677",79.03929,121.96063
"3678",79.02464,121.974
"3679",79.02464,121.987305
"3680",79.093,122.00067
"3681",79.310295,122.01398
"3682",79.75952,122.02734
"3683",80.46021,122.04065
"3684",81.356224,122.054016
"3685",82.31571,122.06732
"3686",83.158005,122.08069
"3687",83.7293,122.093994
"3688",83.946594,122.10736
"3689",83.83185,122.12067
"3690",83.46075,122.13403
"3691",82.93584,122.14734
"3692",82.357216,122.160706
"3693",81.79813,122.17401
"3694",81.30007,122.18738
"3695",80.88258,122.20068
"3696",80.5481,122.21405
"3697",80.28199,122.227356
"3698",80.07446,122.24072
"3699",79.92798,122.25403
"3700",79.85718,122.267395
"3701",79.871826,122.2807
"3702",79.96948,122.29407
"3703",80.14282,122.30737
"3704",80.35035,122.32074
"3705",80.54566,122.334045
"3706",80.68726,122.34741
"3707",80.75319,122.36072
"3708",80.723885,122.374084
"3709",80.61646,122.38739
"3710",80.45045,122.40076
"3711",80.25025,122.41406
"3712",80.03784,122.42743
"3713",79.83032,122.440735
"3714",79.639885,122.4541
"3715",79.46166,122.46741
"3716",79.310295,122.480774
"3717",79.18822,122.49408
"3718",79.08812,122.50745
"3719",79.01488,122.52075
"3720",78.96605,122.53412
"3721",78.93919,122.547424
"3722",78.924545,122.56079
"3723",78.924545,122.5741
"3724",78.92943,122.58746
"3725",78.93431,122.60077
"3726",78.92699,122.614136
"3727",78.91722,122.62744
"3728",78.907455,122.64081
"3729",78.924545,122.65411
"3730",79.029526,122.66748
"3731",79.30297,122.680786
"3732",79.81323,122.69415
"3733",80.56031,122.70746
"3734",81.47585,122.720825
"3735",82.41337,122.73413
"3736",83.20195,122.7475
"3737",83.702446,122.7608
"3738",83.861145,122.77417
"3739",83.702446,122.787476
"3740",83.3045,122.80084
"3741",82.77226,122.81415
"3742",82.193634,122.827515
"3743",81.64675,122.84082
"3744",81.17067,122.85419
"3745",80.780045,122.86749
"3746",80.47486,122.88086
"3747",80.23804,122.894165
"3748",80.05493,122.90753
"3749",79.92554,122.92084
"3750",79.8645,122.934204
"3751",79.88403,122.94751
"3752",79.98901,122.96088
"3753",80.16235,122.97418
"3754",80.37476,122.98755
"3755",80.57984,123.000854
"3756",80.72877,123.01422
"3757",80.797134,123.02753
"3758",80.77272,123.04089
"3759",80.66285,123.0542
"3760",80.48707,123.067566
"3761",80.27711,123.08087
"3762",80.05249,123.09424
"3763",79.83032,123.107544
"3764",79.62524,123.12091
"3765",79.449455,123.13422
"3766",79.30297,123.14758
"3767",79.1931,123.16089
"3768",79.11253,123.174255
"3769",79.05882,123.18756
"3770",79.01976,123.20093
"3771",78.992905,123.21423
"3772",78.97337,123.2276
"3773",78.958725,123.240906
"3774",78.94652,123.25427
"3775",78.93675,123.26758
"3776",78.93675,123.280945
"3777",78.96849,123.29425
"3778",79.08812,123.30762
"3779",79.38598,123.32092
"3780",79.92554,123.33429
"3781",80.719,123.347595
"3782",81.685814,123.36096
"3783",82.67948,123.37427
"3784",83.51934,123.387634
"3785",84.054016,123.40094
"3786",84.22247,123.41431
"3787",84.06378,123.42761
"3788",83.66338,123.44098
"3789",83.12871,123.454285
"3790",82.55741,123.46765
"3791",82.020294,123.48096
"3792",81.55886,123.49432
"3793",81.1902,123.50763
"3794",80.907,123.520996
"3795",80.68726,123.5343
"3796",80.5066,123.54767
"3797",80.35767,123.560974
"3798",80.25269,123.57434
"3799",80.20386,123.58765
"3800",80.235596,123.60101
"3801",80.3357,123.61432
"3802",80.4773,123.627686
"3803",80.62379,123.64099
"3804",80.73365,123.65436
"3805",80.7776,123.66766
"3806",80.743416,123.68103
"3807",80.635994,123.694336
"3808",80.46998,123.7077
"3809",80.2649,123.72101
"3810",80.042725,123.734375
"3811",79.823,123.74768
"3812",79.622795,123.76105
"3813",79.447014,123.77435
"3814",79.30541,123.78772
"3815",79.18822,123.801025
"3816",79.10033,123.81439
"3817",79.03197,123.8277
"3818",78.98558,123.841064
"3819",78.94652,123.85437
"3820",78.91234,123.86774
"3821",78.87816,123.88104
"3822",78.84154,123.89441
"3823",78.80492,123.907715
"3824",78.78294,123.92108
"3825",78.802475,123.93439
"3826",78.94408,123.947754
"3827",79.29565,123.96106
"3828",79.91333,123.97443
"3829",80.78981,123.98773
"3830",81.82742,124.0011
"3831",82.85771,124.014404
"3832",83.69024,124.02777
"3833",84.190735,124.04108
"3834",84.315254,124.05444
"3835",84.119934,124.06775
"3836",83.69756,124.081116
"3837",83.16533,124.09442
"3838",82.61356,124.10779
"3839",82.11307,124.12109
"3840",81.69558,124.13446
"3841",81.375755,124.147766
"3842",81.13893,124.16113
"3843",80.96315,124.17444
"3844",80.814224,124.187805
"3845",80.66773,124.20111
"3846",80.53101,124.21448
"3847",80.41871,124.22778
"3848",80.35035,124.24115
"3849",80.34058,124.254456
"3850",80.37965,124.26782
"3851",80.44068,124.28113
"3852",80.48463,124.294495
"3853",80.48707,124.3078
"3854",80.430916,124.32117
"3855",80.31373,124.33447
"3856",80.14526,124.34784
"3857",79.94507,124.361145
"3858",79.73266,124.37451
"3859",79.517815,124.38782
"3860",79.31762,124.401184
"3861",79.132065,124.41449
"3862",78.97337,124.42786
"3863",78.84154,124.44116
"3864",78.73167,124.45453
"3865",78.6511,124.467834
"3866",78.58762,124.4812
"3867",78.538795,124.49451
"3868",78.49729,124.50787
"3869",78.45579,124.52118
"3870",78.41184,124.534546
"3871",78.363014,124.54785
"3872",78.3093,124.56122
"3873",78.2678,124.574524
"3874",78.2678,124.58789
"3875",78.380104,124.6012
"3876",78.69749,124.61456
"3877",79.28588,124.62787
"3878",80.14038,124.641235
"3879",81.16823,124.65454
"3880",82.2034,124.66791
"3881",83.06279,124.68121
"3882",83.597466,124.69458
"3883",83.76105,124.707886
"3884",83.59014,124.72125
"3885",83.18486,124.73456
"3886",82.65995,124.747925
"3887",82.12039,124.76123
"3888",81.63943,124.7746
"3889",81.25857,124.7879
"3890",80.98024,124.80127
"3891",80.78493,124.814575
"3892",80.62623,124.82794
"3893",80.46998,124.84125
"3894",80.291756,124.854614
"3895",80.096436,124.86792
"3896",79.90112,124.88129
"3897",79.744865,124.89459
"3898",79.64721,124.90796
"3899",79.61547,124.921265
"3900",79.63256,124.93463
"3901",79.65942,124.94794
"3902",79.66186,124.9613
"3903",79.62035,124.97461
"3904",79.52514,124.987976
"3905",79.378654,125.00128
"3906",79.19554,125.01465
"3907",78.98802,125.027954
"3908",78.77074,125.04132
"3909",78.56077,125.05463
"3910",78.37034,125.06799
"3911",78.20676,125.0813
"3912",78.07004,125.094666
"3913",77.960175,125.10797
"3914",77.86984,125.12134
"3915",77.79172,125.13464
"3916",77.72579,125.14801
"3917",77.68185,125.161316
"3918",77.659874,125.17468
"3919",77.65255,125.18799
"3920",77.65499,125.201355
"3921",77.662315,125.21466
"3922",77.659874,125.22803
"3923",77.645226,125.24133
"3924",77.611046,125.2547
"3925",77.5671,125.268005
"3926",77.52804,125.28137
"3927",77.54513,125.29468
"3928",77.7087,125.308044
"3929",78.10666,125.32135
"3930",78.79271,125.33472
"3931",79.73266,125.34802
"3932",80.79469,125.36139
"3933",81.79813,125.374695
"3934",82.55741,125.38806
"3935",82.95537,125.40137
"3936",82.97734,125.414734
"3937",82.701454,125.42804
"3938",82.24002,125.44141
"3939",81.70779,125.45471
"3940",81.19997,125.46808
"3941",80.7776,125.481384
"3942",80.46021,125.49475
"3943",80.24048,125.50806
"3944",80.08911,125.52142
"3945",79.96216,125.53473
"3946",79.823,125.548096
"3947",79.6643,125.5614
"3948",79.4934,125.57477
"3949",79.33959,125.58807
"3950",79.22972,125.60144
"3951",79.18089,125.614746
"3952",79.18089,125.62811
"3953",79.21019,125.64142
"3954",79.23216,125.654785
"3955",79.22484,125.66809
"3956",79.166245,125.68146
"3957",79.063705,125.69476
"3958",78.91478,125.70813
"3959",78.73899,125.721436
"3960",78.553444,125.7348
"3961",78.37522,125.74811
"3962",78.204315,125.761475
"3963",78.05539,125.77478
"3964",77.925995,125.78815
"3965",77.81857,125.80145
"3966",77.72579,125.81482
"3967",77.65011,125.828125
"3968",77.591515,125.84149
"3969",77.54513,125.8548
"3970",77.51095,125.868164
"3971",77.4963,125.88147
"3972",77.49874,125.89484
"3973",77.51339,125.90814
"3974",77.5378,125.92151
"3975",77.55978,125.934814
"3976",77.58175,125.94818
"3977",77.591515,125.96149
"3978",77.58907,125.97485
"3979",77.58175,125.98816
"3980",77.5671,126.001526
"3981",77.5378,126.01483
"3982",77.506065,126.0282
"3983",77.49386,126.041504
"3984",77.56466,126.05487
"3985",77.81369,126.06818
"3986",78.331276,126.08154
"3987",79.13451,126.09485
"3988",80.15259,126.108215
"3989",81.22926,126.12152
"3990",82.17166,126.13489
"3991",82.80644,126.14819
"3992",83.06035,126.16156
"3993",82.96269,126.174866
"3994",82.60624,126.18823
"3995",82.11063,126.20154
"3996",81.583275,126.214905
"3997",81.10231,126.22821
"3998",80.71412,126.24158
"3999",80.428474,126.25488
"4000",80.23071,126.26825
"4001",80.08423,126.281555
"4002",79.94995,126.29492
"4003",79.801025,126.30823
"4004",79.64233,126.321594
"4005",79.48119,126.3349
"4006",79.34936,126.34827
"4007",79.26879,126.36157
"4008",79.24925,126.37494
"4009",79.27123,126.388245
"4010",79.31762,126.40161
"4011",79.3518,126.41492
"4012",79.35424,126.42828
"4013",79.30785,126.44159
"4014",79.21263,126.454956
"4015",79.07347,126.46826
"4016",78.907455,126.48163
"4017",78.73411,126.494934
"4018",78.56565,126.5083
"4019",78.41184,126.52161
"4020",78.28001,126.53497
"4021",78.167694,126.54828
"4022",78.07248,126.561646
"4023",77.996796,126.57495
"4024",77.93088,126.58832
"4025",77.88449,126.60162
"4026",77.85031,126.61499
"4027",77.82834,126.628296
"4028",77.81613,126.64166
"4029",77.81125,126.65497
"4030",77.80881,126.668335
"4031",77.81125,126.68164
"4032",77.81613,126.69501
"4033",77.82834,126.70831
"4034",77.84543,126.72168
"4035",77.86984,126.734985
"4036",77.89426,126.74835
"4037",77.91867,126.76166
"4038",77.93576,126.775024
"4039",77.94797,126.78833
"4040",77.945526,126.8017
"4041",77.93088,126.815
"4042",77.90646,126.82837
"4043",77.87961,126.841675
"4044",77.891815,126.85504
"4045",78.028534,126.86835
"4046",78.39231,126.881714
"4047",79.05394,126.89502
"4048",79.99878,126.90839
"4049",81.12184,126.92169
"4050",82.2327,126.93506
"4051",83.13359,126.948364
"4052",83.67803,126.96173
"4053",83.82941,126.97504
"4054",83.64385,126.9884
"4055",83.23125,127.00171
"4056",82.71122,127.015076
"4057",82.176544,127.02838
"4058",81.69558,127.04175
"4059",81.304955,127.05505
"4060",81.0193,127.06842
"4061",80.814224,127.081726
"4062",80.65797,127.09509
"4063",80.52369,127.1084
"4064",80.38697,127.121765
"4065",80.24536,127.13507
"4066",80.111084,127.14844
"4067",80.01099,127.16174
"4068",79.957275,127.17511
"4069",79.954834,127.188416
"4070",79.98413,127.20178
"4071",80.025635,127.21509
"4072",80.05737,127.228455
"4073",80.062256,127.24176
"4074",80.02319,127.25513
"4075",79.940186,127.26843
"4076",79.815674,127.2818
"4077",79.6643,127.295105
"4078",79.49828,127.30847
"4079",79.327385,127.32178
"4080",79.168686,127.335144
"4081",79.027084,127.34845
"4082",78.905014,127.36182
"4083",78.802475,127.37512
"4084",78.71946,127.38849
"4085",78.65598,127.401794
"4086",78.60227,127.41516
"4087",78.55833,127.42847
"4088",78.521706,127.44183
"4089",78.49729,127.45514
"4090",78.485085,127.468506
"4091",78.47776,127.48181
"4092",78.47532,127.49518
"4093",78.47776,127.508484
"4094",78.48264,127.52185
"4095",78.48997,127.53516
"4096",78.49729,127.54852
"4097",78.50706,127.56183
"4098",78.519264,127.575195
"4099",78.52659,127.5885
"4100",78.52903,127.60187
"4101",78.52659,127.61517
"4102",78.51682,127.62854
"4103",78.49973,127.641846
"4104",78.47288,127.65521
"4105",78.44602,127.66852
"4106",78.43626,127.681885
"4107",78.5095,127.69519
"4108",78.76341,127.70856
"4109",79.293205,127.72186
"4110",80.128174,127.73523
"4111",81.19264,127.748535
"4112",82.340126,127.7619
"4113",83.36797,127.77521
"4114",84.09796,127.788574
"4115",84.44221,127.80188
"4116",84.422676,127.81525
"4117",84.122375,127.82855
"4118",83.65118,127.84192
"4119",83.11162,127.855225
"4120",82.58427,127.86859
"4121",82.125275,127.8819
"4122",81.75906,127.89526
"4123",81.480736,127.90857
"4124",81.27322,127.921936
"4125",81.10719,127.93524
"4126",80.955826,127.94861
"4127",80.80934,127.961914
"4128",80.672615,127.97528
"4129",80.57252,127.98859
"4130",80.52125,128.00195
"4131",80.52125,128.01526
"4132",80.56031,128.02863
"4133",80.618904,128.04193
"4134",80.66529,128.0553
"4135",80.6775,128.0686
"4136",80.64088,128.08197
"4137",80.55543,128.09528
"4138",80.42359,128.10864
"4139",80.255135,128.12195
"4140",80.07446,128.13531
"4141",79.89136,128.14862
"4142",79.71313,128.16199
"4143",79.54711,128.1753
"4144",79.398186,128.18866
"4145",79.26635,128.20197
"4146",79.14671,128.21533
"4147",79.046616,128.22864
"4148",78.96361,128.242
"4149",78.89525,128.25531
"4150",78.83421,128.26868
"4151",78.78783,128.28198
"4152",78.75365,128.29535
"4153",78.729225,128.30865
"4154",78.712135,128.32202
"4155",78.70725,128.33533
"4156",78.70725,128.3487
"4157",78.712135,128.362
"4158",78.71702,128.37537
"4159",78.72434,128.38867
"4160",78.73167,128.40204
"4161",78.73655,128.41534
"4162",78.73655,128.42871
"4163",78.72678,128.44202
"4164",78.709694,128.45538
"4165",78.675514,128.46869
"4166",78.63645,128.48206
"4167",78.60471,128.49536
"4168",78.61936,128.50873
"4169",78.76341,128.52203
"4170",79.13939,128.5354
"4171",79.80347,128.5487
"4172",80.743416,128.56207
"4173",81.85428,128.57538
"4174",82.95781,128.58875
"4175",83.86359,128.60205
"4176",84.43244,128.61542
"4177",84.62043,128.62872
"4178",84.473946,128.64209
"4179",84.088196,128.6554
"4180",83.56817,128.66876
"4181",83.01396,128.68207
"4182",82.49149,128.69543
"4183",82.04471,128.70874
"4184",81.685814,128.7221
"4185",81.40261,128.73541
"4186",81.17555,128.74878
"4187",80.98268,128.76208
"4188",80.80934,128.77545
"4189",80.66285,128.78876
"4190",80.55543,128.80212
"4191",80.50172,128.81543
"4192",80.50172,128.8288
"4193",80.54078,128.8421
"4194",80.601814,128.85547
"4195",80.65797,128.86877
"4196",80.68238,128.88214
"4197",80.66529,128.89545
"4198",80.601814,128.90881
"4199",80.48463,128.92212
"4200",80.32838,128.93549
"4201",80.14282,128.94879
"4202",79.940186,128.96216
"4203",79.73754,128.97546
"4204",79.54467,128.98883
"4205",79.37133,129.00214
"4206",79.219955,129.0155
"4207",79.09056,129.02881
"4208",78.9807,129.04218
"4209",78.88548,129.05548
"4210",78.80003,129.06885
"4211",78.72434,129.08215
"4212",78.660866,129.09552
"4213",78.61204,129.10883
"4214",78.57542,129.1222
"4215",78.54612,129.1355
"4216",78.519264,129.14886
"4217",78.504616,129.16217
"4218",78.49485,129.17554
"4219",78.49729,129.18884
"4220",78.50706,129.20221
"4221",78.52415,129.21552
"4222",78.54124,129.22888
"4223",78.54856,129.24219
"4224",78.54124,129.25555
"4225",78.521706,129.26886
"4226",78.487526,129.28223
"4227",78.44114,129.29553
"4228",78.4094,129.3089
"4229",78.44358,129.3222
"4230",78.63645,129.33557
"4231",79.08568,129.34888
"4232",79.83276,129.36224
"4233",80.84108,129.37555
"4234",81.98123,129.38892
"4235",83.06767,129.40222
"4236",83.912415,129.41559
"4237",84.403145,129.4289
"4238",84.51301,129.44226
"4239",84.300606,129.45557
"4240",83.86847,129.46893
"4241",83.31426,129.48224
"4242",82.73319,129.4956
"4243",82.18631,129.50891
"4244",81.71755,129.52228
"4245",81.33669,129.53558
"4246",81.03883,129.54895
"4247",80.80202,129.56226
"4248",80.60914,129.57562
"4249",80.45533,129.58893
"4250",80.343025,129.6023
"4251",80.28443,129.6156
"4252",80.2942,129.62897
"4253",80.360115,129.64227
"4254",80.46021,129.65564
"4255",80.56519,129.66895
"4256",80.64576,129.68231
"4257",80.672615,129.69562
"4258",80.63355,129.70898
"4259",80.5359,129.72229
"4260",80.38941,129.73566
"4261",80.2063,129.74896
"4262",80.008545,129.76233
"4263",79.80591,129.77563
"4264",79.61059,129.789
"4265",79.42748,129.8023
"4266",79.26147,129.81567
"4267",79.114975,129.82898
"4268",78.98314,129.84235
"4269",78.86351,129.85565
"4270",78.76097,129.86902
"4271",78.67307,129.88232
"4272",78.59983,129.89569
"4273",78.54124,129.909
"4274",78.49973,129.92236
"4275",78.47288,129.93567
"4276",78.46067,129.94904
"4277",78.45579,129.96234
"4278",78.45823,129.97571
"4279",78.46555,129.98901
"4280",78.47532,130.00238
"4281",78.47776,130.01569
"4282",78.4802,130.02905
"4283",78.47288,130.04236
"4284",78.45823,130.05573
"4285",78.42649,130.06903
"4286",78.399635,130.0824
"4287",78.40696,130.0957
"4288",78.52903,130.10907
"4289",78.86839,130.12238
"4290",79.48852,130.13574
"4291",80.37476,130.14905
"4292",81.43435,130.16241
"4293",82.49149,130.17572
"4294",83.36553,130.18909
"4295",83.91974,130.2024
"4296",84.1004,130.21576
"4297",83.94171,130.22906
"4298",83.526665,130.24243
"4299",82.95537,130.25574
"4300",82.320595,130.2691
"4301",81.70046,130.28241
"4302",81.146255,130.29578
"4303",80.67506,130.30908
"4304",80.2942,130.32245
"4305",79.9939,130.33575
"4306",79.75464,130.34912
"4307",79.58129,130.36243
"4308",79.47875,130.3758
"4309",79.45678,130.3891
"4310",79.51049,130.40247
"4311",79.63012,130.41577
"4312",79.78638,130.42914
"4313",79.94263,130.44244
"4314",80.059814,130.45581
"4315",80.12085,130.46912
"4316",80.111084,130.48248
"4317",80.03052,130.49579
"4318",79.89624,130.50916
"4319",79.71801,130.52246
"4320",79.517815,130.53583
"4321",79.30785,130.54913
"4322",79.10521,130.5625
"4323",78.91478,130.5758
"4324",78.74876,130.58917
"4325",78.607155,130.60248
"4326",78.49485,130.61584
"4327",78.40208,130.62915
"4328",78.328835,130.64252
"4329",78.26536,130.65582
"4330",78.21652,130.66919
"4331",78.1799,130.6825
"4332",78.15549,130.69586
"4333",78.14084,130.70917
"4334",78.14572,130.72253
"4335",78.15549,130.73584
"4336",78.170135,130.7492
"4337",78.19211,130.76251
"4338",78.21408,130.77588
"4339",78.22873,130.78918
"4340",78.23361,130.80255
"4341",78.23361,130.81586
"4342",78.23361,130.82922
"4343",78.260475,130.84253
"4344",78.38987,130.8559
"4345",78.71946,130.8692
"4346",79.30541,130.88257
"4347",80.15015,130.89587
"4348",81.16579,130.90924
"4349",82.19119,130.92255
"4350",83.04082,130.93591
"4351",83.57305,130.94922
"4352",83.736626,130.96259
"4353",83.560844,130.97589
"4354",83.13603,130.98926
"4355",82.56962,131.00256
"4356",81.951935,131.01593
"4357",81.35134,131.02924
"4358",80.81178,131.0426
"4359",80.35767,131.05591
"4360",79.98169,131.06927
"4361",79.67895,131.08258
"4362",79.449455,131.09595
"4363",79.29565,131.10925
"4364",79.219955,131.12262
"4365",79.234604,131.13593
"4366",79.33959,131.14929
"4367",79.517815,131.1626
"4368",79.73022,131.17596
"4369",79.937744,131.18927
"4370",80.10864,131.20264
"4371",80.21362,131.21594
"4372",80.235596,131.22931
"4373",80.177,131.24261
"4374",80.05493,131.25598
"4375",79.88403,131.26929
"4376",79.693596,131.28265
"4377",79.500725,131.29596
"4378",79.327385,131.30933
"4379",79.17113,131.32263
"4380",79.03929,131.336
"4381",78.92699,131.3493
"4382",78.836655,131.36267
"4383",78.76097,131.37598
"4384",78.70481,131.38934
"4385",78.66575,131.40265
"4386",78.641335,131.41602
"4387",78.63401,131.42932
"4388",78.63889,131.44269
"4389",78.65354,131.456
"4390",78.67307,131.46936
"4391",78.69749,131.48267
"4392",78.7219,131.49603
"4393",78.73899,131.50934
"4394",78.75365,131.5227
"4395",78.76097,131.53601
"4396",78.785385,131.54938
"4397",78.887924,131.56268
"4398",79.16136,131.57605
"4399",79.67162,131.58936
"4400",80.44068,131.60272
"4401",81.38796,131.61603
"4402",82.36698,131.6294
"4403",83.20195,131.6427
"4404",83.74639,131.65607
"4405",83.94171,131.66937
"4406",83.809875,131.68274
"4407",83.43633,131.69604
"4408",82.91142,131.70941
"4409",82.320595,131.72272
"4410",81.73708,131.73608
"4411",81.20241,131.74939
"4412",80.73609,131.76276
"4413",80.34791,131.77606
"4414",80.03296,131.78943
"4415",79.79126,131.80273
"4416",79.62524,131.8161
"4417",79.551994,131.8294
"4418",79.58129,131.84277
"4419",79.71313,131.85608
"4420",79.93286,131.86945
"4421",80.19165,131.88275
"4422",80.44312,131.89612
"4423",80.6482,131.90942
"4424",80.76784,131.92279
"4425",80.79225,131.9361
"4426",80.72144,131.94946
"4427",80.58228,131.96277
"4428",80.396736,131.97614
"4429",80.184326,131.98944
"4430",79.96948,132.0028
"4431",79.77173,132.01611
"4432",79.59838,132.02948
"4433",79.4519,132.04279
"4434",79.33227,132.05615
"4435",79.237045,132.06946
"4436",79.17113,132.08282
"4437",79.12718,132.09613
"4438",79.10033,132.1095
"4439",79.08324,132.1228
"4440",79.07591,132.13617
"4441",79.07347,132.14948
"4442",79.06859,132.16284
"4443",79.061264,132.17615
"4444",79.05638,132.18951
"4445",79.07103,132.20282
"4446",79.15404,132.21619
"4447",79.38598,132.22949
"4448",79.84009,132.24286
"4449",80.5481,132.25616
"4450",81.45632,132.26953
"4451",82.44022,132.28284
"4452",83.32403,132.2962
"4453",83.949036,132.30951
"4454",84.23224,132.32288
"4455",84.17853,132.33618
"4456",83.85382,132.34955
"4457",83.34844,132.36285
"4458",82.7625,132.37622
"4459",82.16434,132.38953
"4460",81.60525,132.4029
"4461",81.10475,132.4162
"4462",80.6775,132.42957
"4463",80.323494,132.44287
"4464",80.04761,132.45624
"4465",79.85718,132.46954
"4466",79.76196,132.48291
"4467",79.77173,132.49622
"4468",79.88403,132.50958
"4469",80.07446,132.52289
"4470",80.30396,132.53625
"4471",80.53101,132.54956
"4472",80.71168,132.56293
"4473",80.814224,132.57623
"4474",80.82643,132.5896
"4475",80.7483,132.6029
"4476",80.59693,132.61627
"4477",80.396736,132.62958
"4478",80.16968,132.64294
"4479",79.937744,132.65625
"4480",79.72045,132.66962
"4481",79.52758,132.68292
"4482",79.361565,132.69629
"4483",79.2224,132.7096
"4484",79.11009,132.72296
"4485",79.01976,132.73627
"4486",78.94652,132.74963
"4487",78.887924,132.76294
"4488",78.84642,132.7763
"4489",78.80736,132.78961
"4490",78.77318,132.80298
"4491",78.73899,132.81628
"4492",78.71946,132.82965
"4493",78.75609,132.84296
"4494",78.91966,132.85632
"4495",79.29565,132.86963
"4496",79.937744,132.883
"4497",80.82399,132.8963
"4498",81.85672,132.90967
"4499",82.86992,132.92297
"4500",83.6878,132.93634
"4501",84.18341,132.94965
"4502",84.315254,132.96301
"4503",84.11749,132.97632
"4504",83.6878,132.98969
"4505",83.123825,133.00299
"4506",82.52079,133.01636
"4507",81.94705,133.02966
"4508",81.44167,133.04303
"4509",81.01686,133.05634
"4510",80.66773,133.0697
"4511",80.38453,133.08301
"4512",80.16235,133.09637
"4513",80.00366,133.10968
"4514",79.920654,133.12305
"4515",79.920654,133.13635
