"","ppg","time"
"1",81.42458,890.2178
"2",81.19264,890.2311
"3",80.936295,890.2444
"4",80.67017,890.2577
"5",80.4065,890.271
"6",80.15503,890.2843
"7",79.923096,890.2976
"8",79.71801,890.3109
"9",79.54223,890.3242
"10",79.3933,890.3375
"11",79.273674,890.3508
"12",79.18822,890.36414
"13",79.12474,890.37744
"14",79.08568,890.39075
"15",79.07103,890.40405
"16",79.07591,890.41736
"17",79.10033,890.43066
"18",79.13695,890.444
"19",79.17845,890.4573
"20",79.219955,890.4706
"21",79.256584,890.4839
"22",79.27856,890.4972
"23",79.28344,890.5105
"24",79.276115,890.5238
"25",79.25414,890.5371
"26",79.25414,890.5504
"27",79.35912,890.5637
"28",79.67895,890.577
"29",80.30396,890.59033
"30",81.248795,890.60364
"31",82.43046,890.61694
"32",83.69024,890.63025
"33",84.82796,890.64355
"34",85.67513,890.65686
"35",86.151215,890.67017
"36",86.2562,890.6835
"37",86.05356,890.6968
"38",85.628746,890.7101
"39",85.0721,890.7234
"40",84.4593,890.7367
"41",83.84894,890.75
"42",83.28008,890.7633
"43",82.76738,890.7766
"44",82.31083,890.7899
"45",81.91287,890.8032
"46",81.5906,890.8165
"47",81.36843,890.82983
"48",81.26589,890.84314
"49",81.29275,890.85645
"50",81.44167,890.86975
"51",81.671165,890.88306
"52",81.92996,890.89636
"53",82.161896,890.90967
"54",82.32304,890.923
"55",82.38407,890.9363
"56",82.340126,890.9496
"57",82.20096,890.9629
"58",81.97879,890.9762
"59",81.69802,890.9895
"60",81.375755,891.0028
"61",81.03639,891.0161
"62",80.689705,891.0294
"63",80.35523,891.0427
"64",80.045166,891.056
"65",79.75952,891.06934
"66",79.500725,891.08264
"67",79.27856,891.09595
"68",79.09056,891.10925
"69",78.93919,891.12256
"70",78.82445,891.13586
"71",78.751205,891.1492
"72",78.70725,891.1625
"73",78.68284,891.1758
"74",78.67307,891.1891
"75",78.675514,891.2024
"76",78.68528,891.2157
"77",78.695045,891.229
"78",78.712135,891.2423
"79",78.72434,891.2556
"80",78.72434,891.2689
"81",78.70725,891.2822
"82",78.67307,891.29553
"83",78.61692,891.30884
"84",78.551,891.32214
"85",78.504616,891.33545
"86",78.553444,891.34875
"87",78.819565,891.36206
"88",79.40795,891.37537
"89",80.360115,891.3887
"90",81.62722,891.402
"91",83.053024,891.4153
"92",84.43488,891.4286
"93",85.57015,891.4419
"94",86.33433,891.4552
"95",86.693214,891.4685
"96",86.676125,891.4818
"97",86.35386,891.4951
"98",85.81674,891.5084
"99",85.15999,891.5217
"100",84.454414,891.53503
"101",83.74883,891.54834
"102",83.072556,891.56165
"103",82.43534,891.57495
"104",81.85916,891.58826
"105",81.36355,891.60156
"106",80.99245,891.61487
"107",80.77516,891.6282
"108",80.72877,891.6415
"109",80.84108,891.6548
"110",81.077896,891.6681
"111",81.38064,891.6814
"112",81.688255,891.6947
"113",81.93973,891.708
"114",82.09354,891.7213
"115",82.125275,891.7346
"116",82.03494,891.7479
"117",81.832306,891.7612
"118",81.53933,891.77454
"119",81.18288,891.78784
"120",80.78493,891.80115
"121",80.36988,891.81445
"122",79.95972,891.82776
"123",79.57641,891.84106
"124",79.219955,891.8544
"125",78.905014,891.8677
"126",78.62913,891.881
"127",78.38987,891.8943
"128",78.18234,891.9076
"129",78.013885,891.9209
"130",77.88205,891.9342
"131",77.786835,891.9475
"132",77.72579,891.9608
"133",77.69894,891.9741
"134",77.70138,891.9874
"135",77.72091,892.00073
"136",77.75021,892.01404
"137",77.77707,892.02734
"138",77.789276,892.04065
"139",77.77707,892.05396
"140",77.74044,892.06726
"141",77.68429,892.08057
"142",77.63302,892.0939
"143",77.65255,892.1072
"144",77.855194,892.1205
"145",78.363014,892.1338
"146",79.237045,892.1471
"147",80.45045,892.1604
"148",81.87381,892.1737
"149",83.29473,892.187
"150",84.49592,892.2003
"151",85.313805,892.2136
"152",85.69222,892.2269
"153",85.6556,892.24023
"154",85.28207,892.25354
"155",84.664375,892.26685
"156",83.90753,892.28015
"157",83.09697,892.29346
"158",82.29618,892.30676
"159",81.532005,892.32007
"160",80.82399,892.3334
"161",80.17212,892.3467
"162",79.59594,892.36
"163",79.11742,892.3733
"164",78.77562,892.3866
"165",78.60227,892.3999
"166",78.60471,892.4132
"167",78.75853,892.4265
"168",79.012436,892.4398
"169",79.29809,892.4531
"170",79.554436,892.46643
"171",79.72289,892.47974
"172",79.77173,892.49304
"173",79.693596,892.50635
"174",79.50317,892.51965
"175",79.22972,892.53296
"176",78.89769,892.54626
"177",78.53391,892.5596
"178",78.16037,892.5729
"179",77.78439,892.5862
"180",77.420616,892.5995
"181",77.083694,892.6128
"182",76.790726,892.6261
"183",76.5539,892.6394
"184",76.387886,892.6527
"185",76.28779,892.666
"186",76.241394,892.6793
"187",76.226746,892.6926
"188",76.226746,892.70593
"189",76.226746,892.71924
"190",76.23163,892.73254
"191",76.24628,892.74585
"192",76.27802,892.75916
"193",76.31953,892.77246
"194",76.35859,892.78577
"195",76.383,892.7991
"196",76.39277,892.8124
"197",76.383,892.8257
"198",76.37812,892.839
"199",76.43183,892.8523
"200",76.654,892.8656
"201",77.15694,892.8789
"202",78.013885,892.8922
"203",79.21263,892.9055
"204",80.635994,892.9188
"205",82.08865,892.9321
"206",83.34844,892.94543
"207",84.24689,892.95874
"208",84.71076,892.97205
"209",84.7596,892.98535
"210",84.46906,892.99866
"211",83.931946,893.01196
"212",83.25811,893.02527
"213",82.528114,893.0386
"214",81.812775,893.0519
"215",81.15358,893.0652
"216",80.56031,893.0785
"217",80.0354,893.0918
"218",79.59106,893.1051
"219",79.24925,893.1184
"220",79.027084,893.1317
"221",78.95628,893.145
"222",79.03929,893.1583
"223",79.25414,893.17163
"224",79.54955,893.18494
"225",79.86206,893.19824
"226",80.13306,893.21155
"227",80.32105,893.22485
"228",80.394295,893.23816
"229",80.35035,893.25146
"230",80.19409,893.2648
"231",79.954834,893.2781
"232",79.656975,893.2914
"233",79.33227,893.3047
"234",78.995346,893.318
"235",78.67307,893.3313
"236",78.3679,893.3446
"237",78.09201,893.3579
"238",77.85031,893.3712
"239",77.64767,893.3845
"240",77.47921,893.3978
"241",77.347374,893.41113
"242",77.24971,893.42444
"243",77.18379,893.43774
"244",77.152054,893.45105
"245",77.154495,893.46436
"246",77.18379,893.47766
"247",77.23262,893.49097
"248",77.296104,893.5043
"249",77.35958,893.5176
"250",77.420616,893.5309
"251",77.469444,893.5442
"252",77.503624,893.5575
"253",77.52071,893.5708
"254",77.5256,893.5841
"255",77.54757,893.5974
"256",77.6672,893.6107
"257",78.00656,893.624
"258",78.66331,893.6373
"259",79.66186,893.65063
"260",80.936295,893.66394
"261",82.32548,893.67725
"262",83.612114,893.69055
"263",84.60578,893.70386
"264",85.19905,893.71716
"265",85.37972,893.73047
"266",85.206375,893.7438
"267",84.76204,893.7571
"268",84.15411,893.7704
"269",83.47295,893.7837
"270",82.78935,893.797
"271",82.15701,893.8103
"272",81.5906,893.8236
"273",81.09987,893.8369
"274",80.68726,893.8502
"275",80.360115,893.8635
"276",80.14038,893.87683
"277",80.05737,893.89014
"278",80.12085,893.90344
"279",80.31129,893.91675
"280",80.59449,893.93005
"281",80.91432,893.94336
"282",81.20729,893.95667
"283",81.42458,893.97
"284",81.53933,893.9833
"285",81.54177,893.9966
"286",81.43923,894.0099
"287",81.23659,894.0232
"288",80.96559,894.0365
"289",80.65064,894.0498
"290",80.31129,894.0631
"291",79.971924,894.0764
"292",79.65209,894.0897
"293",79.361565,894.103
"294",79.10521,894.11633
"295",78.890366,894.12964
"296",78.71702,894.14294
"297",78.58762,894.15625
"298",78.49973,894.16956
"299",78.44602,894.18286
"300",78.416725,894.19617
"301",78.40208,894.2095
"302",78.40452,894.2228
"303",78.41428,894.2361
"304",78.43626,894.2494
"305",78.47288,894.2627
"306",78.519264,894.276
"307",78.56077,894.2893
"308",78.59739,894.3026
"309",78.626686,894.3159
"310",78.643776,894.3292
"311",78.64622,894.3425
"312",78.63889,894.35583
"313",78.61692,894.36914
"314",78.60471,894.38245
"315",78.660866,894.39575
"316",78.887924,894.40906
"317",79.40063,894.42236
"318",80.26002,894.43567
"319",81.427025,894.449
"320",82.777145,894.4623
"321",84.105286,894.4756
"322",85.206375,894.4889
"323",85.93149,894.5022
"324",86.24155,894.5155
"325",86.168304,894.5288
"326",85.79233,894.5421
"327",85.21126,894.5554
"328",84.52277,894.5687
"329",83.79523,894.58203
"330",83.08476,894.59534
"331",82.425575,894.60864
"332",81.82498,894.62195
"333",81.287865,894.63525
"334",80.8362,894.64856
"335",80.48463,894.66187
"336",80.2649,894.6752
"337",80.18921,894.6885
"338",80.26246,894.7018
"339",80.45289,894.7151
"340",80.71412,894.7284
"341",80.98512,894.7417
"342",81.21217,894.755
"343",81.35378,894.7683
"344",81.38552,894.7816
"345",81.304955,894.7949
"346",81.11696,894.8082
"347",80.84596,894.82153
"348",80.52125,894.83484
"349",80.16724,894.84814
"350",79.80835,894.86145
"351",79.45922,894.87476
"352",79.13695,894.88806
"353",78.836655,894.90137
"354",78.55833,894.9147
"355",78.30442,894.928
"356",78.082245,894.9413
"357",77.89914,894.9546
"358",77.75754,894.9679
"359",77.65499,894.9812
"360",77.593956,894.9945
"361",77.56466,895.0078
"362",77.55978,895.0211
"363",77.574425,895.0344
"364",77.60372,895.0477
"365",77.642784,895.06104
"366",77.68673,895.07434
"367",77.72091,895.08765
"368",77.75021,895.10095
"369",77.7673,895.11426
"370",77.77463,895.12756
"371",77.76486,895.14087
"372",77.738,895.1542
"373",77.69161,895.1675
"374",77.65743,895.1808
"375",77.7087,895.1941
"376",77.962616,895.2074
"377",78.521706,895.2207
"378",79.4226,895.234
"379",80.59693,895.2473
"380",81.88846,895.2606
"381",83.09209,895.2739
"382",84.02472,895.28723
"383",84.578926,895.30054
"384",84.74738,895.31384
"385",84.58381,895.32715
"386",84.16388,895.34045
"387",83.57549,895.35376
"388",82.89433,895.36707
"389",82.18631,895.3804
"390",81.495384,895.3937
"391",80.84108,895.407
"392",80.23804,895.4203
"393",79.70092,895.4336
"394",79.24681,895.4469
"395",78.90013,895.4602
"396",78.69749,895.4735
"397",78.6511,895.4868
"398",78.76341,895.5001
"399",79.00267,895.5134
"400",79.32006,895.52673
"401",79.65209,895.54004
"402",79.937744,895.55334
"403",80.13306,895.56665
"404",80.21362,895.57996
"405",80.17944,895.59326
"406",80.04761,895.60657
"407",79.84741,895.6199
"408",79.59838,895.6332
"409",79.3225,895.6465
"410",79.03441,895.6598
"411",78.74876,895.6731
"412",78.467995,895.6864
"413",78.20187,895.6997
"414",77.95773,895.713
"415",77.738,895.7263
"416",77.5378,895.7396
"417",77.366905,895.7529
"418",77.225296,895.76624
"419",77.10811,895.77954
"420",77.0251,895.79285
"421",76.978714,895.80615
"422",76.96651,895.81946
"423",76.97383,895.83276
"424",76.998245,895.84607
"425",77.02754,895.8594
"426",77.0544,895.8727
"427",77.07149,895.886
"428",77.08858,895.8993
"429",77.154495,895.9126
"430",77.35226,895.9259
"431",77.77707,895.9392
"432",78.49729,895.9525
"433",79.50317,895.9658
"434",80.69703,895.9791
"435",81.90555,895.99243
"436",82.93828,896.00574
"437",83.66338,896.01904
"438",84.02472,896.03235
"439",84.04181,896.04565
"440",83.790344,896.05896
"441",83.35088,896.07227
"442",82.80156,896.0856
"443",82.196075,896.0989
"444",81.57839,896.1122
"445",80.96803,896.1255
"446",80.37965,896.1388
"447",79.82544,896.1521
"448",79.33227,896.1654
"449",78.92943,896.1787
"450",78.64622,896.192
"451",78.519264,896.2053
"452",78.56077,896.2186
"453",78.76097,896.23193
"454",79.08568,896.24524
"455",79.48119,896.25854
"456",79.87915,896.27185
"457",80.22095,896.28516
"458",80.45289,896.29846
"459",80.55543,896.31177
"460",80.53834,896.3251
"461",80.42115,896.3384
"462",80.23071,896.3517
"463",79.9939,896.365
"464",79.73998,896.3783
"465",79.47631,896.3916
"466",79.21507,896.4049
"467",78.96117,896.4182
"468",78.72434,896.4315
"469",78.50706,896.4448
"470",78.3093,896.4581
"471",78.13107,896.47144
"472",77.97482,896.48474
"473",77.83322,896.49805
"474",77.713585,896.51135
"475",77.625694,896.52466
"476",77.61349,896.53796
"477",77.7551,896.5513
"478",78.16037,896.5646
"479",78.890366,896.5779
"480",79.95239,896.5912
"481",81.25124,896.6045
"482",82.62821,896.6178
"483",83.88068,896.6311
"484",84.842606,896.6444
"485",85.42611,896.6577
"486",85.626305,896.671
"487",85.49691,896.6843
"488",85.11604,896.69763
"489",84.56184,896.71094
"490",83.90753,896.72424
"491",83.211716,896.73755
"492",82.49882,896.75085
"493",81.7908,896.76416
"494",81.109634,896.77747
"495",80.48707,896.7908
"496",79.957275,896.8041
"497",79.5642,896.8174
"498",79.3518,896.8307
"499",79.33471,896.844
"500",79.500725,896.8573
"501",79.798584,896.8706
"502",80.16968,896.8839
"503",80.54078,896.8972
"504",80.85329,896.9105
"505",81.06325,896.9238
"506",81.146255,896.93713
"507",81.109634,896.95044
"508",80.97536,896.96375
"509",80.76784,896.97705
"510",80.51148,896.99036
"511",80.23071,897.00366
"512",79.94263,897.01697
"513",79.64965,897.0303
"514",79.35912,897.0436
"515",79.078354,897.0569
"516",78.802475,897.0702
"517",78.54368,897.0835
"518",78.30686,897.0968
"519",78.133514,897.1101
"520",78.099335,897.1234
"521",78.31907,897.1367
"522",78.89769,897.15
"523",79.86694,897.1633
"524",81.17067,897.17664
"525",82.650185,897.18994
"526",84.09308,897.20325
"527",85.28939,897.21655
"528",86.11459,897.22986
"529",86.51499,897.24316
"530",86.52964,897.2565
"531",86.2269,897.2698
"532",85.69955,897.2831
"533",85.02083,897.2964
"534",84.25666,897.3097
"535",83.45342,897.323
"536",82.63554,897.3363
"537",81.83475,897.3496
"538",81.08766,897.3629
"539",80.430916,897.3762
"540",79.91089,897.3895
"541",79.569084,897.40283
"542",79.43481,897.41614
"543",79.49828,897.42944
"544",79.727776,897.44275
"545",80.062256,897.45605
"546",80.42359,897.46936
"547",80.73609,897.48267
"548",80.94362,897.496
"549",81.01686,897.5093
"550",80.955826,897.5226
"551",80.7776,897.5359
"552",80.50904,897.5492
"553",80.177,897.5625
"554",79.815674,897.5758
"555",79.44457,897.5891
"556",79.08812,897.6024
"557",78.746315,897.6157
"558",78.433815,897.629
"559",78.150604,897.64233
"560",77.90646,897.65564
"561",77.74288,897.66895
"562",77.76486,897.68225
"563",78.09689,897.69556
"564",78.84886,897.70886
"565",80.03784,897.72217
"566",81.58572,897.7355
"567",83.29229,897.7488
"568",84.90608,897.7621
"569",86.21225,897.7754
"570",87.07164,897.7887
"571",87.45495,897.802
"572",87.39391,897.8153
"573",86.98375,897.8286
"574",86.327,897.8419
"575",85.53109,897.8552
"576",84.66682,897.8685
"577",83.790344,897.88184
"578",82.92851,897.89514
"579",82.10086,897.90845
"580",81.32693,897.92175
"581",80.64576,897.93506
"582",80.10864,897.94836
"583",79.74975,897.9617
"584",79.5935,897.975
"585",79.63012,897.9883
"586",79.815674,898.0016
"587",80.08911,898.0149
"588",80.37232,898.0282
"589",80.604256,898.0415
"590",80.723885,898.0548
"591",80.709236,898.0681
"592",80.55787,898.0814
"593",80.291756,898.0947
"594",79.937744,898.10803
"595",79.52758,898.12134
"596",79.09056,898.13464
"597",78.64622,898.14795
"598",78.21164,898.16125
"599",77.7966,898.17456
"600",77.40841,898.18787
"601",77.05684,898.2012
"602",76.77852,898.2145
"603",76.65156,898.2278
"604",76.807816,898.2411
"605",77.37911,898.2544
"606",78.42893,898.2677
"607",79.91089,898.281
"608",81.6614,898.2943
"609",83.421684,898.3076
"610",84.928055,898.3209
"611",85.98764,898.3342
"612",86.53208,898.34753
"613",86.57847,898.36084
"614",86.2269,898.37415
"615",85.59701,898.38745
"616",84.81331,898.40076
"617",83.966125,898.41406
"618",83.11162,898.42737
"619",82.27421,898.4407
"620",81.463646,898.454
"621",80.68482,898.4673
"622",79.974365,898.4806
"623",79.36889,898.4939
"624",78.922104,898.5072
"625",78.65354,898.5205
"626",78.56077,898.5338
"627",78.6096,898.5471
"628",78.746315,898.5604
"629",78.90257,898.5737
"630",79.0222,898.58704
"631",79.05882,898.60034
"632",78.97826,898.61365
"633",78.77318,898.62695
"634",78.45579,898.64026
"635",78.05295,898.65356
"636",77.611046,898.6669
"637",77.16182,898.6802
"638",76.72724,898.6935
"639",76.32685,898.7068
"640",75.96307,898.7201
"641",75.63836,898.7334
"642",75.34783,898.7467
"643",75.089035,898.76
"644",74.86687,898.7733
"645",74.6984,898.7866
"646",74.64225,898.7999
"647",74.813156,898.81323
"648",75.35027,898.82654
"649",76.33173,898.83984
"650",77.747765,898.85315
"651",79.45678,898.86646
"652",81.22194,898.87976
"653",82.76982,898.89307
"654",83.89288,898.9064
"655",84.49348,898.9197
"656",84.59113,898.933
"657",84.28596,898.9463
"658",83.70489,898.9596
"659",82.984665,898.9729
"660",82.2327,898.9862
"661",81.514915,898.9995
"662",80.85329,899.0128
"663",80.25269,899.0261
"664",79.69848,899.0394
"665",79.185776,899.05273
"666",78.72678,899.06604
"667",78.35081,899.07935
"668",78.0798,899.09265
"669",77.93088,899.10596
"670",77.90646,899.11926
"671",77.96994,899.13257
"672",78.07004,899.1459
"673",78.15549,899.1592
"674",78.187225,899.1725
"675",78.12863,899.1858
"676",77.97238,899.1991
"677",77.72579,899.2124
"678",77.41085,899.2257
"679",77.05684,899.239
"680",76.69062,899.2523
"681",76.32685,899.2656
"682",75.98993,899.27893
"683",75.684746,899.29224
"684",75.41375,899.30554
"685",75.18181,899.31885
"686",74.99382,899.33215
"687",74.84978,899.34546
"688",74.75212,899.35876
"689",74.69352,899.3721
"690",74.67155,899.3854
"691",74.67399,899.3987
"692",74.6984,899.412
"693",74.7277,899.4253
"694",74.76189,899.4386
"695",74.78874,899.4519
"696",74.80827,899.4652
"697",74.83513,899.4785
"698",74.93523,899.4918
"699",75.22331,899.5051
"700",75.82391,899.51843
"701",76.807816,899.53174
"702",78.14572,899.54504
"703",79.70336,899.55835
"704",81.25857,899.57166
"705",82.57206,899.58496
"706",83.48028,899.59827
"707",83.929504,899.6116
"708",83.963684,899.6249
"709",83.6878,899.6382
"710",83.228806,899.6515
"711",82.69413,899.6648
"712",82.16434,899.6781
"713",81.69314,899.6914
"714",81.2781,899.7047
"715",80.89723,899.718
"716",80.52857,899.7313
"717",80.16235,899.7446
"718",79.80835,899.75793
"719",79.49828,899.77124
"720",79.27123,899.78455
"721",79.151596,899.79785
"722",79.13939,899.81116
"723",79.200424,899.82446
"724",79.29809,899.83777
"725",79.38598,899.8511
"726",79.42748,899.8644
"727",79.40551,899.8777
"728",79.30541,899.891
"729",79.13939,899.9043
"730",78.91966,899.9176
"731",78.66575,899.9309
"732",78.39475,899.9442
"733",78.12863,899.9575
"734",77.86984,899.9708
"735",77.625694,899.98413
"736",77.40597,899.99744
"737",77.22041,900.01074
"738",77.07393,900.02405
"739",76.96651,900.03735
"740",76.90059,900.05066
"741",76.86641,900.06396
"742",76.8542,900.0773
"743",76.8542,900.0906
"744",76.86885,900.1039
"745",76.893265,900.1172
"746",76.927444,900.1305
"747",76.97139,900.1438
"748",77.02022,900.1571
"749",77.06416,900.1704
"750",77.09834,900.1837
"751",77.12764,900.197
"752",77.152054,900.2103
"753",77.16914,900.22363
"754",77.18135,900.23694
"755",77.19112,900.25024
"756",77.19356,900.26355
"757",77.19112,900.27686
"758",77.18623,900.29016
"759",77.18135,900.30347
"760",77.18379,900.3168
"761",77.2375,900.3301
"762",77.435265,900.3434
"763",77.90402,900.3567
"764",78.73411,900.37
"765",79.9353,900.3833
"766",81.41238,900.3966
"767",82.97246,900.4099
"768",84.38117,900.4232
"769",85.44564,900.4365
"770",86.06821,900.4498
"771",86.2562,900.46313
"772",86.0853,900.47644
"773",85.662926,900.48975
"774",85.10872,900.50305
"775",84.52277,900.51636
"776",83.980774,900.52966
"777",83.51202,900.54297
"778",83.1165,900.5563
"779",82.76494,900.5696
"780",82.4329,900.5829
"781",82.11795,900.5962
"782",81.829865,900.6095
"783",81.59304,900.6228
"784",81.43435,900.6361
"785",81.36599,900.6494
"786",81.36843,900.6627
"787",81.42214,900.676
"788",81.4905,900.68933
"789",81.53689,900.70264
"790",81.532005,900.71594
"791",81.45876,900.72925
"792",81.307396,900.74255
"793",81.08278,900.75586
"794",80.80446,900.76917
"795",80.49439,900.7825
"796",80.17212,900.7958
"797",79.8645,900.8091
"798",79.58373,900.8224
"799",79.33959,900.8357
"800",79.13939,900.849
"801",78.9807,900.8623
"802",78.86107,900.8756
"803",78.77074,900.8889
"804",78.70725,900.9022
"805",78.66331,900.9155
"806",78.63645,900.92883
"807",78.624245,900.94214
"808",78.624245,900.95544
"809",78.626686,900.96875
"810",78.63157,900.98206
"811",78.63157,900.99536
"812",78.61936,901.00867
"813",78.60471,901.022
"814",78.58274,901.0353
"815",78.56077,901.0486
"816",78.536354,901.0619
"817",78.51194,901.0752
"818",78.485085,901.0885
"819",78.45579,901.1018
"820",78.42161,901.1151
"821",78.382545,901.1284
"822",78.34104,901.1417
"823",78.29221,901.155
"824",78.24582,901.16833
"825",78.22629,901.18164
"826",78.294655,901.19495
"827",78.57053,901.20825
"828",79.168686,901.22156
"829",80.15259,901.23486
"830",81.48806,901.24817
"831",83.0457,901.2615
"832",84.61555,901.2748
"833",85.97543,901.2881
"834",86.96422,901.3014
"835",87.52087,901.3147
"836",87.66491,901.328
"837",87.47204,901.3413
"838",87.04967,901.3546
"839",86.51011,901.3679
"840",85.94614,901.3812
"841",85.41634,901.39453
"842",84.945145,901.40784
"843",84.5301,901.42114
"844",84.14679,901.43445
"845",83.775696,901.44775
"846",83.4168,901.46106
"847",83.08476,901.47437
"848",82.804,901.4877
"849",82.598915,901.501
"850",82.47929,901.5143
"851",82.43046,901.5276
"852",82.425575,901.5409
"853",82.43046,901.5542
"854",82.408485,901.5675
"855",82.3328,901.5808
"856",82.18143,901.5941
"857",81.95682,901.6074
"858",81.66384,901.6207
"859",81.324486,901.63403
"860",80.953384,901.64734
"861",80.5774,901.66064
"862",80.20874,901.67395
"863",79.85962,901.68726
"864",79.537346,901.70056
"865",79.2517,901.71387
"866",79.00023,901.7272
"867",78.78294,901.7405
"868",78.60227,901.7538
"869",78.44846,901.7671
"870",78.31907,901.7804
"871",78.21164,901.7937
"872",78.12863,901.807
"873",78.06271,901.8203
"874",78.011444,901.8336
"875",77.97238,901.8469
"876",77.93576,901.8602
"877",77.891815,901.87354
"878",77.84299,901.88684
"879",77.79172,901.90015
"880",77.738,901.91345
"881",77.68185,901.92676
"882",77.625694,901.94006
"883",77.56466,901.95337
"884",77.503624,901.9667
"885",77.44503,901.98
"886",77.39376,901.9933
"887",77.347374,902.0066
"888",77.31075,902.0199
"889",77.27657,902.0332
"890",77.242386,902.0465
"891",77.21065,902.0598
"892",77.19112,902.0731
"893",77.222855,902.0864
"894",77.401085,902.09973
"895",77.86008,902.11304
"896",78.712135,902.12634
"897",79.98169,902.13965
"898",81.600365,902.15295
"899",83.39971,902.16626
"900",85.13313,902.17957
"901",86.57603,902.1929
"902",87.586784,902.2062
"903",88.11902,902.2195
"904",88.20935,902.2328
"905",87.94568,902.2461
"906",87.44518,902.2594
"907",86.81529,902.2727
"908",86.1561,902.286
"909",85.521324,902.2993
"910",84.9427,902.3126
"911",84.41047,902.3259
"912",83.9173,902.33923
"913",83.44854,902.35254
"914",83.01396,902.36584
"915",82.633095,902.37915
"916",82.340126,902.39246
"917",82.15457,902.40576
"918",82.074005,902.41907
"919",82.06912,902.4324
"920",82.108185,902.4457
"921",82.13992,902.459
"922",82.127716,902.4723
"923",82.04471,902.4856
"924",81.87381,902.4989
"925",81.60525,902.5122
"926",81.25613,902.5255
"927",80.850845,902.5388
"928",80.413826,902.5521
"929",79.96948,902.5654
"930",79.53979,902.57874
"931",79.12962,902.59204
"932",78.751205,902.60535
"933",78.40208,902.61865
"934",78.08713,902.63196
"935",77.81125,902.64526
"936",77.57931,902.65857
"937",77.39132,902.6719
"938",77.24727,902.6852
"939",77.134964,902.6985
"940",77.05684,902.7118
"941",77.00313,902.7251
"942",76.97139,902.7384
"943",76.944534,902.7517
"944",76.92012,902.765
"945",76.89082,902.7783
"946",76.85176,902.7916
"947",76.80293,902.80493
"948",76.75166,902.81824
"949",76.70283,902.83154
"950",76.65644,902.84485
"951",76.61738,902.85815
"952",76.578316,902.87146
"953",76.544136,902.88477
"954",76.50996,902.8981
"955",76.473335,902.9114
"956",76.43427,902.9247
"957",76.40009,902.938
"958",76.37568,902.9513
"959",76.35371,902.9646
"960",76.33906,902.9779
"961",76.32197,902.9912
"962",76.3122,903.0045
"963",76.32441,903.0178
"964",76.43427,903.0311
"965",76.773636,903.04443
"966",77.48409,903.05774
"967",78.63645,903.07104
"968",80.21118,903.08435
"969",82.07156,903.09766
"970",83.966125,903.11096
"971",85.64095,903.12427
"972",86.90074,903.1376
"973",87.65514,903.1509
"974",87.90906,903.1642
"975",87.74059,903.1775
"976",87.257195,903.1908
"977",86.57603,903.2041
"978",85.79721,903.2174
"979",84.99153,903.2307
"980",84.210266,903.244
"981",83.47051,903.2573
"982",82.774704,903.2706
"983",82.13992,903.28394
"984",81.57839,903.29724
"985",81.12428,903.31055
"986",80.80446,903.32385
"987",80.63111,903.33716
"988",80.604256,903.35046
"989",80.69459,903.3638
"990",80.85817,903.3771
"991",81.03883,903.3904
"992",81.180435,903.4037
"993",81.24391,903.417
"994",81.197525,903.4303
"995",81.03883,903.4436
"996",80.7776,903.4569
"997",80.44068,903.4702
"998",80.05249,903.4835
"999",79.63744,903.4968
"1000",79.21507,903.51013
"1001",78.79515,903.52344
"1002",78.38987,903.53674
"1003",78.013885,903.55005
"1004",77.67452,903.56335
"1005",77.37911,903.57666
"1006",77.13008,903.58997
"1007",76.92256,903.6033
"1008",76.75166,903.6166
"1009",76.61738,903.6299
"1010",76.52216,903.6432
"1011",76.45869,903.6565
"1012",76.42451,903.6698
"1013",76.404976,903.6831
"1014",76.402534,903.6964
"1015",76.40742,903.7097
"1016",76.41718,903.723
"1017",76.42939,903.7363
"1018",76.44404,903.74963
"1019",76.44892,903.76294
"1020",76.45136,903.77625
"1021",76.44648,903.78955
"1022",76.4416,903.80286
"1023",76.43427,903.81616
"1024",76.43183,903.82947
"1025",76.42939,903.8428
"1026",76.42451,903.8561
"1027",76.422066,903.8694
"1028",76.419624,903.8827
"1029",76.41718,903.896
"1030",76.41474,903.9093
"1031",76.404976,903.9226
"1032",76.39521,903.9359
"1033",76.41474,903.9492
"1034",76.544136,903.9625
"1035",76.912796,903.9758
"1036",77.65499,903.98914
"1037",78.84398,904.00244
"1038",80.44312,904.01575
"1039",82.29618,904.02905
"1040",84.16632,904.04236
"1041",85.79965,904.05566
"1042",87.010605,904.069
"1043",87.725945,904.0823
"1044",87.94812,904.0956
"1045",87.74792,904.1089
"1046",87.22789,904.1222
"1047",86.49058,904.1355
"1048",85.63119,904.1488
"1049",84.72297,904.1621
"1050",83.81476,904.1754
"1051",82.933395,904.1887
"1052",82.09598,904.202
"1053",81.33181,904.21533
"1054",80.66041,904.22864
"1055",80.1355,904.24194
"1056",79.78638,904.25525
"1057",79.64233,904.26855
"1058",79.691154,904.28186
"1059",79.90112,904.29517
"1060",80.20874,904.3085
"1061",80.5481,904.3218
"1062",80.848404,904.3351
"1063",81.05592,904.3484
"1064",81.14137,904.3617
"1065",81.094986,904.375
"1066",80.92897,904.3883
"1067",80.66529,904.4016
"1068",80.32838,904.4149
"1069",79.937744,904.4282
"1070",79.52514,904.4415
"1071",79.10277,904.45483
"1072",78.68528,904.46814
"1073",78.28733,904.48145
"1074",77.91867,904.49475
"1075",77.58175,904.50806
"1076",77.2839,904.52136
"1077",77.02754,904.53467
"1078",76.8127,904.548
"1079",76.64179,904.5613
"1080",76.50996,904.5746
"1081",76.41718,904.5879
"1082",76.36347,904.6012
"1083",76.3415,904.6145
"1084",76.3415,904.6278
"1085",76.35371,904.6411
"1086",76.38056,904.6544
"1087",76.4123,904.6677
"1088",76.45136,904.681
"1089",76.49775,904.69434
"1090",76.54658,904.70764
"1091",76.58808,904.72095
"1092",76.627144,904.73425
"1093",76.65888,904.74756
"1094",76.680855,904.76086
"1095",76.697945,904.7742
"1096",76.70771,904.7875
"1097",76.71015,904.8008
"1098",76.70283,904.8141
"1099",76.69062,904.8274
"1100",76.67841,904.8407
"1101",76.70771,904.854
"1102",76.87129,904.8673
"1103",77.30831,904.8806
"1104",78.1384,904.8939
"1105",79.41772,904.9072
"1106",81.0901,904.92053
"1107",82.97978,904.93384
"1108",84.82796,904.94714
"1109",86.38804,904.96045
"1110",87.48669,904.97375
"1111",88.06531,904.98706
"1112",88.1532,905.00037
"1113",87.83093,905.0137
"1114",87.20592,905.027
"1115",86.380714,905.0403
"1116",85.43832,905.0536
"1117",84.45197,905.0669
"1118",83.46563,905.0802
"1119",82.50858,905.0935
"1120",81.59548,905.1068
"1121",80.7483,905.1201
"1122",79.98901,905.1334
"1123",79.37377,905.1467
"1124",78.94896,905.16003
"1125",78.75609,905.17334
"1126",78.79271,905.18665
"1127",79.029526,905.19995
"1128",79.398186,905.21326
"1129",79.815674,905.22656
"1130",80.20874,905.23987
"1131",80.516365,905.2532
"1132",80.69947,905.2665
"1133",80.743416,905.2798
"1134",80.65308,905.2931
"1135",80.445564,905.3064
"1136",80.15259,905.3197
"1137",79.80347,905.333
"1138",79.42016,905.3463
"1139",79.02464,905.3596
"1140",78.61936,905.3729
"1141",78.21408,905.3862
"1142",77.81125,905.39954
"1143",77.4255,905.41284
"1144",77.07149,905.42615
"1145",76.756546,905.43945
"1146",76.490425,905.45276
"1147",76.2707,905.46606
"1148",76.09491,905.4794
"1149",75.95575,905.4927
"1150",75.85321,905.506
"1151",75.78241,905.5193
"1152",75.736015,905.5326
"1153",75.716484,905.5459
"1154",75.72625,905.5592
"1155",75.76288,905.5725
"1156",75.8288,905.5858
"1157",75.914246,905.5991
"1158",76.00702,905.6124
"1159",76.09491,905.62573
"1160",76.16815,905.63904
"1161",76.22186,905.65234
"1162",76.26093,905.66565
"1163",76.28535,905.67896
"1164",76.30732,905.69226
"1165",76.3708,905.70557
"1166",76.575874,905.7189
"1167",77.0544,905.7322
"1168",77.93088,905.7455
"1169",79.26147,905.7588
"1170",80.972916,905.7721
"1171",82.879684,905.7854
"1172",84.71809,905.7987
"1173",86.24887,905.812
"1174",87.308464,905.8253
"1175",87.84802,905.8386
"1176",87.904175,905.8519
"1177",87.56481,905.86523
"1178",86.93492,905.87854
"1179",86.10239,905.89185
"1180",85.155106,905.90515
"1181",84.159,905.91846
"1182",83.15068,905.93176
"1183",82.15701,905.94507
"1184",81.20485,905.9584
"1185",80.306404,905.9717
"1186",79.500725,905.985
"1187",78.83421,905.9983
"1188",78.35081,906.0116
"1189",78.08957,906.0249
"1190",78.065155,906.0382
"1191",78.25559,906.0515
"1192",78.60471,906.0648
"1193",79.04173,906.0781
"1194",79.48608,906.09143
"1195",79.869385,906.10474
"1196",80.14526,906.11804
"1197",80.291756,906.13135
"1198",80.306404,906.14465
"1199",80.198975,906.15796
"1200",79.9939,906.17126
"1201",79.710686,906.1846
"1202",79.37377,906.1979
"1203",79.00755,906.2112
"1204",78.63157,906.2245
"1205",78.25803,906.2378
"1206",77.89426,906.2511
"1207",77.55245,906.2644
"1208",77.239944,906.2777
"1209",76.95918,906.291
"1210",76.71015,906.3043
"1211",76.48798,906.3176
"1212",76.29511,906.33093
"1213",76.13153,906.34424
"1214",75.99725,906.35754
"1215",75.897156,906.37085
"1216",75.8288,906.38416
"1217",75.79706,906.39746
"1218",75.84833,906.41077
"1219",76.07782,906.4241
"1220",76.6247,906.4374
"1221",77.591515,906.4507
"1222",78.995346,906.464
"1223",80.72877,906.4773
"1224",82.58671,906.4906
"1225",84.30793,906.5039
"1226",85.662926,906.5172
"1227",86.52964,906.5305
"1228",86.890976,906.5438
"1229",86.80553,906.5571
"1230",86.37339,906.57043
"1231",85.694664,906.58374
"1232",84.86214,906.59705
"1233",83.949036,906.61035
"1234",83.001755,906.62366
"1235",82.04715,906.63696
"1236",81.10475,906.65027
"1237",80.198975,906.6636
"1238",79.364006,906.6769
"1239",78.641335,906.6902
"1240",78.0798,906.7035
"1241",77.73556,906.7168
"1242",77.63058,906.7301
"1243",77.75998,906.7434
"1244",78.082245,906.7567
"1245",78.52903,906.77
"1246",79.012436,906.7833
"1247",79.466545,906.79663
"1248",79.82544,906.80994
"1249",80.0647,906.82324
"1250",80.17944,906.83655
"1251",80.181885,906.84985
"1252",80.08667,906.86316
"1253",79.91821,906.87646
"1254",79.693596,906.8898
"1255",79.432365,906.9031
"1256",79.149155,906.9164
"1257",78.85863,906.9297
"1258",78.57053,906.943
"1259",78.294655,906.9563
"1260",78.02365,906.9696
"1261",77.76486,906.9829
"1262",77.52071,906.9962
"1263",77.30831,907.0095
"1264",77.17403,907.0228
"1265",77.22774,907.03613
"1266",77.611046,907.04944
"1267",78.43137,907.06274
"1268",79.70092,907.07605
"1269",81.33425,907.08936
"1270",83.11894,907.10266
"1271",84.788895,907.11597
"1272",86.11215,907.1293
"1273",86.96666,907.1426
"1274",87.32311,907.1559
"1275",87.237656,907.1692
"1276",86.81529,907.1825
"1277",86.1561,907.1958
"1278",85.35287,907.2091
"1279",84.4593,907.2224
"1280",83.52178,907.2357
"1281",82.562294,907.249
"1282",81.60525,907.2623
"1283",80.68726,907.27563
"1284",79.84985,907.28894
"1285",79.14671,907.30225
"1286",78.63157,907.31555
"1287",78.34104,907.32886
"1288",78.28245,907.34216
"1289",78.43137,907.35547
"1290",78.73899,907.3688
"1291",79.13695,907.3821
"1292",79.54223,907.3954
"1293",79.888916,907.4087
"1294",80.14038,907.422
"1295",80.26978,907.4353
"1296",80.28443,907.4486
"1297",80.19409,907.4619
"1298",80.028076,907.4752
"1299",79.80835,907.4885
"1300",79.55932,907.50183
"1301",79.28588,907.51514
"1302",78.995346,907.52844
"1303",78.70237,907.54175
"1304",78.4094,907.55505
"1305",78.12375,907.56836
"1306",77.86252,907.58167
"1307",77.69405,907.595
"1308",77.72335,907.6083
"1309",78.10422,907.6216
"1310",78.94896,907.6349
"1311",80.289314,907.6482
"1312",82.01541,907.6615
"1313",83.912415,907.6748
"1314",85.69955,907.6881
"1315",87.13023,907.7014
"1316",88.060425,907.7147
"1317",88.465706,907.728
"1318",88.394905,907.74133
"1319",87.94568,907.75464
"1320",87.22545,907.76794
"1321",86.33189,907.78125
"1322",85.33578,907.79456
"1323",84.29328,907.80786
"1324",83.23857,907.82117
"1325",82.20096,907.8345
"1326",81.21706,907.8478
"1327",80.323494,907.8611
"1328",79.57641,907.8744
"1329",79.027084,907.8877
"1330",78.709694,907.901
"1331",78.63889,907.9143
"1332",78.785385,907.9276
"1333",79.097885,907.9409
"1334",79.4934,907.9542
"1335",79.90112,907.9675
"1336",80.2478,907.98083
"1337",80.49195,907.99414
"1338",80.601814,908.00745
"1339",80.584724,908.02075
"1340",80.445564,908.03406
"1341",80.216064,908.04736
"1342",79.90845,908.06067
"1343",79.554436,908.074
"1344",79.17113,908.0873
"1345",78.768295,908.1006
"1346",78.35569,908.1139
"1347",77.94797,908.1272
"1348",77.58419,908.1405
"1349",77.35958,908.1538
"1350",77.435265,908.1671
"1351",77.977264,908.1804
"1352",79.08324,908.1937
"1353",80.72144,908.20703
"1354",82.72831,908.22034
"1355",84.81819,908.23364
"1356",86.68345,908.24695
"1357",88.079956,908.26025
"1358",88.8954,908.27356
"1359",89.12489,908.28687
"1360",88.851456,908.3002
"1361",88.199585,908.3135
"1362",87.293816,908.3268
"1363",86.24399,908.3401
"1364",85.13313,908.3534
"1365",84.00519,908.3667
"1366",82.882126,908.38
"1367",81.78836,908.3933
"1368",80.76051,908.4066
"1369",79.84985,908.4199
"1370",79.11253,908.4332
"1371",78.59495,908.44653
"1372",78.32395,908.45984
"1373",78.2971,908.47314
"1374",78.467995,908.48645
"1375",78.77074,908.49976
"1376",79.1223,908.51306
"1377",79.43481,908.52637
"1378",79.63744,908.5397
"1379",79.693596,908.553
"1380",79.588615,908.5663
"1381",79.34936,908.5796
"1382",79.01488,908.5929
"1383",78.6218,908.6062
"1384",78.18967,908.6195
"1385",77.738,908.6328
"1386",77.27413,908.6461
"1387",76.805374,908.6594
"1388",76.34638,908.6727
"1389",75.931335,908.68604
"1390",75.63836,908.69934
"1391",75.613945,908.71265
"1392",76.02655,908.72595
"1393",77.00557,908.73926
"1394",78.56077,908.75256
"1395",80.55543,908.76587
"1396",82.718544,908.7792
"1397",84.72053,908.7925
"1398",86.275734,908.8058
"1399",87.22789,908.8191
"1400",87.56725,908.8324
"1401",87.36706,908.8457
"1402",86.75914,908.859
"1403",85.87778,908.8723
"1404",84.85237,908.8856
"1405",83.76593,908.8989
"1406",82.684364,908.91223
"1407",81.636986,908.92554
"1408",80.64576,908.93884
"1409",79.72289,908.95215
"1410",78.90013,908.96545
"1411",78.21408,908.97876
"1412",77.71114,908.99207
"1413",77.42306,909.0054
"1414",77.35226,909.0187
"1415",77.45968,909.032
"1416",77.68673,909.0453
"1417",77.962616,909.0586
"1418",78.21164,909.0719
"1419",78.380104,909.0852
"1420",78.433815,909.0985
"1421",78.35569,909.1118
"1422",78.15549,909.1251
"1423",77.855194,909.1384
"1424",77.49142,909.15173
"1425",77.09102,909.16504
"1426",76.6833,909.17834
"1427",76.28779,909.19165
"1428",75.90692,909.20496
"1429",75.545586,909.21826
"1430",75.208664,909.23157
"1431",74.898605,909.2449
"1432",74.632484,909.2582
"1433",74.486,909.2715
"1434",74.59586,909.2848
"1435",75.13542,909.2981
"1436",76.23163,909.3114
"1437",77.88449,909.3247
"1438",79.95972,909.338
"1439",82.18631,909.3513
"1440",84.23224,909.3646
"1441",85.81186,909.3779
"1442",86.783554,909.39124
"1443",87.12779,909.40454
"1444",86.9276,909.41785
"1445",86.312355,909.43115
"1446",85.43832,909.44446
"1447",84.439766,909.45776
"1448",83.41192,909.47107
"1449",82.41337,909.4844
"1450",81.47097,909.4977
"1451",80.59205,909.511
"1452",79.77661,909.5243
"1453",79.046616,909.5376
"1454",78.43137,909.5509
"1455",77.96994,909.5642
"1456",77.68673,909.5775
"1457",77.58419,909.5908
"1458",77.64034,909.6041
"1459",77.80881,909.61743
"1460",78.030975,909.63074
"1461",78.24338,909.64404
"1462",78.39231,909.65735
"1463",78.43137,909.67065
"1464",78.35325,909.68396
"1465",78.16037,909.69727
"1466",77.87717,909.7106
"1467",77.53048,909.7239
"1468",77.154495,909.7372
"1469",76.76875,909.7505
"1470",76.39277,909.7638
"1471",76.04364,909.7771
"1472",75.72625,909.7904
"1473",75.45525,909.8037
"1474",75.228195,909.817
"1475",75.04997,909.8303
"1476",74.91814,909.8436
"1477",74.82292,909.85693
"1478",74.757,909.87024
"1479",74.71549,909.88354
"1480",74.703285,909.89685
"1481",74.759445,909.91016
"1482",75.00603,909.92346
"1483",75.60174,909.93677
"1484",76.6833,909.9501
"1485",78.28001,909.9634
"1486",80.291756,909.9767
"1487",82.4744,909.99
"1488",84.51789,910.0033
"1489",86.13901,910.0166
"1490",87.17662,910.0299
"1491",87.606316,910.0432
"1492",87.50378,910.0565
"1493",86.993515,910.0698
"1494",86.21713,910.0831
"1495",85.30404,910.09644
"1496",84.3592,910.10974
"1497",83.44854,910.12305
"1498",82.60624,910.13635
"1499",81.832306,910.14966
"1500",81.112076,910.16296
"1501",80.45289,910.1763
"1502",79.86694,910.1896
"1503",79.38598,910.2029
"1504",79.046616,910.2162
"1505",78.870834,910.2295
"1506",78.84398,910.2428
"1507",78.93431,910.2561
"1508",79.08812,910.2694
"1509",79.24681,910.2827
"1510",79.35424,910.296
"1511",79.378654,910.3093
"1512",79.30053,910.32263
"1513",79.114975,910.33594
"1514",78.836655,910.34924
"1515",78.485085,910.36255
"1516",78.09201,910.37585
"1517",77.68185,910.38916
"1518",77.281456,910.40247
"1519",76.90303,910.4158
"1520",76.55634,910.4291
"1521",76.25117,910.4424
"1522",75.98505,910.4557
"1523",75.755554,910.469
"1524",75.56756,910.4823
"1525",75.42596,910.4956
"1526",75.33318,910.5089
"1527",75.28191,910.5222
"1528",75.27459,910.5355
"1529",75.29656,910.5488
"1530",75.34295,910.56213
"1531",75.403984,910.57544
"1532",75.47234,910.58875
"1533",75.543144,910.60205
"1534",75.6115,910.61536
"1535",75.6701,910.62866
"1536",75.716484,910.64197
"1537",75.772644,910.6553
"1538",75.91913,910.6686
"1539",76.30732,910.6819
"1540",77.08858,910.6952
"1541",78.35081,910.7085
"1542",80.06714,910.7218
"1543",82.07645,910.7351
"1544",84.11261,910.7484
"1545",85.892426,910.7617
"1546",87.218124,910.775
"1547",87.99939,910.7883
"1548",88.255745,910.80164
"1549",88.06775,910.81494
"1550",87.555046,910.82825
"1551",86.83238,910.84155
"1552",86.014496,910.85486
"1553",85.1844,910.86816
"1554",84.39582,910.8815
"1555",83.67559,910.8948
"1556",83.0164,910.9081
"1557",82.408485,910.9214
"1558",81.85428,910.9347
"1559",81.36355,910.948
"1560",80.95827,910.9613
"1561",80.6775,910.9746
"1562",80.52857,910.9879
"1563",80.50172,911.0012
"1564",80.552986,911.0145
"1565",80.64576,911.02783
"1566",80.723885,911.04114
"1567",80.74586,911.05444
"1568",80.68726,911.06775
"1569",80.53834,911.08105
"1570",80.29664,911.09436
"1571",79.98169,911.10767
"1572",79.60815,911.121
"1573",79.19798,911.1343
"1574",78.77074,911.1476
"1575",78.348366,911.1609
"1576",77.94064,911.1742
"1577",77.557335,911.1875
"1578",77.208206,911.2008
"1579",76.89082,911.2141
"1580",76.612495,911.2274
"1581",76.37568,911.2407
"1582",76.18036,911.254
"1583",76.036316,911.26733
"1584",75.94354,911.28064
"1585",75.894714,911.29395
"1586",75.88495,911.30725
"1587",75.90448,911.32056
"1588",75.93622,911.33386
"1589",75.97772,911.34717
"1590",76.02655,911.3605
"1591",76.07538,911.3738
"1592",76.12421,911.3871
"1593",76.16083,911.4004
"1594",76.1828,911.4137
"1595",76.1828,911.427
"1596",76.16571,911.4403
"1597",76.13397,911.4536
"1598",76.104675,911.4669
"1599",76.12421,911.4802
"1600",76.30488,911.4935
"1601",76.79561,911.50684
"1602",77.733116,911.52014
"1603",79.168686,911.53345
"1604",81.03639,911.54675
"1605",83.14336,911.56006
"1606",85.21858,911.57336
"1607",86.99107,911.5867
"1608",88.2826,911.6
"1609",89.02968,911.6133
"1610",89.254295,911.6266
"1611",89.041885,911.6399
"1612",88.52186,911.6532
"1613",87.80896,911.6665
"1614",87.010605,911.6798
"1615",86.202484,911.6931
"1616",85.418785,911.7064
"1617",84.67658,911.7197
"1618",83.97345,911.73303
"1619",83.30694,911.74634
"1620",82.68925,911.75964
"1621",82.144806,911.77295
"1622",81.71267,911.78625
"1623",81.41726,911.79956
"1624",81.270775,911.81287
"1625",81.253685,911.8262
"1626",81.3196,911.8395
"1627",81.4197,911.8528
"1628",81.50027,911.8661
"1629",81.512474,911.8794
"1630",81.42458,911.8927
"1631",81.22194,911.906
"1632",80.90944,911.9193
"1633",80.5066,911.9326
"1634",80.042725,911.9459
"1635",79.54955,911.9592
"1636",79.05638,911.97253
"1637",78.572975,911.98584
"1638",78.116425,911.99915
"1639",77.69405,912.01245
"1640",77.30831,912.02576
"1641",76.96895,912.03906
"1642",76.67597,912.05237
"1643",76.436714,912.0657
"1644",76.241394,912.079
"1645",76.087585,912.0923
"1646",75.97528,912.1056
"1647",75.894714,912.1189
"1648",75.843445,912.1322
"1649",75.81415,912.1455
"1650",75.80194,912.1588
"1651",75.79706,912.1721
"1652",75.80194,912.1854
"1653",75.81171,912.1987
"1654",75.82391,912.21204
"1655",75.84589,912.22534
"1656",75.86786,912.23865
"1657",75.89227,912.25195
"1658",75.911804,912.26526
"1659",75.91913,912.27856
"1660",75.91669,912.2919
"1661",75.90448,912.3052
"1662",75.897156,912.3185
"1663",75.95819,912.3318
"1664",76.226746,912.3451
"1665",76.86153,912.3584
"1666",77.99924,912.3717
"1667",79.674065,912.385
"1668",81.778595,912.3983
"1669",84.08087,912.4116
"1670",86.2855,912.4249
"1671",88.12146,912.43823
"1672",89.41787,912.45154
"1673",90.121,912.46484
"1674",90.27238,912.47815
"1675",89.96475,912.49146
"1676",89.32998,912.50476
"1677",88.48768,912.51807
"1678",87.552605,912.5314
"1679",86.59312,912.5447
"1680",85.65804,912.558
"1681",84.75716,912.5713
"1682",83.90021,912.5846
"1683",83.09209,912.5979
"1684",82.35966,912.6112
"1685",81.739525,912.6245
"1686",81.26833,912.6378
"1687",80.98024,912.6511
"1688",80.87526,912.6644
"1689",80.92409,912.67773
"1690",81.06813,912.69104
"1691",81.24391,912.70435
"1692",81.38552,912.71765
"1693",81.43679,912.73096
"1694",81.37087,912.74426
"1695",81.16823,912.75757
"1696",80.848404,912.7709
"1697",80.428474,912.7842
"1698",79.94751,912.7975
"1699",79.429924,912.8108
"1700",78.9099,912.8241
"1701",78.40208,912.8374
"1702",77.91379,912.8507
"1703",77.45724,912.864
"1704",77.04219,912.8773
"1705",76.67353,912.8906
"1706",76.35371,912.90393
"1707",76.085144,912.91724
"1708",75.86542,912.93054
"1709",75.69207,912.94385
"1710",75.55779,912.95715
"1711",75.46502,912.97046
"1712",75.40887,912.98376
"1713",75.37957,912.9971
"1714",75.37469,913.0104
"1715",75.38445,913.0237
"1716",75.403984,913.037
"1717",75.43084,913.0503
"1718",75.46014,913.0636
"1719",75.494316,913.0769
"1720",75.528496,913.0902
"1721",75.560234,913.1035
"1722",75.58953,913.1168
"1723",75.613945,913.1301
"1724",75.63592,913.14343
"1725",75.648125,913.15674
"1726",75.65789,913.17004
"1727",75.65789,913.18335
"1728",75.65545,913.19666
"1729",75.70672,913.20996
"1730",75.93622,913.22327
"1731",76.51972,913.2366
"1732",77.61837,913.2499
"1733",79.290764,913.2632
"1734",81.446556,913.2765
"1735",83.85626,913.2898
"1736",86.204926,913.3031
"1737",88.18494,913.3164
"1738",89.59609,913.3297
"1739",90.374916,913.343
"1740",90.55314,913.3563
"1741",90.230865,913.3696
"1742",89.5375,913.38293
"1743",88.604866,913.39624
"1744",87.53796,913.40955
"1745",86.41978,913.42285
"1746",85.3016,913.43616
"1747",84.207825,913.44946
"1748",83.160446,913.46277
"1749",82.18387,913.4761
"1750",81.3196,913.4894
"1751",80.61646,913.5027
"1752",80.12329,913.516
"1753",79.86694,913.5293
"1754",79.83032,913.5426
"1755",79.97925,913.5559
"1756",80.24536,913.5692
"1757",80.55543,913.5825
"1758",80.833755,913.5958
"1759",81.01686,913.60913
"1760",81.06569,913.62244
"1761",80.96559,913.63574
"1762",80.72877,913.64905
"1763",80.377205,913.66235
"1764",79.94263,913.67566
"1765",79.45922,913.68896
"1766",78.9514,913.7023
"1767",78.44602,913.7156
"1768",77.95285,913.7289
"1769",77.486534,913.7422
"1770",77.05684,913.7555
"1771",76.66621,913.7688
"1772",76.317085,913.7821
"1773",76.016785,913.7954
"1774",75.76776,913.8087
"1775",75.57244,913.822
"1776",75.43084,913.8353
"1777",75.335625,913.84863
"1778",75.284355,913.86194
"1779",75.264824,913.87524
"1780",75.27459,913.88855
"1781",75.301445,913.90186
"1782",75.34783,913.91516
"1783",75.406425,913.92847
"1784",75.47723,913.9418
"1785",75.55291,913.9551
"1786",75.631035,913.9684
"1787",75.70672,913.9817
"1788",75.775085,913.995
"1789",75.83124,914.0083
"1790",75.880066,914.0216
"1791",75.911804,914.0349
"1792",75.931335,914.0482
"1793",75.93622,914.0615
"1794",75.93378,914.0748
"1795",75.95331,914.08813
"1796",76.09979,914.10144
"1797",76.53925,914.11475
"1798",77.44503,914.12805
"1799",78.91478,914.14136
"1800",80.91432,914.15466
"1801",83.25323,914.16797
"1802",85.63119,914.1813
"1803",87.7235,914.1946
"1804",89.2958,914.2079
"1805",90.24063,914.2212
"1806",90.57023,914.2345
"1807",90.37003,914.2478
"1808",89.75479,914.2611
"1809",88.84657,914.2744
"1810",87.75769,914.2877
"1811",86.573586,914.301
"1812",85.35531,914.31433
"1813",84.14435,914.32764
"1814",82.97246,914.34094
"1815",81.8616,914.35425
"1816",80.850845,914.36755
"1817",79.991455,914.38086
"1818",79.34203,914.39417
"1819",78.94896,914.4075
"1820",78.82445,914.4208
"1821",78.94652,914.4341
"1822",79.25414,914.4474
"1823",79.66186,914.4607
"1824",80.08911,914.474
"1825",80.45045,914.4873
"1826",80.69947,914.5006
"1827",80.80446,914.5139
"1828",80.75807,914.5272
"1829",80.57496,914.5405
"1830",80.274666,914.55383
"1831",79.8938,914.56714
"1832",79.45434,914.58044
"1833",78.98802,914.59375
"1834",78.51438,914.60706
"1835",78.04562,914.62036
"1836",77.58907,914.63367
"1837",77.14961,914.647
"1838",76.732124,914.6603
"1839",76.34882,914.6736
"1840",76.0119,914.6869
"1841",75.72381,914.7002
"1842",75.491875,914.7135
"1843",75.30877,914.7268
"1844",75.176926,914.7401
"1845",75.08415,914.7534
"1846",75.03044,914.7667
"1847",75.01335,914.78
"1848",75.02556,914.79333
"1849",75.06706,914.80664
"1850",75.13054,914.81995
"1851",75.21843,914.83325
"1852",75.31609,914.84656
"1853",75.423515,914.85986
"1854",75.526054,914.87317
"1855",75.61883,914.8865
"1856",75.68963,914.8998
"1857",75.73846,914.9131
"1858",75.78485,914.9264
"1859",75.90448,914.9397
"1860",76.241394,914.953
"1861",76.95918,914.9663
"1862",78.17258,914.9796
"1863",79.88403,914.9929
"1864",81.95682,915.0062
"1865",84.1297,915.01953
"1866",86.10483,915.03284
"1867",87.64294,915.04614
"1868",88.61707,915.05945
"1869",89.01503,915.07275
"1870",88.902725,915.08606
"1871",88.39002,915.09937
"1872",87.589226,915.1127
"1873",86.60044,915.126
"1874",85.506676,915.1393
"1875",84.37141,915.1526
"1876",83.23125,915.1659
"1877",82.11551,915.1792
"1878",81.041275,915.1925
"1879",80.05005,915.2058
"1880",79.183334,915.2191
"1881",78.49485,915.2324
"1882",78.028534,915.2457
"1883",77.81369,915.25903
"1884",77.838104,915.27234
"1885",78.065155,915.28564
"1886",78.42893,915.29895
"1887",78.853745,915.31226
"1888",79.26391,915.32556
"1889",79.59594,915.33887
"1890",79.80591,915.3522
"1891",79.87671,915.3655
"1892",79.80835,915.3788
"1893",79.63012,915.3921
"1894",79.364006,915.4054
"1895",79.04173,915.4187
"1896",78.6804,915.432
"1897",78.2971,915.4453
"1898",77.90402,915.4586
"1899",77.506065,915.4719
"1900",77.120316,915.4852
"1901",76.75166,915.49854
"1902",76.40742,915.51184
"1903",76.087585,915.52515
"1904",75.7995,915.53845
"1905",75.55047,915.55176
"1906",75.34295,915.56506
"1907",75.18181,915.57837
"1908",75.06218,915.5917
"1909",74.97917,915.605
"1910",74.9279,915.6183
"1911",74.90349,915.6316
"1912",74.90349,915.6449
"1913",74.93034,915.6582
"1914",74.969406,915.6715
"1915",75.02556,915.6848
"1916",75.089035,915.6981
"1917",75.16716,915.7114
"1918",75.31121,915.72473
"1919",75.63592,915.73804
"1920",76.28779,915.75134
"1921",77.383995,915.76465
"1922",78.94408,915.77795
"1923",80.86549,915.79126
"1924",82.92363,915.80457
"1925",84.83528,915.8179
"1926",86.3563,915.8312
"1927",87.34753,915.8445
"1928",87.78699,915.8578
"1929",87.73815,915.8711
"1930",87.30602,915.8844
"1931",86.61021,915.8977
"1932",85.74349,915.911
"1933",84.791336,915.9243
"1934",83.80255,915.9376
"1935",82.80888,915.9509
"1936",81.82742,915.96423
"1937",80.88014,915.97754
"1938",79.98901,915.99084
"1939",79.1931,916.00415
"1940",78.53391,916.01746
"1941",78.06027,916.03076
"1942",77.806366,916.04407
"1943",77.77951,916.0574
"1944",77.95285,916.0707
"1945",78.28245,916.084
"1946",78.695045,916.0973
"1947",79.11742,916.1106
"1948",79.48852,916.1239
"1949",79.75464,916.1372
"1950",79.89868,916.1505
"1951",79.92798,916.1638
"1952",79.84741,916.1771
"1953",79.67895,916.1904
"1954",79.447014,916.20374
"1955",79.17113,916.21704
"1956",78.870834,916.23035
"1957",78.56321,916.24365
"1958",78.260475,916.25696
"1959",77.97482,916.27026
"1960",77.71114,916.28357
"1961",77.467,916.2969
"1962",77.239944,916.3102
"1963",77.03487,916.3235
"1964",76.85664,916.3368
"1965",76.70527,916.3501
"1966",76.58076,916.3634
"1967",76.47822,916.3767
"1968",76.402534,916.39
"1969",76.35371,916.4033
"1970",76.36103,916.4166
"1971",76.5124,916.42993
"1972",76.93721,916.44324
"1973",77.75998,916.45654
"1974",79.01976,916.46985
"1975",80.67017,916.48315
"1976",82.530556,916.49646
"1977",84.349434,916.50977
"1978",85.875336,916.5231
"1979",86.94469,916.5364
"1980",87.49889,916.5497
"1981",87.57458,916.563
"1982",87.259636,916.5763
"1983",86.66392,916.5896
"1984",85.89487,916.6029
"1985",85.02083,916.6162
"1986",84.09796,916.6295
"1987",83.158005,916.6428
"1988",82.22293,916.6561
"1989",81.31716,916.66943
"1990",80.465096,916.68274
"1991",79.708244,916.69604
"1992",79.09544,916.70935
"1993",78.66331,916.72266
"1994",78.44358,916.73596
"1995",78.450905,916.74927
"1996",78.658424,916.7626
"1997",79.01488,916.7759
"1998",79.4519,916.7892
"1999",79.8938,916.8025
"2000",80.274666,916.8158
"2001",80.55787,916.8291
"2002",80.719,916.8424
"2003",80.76051,916.8557
"2004",80.706795,916.869
"2005",80.570076,916.8823
"2006",80.37476,916.8956
"2007",80.14526,916.90894
"2008",79.8938,916.92224
"2009",79.635,916.93555
"2010",79.378654,916.94885
"2011",79.11986,916.96216
"2012",78.856186,916.97546
"2013",78.590065,916.9888
"2014",78.328835,917.0021
"2015",78.099335,917.0154
"2016",77.977264,917.0287
"2017",78.08957,917.042
"2018",78.572975,917.0553
"2019",79.49828,917.0686
"2020",80.850845,917.0819
"2021",82.50614,917.0952
"2022",84.244446,917.1085
"2023",85.80942,917.1218
"2024",87.00328,917.13513
"2025",87.725945,917.14844
"2026",87.972534,917.16174
"2027",87.799194,917.17505
"2028",87.30602,917.18835
"2029",86.60044,917.20166
"2030",85.76547,917.21497
"2031",84.86458,917.2283
"2032",83.93439,917.2416
"2033",82.99443,917.2549
"2034",82.06424,917.2682
"2035",81.17555,917.2815
"2036",80.365,917.2948
"2037",79.68383,917.3081
"2038",79.17845,917.3214
"2039",78.8806,917.3347
"2040",78.79759,917.348
"2041",78.91478,917.3613
"2042",79.17845,917.37463
"2043",79.53246,917.38794
"2044",79.90112,917.40125
"2045",80.22339,917.41455
"2046",80.45533,917.42786
"2047",80.57496,917.44116
"2048",80.57496,917.45447
"2049",80.4773,917.4678
"2050",80.29908,917.4811
"2051",80.059814,917.4944
"2052",79.781494,917.5077
"2053",79.47631,917.521
"2054",79.15648,917.5343
"2055",78.82689,917.5476
"2056",78.49973,917.5609
"2057",78.19455,917.5742
"2058",77.97238,917.5875
"2059",77.94797,917.6008
"2060",78.27024,917.61414
"2061",79.061264,917.62744
"2062",80.35279,917.64075
"2063",82.05203,917.65405
"2064",83.95148,917.66736
"2065",85.785,917.68066
"2066",87.30358,917.694
"2067",88.35096,917.7073
"2068",88.885635,917.7206
"2069",88.93935,917.7339
"2070",88.59754,917.7472
"2071",87.96521,917.7605
"2072",87.14244,917.7738
"2073",86.202484,917.7871
"2074",85.19661,917.8004
"2075",84.16388,917.8137
"2076",83.12871,917.827
"2077",82.12039,917.84033
"2078",81.18776,917.85364
"2079",80.38209,917.86694
"2080",79.75464,917.88025
"2081",79.3518,917.89355
"2082",79.1931,917.90686
"2083",79.259026,917.92017
"2084",79.50561,917.9335
"2085",79.86694,917.9468
"2086",80.255135,917.9601
"2087",80.59693,917.9734
"2088",80.833755,917.9867
"2089",80.92897,918
"2090",80.88014,918.0133
"2091",80.70435,918.0266
"2092",80.42359,918.0399
"2093",80.0647,918.0532
"2094",79.656975,918.0665
"2095",79.219955,918.07983
"2096",78.765854,918.09314
"2097",78.311745,918.10645
"2098",77.88937,918.11975
"2099",77.576866,918.13306
"2100",77.51339,918.14636
"2101",77.86496,918.15967
"2102",78.75365,918.173
"2103",80.198975,918.1863
"2104",82.08133,918.1996
"2105",84.14679,918.2129
"2106",86.09018,918.2262
"2107",87.64782,918.2395
"2108",88.66102,918.2528
"2109",89.093155,918.2661
"2110",89.00038,918.2794
"2111",88.49256,918.2927
"2112",87.68444,918.306
"2113",86.695656,918.31934
"2114",85.60433,918.33264
"2115",84.471504,918.34595
"2116",83.32403,918.35925
"2117",82.193634,918.37256
"2118",81.109634,918.38586
"2119",80.11841,918.3992
"2120",79.276115,918.4125
"2121",78.63889,918.4258
"2122",78.24338,918.4391
"2123",78.10666,918.4524
"2124",78.19943,918.4657
"2125",78.46311,918.479
"2126",78.81224,918.4923
"2127",79.16136,918.5056
"2128",79.43481,918.5189
"2129",79.57641,918.5322
"2130",79.56176,918.54553
"2131",79.40307,918.55884
"2132",79.12474,918.57214
"2133",78.75365,918.58545
"2134",78.31907,918.59875
"2135",77.84299,918.61206
"2136",77.35226,918.62537
"2137",76.85176,918.6387
"2138",76.368355,918.652
"2139",75.9704,918.6653
"2140",75.789734,918.6786
"2141",76.016785,918.6919
"2142",76.822464,918.7052
"2143",78.277565,918.7185
"2144",80.30396,918.7318
"2145",82.66483,918.7451
"2146",85.01839,918.7584
"2147",87.03258,918.7717
"2148",88.47303,918.78503
"2149",89.24452,918.79834
"2150",89.37881,918.81165
"2151",88.98573,918.82495
"2152",88.20691,918.83826
"2153",87.183945,918.85156
"2154",86.031586,918.86487
"2155",84.83528,918.8782
"2156",83.63897,918.8915
"2157",82.4622,918.9048
"2158",81.33425,918.9181
"2159",80.28687,918.9314
"2160",79.37621,918.9447
"2161",78.6511,918.958
"2162",78.16281,918.9713
"2163",77.93576,918.9846
"2164",77.94064,918.9979
"2165",78.118866,919.0112
"2166",78.39231,919.02454
"2167",78.675514,919.03784
"2168",78.87816,919.05115
"2169",78.94652,919.06445
"2170",78.856186,919.07776
"2171",78.607155,919.09106
"2172",78.22873,919.1044
"2173",77.76242,919.1177
"2174",77.24483,919.131
"2175",76.71015,919.1443
"2176",76.17792,919.1576
"2177",75.66033,919.1709
"2178",75.16228,919.1842
"2179",74.70084,919.1975
"2180",74.3151,919.2108
"2181",74.11734,919.2241
"2182",74.29557,919.2374
"2183",75.04997,919.25073
"2184",76.49775,919.26404
"2185",78.60227,919.27734
"2186",81.160904,919.29065
"2187",83.82208,919.30396
"2188",86.20004,919.31726
"2189",87.99451,919.33057
"2190",89.058975,919.3439
"2191",89.3959,919.3572
"2192",89.112686,919.3705
"2193",88.37049,919.3838
"2194",87.34264,919.3971
"2195",86.17319,919.4104
"2196",84.964676,919.4237
"2197",83.773254,919.437
"2198",82.61845,919.4503
"2199",81.50515,919.4636
"2200",80.45045,919.4769
"2201",79.48608,919.49023
"2202",78.660866,919.50354
"2203",78.02365,919.51685
"2204",77.611046,919.53015
"2205",77.4255,919.54346
"2206",77.42794,919.55676
"2207",77.55001,919.57007
"2208",77.7087,919.5834
"2209",77.82834,919.5967
"2210",77.85031,919.61
"2211",77.73556,919.6233
"2212",77.48409,919.6366
"2213",77.11299,919.6499
"2214",76.65644,919.6632
"2215",76.14618,919.6765
"2216",75.613945,919.6898
"2217",75.08659,919.7031
"2218",74.58854,919.71643
"2219",74.13199,919.72974
"2220",73.73159,919.74304
"2221",73.39468,919.75635
"2222",73.111465,919.76965
"2223",72.88197,919.78296
"2224",72.691536,919.79626
"2225",72.535286,919.8096
"2226",72.44007,919.8229
"2227",72.50599,919.8362
"2228",72.92836,919.8495
"2229",73.917145,919.8628
"2230",75.5993,919.8761
"2231",77.94797,919.8894
"2232",80.75075,919.9027
"2233",83.63897,919.916
"2234",86.204926,919.9293
"2235",88.14099,919.9426
"2236",89.2958,919.95593
"2237",89.68398,919.96924
"2238",89.43008,919.98254
"2239",88.71229,919.99585
"2240",87.71374,920.00916
"2241",86.590675,920.02246
"2242",85.46273,920.03577
"2243",84.38361,920.0491
"2244",83.35821,920.0624
"2245",82.36942,920.0757
"2246",81.40749,920.089
"2247",80.482185,920.1023
"2248",79.635,920.1156
"2249",78.92699,920.1289
"2250",78.41184,920.1422
"2251",78.10666,920.1555
"2252",77.994354,920.1688
"2253",78.009,920.1821
"2254",78.08957,920.19543
"2255",78.15549,920.20874
"2256",78.15549,920.22205
"2257",78.04562,920.23535
"2258",77.81857,920.24866
"2259",77.47921,920.26196
"2260",77.051956,920.27527
"2261",76.55146,920.2886
"2262",76.01434,920.3019
"2263",75.4699,920.3152
"2264",74.94255,920.3285
"2265",74.45182,920.3418
"2266",74.0148,920.3551
"2267",73.636375,920.3684
"2268",73.31655,920.3817
"2269",73.060196,920.395
"2270",72.867325,920.4083
"2271",72.73304,920.42163
"2272",72.6598,920.43494
"2273",72.637825,920.44824
"2274",72.654915,920.46155
"2275",72.69642,920.47485
"2276",72.7599,920.48816
"2277",72.82826,920.50146
"2278",72.90883,920.5148
"2279",72.99916,920.5281
"2280",73.094376,920.5414
"2281",73.19203,920.5547
"2282",73.28481,920.568
"2283",73.3605,920.5813
"2284",73.40688,920.5946
"2285",73.43374,920.6079
"2286",73.50698,920.6212
"2287",73.780426,920.6345
"2288",74.478676,920.6478
"2289",75.80194,920.66113
"2290",77.83078,920.67444
"2291",80.465096,920.68774
"2292",83.4168,920.70105
"2293",86.2855,920.71436
"2294",88.69764,920.72766
"2295",90.40177,920.74097
"2296",91.32464,920.7543
"2297",91.51995,920.7676
"2298",91.13664,920.7809
"2299",90.35294,920.7942
"2300",89.339745,920.8075
"2301",88.24109,920.8208
"2302",87.15465,920.8341
"2303",86.13168,920.8474
"2304",85.17708,920.8607
"2305",84.26887,920.874
"2306",83.39483,920.8873
"2307",82.56962,920.90063
"2308",81.8201,920.91394
"2309",81.197525,920.92725
"2310",80.74586,920.94055
"2311",80.4773,920.95386
"2312",80.36256,920.96716
"2313",80.35523,920.98047
"2314",80.38209,920.9938
"2315",80.377205,921.0071
"2316",80.291756,921.0204
"2317",80.09155,921.0337
"2318",79.77417,921.047
"2319",79.34936,921.0603
"2320",78.84398,921.0736
"2321",78.28733,921.0869
"2322",77.70626,921.1002
"2323",77.13008,921.1135
"2324",76.58564,921.12683
"2325",76.087585,921.14014
"2326",75.64568,921.15344
"2327",75.26238,921.16675
"2328",74.93767,921.18005
"2329",74.67399,921.19336
"2330",74.46891,921.20667
"2331",74.32731,921.22
"2332",74.24185,921.2333
"2333",74.20523,921.2466
"2334",74.19791,921.2599
"2335",74.212555,921.2732
"2336",74.24185,921.2865
"2337",74.28336,921.2998
"2338",74.33219,921.3131
"2339",74.38346,921.3264
"2340",74.42985,921.3397
"2341",74.46647,921.353
"2342",74.49088,921.36633
"2343",74.50309,921.37964
"2344",74.512856,921.39294
"2345",74.5153,921.40625
"2346",74.510414,921.41956
"2347",74.50065,921.43286
"2348",74.49821,921.44617
"2349",74.55436,921.4595
"2350",74.80827,921.4728
"2351",75.46014,921.4861
"2352",76.69306,921.4994
"2353",78.58274,921.5127
"2354",81.041275,921.526
"2355",83.81964,921.5393
"2356",86.54917,921.5526
"2357",88.87831,921.5659
"2358",90.56779,921.5792
"2359",91.5346,921.5925
"2360",91.81537,921.60583
"2361",91.53704,921.61914
"2362",90.85832,921.63245
"2363",89.94522,921.64575
"2364",88.93446,921.65906
"2365",87.92615,921.67236
"2366",86.9691,921.68567
"2367",86.07553,921.699
"2368",85.22835,921.7123
"2369",84.41779,921.7256
"2370",83.65118,921.7389
"2371",82.96513,921.7522
"2372",82.41337,921.7655
"2373",82.0325,921.7788
"2374",81.829865,921.7921
"2375",81.78348,921.8054
"2376",81.83475,921.8187
"2377",81.91043,921.83203
"2378",81.94949,921.84534
"2379",81.90311,921.85864
"2380",81.74197,921.87195
"2381",81.449,921.88525
"2382",81.03883,921.89856
"2383",80.533455,921.91187
"2384",79.95972,921.9252
"2385",79.34692,921.9385
"2386",78.729225,921.9518
"2387",78.13107,921.9651
"2388",77.576866,921.9784
"2389",77.07637,921.9917
"2390",76.63935,922.005
"2391",76.27314,922.0183
"2392",75.97284,922.0316
"2393",75.73113,922.0449
"2394",75.55047,922.0582
"2395",75.421074,922.07153
"2396",75.33318,922.08484
"2397",75.27215,922.09814
"2398",75.23552,922.11145
"2399",75.208664,922.12476
"2400",75.18425,922.13806
"2401",75.16472,922.15137
"2402",75.14763,922.1647
"2403",75.13054,922.178
"2404",75.11589,922.1913
"2405",75.11345,922.2046
"2406",75.11833,922.2179
"2407",75.13542,922.2312
"2408",75.15495,922.2445
"2409",75.17204,922.2578
"2410",75.174484,922.2711
"2411",75.157394,922.2844
"2412",75.12077,922.2977
"2413",75.09636,922.31104
"2414",75.176926,922.32434
"2415",75.53338,922.33765
"2416",76.3708,922.35095
"2417",77.84543,922.36426
"2418",79.974365,922.37756
"2419",82.6038,922.39087
"2420",85.42855,922.4042
"2421",88.06531,922.4175
"2422",90.1918,922.4308
"2423",91.62249,922.4441
"2424",92.31342,922.4574
"2425",92.34028,922.4707
"2426",91.842224,922.484
"2427",90.99016,922.4973
"2428",89.9379,922.5106
"2429",88.8246,922.5239
"2430",87.73815,922.53723
"2431",86.72495,922.55054
"2432",85.787445,922.56384
"2433",84.91341,922.57715
"2434",84.088196,922.59045
"2435",83.319145,922.60376
"2436",82.6453,922.61707
"2437",82.108185,922.6304
"2438",81.73708,922.6437
"2439",81.53689,922.657
"2440",81.480736,922.6703
"2441",81.51003,922.6836
"2442",81.549095,922.6969
"2443",81.52712,922.7102
"2444",81.392845,922.7235
"2445",81.11452,922.7368
"2446",80.69947,922.7501
"2447",80.17456,922.7634
"2448",79.57885,922.77673
"2449",78.94652,922.79004
"2450",78.30686,922.80334
"2451",77.68673,922.81665
"2452",77.100784,922.82996
"2453",76.56367,922.84326
"2454",76.0827,922.85657
"2455",75.665215,922.8699
"2456",75.30633,922.8832
"2457",75.00847,922.8965
"2458",74.77409,922.9098
"2459",74.60319,922.9231
"2460",74.48356,922.9364
"2461",74.407875,922.9497
"2462",74.36149,922.963
"2463",74.33463,922.9763
"2464",74.32487,922.9896
"2465",74.32975,923.0029
"2466",74.34196,923.01624
"2467",74.36149,923.02954
"2468",74.37858,923.04285
"2469",74.38834,923.05615
"2470",74.3859,923.06946
"2471",74.3859,923.08276
"2472",74.39567,923.09607
"2473",74.42008,923.1094
"2474",74.4567,923.1227
"2475",74.50309,923.136
"2476",74.547035,923.1493
"2477",74.57877,923.1626
"2478",74.600746,923.1759
"2479",74.61295,923.1892
"2480",74.62516,923.2025
"2481",74.69352,923.2158
"2482",74.94743,923.2291
"2483",75.59197,923.24243
"2484",76.82979,923.25574
"2485",78.76341,923.26904
"2486",81.33669,923.28235
"2487",84.30305,923.29565
"2488",87.27917,923.30896
"2489",89.87442,923.32227
"2490",91.80316,923.3356
"2491",92.95308,923.3489
"2492",93.35348,923.3622
"2493",93.14107,923.3755
"2494",92.474556,923.3888
"2495",91.52972,923.4021
"2496",90.43595,923.4154
"2497",89.30068,923.4287
"2498",88.18982,923.442
"2499",87.14,923.4553
"2500",86.151215,923.4686
"2501",85.223465,923.48193
"2502",84.368965,923.49524
"2503",83.60723,923.50854
"2504",82.97978,923.52185
"2505",82.52079,923.53516
"2506",82.25712,923.54846
"2507",82.161896,923.56177
"2508",82.178986,923.5751
"2509",82.22781,923.5884
"2510",82.24002,923.6017
"2511",82.161896,923.615
"2512",81.95926,923.6283
"2513",81.619896,923.6416
"2514",81.15602,923.6549
"2515",80.59449,923.6682
"2516",79.96216,923.6815
"2517",79.28588,923.6948
"2518",78.60227,923.7081
"2519",77.9382,923.72144
"2520",77.30343,923.73474
"2521",76.717476,923.74805
"2522",76.18524,923.76135
"2523",75.70916,923.77466
"2524",75.29168,923.78796
"2525",74.93767,923.8013
"2526",74.64713,923.8146
"2527",74.42008,923.8279
"2528",74.25651,923.8412
"2529",74.141754,923.8545
"2530",74.06851,923.8678
"2531",74.02945,923.8811
"2532",74.0148,923.8944
"2533",74.01724,923.9077
"2534",74.03677,923.921
"2535",74.06607,923.9343
"2536",74.10269,923.94763
"2537",74.13931,923.96094
"2538",74.17349,923.97424
"2539",74.20523,923.98755
"2540",74.2272,924.00085
"2541",74.24185,924.01416
"2542",74.25651,924.02747
"2543",74.26627,924.0408
"2544",74.2736,924.0541
"2545",74.27848,924.0674
"2546",74.28092,924.0807
"2547",74.27604,924.094
"2548",74.26383,924.1073
"2549",74.24429,924.1206
"2550",74.23697,924.1339
"2551",74.28336,924.1472
"2552",74.49088,924.1605
"2553",75.0573,924.1738
"2554",76.19745,924.18713
"2555",78.03586,924.20044
"2556",80.55543,924.21375
"2557",83.543755,924.22705
"2558",86.63462,924.24036
"2559",89.41787,924.25366
"2560",91.58343,924.26697
"2561",92.96773,924.2803
"2562",93.56344,924.2936
"2563",93.47311,924.3069
"2564",92.84566,924.3202
"2565",91.844666,924.3335
"2566",90.614174,924.3468
"2567",89.28115,924.3601
"2568",87.92615,924.3734
"2569",86.60532,924.3867
"2570",85.34066,924.4
"2571",84.159,924.4133
"2572",83.089645,924.42664
"2573",82.18631,924.43994
"2574",81.50027,924.45325
"2575",81.075455,924.46655
"2576",80.921646,924.47986
"2577",81.00954,924.49316
"2578",81.27322,924.5065
"2579",81.617455,924.5198
"2580",81.94949,924.5331
"2581",82.178986,924.5464
"2582",82.247345,924.5597
"2583",82.12283,924.573
"2584",81.81033,924.5863
"2585",81.33669,924.5996
"2586",80.740974,924.6129
"2587",80.076904,924.6262
"2588",79.378654,924.6395
"2589",78.675514,924.65283
"2590",77.994354,924.66614
"2591",77.35714,924.67944
"2592",76.76631,924.69275
"2593",76.23651,924.70605
"2594",75.76776,924.71936
"2595",75.36492,924.73267
"2596",75.02556,924.746
"2597",74.75456,924.7593
"2598",74.54948,924.7726
"2599",74.41276,924.7859
"2600",74.337074,924.7992
"2601",74.31022,924.8125
"2602",74.32731,924.8258
"2603",74.36637,924.8391
"2604",74.42741,924.8524
"2605",74.493324,924.8657
"2606",74.564125,924.879
"2607",74.63737,924.89233
"2608",74.70817,924.90564
"2609",74.76677,924.91895
"2610",74.8156,924.93225
"2611",74.85954,924.94556
"2612",74.89372,924.95886
"2613",74.9279,924.97217
"2614",74.95476,924.9855
"2615",74.97429,924.9988
"2616",74.98161,925.0121
"2617",74.966965,925.0254
"2618",74.93767,925.0387
"2619",74.90837,925.052
"2620",74.90593,925.0653
"2621",75.035324,925.0786
"2622",75.48455,925.0919
"2623",76.46845,925.1052
"2624",78.12863,925.1185
"2625",80.46998,925.13184
"2626",83.30694,925.14514
"2627",86.30015,925.15845
"2628",89.04433,925.17175
"2629",91.21477,925.18506
"2630",92.63569,925.19836
"2631",93.27535,925.2117
"2632",93.221634,925.225
"2633",92.62104,925.2383
"2634",91.62493,925.2516
"2635",90.38224,925.2649
"2636",89.005264,925.2782
"2637",87.56725,925.2915
"2638",86.11948,925.3048
"2639",84.701,925.3181
"2640",83.34112,925.3314
"2641",82.09354,925.3447
"2642",81.02174,925.35803
"2643",80.198975,925.37134
"2644",79.68627,925.38464
"2645",79.500725,925.39795
"2646",79.62035,925.41125
"2647",79.97925,925.42456
"2648",80.47242,925.43787
"2649",80.990005,925.4512
"2650",81.43191,925.4645
"2651",81.722435,925.4778
"2652",81.8201,925.4911
"2653",81.71755,925.5044
"2654",81.43191,925.5177
"2655",80.99733,925.531
"2656",80.46021,925.5443
"2657",79.85474,925.5576
"2658",79.217514,925.5709
"2659",78.56565,925.5842
"2660",77.91867,925.59753
"2661",77.30099,925.61084
"2662",76.71992,925.62415
"2663",76.18768,925.63745
"2664",75.716484,925.65076
"2665",75.31609,925.66406
"2666",74.984055,925.67737
"2667",74.720375,925.6907
"2668",74.527504,925.704
"2669",74.39811,925.7173
"2670",74.31754,925.7306
"2671",74.288246,925.7439
"2672",74.29557,925.7572
"2673",74.33463,925.7705
"2674",74.390785,925.7838
"2675",74.4567,925.7971
"2676",74.527504,925.8104
"2677",74.59586,925.8237
"2678",74.6569,925.83704
"2679",74.70817,925.85034
"2680",74.75212,925.86365
"2681",74.78386,925.87695
"2682",74.813156,925.89026
"2683",74.84245,925.90356
"2684",74.87175,925.9169
"2685",74.89372,925.9302
"2686",74.90105,925.9435
"2687",74.90593,925.9568
"2688",74.966965,925.9701
"2689",75.21355,925.9834
"2690",75.860535,925.9967
"2691",77.100784,926.01
"2692",79.00755,926.0233
"2693",81.495384,926.0366
"2694",84.32014,926.0499
"2695",87.115585,926.06323
"2696",89.51797,926.07654
"2697",91.28069,926.08984
"2698",92.30366,926.10315
"2699",92.611275,926.11646
"2700",92.298775,926.12976
"2701",91.507744,926.14307
"2702",90.374916,926.1564
"2703",89.024796,926.1697
"2704",87.555046,926.183
"2705",86.03403,926.1963
"2706",84.49836,926.2096
"2707",82.98711,926.2229
"2708",81.52468,926.2362
"2709",80.15991,926.2495
"2710",78.97337,926.2628
"2711",78.04074,926.2761
"2712",77.43038,926.2894
"2713",77.18135,926.30273
"2714",77.279015,926.31604
"2715",77.662315,926.32935
"2716",78.23117,926.34265
"2717",78.86351,926.35596
"2718",79.44213,926.36926
"2719",79.888916,926.38257
"2720",80.15503,926.3959
"2721",80.22827,926.4092
"2722",80.130615,926.4225
"2723",79.89136,926.4358
"2724",79.53979,926.4491
"2725",79.09544,926.4624
"2726",78.58518,926.4757
"2727",78.030975,926.489
"2728",77.45724,926.5023
"2729",76.88838,926.5156
"2730",76.33662,926.52893
"2731",75.81903,926.54224
"2732",75.338066,926.55554
"2733",74.90105,926.56885
"2734",74.50553,926.58215
"2735",74.16617,926.59546
"2736",73.89273,926.60876
"2737",73.69009,926.6221
"2738",73.56069,926.6354
"2739",73.5021,926.6487
"2740",73.51186,926.662
"2741",73.57534,926.6753
"2742",73.68032,926.6886
"2743",73.81949,926.7019
"2744",73.97818,926.7152
"2745",74.141754,926.7285
"2746",74.305336,926.7418
"2747",74.51774,926.7551
"2748",74.90105,926.76843
"2749",75.63348,926.78174
"2750",76.86641,926.79504
"2751",78.65598,926.80835
"2752",80.919205,926.82166
"2753",83.42657,926.83496
"2754",85.85092,926.84827
"2755",87.89685,926.8616
"2756",89.36904,926.8749
"2757",90.18936,926.8882
"2758",90.389565,926.9015
"2759",90.06973,926.9148
"2760",89.34951,926.9281
"2761",88.343636,926.9414
"2762",87.15465,926.9547
"2763",85.858246,926.968
"2764",84.49836,926.9813
"2765",83.10918,926.9946
"2766",81.722435,927.00793
"2767",80.38209,927.02124
"2768",79.14427,927.03455
"2769",78.08713,927.04785
"2770",77.28878,927.06116
"2771",76.80049,927.07446
"2772",76.646675,927.08777
"2773",76.81026,927.1011
"2774",77.23506,927.1144
"2775",77.83322,927.1277
"2776",78.51438,927.141
"2777",79.183334,927.1543
"2778",79.766846,927.1676
"2779",80.20386,927.1809
"2780",80.47242,927.1942
"2781",80.570076,927.2075
"2782",80.51881,927.2208
"2783",80.34058,927.23413
"2784",80.07202,927.24744
"2785",79.7351,927.26074
"2786",79.35424,927.27405
"2787",78.94652,927.28735
"2788",78.53147,927.30066
"2789",78.118866,927.31396
"2790",77.71603,927.3273
"2791",77.32784,927.3406
"2792",76.9543,927.3539
"2793",76.59785,927.3672
"2794",76.263374,927.3805
"2795",75.9704,927.3938
"2796",75.78241,927.4071
"2797",75.84589,927.4204
"2798",76.35615,927.4337
"2799",77.488976,927.447
"2800",79.29809,927.4603
"2801",81.68093,927.47363
"2802",84.37873,927.48694
"2803",87.02037,927.50024
"2804",89.26406,927.51355
"2805",90.87785,927.52686
"2806",91.79584,927.54016
"2807",92.052185,927.55347
"2808",91.75189,927.5668
"2809",91.0219,927.5801
"2810",89.98917,927.5934
"2811",88.74891,927.6067
"2812",87.37194,927.62
"2813",85.9144,927.6333
"2814",84.41535,927.6466
"2815",82.92119,927.6599
"2816",81.48562,927.6732
"2817",80.184326,927.6865
"2818",79.09544,927.6998
"2819",78.28733,927.71313
"2820",77.81857,927.72644
"2821",77.69161,927.73975
"2822",77.874725,927.75305
"2823",78.29221,927.76636
"2824",78.8513,927.77966
"2825",79.43969,927.79297
"2826",79.96216,927.8063
"2827",80.35279,927.8196
"2828",80.57984,927.8329
"2829",80.635994,927.8462
"2830",80.54566,927.8595
"2831",80.3357,927.8728
"2832",80.03784,927.8861
"2833",79.67895,927.8994
"2834",79.27856,927.9127
"2835",78.84886,927.926
"2836",78.38987,927.93933
"2837",77.91867,927.95264
"2838",77.43282,927.96594
"2839",76.944534,927.97925
"2840",76.50019,927.99255
"2841",76.22919,928.00586
"2842",76.33173,928.01917
"2843",77.01289,928.0325
"2844",78.40208,928.0458
"2845",80.47242,928.0591
"2846",83.02373,928.0724
"2847",85.714195,928.0857
"2848",88.165405,928.099
"2849",90.08682,928.1123
"2850",91.32708,928.1256
"2851",91.8642,928.1389
"2852",91.77142,928.1522
"2853",91.1635,928.1655
"2854",90.17471,928.17883
"2855",88.9247,928.19214
"2856",87.50866,928.20544
"2857",85.994965,928.21875
"2858",84.43488,928.23206
"2859",82.86748,928.24536
"2860",81.339134,928.25867
"2861",79.90845,928.272
"2862",78.66575,928.2853
"2863",77.68917,928.2986
"2864",77.0544,928.3119
"2865",76.80293,928.3252
"2866",76.90791,928.3385
"2867",77.298546,928.3518
"2868",77.874725,928.3651
"2869",78.51438,928.3784
"2870",79.10521,928.3917
"2871",79.569084,928.405
"2872",79.84497,928.41833
"2873",79.923096,928.43164
"2874",79.815674,928.44495
"2875",79.55932,928.45825
"2876",79.18822,928.47156
"2877",78.751205,928.48486
"2878",78.27024,928.49817
"2879",77.76486,928.5115
"2880",77.239944,928.5248
"2881",76.70527,928.5381
"2882",76.16571,928.5514
"2883",75.6701,928.5647
"2884",75.34051,928.578
"2885",75.40154,928.5913
"2886",76.09491,928.6046
"2887",77.591515,928.6179
"2888",79.89136,928.6312
"2889",82.79668,928.64453
"2890",85.93393,928.65784
"2891",88.86366,928.67114
"2892",91.21965,928.68445
"2893",92.79683,928.69775
"2894",93.54879,928.71106
"2895",93.55367,928.72437
"2896",92.95064,928.7377
"2897",91.90814,928.751
"2898",90.57023,928.7643
"2899",89.058975,928.7776
"2900",87.45251,928.7909
"2901",85.79965,928.8042
"2902",84.1297,928.8175
"2903",82.49149,928.8308
"2904",80.94118,928.8441
"2905",79.56176,928.8574
"2906",78.44602,928.8707
"2907",77.679405,928.88403
"2908",77.298546,928.89734
"2909",77.2839,928.91064
"2910",77.5671,928.92395
"2911",78.0383,928.93726
"2912",78.572975,928.95056
"2913",79.04906,928.96387
"2914",79.378654,928.9772
"2915",79.51293,928.9905
"2916",79.43725,929.0038
"2917",79.166245,929.0171
"2918",78.73899,929.0304
"2919",78.19455,929.0437
"2920",77.57931,929.057
"2921",76.929886,929.0703
"2922",76.27314,929.0836
"2923",75.631035,929.0969
"2924",75.00847,929.1102
"2925",74.41764,929.12354
"2926",73.88052,929.13684
"2927",73.51186,929.15015
"2928",73.52895,929.16345
"2929",74.20035,929.17676
"2930",75.72137,929.19006
"2931",78.133514,929.20337
"2932",81.25124,929.2167
"2933",84.68635,929.23
"2934",87.95056,929.2433
"2935",90.6215,929.2566
"2936",92.44282,929.2699
"2937",93.34371,929.2832
"2938",93.40719,929.2965
"2939",92.78462,929.3098
"2940",91.66888,929.3231
"2941",90.24063,929.3364
"2942",88.64149,929.34973
"2943",86.9691,929.36304
"2944",85.28695,929.37634
"2945",83.62676,929.38965
"2946",82.022736,929.40295
"2947",80.52369,929.41626
"2948",79.19798,929.42957
"2949",78.12619,929.4429
"2950",77.37423,929.4562
"2951",76.981155,929.4695
"2952",76.93233,929.4828
"2953",77.15938,929.4961
"2954",77.56222,929.5094
"2955",78.013885,929.5227
"2956",78.39475,929.536
"2957",78.61448,929.5493
"2958",78.61936,929.5626
"2959",78.41184,929.5759
"2960",78.011444,929.58923
"2961",77.469444,929.60254
"2962",76.83711,929.61584
"2963",76.16083,929.62915
"2964",75.47234,929.64246
"2965",74.80095,929.65576
"2966",74.16373,929.66907
"2967",73.57534,929.6824
"2968",73.03822,929.6957
"2969",72.54749,929.709
"2970",72.10803,929.7223
"2971",71.75159,929.7356
"2972",71.60265,929.7489
"2973",71.902954,929.7622
"2974",72.918594,929.7755
"2975",74.830246,929.7888
"2976",77.61837,929.8021
"2977",81.03395,929.8154
"2978",84.63264,929.82874
"2979",87.91394,929.84204
"2980",90.48722,929.85535
"2981",92.140076,929.86865
"2982",92.8481,929.88196
"2983",92.7187,929.89526
"2984",91.930115,929.90857
"2985",90.68009,929.9219
"2986",89.163956,929.9352
"2987",87.53307,929.9485
"2988",85.90219,929.9618
"2989",84.317696,929.9751
"2990",82.79668,929.9884
"2991",81.3489,930.0017
"2992",80.008545,930.015
"2993",78.82933,930.0283
"2994",77.87961,930.0416
"2995",77.225296,930.05493
"2996",76.89082,930.06824
"2997",76.839554,930.08154
"2998",76.998245,930.09485
"2999",77.25704,930.10815
"3000",77.51095,930.12146
"3001",77.66964,930.13477
"3002",77.67696,930.1481
"3003",77.51339,930.1614
"3004",77.18135,930.1747
"3005",76.70283,930.188
"3006",76.11444,930.2013
"3007",75.46014,930.2146
"3008",74.77165,930.2279
"3009",74.08804,930.2412
"3010",73.43618,930.2545
"3011",72.84047,930.2678
"3012",72.308235,930.2811
"3013",71.8468,930.29443
"3014",71.465935,930.30774
"3015",71.165634,930.32104
"3016",70.94591,930.33435
"3017",70.801865,930.34766
"3018",70.72373,930.36096
"3019",70.68955,930.37427
"3020",70.68955,930.3876
"3021",70.72373,930.4009
"3022",70.872665,930.4142
"3023",71.312126,930.4275
"3024",72.291145,930.4408
"3025",73.99771,930.4541
"3026",76.4831,930.4674
"3027",79.57641,930.4807
"3028",82.92119,930.494
"3029",86.065765,930.5073
"3030",88.61219,930.5206
"3031",90.33341,930.53394
"3032",91.18547,930.54724
"3033",91.25872,930.56055
"3034",90.721596,930.57385
"3035",89.75723,930.58716
"3036",88.53895,930.60046
"3037",87.21324,930.6138
"3038",85.87778,930.6271
"3039",84.593575,930.6404
"3040",83.38018,930.6537
"3041",82.24246,930.667
"3042",81.180435,930.6803
"3043",80.22339,930.6936
"3044",79.40795,930.7069
"3045",78.78294,930.7202
"3046",78.38743,930.7335
"3047",78.21652,930.7468
"3048",78.22629,930.76013
"3049",78.345924,930.77344
"3050",78.49241,930.78674
"3051",78.59251,930.80005
"3052",78.5803,930.81335
"3053",78.42893,930.82666
"3054",78.133514,930.83997
"3055",77.7087,930.8533
"3056",77.17891,930.8666
"3057",76.5832,930.8799
"3058",75.95819,930.8932
"3059",75.33318,930.9065
"3060",74.73991,930.9198
"3061",74.19302,930.9331
"3062",73.71206,930.9464
"3063",73.304344,930.9597
"3064",72.96498,930.973
"3065",72.69886,930.9863
"3066",72.51331,930.99963
"3067",72.40345,931.01294
"3068",72.35706,931.02625
"3069",72.36927,931.03955
"3070",72.43275,931.05286
"3071",72.535286,931.06616
"3072",72.66224,931.07947
"3073",72.80629,931.0928
"3074",72.96498,931.1061
"3075",73.12367,931.1194
"3076",73.27993,931.1327
"3077",73.42153,931.146
"3078",73.54116,931.1593
"3079",73.62661,931.1726
"3080",73.68032,931.1859
"3081",73.74868,931.1992
"3082",73.968414,931.2125
"3083",74.55436,931.2258
"3084",75.72625,931.23914
"3085",77.593956,931.25244
"3086",80.10132,931.26575
"3087",82.99931,931.27905
"3088",85.91196,931.29236
"3089",88.446175,931.30566
"3090",90.33097,931.319
"3091",91.45159,931.3323
"3092",91.83734,931.3456
"3093",91.62005,931.3589
"3094",90.95842,931.3722
"3095",90.023346,931.3855
"3096",88.96132,931.3988
"3097",87.88464,931.4121
"3098",86.85924,931.4254
"3099",85.909515,931.4387
"3100",85.02571,931.452
"3101",84.19318,931.46533
"3102",83.407036,931.47864
"3103",82.69657,931.49194
"3104",82.09354,931.50525
"3105",81.64187,931.51855
"3106",81.36111,931.53186
"3107",81.234146,931.54517
"3108",81.20729,931.5585
"3109",81.22438,931.5718
"3110",81.21217,931.5851
"3111",81.12428,931.5984
"3112",80.91676,931.6117
"3113",80.58228,931.625
"3114",80.13306,931.6383
"3115",79.59838,931.6516
"3116",79.009995,931.6649
"3117",78.40208,931.6782
"3118",77.79904,931.6915
"3119",77.21309,931.70483
"3120",76.65644,931.71814
"3121",76.15106,931.73145
"3122",75.70672,931.74475
"3123",75.3283,931.75806
"3124",75.018234,931.77136
"3125",74.776535,931.78467
"3126",74.59098,931.798
"3127",74.45426,931.8113
"3128",74.36149,931.8246
"3129",74.302895,931.8379
"3130",74.27116,931.8512
"3131",74.25895,931.8645
"3132",74.26139,931.8778
"3133",74.27116,931.8911
"3134",74.288246,931.9044
"3135",74.31022,931.9177
"3136",74.337074,931.931
"3137",74.36393,931.94434
"3138",74.390785,931.95764
"3139",74.4152,931.97095
"3140",74.43229,931.98425
"3141",74.44694,931.99756
"3142",74.45182,932.01086
"3143",74.44938,932.0242
"3144",74.43961,932.0375
"3145",74.42008,932.0508
"3146",74.442055,932.0641
"3147",74.64713,932.0774
"3148",75.23552,932.0907
"3149",76.4123,932.104
"3150",78.26536,932.1173
"3151",80.72144,932.1306
"3152",83.53399,932.1439
"3153",86.34409,932.1572
"3154",88.78798,932.17053
"3155",90.61906,932.18384
"3156",91.73968,932.19714
"3157",92.18402,932.21045
"3158",92.05707,932.22375
"3159",91.510185,932.23706
"3160",90.6923,932.25037
"3161",89.74258,932.2637
"3162",88.76112,932.277
"3163",87.80896,932.2903
"3164",86.908066,932.3036
"3165",86.056,932.3169
"3166",85.25033,932.3302
"3167",84.48615,932.3435
"3168",83.792786,932.3568
"3169",83.211716,932.3701
"3170",82.774704,932.3834
"3171",82.50126,932.3967
"3172",82.36942,932.41003
"3173",82.340126,932.42334
"3174",82.34745,932.43665
"3175",82.33524,932.44995
"3176",82.24979,932.46326
"3177",82.06424,932.47656
"3178",81.75906,932.48987
"3179",81.341576,932.5032
"3180",80.831314,932.5165
"3181",80.26002,932.5298
"3182",79.656975,932.5431
"3183",79.044174,932.5564
"3184",78.44602,932.5697
"3185",77.872284,932.583
"3186",77.33761,932.5963
"3187",76.85176,932.6096
"3188",76.42695,932.6229
"3189",76.068054,932.6362
"3190",75.772644,932.64954
"3191",75.53826,932.66284
"3192",75.36004,932.67615
"3193",75.228195,932.68945
"3194",75.13054,932.70276
"3195",75.06706,932.71606
"3196",75.03288,932.7294
"3197",75.018234,932.7427
"3198",75.01091,932.756
"3199",75.01335,932.7693
"3200",75.01579,932.7826
"3201",75.01579,932.7959
"3202",75.01335,932.8092
"3203",75.00603,932.8225
"3204",74.99138,932.8358
"3205",74.966965,932.8491
"3206",74.932785,932.8624
"3207",74.89128,932.87573
"3208",74.84978,932.88904
"3209",74.813156,932.90234
"3210",74.77898,932.91565
"3211",74.73991,932.92896
"3212",74.70084,932.94226
"3213",74.66422,932.95557
"3214",74.69108,932.9689
"3215",74.932785,932.9822
"3216",75.596855,932.9955
"3217",76.859085,933.0088
"3218",78.77806,933.0221
"3219",81.25613,933.0354
"3220",84.03204,933.0487
"3221",86.74204,933.062
"3222",89.05409,933.0753
"3223",90.74601,933.0886
"3224",91.74212,933.1019
"3225",92.0766,933.11523
"3226",91.85687,933.12854
"3227",91.21965,933.14185
"3228",90.31876,933.15515
"3229",89.28115,933.16846
"3230",88.20203,933.18176
"3231",87.14488,933.19507
"3232",86.13901,933.2084
"3233",85.19173,933.2217
"3234",84.317696,933.235
"3235",83.54131,933.2483
"3236",82.89433,933.2616
"3237",82.41825,933.2749
"3238",82.1326,933.2882
"3239",82.03494,933.3015
"3240",82.08133,933.3148
"3241",82.20828,933.3281
"3242",82.340126,933.34143
"3243",82.41093,933.35474
"3244",82.36942,933.36804
"3245",82.19119,933.38135
"3246",81.866486,933.39465
"3247",81.41482,933.40796
"3248",80.86061,933.42126
"3249",80.23804,933.4346
"3250",79.57885,933.4479
"3251",78.91478,933.4612
"3252",78.2678,933.4745
"3253",77.659874,933.4878
"3254",77.103226,933.5011
"3255",76.60517,933.5144
"3256",76.16571,933.5277
"3257",75.78729,933.541
"3258",75.46746,933.5543
"3259",75.20622,933.5676
"3260",74.9987,933.58093
"3261",74.847336,933.59424
"3262",74.74235,933.60754
"3263",74.67643,933.62085
"3264",74.64225,933.63416
"3265",74.634926,933.64746
"3266",74.64225,933.66077
"3267",74.6569,933.6741
"3268",74.67399,933.6874
"3269",74.67643,933.7007
"3270",74.66422,933.714
"3271",74.63737,933.7273
"3272",74.60563,933.7406
"3273",74.57145,933.7539
"3274",74.54459,933.7672
"3275",74.527504,933.7805
"3276",74.52262,933.7938
"3277",74.52018,933.8071
"3278",74.51774,933.82043
"3279",74.5153,933.83374
"3280",74.50797,933.84705
"3281",74.493324,933.86035
"3282",74.49088,933.87366
"3283",74.53971,933.88696
"3284",74.76433,933.90027
"3285",75.34539,933.9136
"3286",76.47578,933.9269
"3287",78.25071,933.9402
"3288",80.62379,933.9535
"3289",83.38506,933.9668
"3290",86.20737,933.9801
"3291",88.73182,933.9934
"3292",90.69962,934.0067
"3293",91.97894,934.02
"3294",92.56489,934.0333
"3295",92.53315,934.04663
"3296",92.00824,934.05994
"3297",91.12932,934.07324
"3298",90.02823,934.08655
"3299",88.80507,934.09985
"3300",87.53307,934.11316
"3301",86.26597,934.12646
"3302",85.04036,934.1398
"3303",83.89044,934.1531
"3304",82.865036,934.1664
"3305",82.02518,934.1797
"3306",81.427025,934.193
"3307",81.09743,934.2063
"3308",81.03151,934.2196
"3309",81.18288,934.2329
"3310",81.478294,934.2462
"3311",81.82742,934.2595
"3312",82.13504,934.2728
"3313",82.33036,934.28613
"3314",82.3621,934.29944
"3315",82.210724,934.31274
"3316",81.87869,934.32605
"3317",81.392845,934.33936
"3318",80.79225,934.35266
"3319",80.11841,934.36597
"3320",79.40795,934.3793
"3321",78.692604,934.3926
"3322",77.994354,934.4059
"3323",77.34005,934.4192
"3324",76.73701,934.4325
"3325",76.192566,934.4458
"3326",75.7116,934.4591
"3327",75.299,934.4724
"3328",74.95476,934.4857
"3329",74.67887,934.499
"3330",74.47135,934.5123
"3331",74.32731,934.52563
"3332",74.23941,934.53894
"3333",74.19302,934.55225
"3334",74.1857,934.56555
"3335",74.19791,934.57886
"3336",74.2272,934.59216
"3337",74.27116,934.60547
"3338",74.32975,934.6188
"3339",74.38834,934.6321
"3340",74.44694,934.6454
"3341",74.49821,934.6587
"3342",74.53971,934.672
"3343",74.564125,934.6853
"3344",74.581215,934.6986
"3345",74.59342,934.7119
"3346",74.60563,934.7252
"3347",74.61051,934.7385
"3348",74.60319,934.75183
"3349",74.58366,934.76514
"3350",74.55436,934.77844
"3351",74.53239,934.79175
"3352",74.57633,934.80505
"3353",74.830246,934.81836
"3354",75.48943,934.83167
"3355",76.72236,934.845
"3356",78.59739,934.8583
"3357",81.03395,934.8716
"3358",83.78302,934.8849
"3359",86.4979,934.8982
"3360",88.84169,934.9115
"3361",90.57511,934.9248
"3362",91.595634,934.9381
"3363",91.91791,934.9514
"3364",91.63714,934.9647
"3365",90.88762,934.978
"3366",89.8085,934.99133
"3367",88.52674,935.00464
"3368",87.132675,935.01794
"3369",85.68978,935.03125
"3370",84.244446,935.04456
"3371",82.828415,935.05786
"3372",81.497826,935.07117
"3373",80.31373,935.0845
"3374",79.34203,935.0978
"3375",78.64622,935.1111
"3376",78.2678,935.1244
"3377",78.19699,935.1377
"3378",78.38499,935.151
"3379",78.75365,935.1643
"3380",79.20531,935.1776
"3381",79.64721,935.1909
"3382",79.991455,935.2042
"3383",80.18677,935.2175
"3384",80.20874,935.23083
"3385",80.05493,935.24414
"3386",79.742424,935.25745
"3387",79.30053,935.27075
"3388",78.76341,935.28406
"3389",78.167694,935.29736
"3390",77.54757,935.31067
"3391",76.927444,935.324
"3392",76.33662,935.3373
"3393",75.77997,935.3506
"3394",75.267265,935.3639
"3395",74.80339,935.3772
"3396",74.39323,935.3905
"3397",74.03189,935.4038
"3398",73.73159,935.4171
"3399",73.49233,935.4304
"3400",73.31655,935.4437
"3401",73.20668,935.45703
"3402",73.15541,935.47034
"3403",73.16029,935.48364
"3404",73.214005,935.49695
"3405",73.304344,935.51025
"3406",73.42397,935.52356
"3407",73.55825,935.53687
"3408",73.69741,935.5502
"3409",73.83414,935.5635
"3410",73.95865,935.5768
"3411",74.06363,935.5901
"3412",74.1564,935.6034
"3413",74.229645,935.6167
"3414",74.285805,935.63
"3415",74.31754,935.6433
"3416",74.339516,935.6566
"3417",74.3859,935.6699
"3418",74.57877,935.6832
"3419",75.08171,935.69653
"3420",76.06317,935.70984
"3421",77.5964,935.72314
"3422",79.622795,935.73645
"3423",81.93973,935.74976
"3424",84.23956,935.76306
"3425",86.20981,935.77637
"3426",87.63561,935.7897
"3427",88.42176,935.803
"3428",88.59998,935.8163
"3429",88.275276,935.8296
"3430",87.57702,935.8429
"3431",86.6273,935.8562
"3432",85.53353,935.8695
"3433",84.37141,935.8828
"3434",83.17998,935.8961
"3435",81.99588,935.9094
"3436",80.84596,935.9227
"3437",79.77661,935.93604
"3438",78.83421,935.94934
"3439",78.08713,935.96265
"3440",77.593956,935.97595
"3441",77.39376,935.98926
"3442",77.49142,936.00256
"3443",77.84787,936.01587
"3444",78.380104,936.0292
"3445",78.992905,936.0425
"3446",79.58373,936.0558
"3447",80.06958,936.0691
"3448",80.394295,936.0824
"3449",80.5359,936.0957
"3450",80.51148,936.109
"3451",80.34058,936.1223
"3452",80.062256,936.1356
"3453",79.70092,936.1489
"3454",79.28832,936.16223
"3455",78.839096,936.17554
"3456",78.37766,936.18884
"3457",77.91867,936.20215
"3458",77.48409,936.21545
"3459",77.08125,936.22876
"3460",76.71992,936.24207
"3461",76.383,936.2554
"3462",76.04608,936.2687
"3463",75.70428,936.282
"3464",75.36492,936.2953
"3465",75.04265,936.3086
"3466",74.74723,936.3219
"3467",74.486,936.3352
"3468",74.27604,936.3485
"3469",74.16373,936.3618
"3470",74.246735,936.3751
"3471",74.67399,936.3884
"3472",75.58709,936.40173
"3473",77.02998,936.41504
"3474",78.922104,936.42834
"3475",81.05104,936.44165
"3476",83.123825,936.45496
"3477",84.86214,936.46826
"3478",86.080414,936.48157
"3479",86.72495,936.4949
"3480",86.83238,936.5082
"3481",86.51011,936.5215
"3482",85.889984,936.5348
"3483",85.07698,936.5481
"3484",84.159,936.5614
"3485",83.1873,936.5747
"3486",82.19852,936.588
"3487",81.2195,936.6013
"3488",80.28199,936.6146
"3489",79.41772,936.6279
"3490",78.6804,936.64124
"3491",78.12619,936.65454
"3492",77.806366,936.66785
"3493",77.75021,936.68115
"3494",77.95285,936.69446
"3495",78.37034,936.70776
"3496",78.92943,936.72107
"3497",79.54223,936.7344
"3498",80.11597,936.7477
"3499",80.584724,936.761
"3500",80.907,936.7743
"3501",81.06569,936.7876
"3502",81.075455,936.8009
"3503",80.96315,936.8142
"3504",80.75563,936.8275
"3505",80.48707,936.8408
"3506",80.184326,936.8541
"3507",79.86206,936.86743
"3508",79.53246,936.88074
"3509",79.202866,936.89404
"3510",78.8806,936.90735
"3511",78.57053,936.92065
"3512",78.28001,936.93396
"3513",78.013885,936.94727
"3514",77.789276,936.9606
"3515",77.679405,936.9739
"3516",77.81613,936.9872
"3517",78.36057,937.0005
"3518",79.43725,937.0138
"3519",81.06569,937.0271
"3520",83.11406,937.0404
"3521",85.313805,937.0537
"3522",87.345085,937.067
"3523",88.92958,937.0803
"3524",89.915924,937.0936
"3525",90.29191,937.10693
"3526",90.125885,937.12024
"3527",89.54238,937.13354
"3528",88.67567,937.14685
"3529",87.62585,937.16016
"3530",86.468605,937.17346
"3531",85.26498,937.18677
"3532",84.054016,937.2001
"3533",82.879684,937.2134
"3534",81.78592,937.2267
"3535",80.831314,937.24
"3536",80.06714,937.2533
"3537",79.554436,937.2666
"3538",79.33227,937.2799
"3539",79.398186,937.2932
"3540",79.71557,937.3065
"3541",80.20386,937.3198
"3542",80.76051,937.3331
"3543",81.28054,937.34644
"3544",81.69314,937.35974
"3545",81.94949,937.37305
"3546",82.039825,937.38635
"3547",81.971466,937.39966
"3548",81.77127,937.41296
"3549",81.47097,937.4263
"3550",81.10475,937.4396
"3551",80.69703,937.4529
"3552",80.26978,937.4662
"3553",79.84253,937.4795
"3554",79.42016,937.4928
"3555",79.01488,937.5061
"3556",78.64622,937.5194
"3557",78.32151,937.5327
"3558",78.08957,937.546
"3559",78.06271,937.5593
"3560",78.41917,937.57263
"3561",79.3225,937.58594
"3562",80.86061,937.59924
"3563",82.97246,937.61255
"3564",85.43099,937.62585
"3565",87.8822,937.63916
"3566",89.9794,937.65247
"3567",91.476006,937.6658
"3568",92.264595,937.6791
"3569",92.3769,937.6924
"3570",91.930115,937.7057
"3571",91.07805,937.719
"3572",89.95987,937.7323
"3573",88.69276,937.7456
"3574",87.362175,937.7589
"3575",86.02182,937.7722
"3576",84.701,937.7855
"3577",83.43389,937.7988
"3578",82.26444,937.81213
"3579",81.248795,937.82544
"3580",80.45289,937.83875
"3581",79.93286,937.85205
"3582",79.72289,937.86536
"3583",79.80835,937.87866
"3584",80.13306,937.89197
"3585",80.59205,937.9053
"3586",81.077896,937.9186
"3587",81.48562,937.9319
"3588",81.7322,937.9452
"3589",81.78592,937.9585
"3590",81.64187,937.9718
"3591",81.324486,937.9851
"3592",80.87282,937.9984
"3593",80.33326,938.0117
"3594",79.73998,938.025
"3595",79.13695,938.0383
"3596",78.54368,938.05164
"3597",77.977264,938.06494
"3598",77.44259,938.07825
"3599",76.93965,938.09155
"3600",76.473335,938.10486
"3601",76.08026,938.11816
"3602",75.86786,938.1315
"3603",76.036316,938.1448
"3604",76.807816,938.1581
"3605",78.32639,938.1714
"3606",80.57984,938.1847
"3607",83.36553,938.198
"3608",86.30747,938.2113
"3609",88.98085,938.2246
"3610",91.0341,938.2379
"3611",92.28657,938.2512
"3612",92.72358,938.2645
"3613",92.455025,938.27783
"3614",91.65423,938.29114
"3615",90.51408,938.30444
"3616",89.19081,938.31775
"3617",87.79675,938.33105
"3618",86.40269,938.34436
"3619",85.03548,938.35767
"3620",83.71221,938.371
"3621",82.45243,938.3843
"3622",81.30007,938.3976
"3623",80.30152,938.4109
"3624",79.5227,938.4242
"3625",79.01732,938.4375
"3626",78.80736,938.4508
"3627",78.86107,938.4641
"3628",79.11009,938.4774
"3629",79.44457,938.4907
"3630",79.7522,938.504
"3631",79.9353,938.51733
"3632",79.940186,938.53064
"3633",79.75464,938.54395
"3634",79.40307,938.55725
"3635",78.92943,938.57056
"3636",78.3679,938.58386
"3637",77.752655,938.59717
"3638",77.11543,938.6105
"3639",76.4831,938.6238
"3640",75.880066,938.6371
"3641",75.33318,938.6504
"3642",74.85954,938.6637
"3643",74.459145,938.677
"3644",74.12955,938.6903
"3645",73.85367,938.7036
"3646",73.62661,938.7169
"3647",73.480125,938.7302
"3648",73.531395,938.7435
"3649",73.99283,938.75684
"3650",75.08659,938.77014
"3651",76.946976,938.78345
"3652",79.534904,938.79675
"3653",82.61112,938.81006
"3654",85.770355,938.82336
"3655",88.57557,938.8367
"3656",90.687416,938.85
"3657",91.93744,938.8633
"3658",92.32807,938.8766
"3659",91.983826,938.8899
"3660",91.087814,938.9032
"3661",89.82803,938.9165
"3662",88.377815,938.9298
"3663",86.871445,938.9431
"3664",85.39437,938.9564
"3665",83.99054,938.9697
"3666",82.67216,938.98303
"3667",81.44167,938.99634
"3668",80.31373,939.00964
"3669",79.33227,939.02295
"3670",78.55833,939.03625
"3671",78.04074,939.04956
"3672",77.80148,939.06287
"3673",77.80881,939.0762
"3674",77.98459,939.0895
"3675",78.22385,939.1028
"3676",78.43137,939.1161
"3677",78.536354,939.1294
"3678",78.49241,939.1427
"3679",78.28001,939.156
"3680",77.91135,939.1693
"3681",77.41573,939.1826
"3682",76.82002,939.1959
"3683",76.16815,939.2092
"3684",75.50408,939.22253
"3685",74.85954,939.23584
"3686",74.25407,939.24915
"3687",73.69741,939.26245
"3688",73.2018,939.27576
"3689",72.762344,939.28906
"3690",72.38636,939.30237
"3691",72.07141,939.3157
"3692",71.82483,939.329
"3693",71.641716,939.3423
"3694",71.52697,939.3556
"3695",71.4757,939.3689
"3696",71.48058,939.3822
"3697",71.53185,939.3955
"3698",71.6173,939.4088
"3699",71.72228,939.4221
"3700",71.82483,939.4354
"3701",71.9176,939.4487
"3702",72.03479,939.46204
"3703",72.28138,939.47534
"3704",72.85512,939.48865
"3705",73.97574,939.50195
"3706",75.7702,939.51526
"3707",78.20676,939.52856
"3708",81.06813,939.5419
"3709",83.98566,939.5552
"3710",86.56626,939.5685
"3711",88.50233,939.5818
"3712",89.654686,939.5951
"3713",90.03555,939.6084
"3714",89.762115,939.6217
"3715",89.005264,939.635
"3716",87.938354,939.6483
"3717",86.72251,939.6616
"3718",85.47738,939.6749
"3719",84.281075,939.68823
"3720",83.17265,939.70154
"3721",82.15213,939.71484
"3722",81.20973,939.72815
"3723",80.35035,939.74146
"3724",79.588615,939.75476
"3725",78.96361,939.76807
"3726",78.5095,939.7814
"3727",78.25071,939.7947
"3728",78.17746,939.808
"3729",78.24582,939.8213
"3730",78.38499,939.8346
"3731",78.521706,939.8479
"3732",78.58762,939.8612
"3733",78.536354,939.8745
"3734",78.34348,939.8878
"3735",78.013885,939.9011
"3736",77.57198,939.9144
"3737",77.0544,939.92773
"3738",76.490425,939.94104
"3739",75.91913,939.95435
"3740",75.36004,939.96765
"3741",74.83757,939.98096
"3742",74.36637,939.99426
"3743",73.96353,940.00757
"3744",73.63149,940.0209
"3745",73.38003,940.0342
"3746",73.196915,940.0475
"3747",73.077286,940.0608
"3748",73.006485,940.0741
"3749",72.97475,940.0874
"3750",72.969864,940.1007
"3751",72.98695,940.114
"3752",73.01869,940.1273
"3753",73.06508,940.1406
"3754",73.12367,940.15393
"3755",73.19203,940.16724
"3756",73.270164,940.18054
"3757",73.3605,940.19385
"3758",73.45571,940.20715
"3759",73.54116,940.22046
"3760",73.60952,940.23376
"3761",73.65591,940.2471
"3762",73.687645,940.2604
"3763",73.77554,940.2737
"3764",74.08072,940.287
"3765",74.82292,940.3003
"3766",76.16571,940.3136
"3767",78.14572,940.3269
"3768",80.63111,940.3402
"3769",83.32647,940.3535
"3770",85.858246,940.3668
"3771",87.9115,940.3801
"3772",89.31289,940.39343
"3773",90.03555,940.40674
"3774",90.15274,940.42004
"3775",89.79385,940.43335
"3776",89.09804,940.44666
"3777",88.20447,940.45996
"3778",87.22545,940.47327
"3779",86.25376,940.4866
"3780",85.33822,940.4999
"3781",84.49592,940.5132
"3782",83.719536,940.5265
"3783",83.001755,940.5398
"3784",82.34745,940.5531
"3785",81.79324,940.5664
"3786",81.38064,940.5797
"3787",81.146255,940.593
"3788",81.092545,940.6063
"3789",81.1902,940.6196
"3790",81.38308,940.63293
"3791",81.59792,940.64624
"3792",81.76883,940.65955
"3793",81.84207,940.67285
"3794",81.78348,940.68616
"3795",81.58572,940.69946
"3796",81.253685,940.71277
"3797",80.81911,940.7261
"3798",80.31861,940.7394
"3799",79.78882,940.7527
"3800",79.259026,940.766
"3801",78.751205,940.7793
"3802",78.277565,940.7926
"3803",77.84299,940.8059
"3804",77.452354,940.8192
"3805",77.11055,940.8325
"3806",76.822464,940.8458
"3807",76.592964,940.85913
"3808",76.41474,940.87244
"3809",76.28779,940.88574
"3810",76.209656,940.89905
"3811",76.16327,940.91235
"3812",76.14618,940.92566
"3813",76.155945,940.93896
"3814",76.18524,940.9523
"3815",76.226746,940.9656
"3816",76.2707,940.9789
"3817",76.3122,940.9922
"3818",76.34394,941.0055
"3819",76.36103,941.0188
"3820",76.36347,941.0321
"3821",76.36103,941.0454
"3822",76.34394,941.0587
"3823",76.31953,941.072
"3824",76.28535,941.0853
"3825",76.26826,941.09863
"3826",76.36103,941.11194
"3827",76.73945,941.12524
"3828",77.60616,941.13855
"3829",79.08812,941.15186
"3830",81.16579,941.16516
"3831",83.665825,941.17847
"3832",86.275734,941.1918
"3833",88.636604,941.2051
"3834",90.47501,941.2184
"3835",91.65667,941.2317
"3836",92.18158,941.245
"3837",92.1181,941.2583
"3838",91.59075,941.2716
"3839",90.7338,941.2849
"3840",89.671776,941.2982
"3841",88.52918,941.3115
"3842",87.38659,941.3248
"3843",86.30503,941.33813
"3844",85.29427,941.35144
"3845",84.3592,941.36475
"3846",83.49737,941.37805
"3847",82.720985,941.39136
"3848",82.06668,941.40466
"3849",81.58083,941.41797
"3850",81.28542,941.4313
"3851",81.180435,941.4446
"3852",81.21706,941.4579
"3853",81.32937,941.4712
"3854",81.446556,941.4845
"3855",81.50271,941.4978
"3856",81.446556,941.5111
"3857",81.26833,941.5244
"3858",80.96315,941.5377
"3859",80.54322,941.551
"3860",80.04028,941.56433
"3861",79.48852,941.57764
"3862",78.91234,941.59094
"3863",78.34104,941.60425
"3864",77.7966,941.61755
"3865",77.29366,941.63086
"3866",76.839554,941.64417
"3867",76.44404,941.6575
"3868",76.104675,941.6708
"3869",75.826355,941.6841
"3870",75.60662,941.6974
"3871",75.440605,941.7107
"3872",75.33318,941.724
"3873",75.27947,941.7373
"3874",75.27215,941.7506
"3875",75.301445,941.7639
"3876",75.355156,941.7772
"3877",75.41619,941.7905
"3878",75.47967,941.80383
"3879",75.53338,941.81714
"3880",75.577324,941.83044
"3881",75.613945,941.84375
"3882",75.64568,941.85706
"3883",75.67742,941.87036
"3884",75.70916,941.88367
"3885",75.73846,941.897
"3886",75.76044,941.9103
"3887",75.76776,941.9236
"3888",75.74822,941.9369
"3889",75.70916,941.9502
"3890",75.67742,941.9635
"3891",75.74578,941.9768
"3892",76.09491,941.9901
"3893",76.94942,942.0034
"3894",78.45579,942.0167
"3895",80.62623,942.03
"3896",83.299614,942.04333
"3897",86.15854,942.05664
"3898",88.8246,942.06995
"3899",90.985275,942.08325
"3900",92.46723,942.09656
"3901",93.23872,942.10986
"3902",93.36324,942.12317
"3903",92.9604,942.1365
"3904",92.174255,942.1498
"3905",91.15129,942.1631
"3906",90.01602,942.1764
"3907",88.85634,942.1897
"3908",87.74059,942.203
"3909",86.68833,942.2163
"3910",85.697105,942.2296
"3911",84.76936,942.2429
"3912",83.92218,942.2562
"3913",83.19707,942.26953
"3914",82.63798,942.28284
"3915",82.27909,942.29614
"3916",82.127716,942.30945
"3917",82.15213,942.32275
"3918",82.28153,942.33606
"3919",82.44022,942.34937
"3920",82.55009,942.3627
"3921",82.55253,942.376
"3922",82.41093,942.3893
"3923",82.11063,942.4026
"3924",81.66384,942.4159
"3925",81.10475,942.4292
"3926",80.46021,942.4425
"3927",79.77661,942.4558
"3928",79.08812,942.4691
"3929",78.416725,942.4824
"3930",77.77707,942.4957
"3931",77.18379,942.50903
"3932",76.64423,942.52234
"3933",76.16327,942.53564
"3934",75.74822,942.54895
"3935",75.3991,942.56226
"3936",75.11833,942.57556
"3937",74.896164,942.58887
"3938",74.72526,942.6022
"3939",74.59586,942.6155
"3940",74.50797,942.6288
"3941",74.45182,942.6421
"3942",74.42741,942.6554
"3943",74.42252,942.6687
"3944",74.43473,942.682
"3945",74.44694,942.6953
"3946",74.45426,942.7086
"3947",74.45182,942.7219
"3948",74.43473,942.7352
"3949",74.407875,942.74854
"3950",74.38102,942.76184
"3951",74.356606,942.77515
"3952",74.33219,942.78845
"3953",74.30778,942.80176
"3954",74.28092,942.81506
"3955",74.251625,942.82837
"3956",74.2272,942.8417
"3957",74.27848,942.855
"3958",74.56168,942.8683
"3959",75.30389,942.8816
"3960",76.6955,942.8949
"3961",78.79759,942.9082
"3962",81.495384,942.9215
"3963",84.48615,942.9348
"3964",87.379265,942.9481
"3965",89.79874,942.9614
"3966",91.51751,942.97473
"3967",92.474556,942.98804
"3968",92.72114,943.00134
"3969",92.38178,943.01465
"3970",91.60296,943.02795
"3971",90.52384,943.04126
"3972",89.27383,943.05457
"3973",87.94568,943.0679
"3974",86.607765,943.0812
"3975",85.30404,943.0945
"3976",84.054016,943.1078
"3977",82.88457,943.1211
"3978",81.83475,943.1344
"3979",80.96071,943.1477
"3980",80.32105,943.161
"3981",79.95239,943.1743
"3982",79.85962,943.1876
"3983",80.00122,943.2009
"3984",80.30152,943.21423
"3985",80.66285,943.22754
"3986",80.987564,943.24084
"3987",81.19997,943.25415
"3988",81.248795,943.26746
"3989",81.112076,943.28076
"3990",80.797134,943.29407
"3991",80.33814,943.3074
"3992",79.76929,943.3207
"3993",79.13695,943.334
"3994",78.47288,943.3473
"3995",77.803925,943.3606
"3996",77.14717,943.3739
"3997",76.51972,943.3872
"3998",75.9411,943.4005
"3999",75.41863,943.4138
"4000",74.969406,943.4271
"4001",74.59586,943.4404
"4002",74.29313,943.45374
"4003",74.056305,943.46704
"4004",73.87808,943.48035
"4005",73.75113,943.49365
"4006",73.66079,943.50696
"4007",73.60708,943.52026
"4008",73.58755,943.53357
"4009",73.59487,943.5469
"4010",73.62905,943.5602
"4011",73.68276,943.5735
"4012",73.75357,943.5868
"4013",73.829254,943.6001
"4014",73.9025,943.6134
"4015",73.96353,943.6267
"4016",74.00992,943.64
"4017",74.0441,943.6533
"4018",74.05875,943.6666
"4019",74.05875,943.67993
"4020",74.0441,943.69324
"4021",74.022125,943.70654
"4022",74.01236,943.71985
"4023",74.09781,943.73315
"4024",74.43473,943.74646
"4025",75.23064,943.75977
"4026",76.629585,943.7731
"4027",78.65354,943.7864
"4028",81.143814,943.7997
"4029",83.79767,943.813
"4030",86.24155,943.8263
"4031",88.15808,943.8396
"4032",89.38613,943.8529
"4033",89.91104,943.8662
"4034",89.81827,943.8795
"4035",89.24208,943.8928
"4036",88.31434,943.9061
"4037",87.15709,943.91943
"4038",85.86557,943.93274
"4039",84.52033,943.94604
"4040",83.175095,943.95935
"4041",81.87381,943.97266
"4042",80.6482,943.98596
"4043",79.53246,943.99927
"4044",78.57542,944.0126
"4045",77.83322,944.0259
"4046",77.3547,944.0392
"4047",77.17403,944.0525
"4048",77.279015,944.0658
"4049",77.61593,944.0791
"4050",78.09201,944.0924
"4051",78.60227,944.1057
"4052",79.0515,944.119
"4053",79.36645,944.1323
"4054",79.50805,944.1456
"4055",79.47143,944.15894
"4056",79.276115,944.17224
"4057",78.95384,944.18555
"4058",78.536354,944.19885
"4059",78.0676,944.21216
"4060",77.574425,944.22546
"4061",77.07881,944.2388
"4062",76.59785,944.2521
"4063",76.138855,944.2654
"4064",75.7116,944.2787
"4065",75.32098,944.292
"4066",74.97429,944.3053
"4067",74.67155,944.3186
"4068",74.4152,944.3319
"4069",74.21011,944.3452
"4070",74.05142,944.3585
"4071",73.93912,944.3718
"4072",73.8732,944.38513
"4073",73.85611,944.39844
"4074",73.87076,944.41174
"4075",73.91226,944.42505
"4076",73.9733,944.43835
"4077",74.056305,944.45166
"4078",74.1564,944.46497
"4079",74.2736,944.4783
"4080",74.39567,944.4916
"4081",74.5153,944.5049
"4082",74.615395,944.5182
"4083",74.69596,944.5315
"4084",74.75212,944.5448
"4085",74.793625,944.5581
"4086",74.84001,944.5714
"4087",74.96208,944.5847
"4088",75.29656,944.598
"4089",76.00702,944.6113
"4090",77.196,944.62463
"4091",78.84642,944.63794
"4092",80.81178,944.65125
"4093",82.82353,944.66455
"4094",84.58381,944.67786
"4095",85.875336,944.69116
"4096",86.61021,944.70447
"4097",86.80553,944.7178
"4098",86.55161,944.7311
"4099",85.96567,944.7444
"4100",85.15999,944.7577
"4101",84.227356,944.771
"4102",83.23613,944.7843
"4103",82.2327,944.7976
"4104",81.248795,944.8109
"4105",80.29908,944.8242
"4106",79.40551,944.8375
"4107",78.59739,944.8508
"4108",77.91867,944.86414
"4109",77.41329,944.87744
"4110",77.12764,944.89075
"4111",77.08125,944.90405
"4112",77.27169,944.91736
"4113",77.659874,944.93066
"4114",78.17258,944.944
"4115",78.7219,944.9573
"4116",79.22728,944.9706
"4117",79.63256,944.9839
"4118",79.89868,944.9972
"4119",80.028076,945.0105
"4120",80.02075,945.0238
"4121",79.906006,945.0371
"4122",79.70336,945.0504
"4123",79.447014,945.0637
"4124",79.15892,945.077
"4125",78.86351,945.09033
"4126",78.56809,945.10364
"4127",78.28245,945.11694
"4128",78.00656,945.13025
"4129",77.75021,945.14355
"4130",77.51827,945.15686
"4131",77.30831,945.17017
"4132",77.120316,945.1835
"4133",76.961624,945.1968
"4134",76.83223,945.2101
"4135",76.73701,945.2234
"4136",76.67353,945.2367
"4137",76.65156,945.25
"4138",76.66132,945.2633
"4139",76.697945,945.2766
"4140",76.75166,945.2899
"4141",76.82002,945.3032
"4142",76.89815,945.3165
"4143",76.97627,945.32983
"4144",77.04463,945.34314
"4145",77.12764,945.35645
"4146",77.29366,945.36975
"4147",77.6672,945.38306
"4148",78.37522,945.39636
"4149",79.47875,945.40967
"4150",80.938736,945.423
"4151",82.60136,945.4363
"4152",84.23712,945.4496
"4153",85.60677,945.4629
"4154",86.56138,945.4762
"4155",87.04967,945.4895
"4156",87.1107,945.5028
"4157",86.8275,945.5161
"4158",86.29282,945.5294
"4159",85.592125,945.5427
"4160",84.79378,945.556
"4161",83.946594,945.56934
"4162",83.07988,945.58264
"4163",82.22293,945.59595
"4164",81.392845,945.60925
"4165",80.61402,945.62256
"4166",79.91333,945.63586
"4167",79.32983,945.6492
"4168",78.90257,945.6625
"4169",78.67063,945.6758
"4170",78.65354,945.6891
"4171",78.84154,945.7024
"4172",79.202866,945.7157
"4173",79.66918,945.729
"4174",80.177,945.7423
"4175",80.65308,945.7556
"4176",81.0486,945.7689
"4177",81.324486,945.7822
"4178",81.47341,945.79553
"4179",81.495384,945.80884
"4180",81.40505,945.82214
"4181",81.231705,945.83545
"4182",81.00221,945.84875
"4183",80.740974,945.86206
"4184",80.47242,945.87537
"4185",80.20874,945.8887
"4186",79.95239,945.902
"4187",79.710686,945.9153
"4188",79.47143,945.9286
"4189",79.23949,945.9419
"4190",79.01488,945.9552
"4191",78.802475,945.9685
"4192",78.6096,945.9818
"4193",78.4387,945.9951
"4194",78.32151,946.0084
"4195",78.32395,946.0217
"4196",78.56321,946.03503
"4197",79.17113,946.04834
"4198",80.20874,946.06165
"4199",81.63943,946.07495
"4200",83.30938,946.08826
"4201",84.981766,946.10156
"4202",86.417336,946.11487
"4203",87.44274,946.1282
"4204",88.006714,946.1415
"4205",88.12634,946.1548
"4206",87.87732,946.1681
"4207",87.34997,946.1814
"4208",86.63218,946.1947
"4209",85.78989,946.208
"4210",84.88411,946.2213
"4211",83.94415,946.2346
"4212",83.004196,946.2479
"4213",82.08133,946.2612
"4214",81.214615,946.27454
"4215",80.43824,946.28784
"4216",79.81079,946.30115
"4217",79.37621,946.31445
"4218",79.166245,946.32776
"4219",79.17845,946.34106
"4220",79.378654,946.3544
"4221",79.72045,946.3677
"4222",80.13306,946.381
"4223",80.550545,946.3943
"4224",80.91676,946.4076
"4225",81.1902,946.4209
"4226",81.35134,946.4342
"4227",81.40261,946.4475
"4228",81.35134,946.4608
"4229",81.22194,946.4741
"4230",81.041275,946.4874
"4231",80.81911,946.50073
"4232",80.56519,946.51404
"4233",80.28687,946.52734
"4234",79.98901,946.54065
"4235",79.676506,946.55396
"4236",79.35424,946.56726
"4237",79.04173,946.58057
"4238",78.765854,946.5939
"4239",78.624245,946.6072
"4240",78.75853,946.6205
"4241",79.30785,946.6338
"4242",80.33326,946.6471
"4243",81.79324,946.6604
"4244",83.51934,946.6737
"4245",85.262535,946.687
"4246",86.76402,946.7003
"4247",87.852905,946.7136
"4248",88.4535,946.7269
"4249",88.59022,946.74023
"4250",88.33387,946.75354
"4251",87.77722,946.76685
"4252",87.01305,946.78015
"4253",86.11459,946.79346
"4254",85.13313,946.80676
"4255",84.1004,946.82007
"4256",83.053024,946.8334
"4257",82.02762,946.8467
"4258",81.06569,946.86
"4259",80.22095,946.8733
"4260",79.554436,946.8866
"4261",79.11253,946.8999
"4262",78.91966,946.9132
"4263",78.97093,946.9265
"4264",79.2224,946.9398
"4265",79.60815,946.9531
"4266",80.05249,946.96643
"4267",80.46754,946.97974
"4268",80.797134,946.99304
"4269",81.00221,947.00635
"4270",81.07301,947.01965
"4271",81.0193,947.03296
"4272",80.86061,947.04626
"4273",80.618904,947.0596
"4274",80.323494,947.0729
"4275",79.98657,947.0862
"4276",79.61791,947.0995
"4277",79.22728,947.1128
"4278",78.82689,947.1261
"4279",78.42893,947.1394
"4280",78.07004,947.1527
"4281",77.84543,947.166
"4282",77.91623,947.1793
"4283",78.44114,947.1926
"4284",79.51049,947.20593
"4285",81.09743,947.21924
"4286",83.035934,947.23254
"4287",85.04768,947.24585
"4288",86.83482,947.25916
"4289",88.182495,947.27246
"4290",88.98329,947.28577
"4291",89.24452,947.2991
"4292",89.041885,947.3124
"4293",88.47547,947.3257
"4294",87.64782,947.339
"4295",86.64683,947.3523
"4296",85.5433,947.3656
"4297",84.386055,947.3789
"4298",83.20683,947.3922
"4299",82.039825,947.4055
"4300",80.92409,947.4188
"4301",79.923096,947.4321
"4302",79.09056,947.44543
"4303",78.487526,947.45874
"4304",78.153046,947.47205
"4305",78.0798,947.48535
"4306",78.23605,947.49866
"4307",78.54124,947.51196
"4308",78.907455,947.52527
"4309",79.23949,947.5386
"4310",79.47387,947.5519
"4311",79.56176,947.5652
"4312",79.49584,947.5785
"4313",79.29565,947.5918
"4314",78.99046,947.6051
"4315",78.6096,947.6184
"4316",78.17746,947.6317
"4317",77.71847,947.645
"4318",77.242386,947.6583
"4319",76.76143,947.67163
"4320",76.28535,947.68494
"4321",75.83124,947.69824
"4322",75.46746,947.71155
"4323",75.3283,947.72485
"4324",75.59441,947.73816
"4325",76.40986,947.75146
"4326",77.7966,947.7648
"4327",79.64233,947.7781
"4328",81.69558,947.7914
"4329",83.63897,947.8047
"4330",85.189285,947.818
"4331",86.19516,947.8313
"4332",86.61997,947.8446
"4333",86.52476,947.8579
"4334",86.01938,947.8712
"4335",85.23567,947.8845
"4336",84.29084,947.8978
"4337",83.27032,947.91113
"4338",82.23758,947.92444
"4339",81.2195,947.93774
"4340",80.22827,947.95105
"4341",79.28344,947.96436
"4342",78.42649,947.97766
"4343",77.70382,947.99097
"4344",77.171585,948.0043
"4345",76.86641,948.0176
"4346",76.80293,948.0309
"4347",76.944534,948.0442
"4348",77.22774,948.0575
"4349",77.57198,948.0708
"4350",77.89426,948.0841
"4351",78.133514,948.0974
"4352",78.25315,948.1107
"4353",78.23605,948.124
"4354",78.09445,948.1373
"4355",77.85031,948.15063
"4356",77.53048,948.16394
"4357",77.16914,948.17725
"4358",76.790726,948.19055
"4359",76.41474,948.20386
"4360",76.053406,948.21716
"4361",75.7116,948.23047
"4362",75.386894,948.2438
"4363",75.09148,948.2571
"4364",74.86687,948.2704
"4365",74.813156,948.2837
"4366",75.106125,948.297
"4367",75.894714,948.3103
"4368",77.242386,948.3236
"4369",79.063705,948.3369
"4370",81.13893,948.3502
"4371",83.15068,948.3635
"4372",84.79622,948.37683
"4373",85.889984,948.39014
"4374",86.37827,948.40344
"4375",86.32456,948.41675
"4376",85.8436,948.43005
"4377",85.07454,948.44336
"4378",84.15167,948.45667
"4379",83.17998,948.47
"4380",82.22537,948.4833
"4381",81.322044,948.4966
"4382",80.47242,948.5099
"4383",79.67895,948.5232
"4384",78.9514,948.5365
"4385",78.32151,948.5498
"4386",77.83322,948.5631
"4387",77.52071,948.5764
"4388",77.3962,948.5897
"4389",77.44991,948.603
"4390",77.628136,948.61633
"4391",77.874725,948.62964
"4392",78.1091,948.64294
"4393",78.27512,948.65625
"4394",78.33616,948.66956
"4395",78.27268,948.68286
"4396",78.09201,948.69617
"4397",77.821014,948.7095
"4398",77.48409,948.7228
"4399",77.11055,948.7361
"4400",76.72724,948.7494
"4401",76.35615,948.7627
"4402",76.00946,948.776
"4403",75.70672,948.7893
"4404",75.45037,948.8026
"4405",75.245285,948.8159
"4406",75.07927,948.8292
"4407",74.94743,948.8425
"4408",74.84245,948.85583
"4409",74.76433,948.86914
"4410",74.72526,948.88245
"4411",74.8156,948.89575
"4412",75.176926,948.90906
"4413",75.9704,948.92236
"4414",77.26925,948.93567
"4415",79.03197,948.949
"4416",81.075455,948.9623
"4417",83.11894,948.9756
"4418",84.859695,948.9889
"4419",86.08774,949.0022
"4420",86.729836,949.0155
"4421",86.8275,949.0288
"4422",86.47837,949.0421
"4423",85.82651,949.0554
"4424",85.00374,949.0687
"4425",84.13214,949.08203
"4426",83.282524,949.09534
"4427",82.50126,949.10864
"4428",81.80057,949.12195
"4429",81.17067,949.13525
"4430",80.59693,949.14856
"4431",80.08667,949.16187
"4432",79.65453,949.1752
"4433",79.32983,949.1885
"4434",79.12962,949.2018
"4435",79.063705,949.2151
"4436",79.10765,949.2284
"4437",79.22728,949.2417
"4438",79.36889,949.255
"4439",79.48119,949.2683
"4440",79.52758,949.2816
"4441",79.483635,949.2949
"4442",79.344475,949.3082
"4443",79.11009,949.32153
"4444",78.80736,949.33484
"4445",78.45823,949.34814
"4446",78.09445,949.36145
"4447",77.72823,949.37476
"4448",77.37667,949.38806
"4449",77.051956,949.40137
"4450",76.75899,949.4147
"4451",76.50019,949.428
"4452",76.28535,949.4413
"4453",76.11688,949.4546
"4454",75.99237,949.4679
"4455",75.90448,949.4812
"4456",75.85077,949.4945
"4457",75.81903,949.5078
"4458",75.80438,949.5211
"4459",75.81171,949.5344
"4460",75.83124,949.5477
"4461",75.862976,949.56104
"4462",75.90448,949.57434
"4463",75.95087,949.58765
"4464",75.999695,949.60095
"4465",76.04608,949.61426
"4466",76.085144,949.62756
"4467",76.11444,949.64087
"4468",76.13397,949.6542
"4469",76.155945,949.6675
"4470",76.25361,949.6808
"4471",76.56611,949.6941
"4472",77.25948,949.7074
"4473",78.42893,949.7207
"4474",80.05737,949.734
"4475",81.99344,949.7473
"4476",83.97345,949.7606
"4477",85.71908,949.7739
"4478",87.02037,949.78723
"4479",87.78699,949.80054
"4480",88.043335,949.81384
"4481",87.87488,949.82715
"4482",87.396355,949.84045
"4483",86.72251,949.85376
"4484",85.96811,949.86707
"4485",85.21858,949.8804
"4486",84.525215,949.8937
"4487",83.90265,949.907
"4488",83.34844,949.9203
"4489",82.83818,949.9336
"4490",82.354774,949.9469
"4491",81.90555,949.9602
"4492",81.52224,949.9735
"4493",81.24147,949.9868
"4494",81.08278,950.0001
"4495",81.04372,950.0134
"4496",81.092545,950.02673
"4497",81.17555,950.04004
"4498",81.24635,950.05334
"4499",81.26101,950.06665
"4500",81.197525,950.07996
"4501",81.04372,950.09326
"4502",80.81178,950.10657
"4503",80.50416,950.1199
"4504",80.13794,950.1332
"4505",79.73754,950.1465
"4506",79.33227,950.1598
"4507",78.93187,950.1731
"4508",78.55833,950.1864
"4509",78.221405,950.1997
"4510",77.92844,950.213
"4511",77.67452,950.2263
"4512",77.45724,950.2396
"4513",77.281456,950.2529
"4514",77.14229,950.26624
"4515",77.03731,950.27954
"4516",76.96895,950.29285
"4517",76.929886,950.30615
"4518",76.91768,950.31946
"4519",76.925,950.33276
"4520",76.944534,950.34607
"4521",76.96651,950.3594
"4522",76.99336,950.3727
"4523",77.02022,950.386
"4524",77.04707,950.3993
"4525",77.069046,950.4126
"4526",77.086136,950.4259
"4527",77.0959,950.4392
"4528",77.09834,950.4525
"4529",77.09834,950.4658
"4530",77.09346,950.4791
"4531",77.083694,950.49243
"4532",77.069046,950.50574
"4533",77.05684,950.51904
"4534",77.08125,950.53235
"4535",77.261925,950.54565
"4536",77.7551,950.55896
"4537",78.70481,950.57227
"4538",80.15991,950.5856
"4539",82.054474,950.5989
"4540",84.18829,950.6122
"4541",86.275734,950.6255
"4542",88.05066,950.6388
"4543",89.342186,950.6521
"4544",90.089264,950.6654
"4545",90.32609,950.6787
"4546",90.14053,950.692
"4547",89.6498,950.7053
"4548",88.97597,950.7186
"4549",88.22156,950.73193
"4550",87.464714,950.74524
"4551",86.74937,950.75854
"4552",86.09018,950.77185
"4553",85.46761,950.78516
"4554",84.8719,950.79846
"4555",84.30305,950.81177
"4556",83.790344,950.8251
"4557",83.36309,950.8384
"4558",83.05058,950.8517
"4559",82.865036,950.865
"4560",82.78203,950.8783
"4561",82.760056,950.8916
"4562",82.75517,950.9049
"4563",82.720985,950.9182
"4564",82.616005,950.9315
"4565",82.42069,950.9448
"4566",82.125275,950.9581
"4567",81.73464,950.97144
"4568",81.26589,950.98474
"4569",80.743416,950.99805
"4570",80.19653,951.01135
"4571",79.65453,951.02466
"4572",79.12718,951.03796
"4573",78.63157,951.0513
"4574",78.17258,951.0646
"4575",77.75021,951.0779
