"","ppg","time"
"1",90.67521,498.76373
"2",89.29336,498.77704
"3",88.03845,498.79047
"4",86.908066,498.80377
"5",85.89487,498.81708
"6",84.998856,498.8305
"7",84.25422,498.8438
"8",83.700005,498.85712
"9",83.36797,498.87042
"10",83.245895,498.88373
"11",83.284966,498.89716
"12",83.39727,498.91046
"13",83.47784,498.92377
"14",83.43389,498.9372
"15",83.209274,498.9505
"16",82.774704,498.9638
"17",82.13016,498.9771
"18",81.29519,498.99042
"19",80.306404,499.00385
"20",79.200424,499.01715
"21",78.01877,499.03046
"22",76.807816,499.04388
"23",75.61883,499.0572
"24",74.50797,499.0705
"25",73.51675,499.0838
"26",72.674446,499.0971
"27",72.00549,499.11053
"28",71.517204,499.12384
"29",71.18028,499.13715
"30",70.97276,499.15057
"31",70.86778,499.16388
"32",70.8336,499.1772
"33",70.84581,499.1905
"34",70.88487,499.2038
"35",70.94347,499.21722
"36",71.011826,499.23053
"37",71.08263,499.24384
"38",71.14122,499.25726
"39",71.18028,499.27057
"40",71.18028,499.28387
"41",71.12413,499.29718
"42",70.994736,499.3105
"43",70.78722,499.3239
"44",70.50889,499.33722
"45",70.18906,499.35052
"46",69.879,499.36395
"47",69.678795,499.37726
"48",69.803314,499.39056
"49",70.591896,499.40387
"50",72.447395,499.41718
"51",75.62127,499.4306
"52",80.00366,499.4439
"53",85.120926,499.4572
"54",90.267494,499.47064
"55",94.71824,499.48395
"56",97.96292,499.49725
"57",99.84772,499.51056
"58",100.53132,499.52386
"59",100.30183,499.5373
"60",99.422905,499.5506
"61",98.12161,499.5639
"62",96.58106,499.57733
"63",94.95262,499.59064
"64",93.351036,499.60394
"65",91.842224,499.61725
"66",90.43595,499.63055
"67",89.12001,499.64398
"68",87.86755,499.6573
"69",86.68589,499.6706
"70",85.609215,499.68402
"71",84.69367,499.69733
"72",83.99542,499.71063
"73",83.53643,499.72394
"74",83.284966,499.73724
"75",83.16533,499.75067
"76",83.07988,499.76398
"77",82.93828,499.77728
"78",82.65751,499.7907
"79",82.196075,499.80402
"80",81.53933,499.81732
"81",80.69703,499.83063
"82",79.68871,499.84393
"83",78.54856,499.85736
"84",77.315636,499.87067
"85",76.033875,499.88397
"86",74.759445,499.8974
"87",73.54604,499.9107
"88",72.44984,499.924
"89",71.502556,499.93732
"90",70.7335,499.95062
"91",70.14023,499.96405
"92",69.715416,499.97736
"93",69.44198,499.99066
"94",69.30282,500.0041
"95",69.2662,500.0174
"96",69.31014,500.0307
"97",69.41024,500.044
"98",69.539635,500.0573
"99",69.68612,500.07074
"100",69.83261,500.08405
"101",69.96689,500.09735
"102",70.081635,500.11078
"103",70.16464,500.12408
"104",70.203705,500.1374
"105",70.186615,500.1507
"106",70.10605,500.164
"107",69.944916,500.17743
"108",69.70077,500.19073
"109",69.37606,500.20404
"110",68.98787,500.21747
"111",68.575264,500.23077
"112",68.206604,500.24408
"113",68.0235,500.2574
"114",68.262764,500.2707
"115",69.26864,500.28412
"116",71.40246,500.29742
"117",74.847336,500.31073
"118",79.42748,500.32416
"119",84.60578,500.33746
"120",89.6498,500.35077
"121",93.85397,500.36407
"122",96.73975,500.37738
"123",98.19974,500.3908
"124",98.43656,500.4041
"125",97.77249,500.41742
"126",96.498055,500.43085
"127",94.82323,500.44415
"128",92.92622,500.45746
"129",90.91936,500.47076
"130",88.88808,500.48407
"131",86.88121,500.4975
"132",84.95247,500.5108
"133",83.160446,500.5241
"134",81.57839,500.53754
"135",80.30396,500.55084
"136",79.45434,500.56415
"137",79.10277,500.57745
"138",79.2517,500.59076
"139",79.82544,500.6042
"140",80.66285,500.6175
"141",81.55398,500.6308
"142",82.286415,500.64423
"143",82.71122,500.65753
"144",82.76738,500.67084
"145",82.44755,500.68414
"146",81.80301,500.69745
"147",80.90456,500.71088
"148",79.823,500.72418
"149",78.6218,500.7375
"150",77.34493,500.75092
"151",76.04608,500.76422
"152",74.7863,500.77753
"153",73.6144,500.79083
"154",72.57923,500.80414
"155",71.710075,500.81757
"156",71.03868,500.83087
"157",70.56748,500.84418
"158",70.28184,500.8576
"159",70.16464,500.8709
"160",70.20126,500.88422
"161",70.364845,500.89752
"162",70.62852,500.91083
"163",70.94591,500.92426
"164",71.275505,500.93756
"165",71.568474,500.95087
"166",71.79309,500.9643
"167",71.91516,500.9776
"168",71.92493,500.9909
"169",71.81506,501.0042
"170",71.60998,501.01752
"171",71.33654,501.03094
"172",71.063095,501.04425
"173",70.89708,501.05756
"174",71.0338,501.07098
"175",71.7467,501.0843
"176",73.35073,501.0976
"177",76.0412,501.1109
"178",79.7351,501.1242
"179",84.0296,501.13763
"180",88.326546,501.15094
"181",92.018005,501.16425
"182",94.66209,501.17767
"183",96.1001,501.19098
"184",96.45411,501.20428
"185",95.973145,501.2176
"186",94.90379,501.2309
"187",93.42916,501.24432
"188",91.6762,501.25763
"189",89.72793,501.27094
"190",87.640495,501.28436
"191",85.470055,501.29767
"192",83.302055,501.31097
"193",81.26833,501.32428
"194",79.534904,501.3376
"195",78.260475,501.351
"196",77.57198,501.36432
"197",77.52071,501.37762
"198",78.05783,501.39105
"199",79.03685,501.40436
"200",80.2478,501.41766
"201",81.461205,501.43097
"202",82.46952,501.44427
"203",83.13603,501.4577
"204",83.39239,501.471
"205",83.25811,501.4843
"206",82.777145,501.49774
"207",82.01785,501.51105
"208",81.03639,501.52435
"209",79.89624,501.53766
"210",78.66331,501.55096
"211",77.41329,501.5644
"212",76.224304,501.5777
"213",75.1696,501.591
"214",74.31266,501.60443
"215",73.68276,501.61774
"216",73.29214,501.63104
"217",73.13344,501.64435
"218",73.18471,501.65765
"219",73.409325,501.67108
"220",73.7731,501.6844
"221",74.24185,501.6977
"222",74.77409,501.71112
"223",75.32342,501.72443
"224",75.841,501.73773
"225",76.282906,501.75104
"226",76.60517,501.76434
"227",76.807816,501.77777
"228",76.912796,501.79108
"229",77.00313,501.80438
"230",77.24727,501.8178
"231",77.91867,501.83112
"232",79.29565,501.84442
"233",81.53689,501.85773
"234",84.559395,501.87103
"235",88.03113,501.88446
"236",91.473564,501.89777
"237",94.398415,501.91107
"238",96.4712,501.9245
"239",97.59182,501.9378
"240",97.85794,501.9511
"241",97.44045,501.96442
"242",96.50782,501.97772
"243",95.20653,501.99115
"244",93.661095,502.00446
"245",91.97406,502.01776
"246",90.2211,502.0312
"247",88.4535,502.0445
"248",86.710304,502.0578
"249",85.05989,502.0711
"250",83.58526,502.0844
"251",82.388954,502.09784
"252",81.57595,502.11115
"253",81.20973,502.12445
"254",81.28054,502.13788
"255",81.69802,502.15118
"256",82.31815,502.1645
"257",82.97002,502.1778
"258",83.49493,502.1911
"259",83.775696,502.20453
"260",83.75128,502.21783
"261",83.41436,502.23114
"262",82.794235,502.24457
"263",81.92996,502.25787
"264",80.87526,502.27118
"265",79.68383,502.2845
"266",78.42161,502.2978
"267",77.154495,502.31122
"268",75.945984,502.32452
"269",74.85954,502.33783
"270",73.934235,502.35126
"271",73.18715,502.36456
"272",72.620735,502.37787
"273",72.217896,502.39117
"274",71.9762,502.40448
"275",71.87366,502.4179
"276",71.89807,502.4312
"277",72.03723,502.44452
"278",72.26917,502.45795
"279",72.5597,502.47125
"280",72.87709,502.48456
"281",73.18227,502.49786
"282",73.4313,502.51117
"283",73.58755,502.5246
"284",73.62661,502.5379
"285",73.52163,502.5512
"286",73.272606,502.56464
"287",72.90639,502.57794
"288",72.50111,502.59125
"289",72.234985,502.60455
"290",72.45472,502.61786
"291",73.63149,502.6313
"292",76.121765,502.6446
"293",79.920654,502.6579
"294",84.63508,502.67133
"295",89.59365,502.68463
"296",94.05173,502.69794
"297",97.42336,502.71124
"298",99.48638,502.72455
"299",100.35798,502.73798
"300",100.299385,502.75128
"301",99.55962,502.7646
"302",98.35355,502.778
"303",96.86427,502.79132
"304",95.257805,502.80463
"305",93.6733,502.81793
"306",92.20355,502.83124
"307",90.8925,502.84467
"308",89.73037,502.85797
"309",88.67811,502.87128
"310",87.674675,502.8847
"311",86.68345,502.898
"312",85.714195,502.91132
"313",84.79866,502.92462
"314",83.99298,502.93793
"315",83.34356,502.95135
"316",82.85283,502.96466
"317",82.48661,502.97797
"318",82.18387,502.9914
"319",81.881134,503.0047
"320",81.5198,503.018
"321",81.06325,503.0313
"322",80.48463,503.04462
"323",79.78638,503.05804
"324",78.96117,503.07135
"325",78.030975,503.08466
"326",77.00557,503.09808
"327",75.92157,503.1114
"328",74.82048,503.1247
"329",73.75113,503.138
"330",72.74769,503.1513
"331",71.854126,503.16473
"332",71.097275,503.17804
"333",70.4918,503.19135
"334",70.03769,503.20477
"335",69.72518,503.21808
"336",69.54452,503.23138
"337",69.46395,503.2447
"338",69.45907,503.258
"339",69.50057,503.27142
"340",69.56405,503.28473
"341",69.6202,503.29803
"342",69.64706,503.31146
"343",69.6202,503.32477
"344",69.5201,503.33807
"345",69.32723,503.35138
"346",69.031815,503.3647
"347",68.63386,503.3781
"348",68.155334,503.39142
"349",67.63531,503.40472
"350",67.139694,503.41815
"351",66.812546,503.43146
"352",66.94438,503.44476
"353",67.95758,503.45807
"354",70.24521,503.47137
"355",73.90982,503.4848
"356",78.61936,503.4981
"357",83.70977,503.5114
"358",88.39246,503.52484
"359",92.00336,503.53815
"360",94.2153,503.55145
"361",95.113754,503.56476
"362",95.0161,503.57806
"363",94.24216,503.5915
"364",93.04341,503.6048
"365",91.612724,503.6181
"366",90.10391,503.63153
"367",88.62684,503.64484
"368",87.26452,503.65814
"369",86.04135,503.67145
"370",84.95003,503.68475
"371",83.949036,503.69818
"372",83.00664,503.7115
"373",82.1033,503.7248
"374",81.26101,503.73822
"375",80.52613,503.75153
"376",79.954834,503.76483
"377",79.588615,503.77814
"378",79.42016,503.79144
"379",79.41039,503.80487
"380",79.483635,503.81818
"381",79.55932,503.83148
"382",79.554436,503.8449
"383",79.41772,503.85822
"384",79.1223,503.87152
"385",78.658424,503.88483
"386",78.04074,503.89813
"387",77.29122,503.91156
"388",76.44404,503.92487
"389",75.53582,503.93817
"390",74.615395,503.9516
"391",73.73403,503.9649
"392",72.94057,503.9782
"393",72.26429,503.99152
"394",71.72228,504.00482
"395",71.32433,504.01825
"396",71.063095,504.03156
"397",70.92638,504.04486
"398",70.89464,504.0583
"399",70.95323,504.0716
"400",71.07286,504.0849
"401",71.23399,504.0982
"402",71.414665,504.1115
"403",71.59777,504.12494
"404",71.766235,504.13824
"405",71.905396,504.15155
"406",72.00061,504.16498
"407",72.03235,504.17828
"408",71.99817,504.1916
"409",71.89075,504.2049
"410",71.71252,504.2182
"411",71.47326,504.23163
"412",71.2047,504.24493
"413",70.960556,504.25824
"414",70.838486,504.27167
"415",71.026474,504.28497
"416",71.80774,504.29828
"417",73.44839,504.31158
"418",76.019226,504.3249
"419",79.30541,504.33832
"420",82.86015,504.35162
"421",86.14877,504.36493
"422",88.69276,504.37836
"423",90.247955,504.39166
"424",90.846115,504.40497
"425",90.6923,504.41827
"426",90.01114,504.43158
"427",88.971085,504.445
"428",87.691765,504.4583
"429",86.26353,504.47162
"430",84.735176,504.48505
"431",83.15068,504.49835
"432",81.54177,504.51166
"433",79.974365,504.52496
"434",78.52903,504.53827
"435",77.32784,504.5517
"436",76.49287,504.565
"437",76.11932,504.5783
"438",76.23651,504.59174
"439",76.790726,504.60504
"440",77.65499,504.61835
"441",78.65354,504.63165
"442",79.605705,504.64496
"443",80.37476,504.6584
"444",80.87526,504.6717
"445",81.08034,504.685
"446",80.99977,504.69843
"447",80.67994,504.71173
"448",80.15747,504.72504
"449",79.46899,504.73834
"450",78.65354,504.75165
"451",77.75754,504.76508
"452",76.83467,504.77838
"453",75.931335,504.7917
"454",75.10857,504.8051
"455",74.407875,504.81842
"456",73.85611,504.83173
"457",73.463036,504.84503
"458",73.22133,504.85834
"459",73.11391,504.87177
"460",73.128555,504.88507
"461",73.23842,504.89838
"462",73.42397,504.9118
"463",73.670555,504.9251
"464",73.95621,504.93842
"465",74.25407,504.95172
"466",74.527504,504.96503
"467",74.75212,504.97845
"468",74.90105,504.99176
"469",74.96208,505.00507
"470",74.93034,505.0185
"471",74.827805,505.0318
"472",74.68864,505.0451
"473",74.58854,505.0584
"474",74.66422,505.07172
"475",75.15495,505.08514
"476",76.317085,505.09845
"477",78.28489,505.11176
"478",80.9485,505.12518
"479",83.963684,505.1385
"480",86.869,505.1518
"481",89.22255,505.1651
"482",90.74845,505.1784
"483",91.41253,505.19183
"484",91.37347,505.20514
"485",90.82414,505.21844
"486",89.91348,505.23187
"487",88.75868,505.24518
"488",87.447624,505.25848
"489",86.05356,505.2718
"490",84.62043,505.2851
"491",83.192184,505.29852
"492",81.80545,505.31183
"493",80.52857,505.32513
"494",79.447014,505.33856
"495",78.67063,505.35187
"496",78.27268,505.36517
"497",78.2971,505.37848
"498",78.695045,505.39178
"499",79.36645,505.4052
"500",80.15259,505.41852
"501",80.91188,505.43182
"502",81.52468,505.44525
"503",81.9202,505.45856
"504",82.07889,505.47186
"505",82.00809,505.48517
"506",81.739525,505.49847
"507",81.307396,505.5119
"508",80.73853,505.5252
"509",80.062256,505.5385
"510",79.30053,505.55194
"511",78.48997,505.56525
"512",77.67208,505.57855
"513",76.90059,505.59186
"514",76.209656,505.60516
"515",75.63592,505.6186
"516",75.1989,505.6319
"517",74.90349,505.6452
"518",74.73502,505.65863
"519",74.686195,505.67194
"520",74.737465,505.68524
"521",74.87419,505.69855
"522",75.0695,505.71185
"523",75.31121,505.72528
"524",75.57488,505.7386
"525",75.83856,505.7519
"526",76.07782,505.76532
"527",76.27802,505.77863
"528",76.419624,505.79193
"529",76.48798,505.80524
"530",76.46601,505.81854
"531",76.34882,505.83197
"532",76.14862,505.84528
"533",75.90692,505.85858
"534",75.733574,505.872
"535",75.85077,505.8853
"536",76.561226,505.89862
"537",78.11398,505.91193
"538",80.516365,505.92523
"539",83.50469,505.93866
"540",86.62974,505.95197
"541",89.391014,505.96527
"542",91.39544,505.9787
"543",92.489204,505.992
"544",92.76997,506.0053
"545",92.44282,506.01862
"546",91.68108,506.03192
"547",90.61906,506.04535
"548",89.37148,506.05865
"549",88.03601,506.07196
"550",86.69077,506.0854
"551",85.38949,506.0987
"552",84.173645,506.112
"553",83.06523,506.1253
"554",82.08133,506.1386
"555",81.248795,506.15204
"556",80.61646,506.16534
"557",80.22827,506.17865
"558",80.1062,506.19208
"559",80.23804,506.20538
"560",80.55787,506.2187
"561",80.9778,506.232
"562",81.39529,506.2453
"563",81.72976,506.25873
"564",81.92264,506.27203
"565",81.95438,506.28534
"566",81.82498,506.29877
"567",81.549095,506.31207
"568",81.143814,506.32538
"569",80.63355,506.33868
"570",80.03052,506.352
"571",79.34936,506.36542
"572",78.61448,506.37872
"573",77.86008,506.39203
"574",77.13008,506.40546
"575",76.456245,506.41876
"576",75.88251,506.43207
"577",75.43084,506.44537
"578",75.12077,506.45868
"579",74.94255,506.4721
"580",74.8864,506.4854
"581",74.9279,506.49872
"582",75.04509,506.51215
"583",75.211105,506.52545
"584",75.406425,506.53876
"585",75.613945,506.55206
"586",75.81415,506.56537
"587",75.99237,506.5788
"588",76.13397,506.5921
"589",76.23163,506.6054
"590",76.282906,506.61884
"591",76.29023,506.63214
"592",76.25361,506.64545
"593",76.16327,506.65875
"594",76.01434,506.67206
"595",75.80438,506.6855
"596",75.55047,506.6988
"597",75.318535,506.7121
"598",75.26238,506.72552
"599",75.648125,506.73883
"600",76.754105,506.75214
"601",78.68284,506.76544
"602",81.29275,506.77875
"603",84.227356,506.79218
"604",87.030136,506.80548
"605",89.27871,506.8188
"606",90.73136,506.8322
"607",91.388115,506.84552
"608",91.39544,506.85883
"609",90.91936,506.87213
"610",90.09903,506.88544
"611",89.058975,506.89886
"612",87.904175,506.91217
"613",86.729836,506.92548
"614",85.609215,506.9389
"615",84.58381,506.9522
"616",83.66827,506.9655
"617",82.86015,506.97882
"618",82.15213,506.99213
"619",81.53933,507.00555
"620",81.041275,507.01886
"621",80.68238,507.03217
"622",80.4773,507.0456
"623",80.42603,507.0589
"624",80.499275,507.0722
"625",80.64088,507.0855
"626",80.80202,507.09882
"627",80.93141,507.11224
"628",80.99245,507.12555
"629",80.96315,507.13885
"630",80.83864,507.15228
"631",80.61646,507.1656
"632",80.30152,507.1789
"633",79.89868,507.1922
"634",79.4226,507.2055
"635",78.88304,507.21893
"636",78.30198,507.23224
"637",77.71603,507.24554
"638",77.152054,507.25897
"639",76.63447,507.27228
"640",76.18768,507.28558
"641",75.83612,507.2989
"642",75.58465,507.3122
"643",75.43084,507.32562
"644",75.37469,507.33893
"645",75.39422,507.35223
"646",75.47723,507.36566
"647",75.596855,507.37897
"648",75.736015,507.39227
"649",75.877625,507.40558
"650",76.00702,507.41888
"651",76.10956,507.4323
"652",76.18524,507.44562
"653",76.23407,507.45892
"654",76.26826,507.47235
"655",76.27802,507.48566
"656",76.265816,507.49896
"657",76.22919,507.51227
"658",76.16327,507.52557
"659",76.06561,507.539
"660",75.93622,507.5523
"661",75.7702,507.5656
"662",75.57244,507.57904
"663",75.36248,507.59235
"664",75.211105,507.60565
"665",75.27215,507.61896
"666",75.80682,507.63226
"667",77.032425,507.6457
"668",79.00023,507.659
"669",81.53445,507.6723
"670",84.2884,507.68573
"671",86.84459,507.69904
"672",88.834366,507.71234
"673",90.0795,507.72565
"674",90.614174,507.73895
"675",90.57755,507.75238
"676",90.10391,507.7657
"677",89.32754,507.779
"678",88.358284,507.79242
"679",87.2987,507.80573
"680",86.239105,507.81903
"681",85.25277,507.83234
"682",84.38117,507.84564
"683",83.631645,507.85907
"684",82.98955,507.87238
"685",82.42802,507.88568
"686",81.93973,507.8991
"687",81.52468,507.9124
"688",81.20485,507.92572
"689",80.99977,507.93903
"690",80.91188,507.95233
"691",80.93141,507.96576
"692",81.02663,507.97906
"693",81.15114,507.99237
"694",81.25857,508.0058
"695",81.31472,508.0191
"696",81.287865,508.0324
"697",81.17067,508.04572
"698",80.96559,508.05902
"699",80.67994,508.07245
"700",80.32838,508.08575
"701",79.91821,508.09906
"702",79.45922,508.1125
"703",78.97093,508.1258
"704",78.47288,508.1391
"705",77.98459,508.1524
"706",77.5378,508.1657
"707",77.154495,508.17914
"708",76.841995,508.19244
"709",76.60761,508.20575
"710",76.46357,508.21918
"711",76.39521,508.23248
"712",76.39277,508.2458
"713",76.436714,508.2591
"714",76.51484,508.2724
"715",76.60273,508.28583
"716",76.68818,508.29913
"717",76.76631,508.31244
"718",76.841995,508.32587
"719",76.90547,508.33917
"720",76.961624,508.35248
"721",77.00069,508.36578
"722",77.02022,508.3791
"723",77.02266,508.39252
"724",77.00801,508.40582
"725",76.978714,508.41913
"726",76.93477,508.43256
"727",76.88838,508.44586
"728",76.82979,508.45917
"729",76.76631,508.47247
"730",76.68818,508.48578
"731",76.595406,508.4992
"732",76.4831,508.5125
"733",76.387886,508.52582
"734",76.39765,508.53925
"735",76.68574,508.55255
"736",77.452354,508.56586
"737",78.81224,508.57916
"738",80.71168,508.59247
"739",82.948044,508.6059
"740",85.206375,508.6192
"741",87.16197,508.6325
"742",88.58289,508.64594
"743",89.391014,508.65924
"744",89.64248,508.67255
"745",89.43496,508.68585
"746",88.885635,508.69916
"747",88.10681,508.7126
"748",87.20592,508.7259
"749",86.26841,508.7392
"750",85.36019,508.75262
"751",84.52766,508.76593
"752",83.7879,508.77924
"753",83.13603,508.79254
"754",82.55497,508.80585
"755",82.04471,508.81927
"756",81.5906,508.83258
"757",81.20729,508.8459
"758",80.919205,508.8593
"759",80.743416,508.87262
"760",80.67506,508.88593
"761",80.70435,508.89923
"762",80.78981,508.91254
"763",80.89723,508.92596
"764",80.98512,508.93927
"765",81.02907,508.95258
"766",81.00221,508.966
"767",80.907,508.9793
"768",80.73609,508.9926
"769",80.49439,509.00592
"770",80.18921,509.01923
"771",79.84497,509.03265
"772",79.47631,509.04596
"773",79.097885,509.05927
"774",78.73655,509.0727
"775",78.399635,509.086
"776",78.099335,509.0993
"777",77.84299,509.1126
"778",77.642784,509.12592
"779",77.49386,509.13934
"780",77.39864,509.15265
"781",77.35226,509.16595
"782",77.34493,509.17938
"783",77.36446,509.1927
"784",77.401085,509.206
"785",77.44259,509.2193
"786",77.47677,509.2326
"787",77.49874,509.24603
"788",77.50118,509.25934
"789",77.488976,509.27264
"790",77.46456,509.28607
"791",77.44015,509.29938
"792",77.41085,509.31268
"793",77.39132,509.326
"794",77.37423,509.3393
"795",77.35714,509.35272
"796",77.330284,509.36603
"797",77.29366,509.37933
"798",77.2375,509.39276
"799",77.16914,509.40607
"800",77.08858,509.41937
"801",76.998245,509.43268
"802",76.90303,509.44598
"803",76.81758,509.4594
"804",76.78096,509.47272
"805",76.910355,509.48602
"806",77.39376,509.49945
"807",78.38743,509.51276
"808",79.9353,509.52606
"809",81.9202,509.53937
"810",84.10773,509.55267
"811",86.18295,509.5661
"812",87.869995,509.5794
"813",89.01259,509.5927
"814",89.60342,509.60614
"815",89.71084,509.61945
"816",89.427635,509.63275
"817",88.85634,509.64606
"818",88.10193,509.65936
"819",87.24986,509.6728
"820",86.37827,509.6861
"821",85.55062,509.6994
"822",84.79622,509.71283
"823",84.122375,509.72614
"824",83.52178,509.73944
"825",82.98222,509.75275
"826",82.493935,509.76605
"827",82.056915,509.77948
"828",81.69314,509.7928
"829",81.42947,509.8061
"830",81.28054,509.81952
"831",81.23903,509.83282
"832",81.28054,509.84613
"833",81.36355,509.85944
"834",81.446556,509.87274
"835",81.48318,509.88617
"836",81.446556,509.89948
"837",81.32693,509.91278
"838",81.126724,509.9262
"839",80.85573,509.9395
"840",80.533455,509.95282
"841",80.177,509.96613
"842",79.79614,509.97943
"843",79.412834,509.99286
"844",79.03685,510.00616
"845",78.68284,510.01947
"846",78.35569,510.0329
"847",78.0676,510.0462
"848",77.82834,510.0595
"849",77.64767,510.0728
"850",77.5256,510.08612
"851",77.467,510.09955
"852",77.45968,510.11285
"853",77.49386,510.12616
"854",77.55489,510.1396
"855",77.628136,510.1529
"856",77.69894,510.1662
"857",77.75754,510.1795
"858",77.803925,510.1928
"859",77.83078,510.20624
"860",77.83566,510.21954
"861",77.81613,510.23285
"862",77.769745,510.24628
"863",77.696495,510.25958
"864",77.593956,510.2729
"865",77.47921,510.2862
"866",77.35958,510.2995
"867",77.24483,510.31293
"868",77.134964,510.32623
"869",77.02998,510.33954
"870",76.929886,510.35297
"871",76.83467,510.36627
"872",76.74433,510.37958
"873",76.65156,510.39288
"874",76.55146,510.4062
"875",76.456245,510.41962
"876",76.39765,510.43292
"877",76.50263,510.44623
"878",76.97139,510.45966
"879",77.98459,510.47296
"880",79.5935,510.48627
"881",81.69802,510.49957
"882",84.03937,510.51288
"883",86.28794,510.5263
"884",88.14099,510.5396
"885",89.42275,510.55292
"886",90.121,510.56635
"887",90.301674,510.57965
"888",90.06729,510.59296
"889",89.52773,510.60626
"890",88.780655,510.61957
"891",87.91882,510.633
"892",87.027695,510.6463
"893",86.16586,510.6596
"894",85.37728,510.67303
"895",84.67902,510.68634
"896",84.06378,510.69965
"897",83.5169,510.71295
"898",83.02617,510.72626
"899",82.58427,510.7397
"900",82.193634,510.753
"901",81.87381,510.7663
"902",81.636986,510.77972
"903",81.48562,510.79303
"904",81.41238,510.80634
"905",81.40017,510.81964
"906",81.41238,510.83295
"907",81.41238,510.84637
"908",81.37087,510.85968
"909",81.26345,510.873
"910",81.075455,510.8864
"911",80.816666,510.89972
"912",80.49439,510.91302
"913",80.12329,510.92633
"914",79.71801,510.93964
"915",79.293205,510.95306
"916",78.86351,510.96637
"917",78.4387,510.97968
"918",78.0383,510.9931
"919",77.66964,511.0064
"920",77.34493,511.0197
"921",77.07637,511.03302
"922",76.87129,511.04633
"923",76.71992,511.05975
"924",76.61982,511.07306
"925",76.558784,511.08636
"926",76.53437,511.0998
"927",76.53681,511.1131
"928",76.558784,511.1264
"929",76.59052,511.1397
"930",76.6247,511.153
"931",76.65644,511.16644
"932",76.66865,511.17975
"933",76.67353,511.19305
"934",76.66621,511.20648
"935",76.64179,511.2198
"936",76.60517,511.2331
"937",76.561226,511.2464
"938",76.507515,511.2597
"939",76.44404,511.27313
"940",76.37812,511.28644
"941",76.314644,511.29974
"942",76.26093,511.31317
"943",76.22186,511.32648
"944",76.20233,511.33978
"945",76.19989,511.3531
"946",76.2121,511.3664
"947",76.224304,511.37982
"948",76.23163,511.39313
"949",76.22919,511.40643
"950",76.21454,511.41986
"951",76.20477,511.43317
"952",76.26826,511.44647
"953",76.58076,511.45978
"954",77.35226,511.47308
"955",78.73899,511.4865
"956",80.73365,511.49982
"957",83.16533,511.51312
"958",85.72884,511.52655
"959",88.06287,511.53986
"960",89.88663,511.55316
"961",91.090256,511.56647
"962",91.683525,511.57977
"963",91.747,511.5932
"964",91.39544,511.6065
"965",90.74357,511.6198
"966",89.90616,511.63324
"967",88.98085,511.64655
"968",88.05554,511.65985
"969",87.183945,511.67316
"970",86.39536,511.68646
"971",85.69955,511.6999
"972",85.09651,511.7132
"973",84.56428,511.7265
"974",84.07599,511.73993
"975",83.617,511.75323
"976",83.1873,511.76654
"977",82.794235,511.77985
"978",82.4622,511.79315
"979",82.210724,511.80658
"980",82.039825,511.8199
"981",81.93973,511.8332
"982",81.87625,511.84662
"983",81.81766,511.85992
"984",81.73708,511.87323
"985",81.61013,511.88654
"986",81.4197,511.89984
"987",81.17067,511.91327
"988",80.86549,511.92657
"989",80.50904,511.93988
"990",80.11597,511.9533
"991",79.70092,511.9666
"992",79.28344,511.97992
"993",78.873276,511.99323
"994",78.487526,512.00653
"995",78.1384,512.01996
"996",77.8259,512.03326
"997",77.55245,512.0466
"998",77.32052,512.06
"999",77.13252,512.0733
"1000",76.99336,512.0866
"1001",76.895706,512.0999
"1002",76.83223,512.1132
"1003",76.79317,512.12665
"1004",76.76875,512.13995
"1005",76.749214,512.15326
"1006",76.73701,512.1667
"1007",76.7248,512.18
"1008",76.717476,512.1933
"1009",76.71259,512.2066
"1010",76.71015,512.2199
"1011",76.700386,512.23334
"1012",76.68574,512.24664
"1013",76.65888,512.25995
"1014",76.61738,512.2734
"1015",76.558784,512.2867
"1016",76.490425,512.3
"1017",76.41474,512.3133
"1018",76.334175,512.3266
"1019",76.25605,512.34
"1020",76.18036,512.35333
"1021",76.104675,512.36664
"1022",76.02167,512.38007
"1023",75.92401,512.3934
"1024",75.80438,512.4067
"1025",75.665215,512.42
"1026",75.54803,512.4333
"1027",75.545586,512.4467
"1028",75.83124,512.46
"1029",76.59785,512.4733
"1030",77.95285,512.48676
"1031",79.84009,512.50006
"1032",82.06424,512.51337
"1033",84.3299,512.5267
"1034",86.31968,512.54
"1035",87.8114,512.5534
"1036",88.72938,512.5667
"1037",89.110245,512.58
"1038",89.024796,512.59344
"1039",88.568245,512.60675
"1040",87.850464,512.62006
"1041",86.96422,512.63336
"1042",86.00229,512.64667
"1043",85.02815,512.6601
"1044",84.09064,512.6734
"1045",83.21416,512.6867
"1046",82.40116,512.70013
"1047",81.6614,512.71344
"1048",80.99977,512.72675
"1049",80.448006,512.74005
"1050",80.028076,512.75336
"1051",79.77417,512.7668
"1052",79.693596,512.7801
"1053",79.77905,512.7934
"1054",79.98413,512.8068
"1055",80.25025,512.8201
"1056",80.51881,512.83344
"1057",80.73121,512.84674
"1058",80.848404,512.86005
"1059",80.85329,512.8735
"1060",80.740974,512.8868
"1061",80.52125,512.9001
"1062",80.20874,512.9135
"1063",79.82544,512.9268
"1064",79.38842,512.9401
"1065",78.907455,512.9534
"1066",78.40208,512.96674
"1067",77.88693,512.98016
"1068",77.383995,512.99347
"1069",76.90547,513.0068
"1070",76.46357,513.0202
"1071",76.06561,513.0335
"1072",75.718925,513.0468
"1073",75.423515,513.0601
"1074",75.18181,513.0734
"1075",74.99382,513.08685
"1076",74.85466,513.10016
"1077",74.759445,513.11346
"1078",74.70084,513.1269
"1079",74.669106,513.1402
"1080",74.65934,513.1535
"1081",74.66422,513.1668
"1082",74.67887,513.1801
"1083",74.69352,513.19354
"1084",74.71305,513.20685
"1085",74.73258,513.22015
"1086",74.75212,513.2336
"1087",74.76433,513.2469
"1088",74.76433,513.2602
"1089",74.737465,513.2735
"1090",74.66422,513.2868
"1091",74.53971,513.30023
"1092",74.34928,513.31354
"1093",74.110016,513.32684
"1094",73.85611,513.3403
"1095",73.7145,513.3536
"1096",73.9025,513.3669
"1097",74.72282,513.3802
"1098",76.39033,513.3935
"1099",78.89525,513.4069
"1100",81.969025,513.4202
"1101",85.16731,513.43353
"1102",88.00183,513.44696
"1103",90.10147,513.46027
"1104",91.34417,513.4736
"1105",91.81537,513.4869
"1106",91.69329,513.5002
"1107",91.13664,513.5136
"1108",90.27726,513.5269
"1109",89.2079,513.5402
"1110",88.00183,513.55365
"1111",86.727394,513.56696
"1112",85.42611,513.58026
"1113",84.13458,513.59357
"1114",82.8748,513.6069
"1115",81.67605,513.6203
"1116",80.5774,513.6336
"1117",79.62524,513.6469
"1118",78.890366,513.66034
"1119",78.43137,513.67365
"1120",78.28733,513.68695
"1121",78.45579,513.70026
"1122",78.89769,513.71356
"1123",79.51537,513.727
"1124",80.19409,513.7403
"1125",80.81911,513.7536
"1126",81.290306,513.767
"1127",81.549095,513.78033
"1128",81.57595,513.79364
"1129",81.3782,513.80695
"1130",80.98024,513.82025
"1131",80.42115,513.8337
"1132",79.73022,513.847
"1133",78.94652,513.8603
"1134",78.10422,513.8737
"1135",77.24483,513.887
"1136",76.40742,513.9003
"1137",75.62859,513.91364
"1138",74.93034,513.92694
"1139",74.32975,513.94037
"1140",73.83414,513.9537
"1141",73.443504,513.967
"1142",73.14809,513.9804
"1143",72.94057,513.9937
"1144",72.80873,514.007
"1145",72.742805,514.0203
"1146",72.73304,514.0336
"1147",72.77211,514.04706
"1148",72.85268,514.06036
"1149",72.96742,514.07367
"1150",73.12123,514.0871
"1151",73.29946,514.1004
"1152",73.48745,514.1137
"1153",73.673,514.127
"1154",73.84146,514.1403
"1155",73.97574,514.15375
"1156",74.07095,514.16705
"1157",74.15396,514.18036
"1158",74.31022,514.1938
"1159",74.75456,514.2071
"1160",75.83124,514.2204
"1161",77.88693,514.2337
"1162",81.04372,514.247
"1163",85.067215,514.26044
"1164",89.42031,514.27374
"1165",93.44869,514.28705
"1166",96.57862,514.3005
"1167",98.512245,514.3138
"1168",99.29351,514.3271
"1169",99.176315,514.3404
"1170",98.43168,514.3537
"1171",97.26711,514.3671
"1172",95.836426,514.38043
"1173",94.24704,514.39374
"1174",92.58686,514.40717
"1175",90.916916,514.4205
"1176",89.27871,514.4338
"1177",87.69421,514.4471
"1178",86.18051,514.4604
"1179",84.75227,514.4738
"1180",83.4461,514.4871
"1181",82.31083,514.5004
"1182",81.40017,514.51385
"1183",80.762955,514.52716
"1184",80.41871,514.54047
"1185",80.343025,514.5538
"1186",80.46998,514.5671
"1187",80.70435,514.5805
"1188",80.9485,514.5938
"1189",81.112076,514.6071
"1190",81.13649,514.62054
"1191",80.98512,514.63385
"1192",80.64088,514.64716
"1193",80.113525,514.66046
"1194",79.41772,514.67377
"1195",78.59251,514.6872
"1196",77.66964,514.7005
"1197",76.700386,514.7138
"1198",75.72625,514.72723
"1199",74.79118,514.74054
"1200",73.919586,514.75385
"1201",73.13588,514.76715
"1202",72.45472,514.78046
"1203",71.89319,514.7939
"1204",71.45129,514.8072
"1205",71.12657,514.8205
"1206",70.9044,514.8339
"1207",70.77501,514.8472
"1208",70.72373,514.86053
"1209",70.75304,514.87384
"1210",70.86046,514.88715
"1211",71.046005,514.9006
"1212",71.61486,514.9272
"1213",71.94934,514.9406
"1214",72.28382,514.9539
"1215",72.59632,514.9672
"1216",72.87465,514.9805
"1217",73.128555,514.99384
"1218",73.40688,515.00726
"1219",73.80972,515.02057
"1220",74.529945,515.0339
"1221",75.841,515.0473
"1222",78.00168,515.0606
"1223",81.06325,515.0739
"1224",84.791336,515.0872
"1225",88.70985,515.1005
"1226",92.2768,515.11395
"1227",95.01854,515.12726
"1228",96.69825,515.14056
"1229",97.355,515.154
"1230",97.213394,515.1673
"1231",96.51026,515.1806
"1232",95.43603,515.1939
"1233",94.12497,515.2072
"1234",92.69184,515.22064
"1235",91.20256,515.23395
"1236",89.71328,515.24725
"1237",88.24597,515.2607
"1238",86.81529,515.274
"1239",85.43832,515.2873
"1240",84.156555,515.3006
"1241",83.02617,515.3139
"1242",82.1033,515.32733
"1243",81.43679,515.34064
"1244",81.04616,515.35394
"1245",80.90944,515.3674
"1246",80.98268,515.3807
"1247",81.1902,515.394
"1248",81.461205,515.4073
"1249",81.71999,515.4206
"1250",81.90555,515.434
"1251",81.96414,515.4473
"1252",81.86893,515.46063
"1253",81.62234,515.47406
"1254",81.23659,515.48737
"1255",80.73609,515.5007
"1256",80.15747,515.514
"1257",79.52514,515.5273
"1258",78.85863,515.5407
"1259",78.17746,515.554
"1260",77.50851,515.5673
"1261",76.87129,515.58075
"1262",76.28779,515.59406
"1263",75.775085,515.60736
"1264",75.34783,515.62067
"1265",75.01579,515.634
"1266",74.76677,515.6474
"1267",74.59342,515.6607
"1268",74.48356,515.674
"1269",74.42252,515.68744
"1270",74.39567,515.70074
"1271",74.38834,515.71405
"1272",74.3859,515.72736
"1273",74.40299,515.74066
"1274",74.46403,515.7541
"1275",74.62028,515.7674
"1276",74.97673,515.7807
"1277",75.684746,515.7941
"1278",76.87373,515.80743
"1279",78.57053,515.82074
"1280",80.672615,515.83405
"1281",82.967575,515.84735
"1282",85.172195,515.8608
"1283",87.02281,515.8741
"1284",88.35584,515.8874
"1285",89.12489,515.9008
"1286",89.373924,515.9141
"1287",89.19081,515.9274
"1288",88.67811,515.94073
"1289",87.94324,515.95404
"1290",87.07408,515.96747
"1291",86.11459,515.9808
"1292",85.09895,515.9941
"1293",84.051575,516.0075
"1294",82.99931,516.0208
"1295",81.986115,516.0341
"1296",81.08278,516.0474
"1297",80.35279,516.0607
"1298",79.85962,516.07416
"1299",79.639885,516.08746
"1300",79.68627,516.10077
"1301",79.94507,516.1142
"1302",80.34058,516.1275
"1303",80.77516,516.1408
"1304",81.17067,516.1541
"1305",81.463646,516.1674
"1306",81.62478,516.18085
"1307",81.634544,516.19415
"1308",81.49294,516.20746
"1309",81.20485,516.2209
"1310",80.79225,516.2342
"1311",80.291756,516.2475
"1312",79.73998,516.2608
"1313",79.17357,516.2741
"1314",78.6096,516.28754
"1315",78.07004,516.30084
"1316",77.56466,516.31415
"1317",77.10567,516.3276
"1318",76.70771,516.3409
"1319",76.37812,516.3542
"1320",76.121765,516.3675
"1321",75.931335,516.3808
"1322",75.80682,516.3942
"1323",75.73113,516.40753
"1324",75.69207,516.42084
"1325",75.6701,516.43427
"1326",75.650566,516.4476
"1327",75.62127,516.4609
"1328",75.58465,516.4742
"1329",75.55535,516.4875
"1330",75.59197,516.5009
"1331",75.7995,516.5142
"1332",76.30732,516.5275
"1333",77.225296,516.54095
"1334",78.572975,516.55426
"1335",80.26734,516.56757
"1336",82.142365,516.5809
"1337",83.97589,516.5942
"1338",85.55306,516.6076
"1339",86.73472,516.6209
"1340",87.467155,516.6342
"1341",87.75769,516.64764
"1342",87.640495,516.66095
"1343",87.183945,516.67426
"1344",86.47349,516.68756
"1345",85.59457,516.70087
"1346",84.610664,516.7143
"1347",83.577934,516.7276
"1348",82.53788,516.7409
"1349",81.52468,516.75433
"1350",80.584724,516.76764
"1351",79.77173,516.78094
"1352",79.149155,516.79425
"1353",78.765854,516.80756
"1354",78.643776,516.821
"1355",78.76341,516.8343
"1356",79.07347,516.8476
"1357",79.4934,516.861
"1358",79.9353,516.8743
"1359",80.323494,516.88763
"1360",80.601814,516.90094
"1361",80.73853,516.91425
"1362",80.726326,516.9277
"1363",80.567635,516.941
"1364",80.28687,516.9543
"1365",79.906006,516.9677
"1366",79.45922,516.981
"1367",78.96605,516.9943
"1368",78.450905,517.0076
"1369",77.93576,517.02094
"1370",77.437706,517.03436
"1371",76.97139,517.04767
"1372",76.54902,517.061
"1373",76.18524,517.0744
"1374",75.894714,517.0877
"1375",75.67986,517.101
"1376",75.545586,517.1143
"1377",75.47967,517.1276
"1378",75.46502,517.14105
"1379",75.48211,517.15436
"1380",75.50652,517.16766
"1381",75.526054,517.1811
"1382",75.53094,517.1944
"1383",75.526054,517.2077
"1384",75.53094,517.221
"1385",75.60418,517.2343
"1386",75.84833,517.24774
"1387",76.41718,517.26105
"1388",77.44015,517.27435
"1389",78.96117,517.2878
"1390",80.90456,517.3011
"1391",83.087204,517.3144
"1392",85.25765,517.3277
"1393",87.16441,517.341
"1394",88.639046,517.35443
"1395",89.60586,517.36774
"1396",90.05997,517.38104
"1397",90.04776,517.3945
"1398",89.64492,517.4078
"1399",88.94911,517.4211
"1400",88.05066,517.4344
"1401",87.03502,517.4477
"1402",85.96323,517.4611
"1403",84.87923,517.4744
"1404",83.81476,517.48773
"1405",82.81377,517.50116
"1406",81.92508,517.51447
"1407",81.20241,517.5278
"1408",80.68726,517.5411
"1409",80.40406,517.5544
"1410",80.343025,517.5678
"1411",80.462654,517.5811
"1412",80.69703,517.5944
"1413",80.97536,517.60785
"1414",81.231705,517.62115
"1415",81.39773,517.63446
"1416",81.43679,517.64777
"1417",81.33181,517.6611
"1418",81.08766,517.6745
"1419",80.71412,517.6878
"1420",80.24292,517.7011
"1421",79.69848,517.71454
"1422",79.10277,517.72784
"1423",78.4802,517.74115
"1424",77.855194,517.75446
"1425",77.2546,517.76776
"1426",76.697945,517.7812
"1427",76.19745,517.7945
"1428",75.7702,517.8078
"1429",75.42596,517.8212
"1430",75.17204,517.83453
"1431",75.01335,517.84784
"1432",74.94255,517.86115
"1433",74.94743,517.87445
"1434",75.01091,517.8879
"1435",75.106125,517.9012
"1436",75.20622,517.9145
"1437",75.28924,517.9279
"1438",75.34539,517.9412
"1439",75.36004,517.9545
"1440",75.338066,517.96783
"1441",75.32342,517.98114
"1442",75.41619,517.99457
"1443",75.7702,518.0079
"1444",76.55146,518.0212
"1445",77.8674,518.0346
"1446",79.7058,518.0479
"1447",81.92264,518.0612
"1448",84.266426,518.0745
"1449",86.46616,518.0878
"1450",88.28504,518.10126
"1451",89.59853,518.11456
"1452",90.37003,518.12787
"1453",90.63615,518.1413
"1454",90.46769,518.1546
"1455",89.95743,518.1679
"1456",89.2079,518.1812
"1457",88.309456,518.1945
"1458",87.3402,518.20795
"1459",86.36118,518.22125
"1460",85.40902,518.23456
"1461",84.51301,518.248
"1462",83.685356,518.2613
"1463",82.950485,518.2746
"1464",82.3328,518.2879
"1465",81.85916,518.3012
"1466",81.54665,518.31464
"1467",81.39529,518.32794
"1468",81.36843,518.34125
"1469",81.4197,518.3547
"1470",81.50271,518.368
"1471",81.56374,518.3813
"1472",81.55886,518.3946
"1473",81.45876,518.4079
"1474",81.253685,518.4213
"1475",80.936295,518.43463
"1476",80.51148,518.44794
"1477",79.99634,518.46136
"1478",79.415276,518.4747
"1479",78.79271,518.488
"1480",78.15549,518.5013
"1481",77.523155,518.5146
"1482",76.925,518.528
"1483",76.3708,518.5413
"1484",75.87518,518.5546
"1485",75.45037,518.56805
"1486",75.10368,518.58136
"1487",74.827805,518.59467
"1488",74.62272,518.608
"1489",74.478676,518.6213
"1490",74.39323,518.6347
"1491",74.34928,518.648
"1492",74.337074,518.6613
"1493",74.34684,518.67474
"1494",74.36393,518.68805
"1495",74.373695,518.70135
"1496",74.36393,518.71466
"1497",74.322426,518.72797
"1498",74.24429,518.7414
"1499",74.127106,518.7547
"1500",73.99039,518.768
"1501",73.882965,518.78143
"1502",73.917145,518.79474
"1503",74.25895,518.80804
"1504",75.071945,518.82135
"1505",76.44892,518.83466
"1506",78.36057,518.8481
"1507",80.64332,518.8614
"1508",83.04326,518.8747
"1509",85.2723,518.8881
"1510",87.10338,518.9014
"1511",88.42176,518.91473
"1512",89.20058,518.92804
"1513",89.46914,518.94135
"1514",89.30801,518.9548
"1515",88.81239,518.9681
"1516",88.097046,518.9814
"1517",87.25231,518.9948
"1518",86.363625,519.0081
"1519",85.49203,519.0214
"1520",84.65949,519.0347
"1521",83.88312,519.04803
"1522",83.158005,519.06146
"1523",82.493935,519.07477
"1524",81.900665,519.0881
"1525",81.40749,519.1015
"1526",81.03639,519.1148
"1527",80.8069,519.1281
"1528",80.709236,519.1414
"1529",80.71168,519.1547
"1530",80.76784,519.16815
"1531",80.82399,519.18146
"1532",80.833755,519.19476
"1533",80.76784,519.2082
"1534",80.601814,519.2215
"1535",80.33326,519.2348
"1536",79.971924,519.2481
"1537",79.520256,519.2614
"1538",78.99779,519.27484
"1539",78.42649,519.28815
"1540",77.8259,519.30145
"1541",77.23018,519.3149
"1542",76.663765,519.3282
"1543",76.14618,519.3415
"1544",75.69207,519.3548
"1545",75.32098,519.3681
"1546",75.028,519.38153
"1547",74.813156,519.39484
"1548",74.67643,519.40814
"1549",74.598305,519.4216
"1550",74.55924,519.4349
"1551",74.53727,519.4482
"1552",74.51774,519.4615
"1553",74.49088,519.4748
"1554",74.44938,519.4882
"1555",74.407875,519.5015
"1556",74.373695,519.51483
"1557",74.3444,519.52826
"1558",74.31754,519.54156
"1559",74.288246,519.5549
"1560",74.24185,519.5682
"1561",74.17105,519.5815
"1562",74.07095,519.5949
"1563",73.95621,519.6082
"1564",73.848785,519.6215
"1565",73.82193,519.63495
"1566",74.022125,519.64825
"1567",74.63004,519.66156
"1568",75.775085,519.67487
"1569",77.488976,519.6882
"1570",79.66186,519.7016
"1571",82.07156,519.7149
"1572",84.43488,519.7282
"1573",86.49058,519.74164
"1574",88.07263,519.75494
"1575",89.112686,519.76825
"1576",89.62539,519.78156
"1577",89.66445,519.79486
"1578",89.32021,519.8083
"1579",88.70496,519.8216
"1580",87.92859,519.8349
"1581",87.08873,519.8483
"1582",86.25132,519.86163
"1583",85.46517,519.87494
"1584",84.7425,519.88824
"1585",84.06622,519.90155
"1586",83.4168,519.915
"1587",82.794235,519.9283
"1588",82.20828,519.9416
"1589",81.685814,519.955
"1590",81.270775,519.9683
"1591",80.98512,519.9816
"1592",80.82643,519.99493
"1593",80.76051,520.00824
"1594",80.75319,520.02167
"1595",80.7483,520.035
"1596",80.709236,520.0483
"1597",80.59449,520.0617
"1598",80.39185,520.075
"1599",80.08911,520.0883
"1600",79.70092,520.1016
"1601",79.234604,520.1149
"1602",78.71458,520.12836
"1603",78.15793,520.14166
"1604",77.58419,520.15497
"1605",77.015335,520.1684
"1606",76.470894,520.1817
"1607",75.97284,520.195
"1608",75.53338,520.2083
"1609",75.16472,520.2216
"1610",74.86687,520.23505
"1611",74.63004,520.24835
"1612",74.44694,520.26166
"1613",74.305336,520.2751
"1614",74.20279,520.2884
"1615",74.141754,520.3017
"1616",74.12955,520.315
"1617",74.15396,520.3283
"1618",74.20035,520.34174
"1619",74.249176,520.35504
"1620",74.285805,520.36835
"1621",74.302895,520.3818
"1622",74.302895,520.3951
"1623",74.285805,520.4084
"1624",74.246735,520.4217
"1625",74.18326,520.435
"1626",74.090485,520.4484
"1627",73.968414,520.46173
"1628",73.8439,520.47504
"1629",73.7731,520.48846
"1630",73.88785,520.5018
"1631",74.36393,520.5151
"1632",75.369804,520.5284
"1633",76.96895,520.5417
"1634",79.09056,520.5551
"1635",81.52712,520.5684
"1636",83.99786,520.5817
"1637",86.20737,520.59515
"1638",87.953,520.60846
"1639",89.15663,520.62177
"1640",89.81583,520.6351
"1641",89.97208,520.6484
"1642",89.720604,520.6618
"1643",89.15907,520.6751
"1644",88.39979,520.6884
"1645",87.5404,520.70184
"1646",86.661476,520.71515
"1647",85.81186,520.72845
"1648",85.013504,520.74176
"1649",84.266426,520.75507
"1650",83.56573,520.7685
"1651",82.90898,520.7818
"1652",82.31571,520.7951
"1653",81.81033,520.80853
"1654",81.427025,520.82184
"1655",81.17799,520.83514
"1656",81.05348,520.84845
"1657",81.02663,520.86176
"1658",81.05592,520.8752
"1659",81.0901,520.8885
"1660",81.092545,520.9018
"1661",81.024185,520.9152
"1662",80.86061,520.9285
"1663",80.59693,520.94183
"1664",80.23804,520.95514
"1665",79.7937,520.96844
"1666",79.281,520.9819
"1667",78.73167,520.9952
"1668",78.16281,521.0085
"1669",77.59884,521.0219
"1670",77.06172,521.0352
"1671",76.56611,521.0485
"1672",76.12421,521.0618
"1673",75.74334,521.07513
"1674",75.43328,521.08856
"1675",75.18669,521.10187
"1676",75.01335,521.1152
"1677",74.90105,521.1286
"1678",74.83757,521.1419
"1679",74.810715,521.1552
"1680",74.80583,521.1685
"1681",74.810715,521.1818
"1682",74.81804,521.19525
"1683",74.827805,521.20856
"1684",74.83269,521.22186
"1685",74.83269,521.2353
"1686",74.82536,521.2486
"1687",74.80583,521.2619
"1688",74.776535,521.2752
"1689",74.73258,521.2885
"1690",74.67399,521.30194
"1691",74.600746,521.31525
"1692",74.510414,521.32855
"1693",74.40299,521.342
"1694",74.28092,521.3553
"1695",74.195465,521.3686
"1696",74.26139,521.3819
"1697",74.65446,521.3952
"1698",75.56756,521.4086
"1699",77.09834,521.42194
"1700",79.20775,521.43524
"1701",81.71023,521.44867
"1702",84.315254,521.462
"1703",86.712746,521.4753
"1704",88.670784,521.4886
"1705",90.06485,521.5019
"1706",90.88274,521.5153
"1707",91.16594,521.5286
"1708",90.99992,521.54193
"1709",90.47501,521.55536
"1710",89.7084,521.56866
"1711",88.800186,521.582
"1712",87.8407,521.5953
"1713",86.888535,521.6086
"1714",85.99252,521.622
"1715",85.15999,521.6353
"1716",84.38361,521.6486
"1717",83.665825,521.66205
"1718",83.01152,521.67535
"1719",82.442665,521.68866
"1720",81.988556,521.70197
"1721",81.67361,521.7153
"1722",81.50759,521.7287
"1723",81.463646,521.742
"1724",81.50271,521.7553
"1725",81.56374,521.76874
"1726",81.59548,521.78204
"1727",81.55398,521.79535
"1728",81.409935,521.80865
"1729",81.15846,521.82196
"1730",80.797134,521.8354
"1731",80.33814,521.8487
"1732",79.801025,521.862
"1733",79.20531,521.8754
"1734",78.5803,521.88873
"1735",77.962616,521.90204
"1736",77.37667,521.91534
"1737",76.839554,521.92865
"1738",76.36591,521.9421
"1739",75.948425,521.9554
"1740",75.58709,521.9687
"1741",75.27703,521.9821
"1742",75.02556,521.9954
"1743",74.84245,522.0087
"1744",74.72282,522.02203
"1745",74.652016,522.03534
"1746",74.617836,522.04877
"1747",74.600746,522.0621
"1748",74.58854,522.0754
"1749",74.57633,522.0888
"1750",74.564125,522.1021
"1751",74.55192,522.1154
"1752",74.53239,522.1287
"1753",74.50065,522.142
"1754",74.45426,522.15546
"1755",74.39567,522.16876
"1756",74.33219,522.18207
"1757",74.25895,522.1955
"1758",74.1857,522.2088
"1759",74.107574,522.2221
"1760",74.03433,522.2354
"1761",73.95621,522.2487
"1762",73.87076,522.26215
"1763",73.777985,522.27545
"1764",73.704735,522.28876
"1765",73.75601,522.3022
"1766",74.11978,522.3155
"1767",75.01579,522.3288
"1768",76.58564,522.3421
"1769",78.8098,522.3554
"1770",81.50515,522.36884
"1771",84.36164,522.38214
"1772",87.02037,522.39545
"1773",89.20302,522.4089
"1774",90.77287,522.4222
"1775",91.71282,522.4355
"1776",92.069275,522.4488
"1777",91.932556,522.4621
"1778",91.41009,522.4755
"1779",90.61906,522.48883
"1780",89.66445,522.50214
"1781",88.63416,522.51556
"1782",87.59655,522.5289
"1783",86.588234,522.5422
"1784",85.63607,522.5555
"1785",84.749825,522.5688
"1786",83.93683,522.5822
"1787",83.21416,522.5955
"1788",82.61112,522.6088
"1789",82.14969,522.62225
"1790",81.846954,522.63556
"1791",81.688255,522.64886
"1792",81.654076,522.6622
"1793",81.69558,522.6755
"1794",81.76395,522.6889
"1795",81.80301,522.7022
"1796",81.778595,522.7155
"1797",81.65652,522.72894
"1798",81.4197,522.74225
"1799",81.07057,522.75555
"1800",80.62379,522.76886
"1801",80.10132,522.78217
"1802",79.53246,522.7956
"1803",78.93675,522.8089
"1804",78.33616,522.8222
"1805",77.747765,522.83563
"1806",77.19356,522.84894
"1807",76.68574,522.86224
"1808",76.22919,522.87555
"1809",75.83368,522.88885
"1810",75.50652,522.9023
"1811",75.24284,522.9156
"1812",75.04509,522.9289
"1813",74.91325,522.9423
"1814",74.84001,522.9556
"1815",74.80583,522.96893
"1816",74.80095,522.98224
"1817",74.813156,522.99554
"1818",74.82292,523.009
"1819",74.830246,523.0223
"1820",74.83269,523.0356
"1821",74.827805,523.049
"1822",74.80827,523.0623
"1823",74.78142,523.0756
"1824",74.74723,523.0889
"1825",74.70573,523.10223
"1826",74.6569,523.11566
"1827",74.59586,523.12897
"1828",74.527504,523.1423
"1829",74.44694,523.1557
"1830",74.35172,523.169
"1831",74.23697,523.1823
"1832",74.110016,523.1956
"1833",73.97818,523.2089
"1834",73.89517,523.22235
"1835",73.98062,523.23566
"1836",74.44694,523.24896
"1837",75.50408,523.2624
"1838",77.261925,523.2757
"1839",79.65209,523.289
"1840",82.44755,523.3023
"1841",85.30892,523.3156
"1842",87.87976,523.32904
"1843",89.9086,523.34235
"1844",91.29534,523.35565
"1845",92.052185,523.3691
"1846",92.245056,523.3824
"1847",91.9765,523.3957
"1848",91.353935,523.409
"1849",90.48234,523.4223
"1850",89.47158,523.4357
"1851",88.40711,523.44904
"1852",87.345085,523.46234
"1853",86.327,523.47577
"1854",85.367516,523.4891
"1855",84.47639,523.5024
"1856",83.66094,523.5157
"1857",82.948044,523.529
"1858",82.36698,523.5424
"1859",81.94217,523.5557
"1860",81.6907,523.56903
"1861",81.600365,523.58246
"1862",81.6321,523.59576
"1863",81.73464,523.6091
"1864",81.84451,523.6224
"1865",81.90555,523.6357
"1866",81.87869,523.6491
"1867",81.739525,523.6624
"1868",81.48318,523.6757
"1869",81.11696,523.68915
"1870",80.66285,523.70245
"1871",80.13306,523.71576
"1872",79.55932,523.72906
"1873",78.96605,523.7424
"1874",78.37034,523.7558
"1875",77.79416,523.7691
"1876",77.24971,523.7824
"1877",76.75166,523.79584
"1878",76.30244,523.80914
"1879",75.90936,523.82245
"1880",75.57,523.83575
"1881",75.28191,523.84906
"1882",75.04265,523.8625
"1883",74.8571,523.8758
"1884",74.7277,523.8891
"1885",74.6569,523.9025
"1886",74.63004,523.91583
"1887",74.63981,523.92914
"1888",74.66422,523.94244
"1889",74.70084,523.95575
"1890",74.73258,523.9692
"1891",74.759445,523.9825
"1892",74.776535,523.9958
"1893",74.77898,524.0092
"1894",74.76433,524.0225
"1895",74.73258,524.0358
"1896",74.683754,524.04913
"1897",74.62516,524.06244
"1898",74.564125,524.07587
"1899",74.50065,524.0892
"1900",74.42741,524.1025
"1901",74.339516,524.1159
"1902",74.232086,524.1292
"1903",74.10269,524.1425
"1904",73.95621,524.1558
"1905",73.81705,524.1691
"1906",73.760895,524.18256
"1907",73.953766,524.19586
"1908",74.652016,524.20917
"1909",76.06073,524.2226
"1910",78.238495,524.2359
"1911",81.03883,524.2492
"1912",84.14923,524.2625
"1913",87.15709,524.2758
"1914",89.69619,524.28925
"1915",91.56634,524.30255
"1916",92.72602,524.31586
"1917",93.23872,524.3293
"1918",93.2021,524.34247
"1919",92.72602,524.3559
"1920",91.92523,524.3691
"1921",90.90715,524.3825
"1922",89.76944,524.3957
"1923",88.59266,524.4091
"1924",87.432976,524.4223
"1925",86.31968,524.4357
"1926",85.28451,524.4489
"1927",84.33723,524.46234
"1928",83.50225,524.4755
"1929",82.81377,524.48895
"1930",82.29862,524.50214
"1931",81.97635,524.51556
"1932",81.849396,524.52875
"1933",81.881134,524.5422
"1934",82.01785,524.55536
"1935",82.193634,524.5688
"1936",82.34501,524.582
"1937",82.41093,524.5954
"1938",82.34745,524.6086
"1939",82.13992,524.622
"1940",81.795685,524.6352
"1941",81.32937,524.6486
"1942",80.77028,524.6618
"1943",80.15015,524.67523
"1944",79.49584,524.6884
"1945",78.82689,524.70184
"1946",78.16281,524.715
"1947",77.5256,524.72845
"1948",76.93721,524.74164
"1949",76.4123,524.75507
"1950",75.96307,524.76825
"1951",75.5993,524.7817
"1952",75.3283,524.79486
"1953",75.142746,524.8083
"1954",75.037766,524.8215
"1955",75.00603,524.8349
"1956",75.04265,524.8481
"1957",75.140305,524.8615
"1958",75.2868,524.8747
"1959",75.47234,524.8881
"1960",75.684746,524.9013
"1961",75.90448,524.91473
"1962",76.11444,524.9279
"1963",76.29267,524.94135
"1964",76.42939,524.9545
"1965",76.524605,524.96796
"1966",76.578316,524.98114
"1967",76.60029,524.99457
"1968",76.59052,525.00775
"1969",76.558784,525.0212
"1970",76.50507,525.03436
"1971",76.43183,525.0478
"1972",76.33662,525.061
"1973",76.22186,525.0744
"1974",76.09247,525.0876
"1975",75.948425,525.101
"1976",75.809265,525.1142
"1977",75.74578,525.1276
"1978",75.91913,525.1408
"1979",76.54658,525.15424
"1980",77.806366,525.1674
"1981",79.73998,525.18085
"1982",82.22293,525.19403
"1983",84.98421,525.20746
"1984",87.67956,525.22064
"1985",89.99893,525.2341
"1986",91.75189,525.24725
"1987",92.87984,525.2607
"1988",93.39498,525.27386
"1989",93.36324,525.2873
"1990",92.88228,525.3005
"1991",92.06195,525.3139
"1992",91.02434,525.3271
"1993",89.87686,525.3405
"1994",88.70252,525.3537
"1995",87.56481,525.3671
"1996",86.49546,525.3803
"1997",85.51644,525.39374
"1998",84.63996,525.4069
"1999",83.89044,525.42035
"2000",83.284966,525.43353
"2001",82.847946,525.44696
"2002",82.58671,525.46014
"2003",82.48661,525.4736
"2004",82.50614,525.48676
"2005",82.598915,525.5002
"2006",82.69901,525.51337
"2007",82.760056,525.5268
"2008",82.73319,525.54
"2009",82.59159,525.5534
"2010",82.31815,525.5666
"2011",81.92508,525.58
"2012",81.4197,525.5932
"2013",80.831314,525.6066
"2014",80.184326,525.6198
"2015",79.50805,525.63324
"2016",78.819565,525.6464
"2017",78.1384,525.65985
"2018",77.48409,525.67303
"2019",76.86885,525.68646
"2020",76.30488,525.69965
"2021",75.80438,525.7131
"2022",75.369804,525.72626
"2023",75.01091,525.7397
"2024",74.72282,525.75287
"2025",74.495766,525.7663
"2026",74.32731,525.7795
"2027",74.20279,525.7929
"2028",74.1149,525.8061
"2029",74.05875,525.8195
"2030",74.02457,525.8327
"2031",74.005035,525.8461
"2032",74.00015,525.8593
"2033",74.00015,525.87274
"2034",73.99527,525.8859
"2035",73.98306,525.89935
"2036",73.9733,525.91254
"2037",73.95865,525.92596
"2038",73.936676,525.93915
"2039",73.90982,525.9526
"2040",73.87564,525.96576
"2041",73.829254,525.9792
"2042",73.77066,525.9924
"2043",73.704735,526.0058
"2044",73.62661,526.019
"2045",73.53872,526.0324
"2046",73.428856,526.0456
"2047",73.3019,526.059
"2048",73.162735,526.0722
"2049",73.05287,526.08563
"2050",73.08705,526.0988
"2051",73.494774,526.11224
"2052",74.53483,526.1254
"2053",76.36103,526.13885
"2054",78.92943,526.15204
"2055",81.99832,526.16547
"2056",85.1844,526.17865
"2057",88.077515,526.1921
"2058",90.36271,526.20526
"2059",91.91791,526.2187
"2060",92.76509,526.2319
"2061",92.99458,526.2453
"2062",92.71137,526.2585
"2063",92.035095,526.2719
"2064",91.08537,526.2851
"2065",89.969635,526.2985
"2066",88.77821,526.3117
"2067",87.58434,526.32513
"2068",86.434425,526.3383
"2069",85.350426,526.35175
"2070",84.349434,526.3649
"2071",83.438774,526.37836
"2072",82.64042,526.39154
"2073",81.98123,526.40497
"2074",81.4905,526.41815
"2075",81.18288,526.4316
"2076",81.058365,526.44476
"2077",81.08034,526.4582
"2078",81.19997,526.4714
"2079",81.36111,526.4848
"2080",81.50759,526.498
"2081",81.58083,526.5114
"2082",81.55398,526.5246
"2083",81.40505,526.538
"2084",81.13161,526.5512
"2085",80.740974,526.56464
"2086",80.2478,526.5778
"2087",79.676506,526.59125
"2088",79.046616,526.60443
"2089",78.380104,526.61786
"2090",77.70382,526.63104
"2091",77.03731,526.6445
"2092",76.39765,526.65765
"2093",75.80438,526.6711
"2094",75.27703,526.68427
"2095",74.82048,526.6977
"2096",74.43717,526.7109
"2097",74.13687,526.7243
"2098",73.9147,526.7375
"2099",73.75845,526.7509
"2100",73.66079,526.7641
"2101",73.6144,526.7775
"2102",73.60952,526.7907
"2103",73.636375,526.80414
"2104",73.687645,526.8173
"2105",73.760895,526.83075
"2106",73.8439,526.84393
"2107",73.92935,526.85736
"2108",74.0148,526.87054
"2109",74.10269,526.884
"2110",74.175934,526.89716
"2111",74.2272,526.9106
"2112",74.246735,526.92377
"2113",74.2272,526.9372
"2114",74.17105,526.9504
"2115",74.10025,526.9638
"2116",74.0856,526.977
"2117",74.285805,526.9904
"2118",74.93523,527.0036
"2119",76.24872,527.017
"2120",78.30442,527.0302
"2121",80.99245,527.04364
"2122",84.03693,527.0568
"2123",87.061874,527.07025
"2124",89.71084,527.08344
"2125",91.74212,527.09686
"2126",93.08247,527.11005
"2127",93.76608,527.1235
"2128",93.86374,527.13666
"2129",93.48043,527.1501
"2130",92.74555,527.16327
"2131",91.77142,527.1767
"2132",90.66544,527.1899
"2133",89.515526,527.2033
"2134",88.38514,527.2165
"2135",87.30602,527.2299
"2136",86.29771,527.2431
"2137",85.36263,527.25653
"2138",84.51057,527.2697
"2139",83.76349,527.28314
"2140",83.13847,527.2963
"2141",82.65751,527.30975
"2142",82.337685,527.32294
"2143",82.16678,527.33636
"2144",82.11551,527.34955
"2145",82.11795,527.363
"2146",82.11307,527.37616
"2147",82.04959,527.3896
"2148",81.90555,527.4028
"2149",81.6614,527.4162
"2150",81.322044,527.4294
"2151",80.902115,527.4428
"2152",80.411385,527.456
"2153",79.85962,527.4694
"2154",79.26635,527.4826
"2155",78.66331,527.49603
"2156",78.07248,527.5092
"2157",77.49874,527.52264
"2158",76.93965,527.5358
"2159",76.39033,527.54926
"2160",75.85321,527.56244
"2161",75.35027,527.57587
"2162",74.915695,527.58905
"2163",74.56901,527.6025
"2164",74.31022,527.61566
"2165",74.11978,527.6291
"2166",73.968414,527.6423
"2167",73.8439,527.6557
"2168",73.7438,527.6689
"2169",73.67788,527.6823
"2170",73.6437,527.6955
"2171",73.64126,527.7089
"2172",73.651024,527.7221
"2173",73.64614,527.73553
"2174",73.60464,527.7487
"2175",73.50454,527.76215
"2176",73.35317,527.7753
"2177",73.16029,527.78876
"2178",72.955215,527.80194
"2179",72.80385,527.81537
"2180",72.82826,527.82855
"2181",73.21889,527.842
"2182",74.18814,527.85516
"2183",75.85565,527.8686
"2184",78.1799,527.8818
"2185",80.94606,527.8952
"2186",83.824524,527.9084
"2187",86.4564,527.9218
"2188",88.57069,527.935
"2189",90.0502,527.9484
"2190",90.899826,527.9616
"2191",91.192795,527.97504
"2192",91.01701,527.9882
"2193",90.46281,528.00165
"2194",89.62783,528.01483
"2195",88.59998,528.02826
"2196",87.447624,528.04144
"2197",86.219574,528.0549
"2198",84.947586,528.06805
"2199",83.66338,528.0815
"2200",82.41093,528.09467
"2201",81.25124,528.1081
"2202",80.26978,528.1213
"2203",79.54955,528.1347
"2204",79.15892,528.1479
"2205",79.10277,528.1613
"2206",79.33227,528.1745
"2207",79.75952,528.1879
"2208",80.26246,528.2011
"2209",80.72144,528.21454
"2210",81.04616,528.2277
"2211",81.197525,528.24115
"2212",81.160904,528.25433
"2213",80.9485,528.26776
"2214",80.59205,528.28094
"2215",80.11597,528.2944
"2216",79.554436,528.30756
"2217",78.92699,528.321
"2218",78.260475,528.33417
"2219",77.56954,528.3476
"2220",76.876175,528.3608
"2221",76.20233,528.3742
"2222",75.56512,528.3874
"2223",74.986496,528.4008
"2224",74.486,528.414
"2225",74.08316,528.4274
"2226",73.76822,528.4406
"2227",73.54116,528.45404
"2228",73.38979,528.4672
"2229",73.304344,528.48065
"2230",73.27505,528.49384
"2231",73.29458,528.50726
"2232",73.35561,528.52045
"2233",73.43862,528.5339
"2234",73.52163,528.54706
"2235",73.58999,528.5605
"2236",73.62661,528.57367
"2237",73.63149,528.5871
"2238",73.636375,528.6003
"2239",73.71206,528.6137
"2240",74.019684,528.6269
"2241",74.78142,528.6403
"2242",76.19501,528.6535
"2243",78.314186,528.66693
"2244",81.0193,528.6801
"2245",84.02472,528.69354
"2246",86.9691,528.7067
"2247",89.50332,528.72015
"2248",91.407646,528.73334
"2249",92.6186,528.74677
"2250",93.172806,528.75995
"2251",93.14595,528.7734
"2252",92.64301,528.78656
"2253",91.77875,528.8
"2254",90.667885,528.8132
"2255",89.41543,528.8266
"2256",88.10193,528.8398
"2257",86.79332,528.8532
"2258",85.523766,528.8664
"2259",84.32014,528.8798
"2260",83.20683,528.893
"2261",82.22537,528.90643
"2262",81.427025,528.9196
"2263",80.86305,528.93304
"2264",80.56519,528.9462
"2265",80.52125,528.95966
"2266",80.69215,528.97284
"2267",80.987564,528.98627
"2268",81.3196,528.99945
"2269",81.60525,529.0129
"2270",81.78348,529.02606
"2271",81.812775,529.0395
"2272",81.688255,529.0527
"2273",81.409935,529.0661
"2274",80.987564,529.0793
"2275",80.445564,529.0927
"2276",79.818115,529.1059
"2277",79.132065,529.1193
"2278",78.41428,529.1325
"2279",77.68429,529.14594
"2280",76.96651,529.1591
"2281",76.28535,529.17255
"2282",75.65545,529.1857
"2283",75.0988,529.19916
"2284",74.6276,529.21234
"2285",74.24185,529.22577
"2286",73.944,529.23895
"2287",73.724266,529.2524
"2288",73.57534,529.26556
"2289",73.49233,529.279
"2290",73.46548,529.2922
"2291",73.47036,529.3056
"2292",73.494774,529.3188
"2293",73.51919,529.3322
"2294",73.53384,529.3454
"2295",73.53628,529.3588
"2296",73.53384,529.372
"2297",73.58755,529.38544
"2298",73.82193,529.3986
"2299",74.444496,529.41205
"2300",75.65545,529.42523
"2301",77.55489,529.43866
"2302",80.062256,529.45184
"2303",82.94072,529.4653
"2304",85.8436,529.47845
"2305",88.429085,529.4919
"2306",90.44816,529.50507
"2307",91.8056,529.5185
"2308",92.5185,529.5317
"2309",92.647896,529.5451
"2310",92.28413,529.5583
"2311",91.53216,529.5717
"2312",90.49943,529.5849
"2313",89.2958,529.5983
"2314",88.006714,529.6115
"2315",86.6981,529.62494
"2316",85.42123,529.6381
"2317",84.19806,529.65155
"2318",83.055466,529.66473
"2319",82.022736,529.67816
"2320",81.14137,529.69135
"2321",80.45777,529.7048
"2322",80.01343,529.71796
"2323",79.82788,529.7314
"2324",79.869385,529.74457
"2325",80.07446,529.758
"2326",80.35767,529.7712
"2327",80.62623,529.7846
"2328",80.80202,529.7978
"2329",80.831314,529.8112
"2330",80.69459,529.8244
"2331",80.394295,529.8378
"2332",79.94263,529.851
"2333",79.35912,529.86444
"2334",78.677956,529.8776
"2335",77.93332,529.89105
"2336",77.154495,529.90424
"2337",76.368355,529.91766
"2338",75.5993,529.93085
"2339",74.864426,529.9443
"2340",74.1857,529.95746
"2341",73.57534,529.9709
"2342",73.05043,529.9841
"2343",72.62806,529.9975
"2344",72.31556,530.0107
"2345",72.10315,530.0241
"2346",71.97864,530.0373
"2347",71.92737,530.0507
"2348",71.93713,530.0639
"2349",71.993286,530.07733
"2350",72.08606,530.0905
"2351",72.20325,530.10394
"2352",72.33021,530.1171
"2353",72.44251,530.13055
"2354",72.52796,530.14374
"2355",72.59144,530.15717
"2356",72.69398,530.17035
"2357",72.97963,530.1838
"2358",73.66811,530.19696
"2359",74.969406,530.2104
"2360",76.96651,530.2236
"2361",79.5642,530.237
"2362",82.493935,530.2502
"2363",85.39681,530.2636
"2364",87.90906,530.2768
"2365",89.80606,530.2902
"2366",91.01213,530.3034
"2367",91.561455,530.31683
"2368",91.54192,530.33
"2369",91.056076,530.34344
"2370",90.21622,530.3566
"2371",89.12489,530.37006
"2372",87.869995,530.38324
"2373",86.51743,530.39667
"2374",85.12825,530.40985
"2375",83.75372,530.4233
"2376",82.44511,530.43646
"2377",81.25613,530.4499
"2378",80.24536,530.4631
"2379",79.48608,530.4765
"2380",79.03197,530.4897
"2381",78.91234,530.5031
"2382",79.10765,530.5163
"2383",79.554436,530.5297
"2384",80.147705,530.5429
"2385",80.75807,530.55634
"2386",81.26589,530.5695
"2387",81.58816,530.58295
"2388",81.685814,530.5961
"2389",81.55886,530.60956
"2390",81.22926,530.62274
"2391",80.73853,530.63617
"2392",80.130615,530.64935
"2393",79.43725,530.6628
"2394",78.69016,530.67596
"2395",77.92355,530.6894
"2396",77.1667,530.7026
"2397",76.453804,530.716
"2398",75.81415,530.7292
"2399",75.264824,530.7426
"2400",74.810715,530.7558
"2401",74.461586,530.7692
"2402",74.212555,530.7824
"2403",74.056305,530.79584
"2404",73.98062,530.809
"2405",73.9733,530.82245
"2406",74.01724,530.83563
"2407",74.0856,530.84906
"2408",74.15152,530.86224
"2409",74.20523,530.8757
"2410",74.26139,530.88885
"2411",74.40299,530.9023
"2412",74.78386,530.91547
"2413",75.59441,530.9289
"2414",76.978714,530.9421
"2415",78.92943,530.9555
"2416",81.30007,530.9687
"2417",83.81476,530.9821
"2418",86.15854,530.9953
"2419",88.06531,531.0087
"2420",89.3959,531.0219
"2421",90.125885,531.03534
"2422",90.30656,531.0485
"2423",90.0087,531.06195
"2424",89.32754,531.07513
"2425",88.358284,531.08856
"2426",87.183945,531.10175
"2427",85.87778,531.1152
"2428",84.51545,531.12836
"2429",83.15556,531.1418
"2430",81.8616,531.15497
"2431",80.689705,531.1684
"2432",79.708244,531.1816
"2433",78.97337,531.195
"2434",78.53391,531.2082
"2435",78.416725,531.2216
"2436",78.6096,531.2348
"2437",79.05394,531.2482
"2438",79.65942,531.2614
"2439",80.308846,531.27484
"2440",80.88747,531.288
"2441",81.307396,531.30145
"2442",81.514915,531.31464
"2443",81.497826,531.32806
"2444",81.27566,531.34125
"2445",80.885025,531.3547
"2446",80.37232,531.36786
"2447",79.77417,531.3813
"2448",79.12718,531.3945
"2449",78.45335,531.4079
"2450",77.77707,531.4211
"2451",77.117874,531.4345
"2452",76.49287,531.4477
"2453",75.928894,531.4611
"2454",75.43816,531.4743
"2455",75.037766,531.48773
"2456",74.73258,531.5009
"2457",74.529945,531.51434
"2458",74.4152,531.5275
"2459",74.36637,531.54095
"2460",74.356606,531.55414
"2461",74.36637,531.56757
"2462",74.37614,531.58075
"2463",74.40055,531.5942
"2464",74.50309,531.60736
"2465",74.81804,531.6208
"2466",75.511406,531.634
"2467",76.734566,531.6474
"2468",78.53391,531.6606
"2469",80.814224,531.674
"2470",83.35088,531.6872
"2471",85.841156,531.7006
"2472",87.99695,531.7138
"2473",89.62295,531.72723
"2474",90.63615,531.7404
"2475",91.05119,531.75385
"2476",90.92912,531.767
"2477",90.36271,531.78046
"2478",89.461815,531.79364
"2479",88.33631,531.80707
"2480",87.07652,531.82025
"2481",85.75571,531.8337
"2482",84.422676,531.84686
"2483",83.13115,531.8603
"2484",81.9202,531.8735
"2485",80.850845,531.8869
"2486",79.99634,531.9001
"2487",79.41772,531.9135
"2488",79.14671,531.9267
"2489",79.17601,531.9401
"2490",79.45434,531.9533
"2491",79.88159,531.96674
"2492",80.35523,531.9799
"2493",80.7776,531.99335
"2494",81.07057,532.00653
"2495",81.19264,532.01996
"2496",81.13405,532.03314
"2497",80.90456,532.0466
"2498",80.52369,532.05975
"2499",80.03052,532.0732
"2500",79.45678,532.08636
"2501",78.83177,532.0998
"2502",78.184784,532.113
"2503",77.53536,532.1264
"2504",76.90791,532.1396
"2505",76.317085,532.153
"2506",75.78729,532.1662
"2507",75.33074,532.1796
"2508",74.9572,532.1928
"2509",74.66422,532.20624
"2510",74.461586,532.2194
"2511",74.33463,532.23285
"2512",74.268715,532.24603
"2513",74.251625,532.25946
"2514",74.26383,532.27264
"2515",74.28336,532.2861
"2516",74.28336,532.29926
"2517",74.25895,532.3127
"2518",74.24429,532.32587
"2519",74.339516,532.3393
"2520",74.73258,532.3525
"2521",75.648125,532.3659
"2522",77.225296,532.3791
"2523",79.44457,532.3925
"2524",82.1326,532.4057
"2525",84.98665,532.4191
"2526",87.66003,532.4323
"2527",89.86954,532.44574
"2528",91.456474,532.4589
"2529",92.3769,532.47235
"2530",92.67231,532.48553
"2531",92.41596,532.49896
"2532",91.72503,532.51215
"2533",90.719154,532.5256
"2534",89.52773,532.53876
"2535",88.24109,532.5522
"2536",86.93004,532.56537
"2537",85.63607,532.5788
"2538",84.39826,532.592
"2539",83.25811,532.6054
"2540",82.25956,532.6186
"2541",81.45876,532.632
"2542",80.89967,532.6452
"2543",80.6067,532.6586
"2544",80.55543,532.6718
"2545",80.69459,532.68524
"2546",80.94362,532.6984
"2547",81.22194,532.71185
"2548",81.45144,532.72504
"2549",81.57351,532.73846
"2550",81.54665,532.75165
"2551",81.3489,532.7651
"2552",80.98268,532.77826
"2553",80.46021,532.7917
"2554",79.815674,532.8049
"2555",79.08568,532.8183
"2556",78.3093,532.8315
"2557",77.51827,532.8449
"2558",76.73701,532.8581
"2559",75.982605,532.8715
"2560",75.27459,532.8847
"2561",74.6276,532.89813
"2562",74.06363,532.9113
"2563",73.59243,532.92474
"2564",73.22133,532.9379
"2565",72.952774,532.95135
"2566",72.77699,532.96454
"2567",72.68177,532.97797
"2568",72.65003,532.99115
"2569",72.65736,533.0046
"2570",72.67933,533.01776
"2571",72.689095,533.0312
"2572",72.66224,533.0444
"2573",72.601204,533.0578
"2574",72.518196,533.071
"2575",72.46693,533.0844
"2576",72.59144,533.0976
"2577",73.12367,533.111
"2578",74.302895,533.1242
"2579",76.26093,533.13763
"2580",78.941635,533.1508
"2581",82.10086,533.16425
"2582",85.36996,533.1774
"2583",88.3534,533.19086
"2584",90.75334,533.20404
"2585",92.44526,533.21747
"2586",93.4316,533.23065
"2587",93.77341,533.2441
"2588",93.56588,533.25726
"2589",92.92134,533.2707
"2590",91.97162,533.2839
"2591",90.83391,533.2973
"2592",89.62051,533.3105
"2593",88.40467,533.3239
"2594",87.235214,533.3371
"2595",86.12924,533.3505
"2596",85.101395,533.3637
"2597",84.16144,533.37714
"2598",83.33379,533.3903
"2599",82.65995,533.40375
"2600",82.16434,533.41693
"2601",81.85428,533.43036
"2602",81.71023,533.44354
"2603",81.685814,533.457
"2604",81.71267,533.47015
"2605",81.72488,533.4836
"2606",81.66628,533.49677
"2607",81.50515,533.5102
"2608",81.22926,533.5234
"2609",80.83864,533.5368
"2610",80.343025,533.55
"2611",79.75464,533.5634
"2612",79.08812,533.5766
"2613",78.35813,533.59
"2614",77.58419,533.6032
"2615",76.79805,533.61664
"2616",76.02167,533.6298
"2617",75.28191,533.64325
"2618",74.600746,533.65643
"2619",73.99527,533.66986
"2620",73.46792,533.68304
"2621",73.01869,533.6965
"2622",72.64515,533.70966
"2623",72.34974,533.7231
"2624",72.13245,533.73627
"2625",71.99573,533.7497
"2626",71.93713,533.7629
"2627",71.95178,533.7763
"2628",72.02014,533.7895
"2629",72.11536,533.8029
"2630",72.20813,533.8161
"2631",72.271614,533.8295
"2632",72.29359,533.8427
"2633",72.26917,533.85614
"2634",72.21301,533.8693
"2635",72.164185,533.88275
"2636",72.19348,533.89594
"2637",72.45472,533.90936
"2638",73.162735,533.92255
"2639",74.51774,533.936
"2640",76.58808,533.94916
"2641",79.28832,533.9626
"2642",82.357216,533.97577
"2643",85.42611,533.9892
"2644",88.128784,534.0024
"2645",90.21622,534.0158
"2646",91.58831,534.029
"2647",92.26948,534.0424
"2648",92.3476,534.0556
"2649",91.949646,534.06903
"2650",91.21965,534.0822
"2651",90.28947,534.09564
"2652",89.26894,534.1088
"2653",88.233765,534.12225
"2654",87.23277,534.13544
"2655",86.26597,534.14886
"2656",85.32845,534.16205
"2657",84.41535,534.1755
"2658",83.543755,534.18866
"2659",82.74784,534.2021
"2660",82.06912,534.2153
"2661",81.54665,534.2287
"2662",81.19997,534.2419
"2663",81.01198,534.2553
"2664",80.94118,534.2685
"2665",80.94362,534.2819
"2666",80.95827,534.2951
"2667",80.93141,534.30853
"2668",80.814224,534.3217
"2669",80.57984,534.33514
"2670",80.22827,534.3483
"2671",79.76196,534.36176
"2672",79.200424,534.37494
"2673",78.56809,534.38837
"2674",77.89914,534.40155
"2675",77.205765,534.415
"2676",76.52216,534.42816
"2677",75.86786,534.4416
"2678",75.25994,534.4548
"2679",74.71061,534.4682
"2680",74.23453,534.4814
"2681",73.83414,534.4948
"2682",73.51186,534.508
"2683",73.270164,534.5214
"2684",73.10414,534.5346
"2685",73.00404,534.54803
"2686",72.95766,534.5612
"2687",72.95033,534.57465
"2688",72.96742,534.5878
"2689",72.989395,534.60126
"2690",72.99672,534.61444
"2691",72.97719,534.62787
"2692",72.92836,534.64105
"2693",72.84535,534.6545
"2694",72.7306,534.66766
"2695",72.601204,534.6811
"2696",72.47181,534.6943
"2697",72.38392,534.7077
"2698",72.447395,534.7209
"2699",72.85756,534.7343
"2700",73.81949,534.7475
"2701",75.47234,534.7609
"2702",77.79172,534.7741
"2703",80.57984,534.78754
"2704",83.50713,534.8007
"2705",86.202484,534.81415
"2706",88.37293,534.82733
"2707",89.87198,534.84076
"2708",90.68009,534.85394
"2709",90.87053,534.8674
"2710",90.55802,534.88055
"2711",89.87686,534.894
"2712",88.9662,534.90717
"2713",87.95056,534.9206
"2714",86.925156,534.9338
"2715",85.95834,534.9472
"2716",85.06966,534.9604
"2717",84.25666,534.9738
"2718",83.50225,534.987
"2719",82.80156,535.0004
"2720",82.16922,535.0136
"2721",81.64187,535.02704
"2722",81.253685,535.0402
"2723",81.02174,535.05365
"2724",80.94118,535.06683
"2725",80.970474,535.08026
"2726",81.04616,535.09344
"2727",81.10719,535.1069
"2728",81.109634,535.12006
"2729",81.007095,535.1335
"2730",80.77516,535.14667
"2731",80.413826,535.1601
"2732",79.937744,535.1733
"2733",79.378654,535.1867
"2734",78.77074,535.1999
"2735",78.150604,535.2133
"2736",77.54757,535.2265
"2737",76.978714,535.2399
"2738",76.45136,535.2531
"2739",75.96796,535.26654
"2740",75.53582,535.2797
"2741",75.16472,535.29315
"2742",74.62272,535.31976
"2743",74.4567,535.33295
"2744",74.35905,535.3464
"2745",74.31754,535.35956
"2746",74.322426,535.373
"2747",74.35172,535.38617
"2748",74.40055,535.3996
"2749",74.45182,535.4128
"2750",74.50309,535.4262
"2751",74.55436,535.4394
"2752",74.60563,535.4528
"2753",74.65934,535.466
"2754",74.71793,535.47943
"2755",74.77165,535.4926
"2756",74.81804,535.50604
"2757",74.85222,535.5192
"2758",74.861984,535.53265
"2759",74.844894,535.54584
"2760",74.80095,535.55927
"2761",74.75456,535.57245
"2762",74.76433,535.5859
"2763",74.97917,535.59906
"2764",75.613945,535.6125
"2765",76.859085,535.6257
"2766",78.78294,535.6391
"2767",81.30251,535.6523
"2768",84.1712,535.6657
"2769",87.047226,535.6789
"2770",89.59609,535.6923
"2771",91.59075,535.7055
"2772",92.93355,535.71893
"2773",93.62936,535.7321
"2774",93.753876,535.74554
"2775",93.42184,535.7587
"2776",92.76753,535.77216
"2777",91.92767,535.78534
"2778",91.0219,535.79877
"2779",90.13565,535.81195
"2780",89.30801,535.8254
"2781",88.54139,535.83856
"2782",87.8114,535.852
"2783",87.09117,535.8652
"2784",86.363625,535.8786
"2785",85.63851,535.8918
"2786",84.95979,535.9052
"2787",84.368965,535.9184
"2788",83.897766,535.9318
"2789",83.5584,535.945
"2790",83.33135,535.95844
"2791",83.18242,535.9716
"2792",83.06279,535.98505
"2793",82.92851,535.9982
"2794",82.73319,536.01166
"2795",82.44999,536.02484
"2796",82.07156,536.03827
"2797",81.60525,536.05145
"2798",81.07301,536.0649
"2799",80.49439,536.07806
"2800",79.89136,536.0915
"2801",79.276115,536.1047
"2802",78.66819,536.1181
"2803",78.09201,536.1313
"2804",77.56222,536.1447
"2805",77.08858,536.1579
"2806",76.680855,536.1713
"2807",76.34638,536.1845
"2808",76.07782,536.19794
"2809",75.880066,536.2111
"2810",75.74334,536.22455
"2811",75.665215,536.23773
"2812",75.62615,536.25116
"2813",75.61639,536.26434
"2814",75.62371,536.2778
"2815",75.64324,536.29095
"2816",75.665215,536.3044
"2817",75.67498,536.31757
"2818",75.6701,536.331
"2819",75.65301,536.3442
"2820",75.62127,536.3576
"2821",75.57488,536.3708
"2822",75.52361,536.3842
"2823",75.457695,536.3974
"2824",75.369804,536.4108
"2825",75.2575,536.424
"2826",75.125656,536.43744
"2827",74.97673,536.4506
"2828",74.83513,536.46405
"2829",74.78142,536.47723
"2830",74.949875,536.49066
"2831",75.51385,536.50385
"2832",76.63203,536.5173
"2833",78.35569,536.53046
"2834",80.6067,536.5439
"2835",83.175095,536.55707
"2836",85.770355,536.5705
"2837",88.097046,536.5837
"2838",89.94522,536.5971
"2839",91.21477,536.6103
"2840",91.88861,536.6237
"2841",92.02533,536.6369
"2842",91.72747,536.6503
"2843",91.11955,536.6635
"2844",90.321205,536.67694
"2845",89.43984,536.6901
"2846",88.5536,536.70355
"2847",87.70641,536.71674
"2848",86.908066,536.73016
"2849",86.14145,536.74335
"2850",85.40658,536.7568
"2851",84.70344,536.76996
"2852",84.05646,536.7834
"2853",83.49493,536.7966
"2854",83.053024,536.81
"2855",82.72831,536.8232
"2856",82.513466,536.8366
"2857",82.36942,536.8498
"2858",82.269325,536.8632
"2859",82.159454,536.8764
"2860",81.99588,536.88983
"2861",81.74197,536.903
"2862",81.36843,536.91644
"2863",80.86549,536.9296
"2864",80.24048,536.94305
"2865",79.517815,536.95624
"2866",78.73411,536.96967
"2867",77.91867,536.98285
"2868",77.10567,536.9963
"2869",76.32441,537.00946
"2870",75.60418,537.0229
"2871",74.96208,537.0361
"2872",74.41764,537.0495
"2873",73.97818,537.0627
"2874",73.6437,537.0761
"2875",73.39956,537.0893
"2876",73.21889,537.1027
"2877",73.07973,537.1159
"2878",72.94789,537.12933
"2879",72.80873,537.1425
"2880",72.64271,537.15594
"2881",72.44984,537.1691
"2882",72.2301,537.18256
"2883",71.98596,537.19574
"2884",71.72228,537.20917
"2885",71.4464,537.22235
"2886",71.16319,537.2358
"2887",70.88243,537.24896
"2888",70.59434,537.2624
"2889",70.29893,537.2756
"2890",70.00595,537.289
"2891",69.732506,537.3022
"2892",69.505455,537.3156
"2893",69.35897,537.3288
"2894",69.31747,537.3422
"2895",69.39315,537.3554
"2896",69.62997,537.36884
"2897",70.149994,537.382
"2898",71.17052,537.39545
"2899",72.86977,537.4086
"2900",75.29412,537.42206
"2901",78.30442,537.43524
"2902",81.59548,537.44867
"2903",84.75716,537.46185
"2904",87.41833,537.4753
"2905",89.36416,537.48846
"2906",90.55802,537.5019
"2907",91.05852,537.5151
"2908",90.97307,537.5285
"2909",90.4213,537.5417
"2910",89.5375,537.5551
"2911",88.43397,537.5683
"2912",87.20836,537.5817
"2913",85.943695,537.5949
"2914",84.69123,537.60834
"2915",83.48516,537.6215
"2916",82.3621,537.63495
"2917",81.375755,537.64813
"2918",80.5774,537.66156
"2919",80.028076,537.67474
"2920",79.75952,537.6882
"2921",79.76929,537.70135
"2922",79.99634,537.7148
"2923",80.36256,537.72797
"2924",80.76051,537.7414
"2925",81.0901,537.7546
"2926",81.2781,537.768
"2927",81.28298,537.7812
"2928",81.092545,537.7946
"2929",80.726326,537.8078
"2930",80.21362,537.8212
"2931",79.59106,537.8344
"2932",78.89281,537.84784
"2933",78.14084,537.861
"2934",77.366905,537.87445
"2935",76.59785,537.88763
"2936",75.86786,537.90106
"2937",75.20622,537.91425
"2938",74.63737,537.9277
"2939",74.178375,537.94086
"2940",73.829254,537.9543
"2941",73.58755,537.96747
"2942",73.43618,537.9809
"2943",73.36294,537.9941
"2944",73.35561,538.0075
"2945",73.39956,538.0207
"2946",73.48257,538.0341
"2947",73.58755,538.0473
"2948",73.704735,538.0607
"2949",73.81949,538.0739
"2950",73.917145,538.08734
"2951",73.99527,538.1005
"2952",74.04654,538.11395
"2953",74.06119,538.12714
"2954",74.04166,538.14056
"2955",73.99527,538.15375
"2956",73.93179,538.1672
"2957",73.86099,538.18036
"2958",73.79019,538.1938
"2959",73.724266,538.207
"2960",73.651024,538.2204
"2961",73.55093,538.2336
"2962",73.41665,538.247
"2963",73.24086,538.2602
"2964",73.057755,538.2736
"2965",72.92348,538.2868
"2966",72.99672,538.30023
"2967",73.50942,538.3134
"2968",74.737465,538.32684
"2969",76.82979,538.34
"2970",79.7058,538.35345
"2971",83.04082,538.36664
"2972",86.39048,538.38007
"2973",89.27871,538.39325
"2974",91.37835,538.4067
"2975",92.5893,538.41986
"2976",92.99458,538.4333
"2977",92.74067,538.4465
"2978",91.97406,538.4599
"2979",90.826584,538.4731
"2980",89.40322,538.4865
"2981",87.801636,538.4997
"2982",86.09262,538.5131
"2983",84.34211,538.5263
"2984",82.62089,538.53973
"2985",81.024185,538.5529
"2986",79.65942,538.56635
"2987",78.643776,538.5795
"2988",78.082245,538.59296
"2989",78.02365,538.60614
"2990",78.44846,538.61957
"2991",79.256584,538.63275
"2992",80.27955,538.6462
"2993",81.322044,538.65936
"2994",82.20584,538.6728
"2995",82.811325,538.686
"2996",83.07988,538.6994
"2997",83.021286,538.7126
"2998",82.686806,538.726
"2999",82.127716,538.7392
"3000",81.392845,538.7526
"3001",80.52613,538.7658
"3002",79.569084,538.77924
"3003",78.56809,538.7924
"3004",77.5671,538.80585
"3005",76.61738,538.81903
"3006",75.76288,538.83246
"3007",75.02556,538.84564
"3008",74.42008,538.8591
"3009",73.944,538.87225
"3010",73.59731,538.8857
"3011",73.36294,538.89886
"3012",73.22377,538.9123
"3013",73.17494,538.9255
"3014",73.196915,538.9389
"3015",73.270164,538.9521
"3016",73.38003,538.9655
"3017",73.52407,538.9787
"3018",73.68276,538.9921
"3019",73.85367,539.0053
"3020",74.019684,539.01874
"3021",74.17349,539.0319
"3022",74.305336,539.04535
"3023",74.40299,539.05853
"3024",74.4567,539.07196
"3025",74.46403,539.08514
"3026",74.42008,539.0986
"3027",74.33219,539.11176
"3028",74.20523,539.1252
"3029",74.04898,539.13837
"3030",73.863434,539.1518
"3031",73.65591,539.165
"3032",73.43618,539.1784
"3033",73.20424,539.1916
"3034",72.98695,539.205
"3035",72.84779,539.2182
"3036",72.91127,539.2316
"3037",73.38979,539.2448
"3038",74.56168,539.25824
"3039",76.63203,539.2714
"3040",79.588615,539.28485
"3041",83.158005,539.29803
"3042",86.84703,539.31146
"3043",90.10147,539.32465
"3044",92.48188,539.3381
"3045",93.788055,539.35126
"3046",94.066376,539.3647
"3047",93.51949,539.37787
"3048",92.36469,539.3913
"3049",90.76799,539.4045
"3050",88.83925,539.4179
"3051",86.659035,539.4311
"3052",84.30549,539.4445
"3053",81.87137,539.4577
"3054",79.47875,539.4711
"3055",77.26925,539.4843
"3056",75.39666,539.49774
"3057",73.99039,539.5109
"3058",73.145645,539.52435
"3059",72.903946,539.53754
"3060",73.25796,539.55096
"3061",74.144196,539.56415
"3062",75.440605,539.5776
"3063",76.97383,539.59076
"3064",78.551,539.6042
"3065",79.97925,539.6174
"3066",81.0901,539.6308
"3067",81.78592,539.644
"3068",82.039825,539.6574
"3069",81.8909,539.6706
"3070",81.40505,539.684
"3071",80.67017,539.6972
"3072",79.76929,539.71063
"3073",78.77806,539.7238
"3074",77.75754,539.73724
"3075",76.76143,539.7504
"3076",75.83368,539.76385
"3077",75.01335,539.77704
"3078",74.32731,539.79047
"3079",73.79019,539.80365
"3080",73.40688,539.8171
"3081",73.179825,539.83026
"3082",73.09926,539.8437
"3083",73.16029,539.8569
"3084",73.34341,539.8703
"3085",73.6144,539.8835
"3086",73.94644,539.8969
"3087",74.31022,539.9101
"3088",74.67887,539.9235
"3089",75.03288,539.9367
"3090",75.369804,539.95013
"3091",75.684746,539.9633
"3092",75.96796,539.97675
"3093",76.21454,539.9899
"3094",76.422066,540.00336
"3095",76.58808,540.01654
"3096",76.70771,540.02997
"3097",76.7834,540.04315
"3098",76.824905,540.0566
"3099",76.824905,540.06976
"3100",76.77852,540.0832
"3101",76.697945,540.0964
"3102",76.58076,540.1098
"3103",76.42939,540.123
"3104",76.26093,540.1364
"3105",76.112,540.1496
"3106",76.0412,540.163
"3107",76.16815,540.1762
"3108",76.6955,540.18964
"3109",77.86984,540.2028
"3110",79.888916,540.21625
"3111",82.78935,540.22943
"3112",86.36851,540.24286
"3113",90.21866,540.25604
"3114",93.81247,540.2695
"3115",96.66163,540.28265
"3116",98.45609,540.2961
"3117",99.11772,540.30927
"3118",98.76372,540.3227
"3119",97.59426,540.3359
"3120",95.82422,540.3493
"3121",93.63424,540.3625
"3122",91.15373,540.3759
"3123",88.497444,540.3891
"3124",85.78256,540.4025
"3125",83.13359,540.4157
"3126",80.68726,540.42914
"3127",78.57786,540.4423
"3128",76.912796,540.45575
"3129",75.7702,540.46893
"3130",75.18913,540.48236
"3131",75.15495,540.49554
"3132",75.61883,540.509
"3133",76.48554,540.52216
"3134",77.611046,540.5356
"3135",78.83177,540.54877
"3136",79.97925,540.5622
"3137",80.91676,540.5754
"3138",81.55642,540.5888
"3139",81.864044,540.602
"3140",81.85428,540.6154
"3141",81.57839,540.6286
"3142",81.09987,540.642
"3143",80.47242,540.6552
"3144",79.7522,540.66864
"3145",78.98314,540.6818
"3146",78.20187,540.69525
"3147",77.44015,540.70844
"3148",76.72236,540.72186
"3149",76.07782,540.73505
"3150",75.52117,540.7485
"3151",75.054855,540.76166
"3152",74.67887,540.7751
"3153",74.38834,540.78827
"3154",74.175934,540.8017
"3155",74.03677,540.8149
"3156",73.96109,540.8283
"3157",73.94644,540.8415
"3158",73.99039,540.8549
"3159",74.0856,540.8681
"3160",74.215,540.88153
"3161",74.371254,540.8947
"3162",74.547035,540.90814
"3163",74.73991,540.9213
"3164",74.93767,540.93475
"3165",75.123215,540.94794
"3166",75.29168,540.96136
"3167",75.42596,540.97455
"3168",75.53094,540.988
"3169",75.6408,541.00116
"3170",75.87518,541.0146
"3171",76.46601,541.0278
"3172",77.77219,541.0412
"3173",80.14282,541.0544
"3174",83.75128,541.0678
"3175",88.41932,541.081
"3176",93.61471,541.0944
"3177",98.58549,541.1076
"3178",102.61387,541.12103
"3179",105.22865,541.1342
"3180",106.31754,541.14764
"3181",106.075836,541.1608
"3182",104.8307,541.17426
"3183",102.89464,541.18744
"3184",100.506905,541.20087
"3185",97.83353,541.21405
"3186",94.98924,541.2275
"3187",92.07172,541.24066
"3188",89.17372,541.2541
"3189",86.39292,541.2673
"3190",83.81964,541.2807
"3191",81.5613,541.2939
"3192",79.72289,541.3073
"3193",78.40696,541.3205
"3194",77.68429,541.3339
"3195",77.59884,541.3471
"3196",78.12375,541.36053
"3197",79.166245,541.3737
"3198",80.552986,541.38715
"3199",82.05936,541.4003
"3200",83.46563,541.41376
"3201",84.5716,541.42694
"3202",85.25277,541.44037
"3203",85.46029,541.45355
"3204",85.22835,541.467
"3205",84.63996,541.48016
"3206",83.792786,541.4936
"3207",82.78691,541.5068
"3208",81.69802,541.5202
"3209",80.587166,541.5334
"3210",79.49584,541.5468
"3211",78.450905,541.56
"3212",77.48409,541.5734
"3213",76.61494,541.5866
"3214",75.86786,541.60004
"3215",75.245285,541.6132
"3216",74.74967,541.62665
"3217",74.37858,541.63983
"3218",74.11246,541.65326
"3219",73.936676,541.66644
"3220",73.8439,541.6799
"3221",73.82193,541.69305
"3222",73.86832,541.7065
"3223",73.970856,541.71967
"3224",74.11978,541.7331
"3225",74.30778,541.7463
"3226",74.51774,541.7597
"3227",74.72526,541.7729
"3228",74.91814,541.7863
"3229",75.07683,541.7995
"3230",75.211105,541.8129
"3231",75.38201,541.8261
"3232",75.76776,541.83954
"3233",76.65888,541.8527
"3234",78.39231,541.86615
"3235",81.17799,541.87933
"3236",84.947586,541.89276
"3237",89.31045,541.90594
"3238",93.65621,541.9194
"3239",97.34524,541.93256
"3240",99.92828,541.946
"3241",101.25155,541.95917
"3242",101.42977,541.9726
"3243",100.71931,541.9858
"3244",99.37652,541.9992
"3245",97.59426,542.0124
"3246",95.51415,542.0258
"3247",93.23872,542.039
"3248",90.85832,542.0524
"3249",88.44373,542.0656
"3250",86.056,542.07904
"3251",83.775696,542.0922
"3252",81.67605,542.10565
"3253",79.84253,542.11884
"3254",78.35569,542.13226
"3255",77.28878,542.14545
"3256",76.69062,542.1589
"3257",76.57343,542.17206
"3258",76.90547,542.1855
"3259",77.60128,542.19867
"3260",78.53391,542.2121
"3261",79.54955,542.2253
"3262",80.482185,542.2387
"3263",81.18776,542.2519
"3264",81.58083,542.2653
"3265",81.619896,542.2785
"3266",81.33181,542.29193
"3267",80.765396,542.3051
"3268",79.991455,542.31854
"3269",79.07591,542.3317
"3270",78.082245,542.34515
"3271",77.05928,542.35834
"3272",76.04852,542.37177
"3273",75.07439,542.38495
"3274",74.16373,542.3984
"3275",73.32876,542.41156
"3276",72.584114,542.425
"3277",71.93713,542.4382
"3278",71.395134,542.4516
"3279",70.96544,542.4648
"3280",70.640724,542.4782
"3281",70.41367,542.4914
"3282",70.28428,542.5048
"3283",70.24277,542.518
"3284",70.279396,542.53143
"3285",70.37949,542.5446
"3286",70.518654,542.55804
"3287",70.66758,542.5712
"3288",70.81651,542.58466
"3289",70.98009,542.59784
"3290",71.26574,542.61127
"3291",71.89807,542.62445
"3292",73.21889,542.6379
"3293",75.53094,542.65106
"3294",78.93675,542.6645
"3295",83.22392,542.6777
"3296",87.86755,542.6911
"3297",92.208435,542.7043
"3298",95.63622,542.7177
"3299",97.80423,542.7309
"3300",98.68803,542.7443
"3301",98.48051,542.7575
"3302",97.45022,542.77094
"3303",95.833984,542.7841
"3304",93.81979,542.79755
"3305",91.53948,542.8107
"3306",89.1078,542.82416
"3307",86.62974,542.83734
"3308",84.21271,542.85077
"3309",81.951935,542.86395
"3310",79.94995,542.8774
"3311",78.294655,542.89056
"3312",77.05928,542.904
"3313",76.28535,542.9172
"3314",75.98993,542.9306
"3315",76.16815,542.9438
"3316",76.76631,542.9572
"3317",77.696495,542.9704
"3318",78.83421,542.9838
"3319",80.01831,542.997
"3320",81.077896,543.01044
"3321",81.88846,543.0236
"3322",82.36454,543.03705
"3323",82.50126,543.05023
"3324",82.320595,543.06366
"3325",81.87381,543.07684
"3326",81.2195,543.0903
"3327",80.411385,543.10345
"3328",79.48852,543.1169
"3329",78.502174,543.13007
"3330",77.49386,543.1435
"3331",76.50263,543.1567
"3332",75.560234,543.1701
"3333",74.69108,543.1833
"3334",73.919586,543.1967
"3335",73.26284,543.2099
"3336",72.725716,543.2233
"3337",72.31312,543.2365
"3338",72.02258,543.24994
"3339",71.837036,543.2631
"3340",71.73449,543.27655
"3341",71.69543,543.28973
"3342",71.70031,543.30316
"3343",71.73449,543.31635
"3344",71.81018,543.3298
"3345",71.98352,543.34296
"3346",72.410774,543.3564
"3347",73.375145,543.36957
"3348",75.191574,543.383
"3349",78.05539,543.3962
"3350",81.87381,543.4096
"3351",86.24643,543.4228
"3352",90.57511,543.4362
"3353",94.25193,543.4494
"3354",96.85695,543.4628
"3355",98.270546,543.476
"3356",98.617226,543.48944
"3357",98.13626,543.5026
"3358",97.0547,543.51605
"3359",95.54833,543.52924
"3360",93.753876,543.54266
"3361",91.78363,543.55585
"3362",89.73037,543.5693
"3363",87.67223,543.58246
"3364",85.680016,543.5959
"3365",83.80499,543.6091
"3366",82.11551,543.6225
"3367",80.6775,543.6357
"3368",79.5642,543.6491
"3369",78.84398,543.6623
"3370",78.555885,543.6757
"3371",78.69016,543.6889
"3372",79.16136,543.70233
"3373",79.84253,543.7155
"3374",80.587166,543.72894
"3375",81.24635,543.7421
"3376",81.7029,543.75555
"3377",81.89334,543.76874
"3378",81.79324,543.78217
"3379",81.41726,543.79535
"3380",80.80202,543.8088
"3381",79.99634,543.82196
"3382",79.063705,543.8354
"3383",78.05051,543.8486
"3384",77.00313,543.862
"3385",75.97284,543.8752
"3386",74.99382,543.8886
"3387",74.090485,543.9018
"3388",73.27749,543.9152
"3389",72.5597,543.9284
"3390",71.9469,543.94183
"3391",71.431755,543.955
"3392",71.01671,543.96844
"3393",70.694435,543.9816
"3394",70.4625,543.99506
"3395",70.29893,544.00824
"3396",70.17929,544.02167
"3397",70.08896,544.03485
"3398",70.0499,544.0483
"3399",70.135345,544.06146
"3400",70.54307,544.0749
"3401",71.58556,544.0881
"3402",73.59243,544.1015
"3403",76.70771,544.1147
"3404",80.7483,544.1281
"3405",85.24544,544.1413
"3406",89.57168,544.1547
"3407",93.138626,544.1679
"3408",95.58495,544.18134
"3409",96.85939,544.1945
"3410",97.127945,544.20795
"3411",96.62989,544.2211
"3412",95.570305,544.23456
"3413",94.103,544.24774
"3414",92.36225,544.26117
"3415",90.457924,544.27435
"3416",88.49256,544.2878
"3417",86.54917,544.30096
"3418",84.701,544.3144
"3419",83.00664,544.3276
"3420",81.52224,544.341
"3421",80.30396,544.3542
"3422",79.41772,544.3676
"3423",78.91234,544.3808
"3424",78.79759,544.3942
"3425",79.03441,544.4074
"3426",79.53002,544.42084
"3427",80.15259,544.434
"3428",80.76051,544.44745
"3429",81.231705,544.46063
"3430",81.47341,544.47406
"3431",81.444115,544.48724
"3432",81.13893,544.5007
"3433",80.58228,544.51385
"3434",79.823,544.5273
"3435",78.9099,544.54047
"3436",77.8967,544.5539
"3437",76.83711,544.5671
"3438",75.775085,544.5805
"3439",74.759445,544.5937
"3440",73.82437,544.6071
"3441",72.99428,544.6203
"3442",72.28138,544.6337
"3443",71.68566,544.6469
"3444",71.199814,544.66034
"3445",70.81407,544.6735
"3446",70.51621,544.68695
"3447",70.296486,544.70013
"3448",70.132904,544.71356
"3449",70.00595,544.72675
"3450",69.89365,544.7402
"3451",69.77646,544.75336
"3452",69.65926,544.7668
"3453",69.644615,544.77997
"3454",69.942474,544.7934
"3455",70.89708,544.8066
"3456",72.833145,544.82
"3457",75.87518,544.8332
"3458",79.83032,544.8466
"3459",84.210266,544.8598
"3460",88.3827,544.8732
"3461",91.77142,544.8864
"3462",94.03464,544.89984
"3463",95.13573,544.913
"3464",95.24315,544.92645
"3465",94.59861,544.93964
"3466",93.40475,544.95306
"3467",91.83246,544.96625
"3468",90.03067,544.9797
"3469",88.11902,544.99286
"3470",86.19028,545.0063
"3471",84.32014,545.0195
"3472",82.55985,545.0329
"3473",80.94362,545.0461
"3474",79.517815,545.0595
"3475",78.3386,545.0727
"3476",77.47921,545.0861
"3477",77.00557,545.0993
"3478",76.96651,545.11273
"3479",77.34249,545.1259
"3480",78.03586,545.13934
"3481",78.89281,545.1525
"3482",79.73754,545.16595
"3483",80.39918,545.17914
"3484",80.7483,545.19257
"3485",80.73365,545.20575
"3486",80.38453,545.2192
"3487",79.764404,545.23236
"3488",78.97093,545.2458
"3489",78.0798,545.259
"3490",77.14717,545.2724
"3491",76.19989,545.2856
"3492",75.267265,545.299
"3493",74.34684,545.3122
"3494",73.45815,545.3256
"3495",72.62806,545.3388
"3496",71.902954,545.35223
"3497",71.30724,545.3654
"3498",70.86778,545.37885
"3499",70.58701,545.392
"3500",70.452736,545.40546
"3501",70.433205,545.41864
"3502",70.47959,545.43207
"3503",70.54063,545.44525
"3504",70.58457,545.4587
"3505",70.59678,545.47186
"3506",70.6041,545.4853
"3507",70.694435,545.4985
"3508",71.06065,545.5119
"3509",71.98108,545.5251
"3510",73.73159,545.5385
"3511",76.42939,545.5517
"3512",79.93042,545.5651
"3513",83.83185,545.5783
"3514",87.59899,545.59174
"3515",90.72892,545.6049
"3516",92.90669,545.61835
"3517",94.063934,545.63153
"3518",94.327614,545.64496
"3519",93.89792,545.65814
"3520",92.95796,545.6716
"3521",91.65667,545.68475
"3522",90.11124,545.6982
"3523",88.411995,545.71136
"3524",86.63218,545.7248
"3525",84.8304,545.738
"3526",83.06523,545.7514
"3527",81.42214,545.7646
"3528",79.9939,545.778
"3529",78.8806,545.7912
"3530",78.16525,545.8046
"3531",77.891815,545.8178
"3532",78.05539,545.83124
"3533",78.59251,545.8444
"3534",79.39086,545.85785
"3535",80.30396,545.87103
"3536",81.16823,545.88446
"3537",81.83963,545.89764
"3538",82.21805,545.9111
"3539",82.26444,545.92426
"3540",81.986115,545.9377
"3541",81.42947,545.95087
"3542",80.655525,545.9643
"3543",79.73022,545.9775
"3544",78.712135,545.9909
"3545",77.662315,546.0041
"3546",76.6247,546.0175
"3547",75.63836,546.0307
"3548",74.73991,546.0441
"3549",73.953766,546.0573
"3550",73.29702,546.07074
"3551",72.77211,546.0839
"3552",72.38148,546.09735
"3553",72.11047,546.11053
"3554",71.93713,546.12396
"3555",71.84436,546.13715
"3556",71.800415,546.1506
"3557",71.80286,546.16376
"3558",71.85901,546.1772
"3559",72.03723,546.19037
"3560",72.50599,546.2038
"3561",73.5436,546.217
"3562",75.423515,546.2304
"3563",78.25315,546.2436
"3564",81.866486,546.257
"3565",85.84848,546.2702
"3566",89.652245,546.2836
"3567",92.7773,546.2968
"3568",94.923325,546.31024
"3569",96.04639,546.3234
"3570",96.290535,546.33685
"3571",95.84863,546.35004
"3572",94.8867,546.36346
"3573",93.55123,546.37665
"3574",91.97162,546.3901
"3575",90.24063,546.40326
"3576",88.44129,546.4167
"3577",86.64439,546.4299
"3578",84.90364,546.4433
"3579",83.28741,546.4565
"3580",81.87625,546.4699
"3581",80.76784,546.4831
"3582",80.04761,546.4965
"3583",79.764404,546.5097
"3584",79.906006,546.52313
"3585",80.38941,546.5363
"3586",81.075455,546.54974
"3587",81.80057,546.5629
"3588",82.41093,546.57635
"3589",82.794235,546.58954
"3590",82.879684,546.60297
"3591",82.65507,546.61615
"3592",82.144806,546.6296
"3593",81.39529,546.64276
"3594",80.45533,546.6562
"3595",79.38598,546.6694
"3596",78.24826,546.6828
"3597",77.100784,546.696
"3598",76.00702,546.7094
"3599",75.028,546.7226
"3600",74.20523,546.736
"3601",73.55337,546.7492
"3602",73.0724,546.76263
"3603",72.740364,546.7758
"3604",72.535286,546.78925
"3605",72.427864,546.8024
"3606",72.38148,546.81586
"3607",72.36439,546.82904
"3608",72.35218,546.84247
"3609",72.33021,546.85565
"3610",72.30335,546.8691
"3611",72.33753,546.88226
"3612",72.59144,546.8957
"3613",73.34829,546.9089
"3614",74.896164,546.9223
"3615",77.38155,546.9355
"3616",80.69215,546.9489
"3617",84.46906,546.9621
"3618",88.20691,546.9755
"3619",91.40276,546.9887
"3620",93.731895,547.00214
"3621",95.09422,547.0153
"3622",95.58495,547.02875
"3623",95.362785,547.04193
"3624",94.588844,547.05536
"3625",93.416954,547.06854
"3626",91.983826,547.082
"3627",90.41398,547.09515
"3628",88.7831,547.1086
"3629",87.15221,547.12177
"3630",85.557945,547.1352
"3631",84.054016,547.1484
"3632",82.69657,547.1618
"3633",81.56374,547.175
"3634",80.73853,547.1884
"3635",80.272224,547.2016
"3636",80.16968,547.215
"3637",80.36744,547.2282
"3638",80.75563,547.24164
"3639",81.197525,547.2548
"3640",81.57107,547.26825
"3641",81.778595,547.28143
"3642",81.761505,547.29486
"3643",81.50515,547.30804
"3644",81.01686,547.3215
"3645",80.32105,547.33466
"3646",79.449455,547.3481
"3647",78.44846,547.36127
"3648",77.36935,547.3747
"3649",76.265816,547.3879
"3650",75.176926,547.4013
"3651",74.15396,547.4145
"3652",73.22865,547.4279
"3653",72.42542,547.4411
"3654",71.75891,547.4545
"3655",71.24132,547.4677
"3656",70.87511,547.48114
"3657",70.65049,547.4943
"3658",70.55283,547.50775
"3659",70.56016,547.52094
"3660",70.643166,547.53436
"3661",70.77013,547.54755
"3662",70.89952,547.561
"3663",70.98741,547.57416
"3664",71.0045,547.5876
"3665",70.95079,547.60077
"3666",70.87999,547.6142
"3667",70.93858,547.6274
"3668",71.41955,547.6408
"3669",72.689095,547.654
"3670",74.9987,547.6674
"3671",78.3386,547.6806
"3672",82.4036,547.69403
"3673",86.6688,547.7072
"3674",90.5507,547.72064
"3675",93.59518,547.7338
"3676",95.606926,547.74725
"3677",96.63233,547.76044
"3678",96.82765,547.77386
"3679",96.36866,547.78705
"3680",95.42626,547.8005
"3681",94.151825,547.81366
"3682",92.696724,547.8271
"3683",91.175705,547.8403
"3684",89.66689,547.8537
"3685",88.21423,547.8669
"3686",86.82994,547.8803
"3687",85.51156,547.8935
"3688",84.281075,547.9069
"3689",83.175095,547.9201
"3690",82.25956,547.93353
"3691",81.59792,547.9467
"3692",81.214615,547.96014
"3693",81.08034,547.9733
"3694",81.12184,547.98676
"3695",81.22682,547.99994
"3696",81.290306,548.01337
"3697",81.22926,548.02655
"3698",80.98268,548.04
"3699",80.533455,548.05316
"3700",79.88159,548.0666
"3701",79.0515,548.0798
"3702",78.07736,548.0932
"3703",76.995804,548.1064
"3704",75.84589,548.1198
"3705",74.666664,548.133
"3706",73.494774,548.1464
"3707",72.376595,548.1596
"3708",71.35607,548.17303
"3709",70.467384,548.1862
"3710",69.74227,548.19965
"3711",69.190506,548.2128
"3712",68.79256,548.22626
"3713",68.541084,548.23944
"3714",68.40925,548.25287
"3715",68.39216,548.26605
"3716",68.46052,548.2795
"3717",68.59968,548.29266
"3718",68.78279,548.3061
"3719",68.97322,548.3193
"3720",69.136795,548.3327
"3721",69.239334,548.3459
"3722",69.261314,548.3593
"3723",69.18562,548.3725
"3724",69.02449,548.3859
"3725",68.83894,548.3991
"3726",68.77547,548.41254
"3727",69.14412,548.4257
"3728",70.37461,548.43915
"3729",72.84047,548.45233
"3730",76.63203,548.46576
"3731",81.446556,548.47894
"3732",86.67124,548.4924
"3733",91.56634,548.50555
"3734",95.501945,548.519
"3735",98.15335,548.53217
"3736",99.542534,548.5456
"3737",99.90631,548.5588
"3738",99.50591,548.5722
"3739",98.565956,548.5854
"3740",97.27932,548.5988
"3741",95.816895,548.612
"3742",94.3032,548.6254
"3743",92.83345,548.6386
"3744",91.45403,548.65204
"3745",90.15518,548.6652
"3746",88.90761,548.67865
"3747",87.67956,548.69183
"3748",86.468605,548.70526
"3749",85.29916,548.71844
"3750",84.23468,548.7319
"3751",83.346,548.74506
"3752",82.67704,548.7585
"3753",82.22293,548.77167
"3754",81.94217,548.7851
"3755",81.75906,548.7983
"3756",81.58572,548.8117
"3757",81.34402,548.8249
"3758",80.97536,548.8383
"3759",80.44068,548.8515
"3760",79.73998,548.8649
"3761",78.87572,548.8781
"3762",77.874725,548.89154
"3763",76.77852,548.9047
"3764",75.62859,548.91815
"3765",74.47135,548.93134
"3766",73.35317,548.94476
"3767",72.31068,548.95795
"3768",71.3756,548.9714
"3769",70.572365,548.98456
"3770",69.91806,548.998
"3771",69.41268,549.01117
"3772",69.05379,549.0246
"3773",68.82185,549.0378
"3774",68.697334,549.0512
"3775",68.65583,549.0644
"3776",68.665596,549.0778
"3777",68.7071,549.091
"3778",68.76082,549.10443
"3779",68.81453,549.1176
"3780",68.85359,549.13104
"3781",68.878006,549.1442
"3782",68.88045,549.15765
"3783",68.8658,549.17084
"3784",68.824295,549.18427
"3785",68.753494,549.19745
"3786",68.64362,549.2109
"3787",68.4947,549.22406
"3788",68.30671,549.2375
"3789",68.138245,549.2507
"3790",68.138245,549.2641
"3791",68.628975,549.2773
"3792",70.05234,549.2907
"3793",72.77211,549.3039
"3794",76.824905,549.3173
"3795",81.83475,549.3305
"3796",87.14244,549.34393
"3797",91.981384,549.3571
"3798",95.7412,549.37054
"3799",98.15823,549.3837
"3800",99.33257,549.39716
"3801",99.53521,549.41034
"3802",99.037155,549.42377
"3803",98.06546,549.43695
"3804",96.80568,549.4504
"3805",95.41894,549.46356
"3806",94.02487,549.477
"3807",92.71381,549.4902
"3808",91.51263,549.5036
"3809",90.40421,549.5168
"3810",89.32998,549.5302
"3811",88.25086,549.5434
"3812",87.14488,549.5568
"3813",86.03647,549.57
"3814",84.98421,549.58344
"3815",84.0589,549.5966
"3816",83.31426,549.61005
"3817",82.75273,549.6232
"3818",82.35233,549.63666
"3819",82.054474,549.64984
"3820",81.79324,549.66327
"3821",81.50515,549.67645
"3822",81.14137,549.6899
"3823",80.66285,549.70306
"3824",80.05493,549.7165
"3825",79.310295,549.7297
"3826",78.44358,549.7431
"3827",77.47921,549.7563
"3828",76.453804,549.7697
"3829",75.41131,549.7829
"3830",74.39567,549.7963
"3831",73.44106,549.8095
"3832",72.58167,549.82294
"3833",71.84436,549.8361
"3834",71.24376,549.84955
"3835",70.79454,549.86273
"3836",70.486916,549.87616
"3837",70.30137,549.88934
"3838",70.21103,549.9028
"3839",70.19638,549.91595
"3840",70.22812,549.9294
"3841",70.28672,549.94257
"3842",70.35264,549.956
"3843",70.41367,549.9692
"3844",70.450294,549.9826
"3845",70.46006,549.9958
"3846",70.44053,550.0092
"3847",70.38682,550.0224
"3848",70.30625,550.0358
"3849",70.20615,550.049
"3850",70.09384,550.06244
"3851",69.98154,550.0756
"3852",69.874115,550.08905
"3853",69.77402,550.10223
"3854",69.66659,550.11566
"3855",69.539635,550.12885
"3856",69.385826,550.1423
"3857",69.2198,550.15546
"3858",69.10506,550.1689
"3859",69.21492,550.18207
"3860",69.90341,550.1955
"3861",71.62707,550.2087
"3862",74.68131,550.2221
"3863",78.99779,550.2353
"3864",84.11505,550.2487
"3865",89.31289,550.2619
"3866",93.84421,550.2753
"3867",97.17189,550.2885
"3868",99.14702,550.30194
"3869",99.947815,550.3151
"3870",99.86969,550.32855
"3871",99.176315,550.34174
"3872",98.075226,550.35516
"3873",96.73487,550.36835
"3874",95.311516,550.3818
"3875",93.91501,550.39496
"3876",92.611275,550.4084
"3877",91.41985,550.4216
"3878",90.31876,550.435
"3879",89.27383,550.4482
"3880",88.24597,550.4616
"3881",87.22301,550.4748
"3882",86.22934,550.4882
"3883",85.30892,550.5014
"3884",84.51301,550.51483
"3885",83.88312,550.528
"3886",83.41924,550.54144
"3887",83.09941,550.5546
"3888",82.862595,550.56805
"3889",82.6453,550.58124
"3890",82.38163,550.59467
"3891",82.022736,550.60785
"3892",81.53445,550.6213
"3893",80.907,550.63446
"3894",80.15015,550.6479
"3895",79.273674,550.6611
"3896",78.3093,550.6745
"3897",77.298546,550.6877
"3898",76.280464,550.7011
"3899",75.301445,550.7143
"3900",74.40055,550.7277
"3901",73.61196,550.7409
"3902",72.952774,550.75433
"3903",72.430305,550.7675
"3904",72.042114,550.78094
"3905",71.77844,550.7941
"3906",71.622185,550.80756
"3907",71.54894,550.82074
"3908",71.534294,550.83417
"3909",71.553825,550.84735
"3910",71.57824,550.8608
"3911",71.588005,550.87396
"3912",71.57824,550.8874
"3913",71.534294,550.9006
"3914",71.448845,550.914
"3915",71.32433,550.9272
"3916",71.15831,550.9406
"3917",70.95323,550.9538
"3918",70.72617,550.9672
"3919",70.4918,550.9804
"3920",70.27207,550.99384
"3921",70.07187,551.007
"3922",69.88632,551.02045
"3923",69.70321,551.0336
"3924",69.52987,551.04706
"3925",69.366295,551.06024
"3926",69.21736,551.07367
"3927",69.085526,551.08685
"3928",68.980545,551.1003
"3929",68.9073,551.11346
"3930",68.929276,551.1269
"3931",69.222244,551.1401
"3932",70.15488,551.1535
"3933",72.183716,551.1667
"3934",75.5993,551.1801
"3935",80.272224,551.1933
"3936",85.67269,551.2067
"3937",91.03899,551.2199
"3938",95.604485,551.23334
"3939",98.85161,551.2465
"3940",100.68513,551.25995
"3941",101.337,551.27313
"3942",101.136795,551.28656
"3943",100.34577,551.29974
"3944",99.16655,551.3132
"3945",97.76517,551.32635
"3946",96.28809,551.3398
"3947",94.837875,551.35297
"3948",93.47555,551.3664
"3949",92.22064,551.3796
"3950",91.04875,551.393
"3951",89.918365,551.4062
"3952",88.80507,551.4196
"3953",87.708855,551.4328
"3954",86.661476,551.4462
"3955",85.71908,551.4594
"3956",84.928055,551.47284
"3957",84.32014,551.486
"3958",83.89044,551.49945
"3959",83.59991,551.51263
"3960",83.39483,551.52606
"3961",83.20195,551.53925
"3962",82.95537,551.5527
"3963",82.598915,551.56586
"3964",82.09598,551.5793
"3965",81.42947,551.59247
"3966",80.60914,551.6059
"3967",79.64721,551.6191
"3968",78.56809,551.6325
"3969",77.40841,551.6457
"3970",76.20233,551.6591
"3971",75.00847,551.6723
"3972",73.89273,551.6857
"3973",72.91127,551.6989
"3974",72.10559,551.71234
"3975",71.49035,551.7255
"3976",71.05333,551.73895
"3977",70.76036,551.75214
"3978",70.57725,551.76556
"3979",70.47471,551.77875
"3980",70.433205,551.7922
"3981",70.42344,551.80536
"3982",70.421,551.8188
"3983",70.40879,551.832
"3984",70.37461,551.8454
"3985",70.31602,551.8586
"3986",70.24521,551.872
"3987",70.16464,551.8852
"3988",70.07187,551.8986
"3989",69.96689,551.9118
"3990",69.8497,551.92523
"3991",69.730064,551.9384
"3992",69.61776,551.95184
"3993",69.52499,551.965
"3994",69.46395,551.97845
"3995",69.42977,551.99164
"3996",69.42733,552.00507
"3997",69.45663,552.01825
"3998",69.5201,552.0317
"3999",69.60311,552.04486
"4000",69.68124,552.0583
"4001",69.732506,552.0715
"4002",69.73739,552.0849
"4003",69.695885,552.0981
"4004",69.68368,552.1115
"4005",69.90341,552.1247
"4006",70.76524,552.1381
"4007",72.82582,552.1513
"4008",76.50019,552.16473
"4009",81.74441,552.1779
"4010",87.9823,552.19135
"4011",94.293434,552.2045
"4012",99.72076,552.21796
"4013",103.57336,552.23114
"4014",105.651024,552.24457
"4015",106.22232,552.25775
"4016",105.73403,552.2712
"4017",104.5597,552.28436
"4018",102.95323,552.2978
"4019",101.10506,552.311
"4020",99.173874,552.3244
"4021",97.27932,552.3376
"4022",95.50927,552.351
"4023",93.890594,552.3642
"4024",92.40864,552.3776
"4025",91.02922,552.3908
"4026",89.720604,552.40424
"4027",88.47791,552.4174
"4028",87.34264,552.43085
"4029",86.37583,552.44403
"4030",85.628746,552.45746
"4031",85.12337,552.47064
"4032",84.8304,552.4841
"4033",84.67414,552.49725
"4034",84.559395,552.5107
"4035",84.39338,552.52386
"4036",84.09064,552.5373
"4037",83.60723,552.5505
"4038",82.92119,552.5639
"4039",82.039825,552.5771
"4040",80.990005,552.5905
"4041",79.80591,552.6037
"4042",78.52903,552.6171
"4043",77.21553,552.6303
"4044",75.90936,552.64374
"4045",74.6569,552.6569
"4046",73.5021,552.67035
"4047",72.47913,552.68353
"4048",71.605095,552.69696
"4049",70.9044,552.71014
"4050",70.38926,552.7236
"4051",70.04501,552.73676
"4052",69.84482,552.7502
"4053",69.76181,552.76337
"4054",69.76425,552.7768
"4055",69.81552,552.79
"4056",69.88876,552.8034
"4057",69.95712,552.8166
"4058",70.00839,552.83
"4059",70.02792,552.8432
"4060",70.00839,552.8566
"4061",69.95224,552.8698
"4062",69.87167,552.88324
"4063",69.78134,552.8964
"4064",69.691,552.90985
"4065",69.610435,552.92303
"4066",69.54696,552.93646
"4067",69.50057,552.94965
"4068",69.46639,552.9631
"4069",69.44442,552.97626
"4070",69.43221,552.9897
"4071",69.43954,553.00287
"4072",69.47616,553.0163
"4073",69.54696,553.0295
"4074",69.644615,553.0429
"4075",69.749596,553.0561
"4076",69.84238,553.0695
"4077",69.89609,553.0827
"4078",69.90341,553.0961
"4079",69.86679,553.1093
"4080",69.822845,553.12274
"4081",69.86435,553.1359
"4082",70.22812,553.14935
"4083",71.33654,553.16254
"4084",73.72671,553.17596
"4085",77.74044,553.18915
"4086",83.23369,553.2026
"4087",89.55703,553.21576
"4088",95.76074,553.2292
"4089",100.92439,553.2424
"4090",104.42542,553.2558
"4091",106.158844,553.269
"4092",106.43961,553.2824
"4093",105.721825,553.2956
"4094",104.34486,553.309
"4095",102.54551,553.3222
"4096",100.506905,553.33563
"4097",98.3682,553.3488
"4098",96.24414,553.36224
"4099",94.2153,553.3754
"4100",92.32075,553.38885
"4101",90.56046,553.40204
"4102",88.936905,553.41547
"4103",87.45983,553.42865
"4104",86.170746,553.4421
"4105",85.12825,553.45526
"4106",84.39582,553.4687
"4107",84.000305,553.4819
"4108",83.914856,553.4953
"4109",84.04425,553.5085
"4110",84.26887,553.5219
"4111",84.46418,553.5351
"4112",84.505684,553.5485
"4113",84.31281,553.5617
"4114",83.83429,553.57513
"4115",83.06279,553.5883
"4116",82.01541,553.60175
"4117",80.73609,553.6149
"4118",79.281,553.62836
"4119",77.733116,553.64154
"4120",76.16571,553.65497
"4121",74.64713,553.66815
"4122",73.2433,553.6816
"4123",72.00061,553.69476
"4124",70.94835,553.7082
"4125",70.09628,553.7214
"4126",69.44686,553.7348
"4127",68.997635,553.748
"4128",68.72175,553.7614
"4129",68.592354,553.7746
"4130",68.58259,553.788
"4131",68.66071,553.8012
"4132",68.795,553.81464
"4133",68.96101,553.8278
"4134",69.149,553.84125
"4135",69.33944,553.85443
"4136",69.51766,553.86786
"4137",69.67147,553.88104
"4138",69.79111,553.8945
"4139",69.87167,553.90765
"4140",69.90341,553.9211
"4141",69.891205,553.93427
"4142",69.84482,553.9477
"4143",69.77402,553.9609
"4144",69.68368,553.9743
"4145",69.58358,553.9875
"4146",69.48348,554.0009
"4147",69.39071,554.0141
"4148",69.32235,554.0275
"4149",69.28817,554.0407
"4150",69.297935,554.05414
"4151",69.34676,554.0673
"4152",69.42489,554.08075
"4153",69.5201,554.09393
"4154",69.61532,554.10736
"4155",69.68856,554.12054
"4156",69.747154,554.134
"4157",69.81796,554.14716
"4158",70.00107,554.1606
"4159",70.58213,554.17377
"4160",72.06653,554.1872
"4161",75.037766,554.2004
"4162",79.85962,554.2138
"4163",86.346535,554.227
"4164",93.746544,554.2404
"4165",100.94881,554.2536
"4166",106.879074,554.267
"4167",110.84642,554.2802
"4168",112.73121,554.29364
"4169",112.89235,554.3068
"4170",111.85962,554.32025
"4171",110.07492,554.33344
"4172",107.81903,554.34686
"4173",105.289696,554.36005
"4174",102.65537,554.3735
"4175",100.04303,554.38666
"4176",97.5552,554.4001
"4177",95.25536,554.41327
"4178",93.15816,554.4267
"4179",91.246506,554.4399
"4180",89.50576,554.4533
"4181",87.940796,554.4665
"4182",86.58335,554.4799
"4183",85.49203,554.4931
"4184",84.698555,554.50653
"4185",84.2005,554.5197
"4186",83.949036,554.53314
"4187",83.8587,554.5463
"4188",83.81476,554.55975
"4189",83.70489,554.57294
"4190",83.438774,554.58636
"4191",82.9456,554.59955
"4192",82.19852,554.613
"4193",81.20241,554.62616
"4194",79.974365,554.6396
"4195",78.551,554.6528
"4196",76.9836,554.6662
"4197",75.34051,554.6794
"4198",73.69253,554.6928
"4199",72.112915,554.706
"4200",70.67002,554.7194
"4201",69.402916,554.7326
"4202",68.333565,554.74603
"4203",67.476616,554.7592
"4204",66.81987,554.77264
"4205",66.35355,554.7858
"4206",66.055695,554.79926
"4207",65.90921,554.81244
"4208",65.89212,554.82587
"4209",65.98001,554.83905
"4210",66.14847,554.8525
"4211",66.37797,554.86566
"4212",66.648964,554.8791
"4213",66.932175,554.8923
"4214",67.2227,554.9057
"4215",67.51324,554.9189
"4216",67.791565,554.9323
"4217",68.06256,554.9455
"4218",68.31892,554.9589
"4219",68.56306,554.9721
"4220",68.787674,554.98553
"4221",69.00496,554.9987
"4222",69.21736,555.01215
"4223",69.43221,555.0253
"4224",69.65438,555.03876
"4225",69.88632,555.05194
"4226",70.12558,555.06537
"4227",70.36729,555.07855
"4228",70.61143,555.092
"4229",70.85069,555.10516
"4230",71.06798,555.1186
"4231",71.25109,555.1318
"4232",71.39025,555.1452
"4233",71.49767,555.1584
"4234",71.63683,555.1718
"4235",71.993286,555.185
"4236",72.97963,555.1984
"4237",75.18181,555.2116
"4238",79.11253,555.22504
"4239",84.86946,555.2382
"4240",91.97406,555.25165
"4241",99.44732,555.26483
"4242",106.12222,555.27826
"4243",111.05882,555.29144
"4244",113.83963,555.3049
"4245",114.616005,555.31805
"4246",113.87381,555.3315
"4247",112.1355,555.34467
"4248",109.79416,555.3581
"4249",107.0988,555.3713
"4250",104.22766,555.3847
"4251",101.32479,555.3979
"4252",98.50492,555.4113
"4253",95.84863,555.4245
"4254",93.39498,555.4379
"4255",91.16106,555.4511
"4256",89.15663,555.46454
"4257",87.39391,555.4777
"4258",85.91928,555.49115
"4259",84.78157,555.50433
"4260",84.02228,555.51776
"4261",83.63897,555.53094
"4262",83.57549,555.5444
"4263",83.7293,555.55756
"4264",83.96857,555.571
"4265",84.15411,555.58417
"4266",84.16876,555.5976
"4267",83.93927,555.6108
"4268",83.4168,555.6242
"4269",82.61112,555.6374
"4270",81.549095,555.6508
"4271",80.289314,555.664
"4272",78.890366,555.6774
"4273",77.418175,555.6906
"4274",75.945984,555.70404
"4275",74.53483,555.7172
"4276",73.233536,555.73065
"4277",72.07385,555.74384
"4278",71.080185,555.75726
"4279",70.24521,555.77045
"4280",69.57137,555.7839
"4281",69.05623,555.79706
"4282",68.70466,555.8105
"4283",68.50446,555.82367
"4284",68.44343,555.8371
"4285",68.49714,555.8503
"4286",68.63142,555.8637
"4287",68.80965,555.8769
"4288",69.00252,555.8903
"4289",69.190506,555.9035
"4290",69.37118,555.91693
"4291",69.542076,555.9301
"4292",69.70321,555.94354
"4293",69.85214,555.9567
"4294",69.9913,555.97015
"4295",70.11093,555.98334
"4296",70.21347,555.99677
"4297",70.30625,556.00995
"4298",70.3917,556.0234
"4299",70.469826,556.03656
"4300",70.538185,556.05
"4301",70.589455,556.0632
"4302",70.623634,556.0766
"4303",70.64805,556.0898
"4304",70.67979,556.1032
"4305",70.7335,556.1164
"4306",70.81651,556.1298
"4307",70.91417,556.143
"4308",71.01671,556.15643
"4309",71.11192,556.1696
"4310",71.26086,556.18304
"4311",71.673454,556.1962
"4312",72.80141,556.20966
"4313",75.23064,556.22284
"4314",79.42504,556.23627
"4315",85.34554,556.24945
"4316",92.37202,556.2629
"4317",99.46685,556.27606
"4318",105.548485,556.2895
"4319",109.83566,556.3027
"4320",112.096436,556.3161
"4321",112.6067,556.3293
"4322",111.87915,556.3427
"4323",110.365456,556.3559
"4324",108.35615,556.3693
"4325",106.05386,556.3825
"4326",103.61974,556.39594
"4327",101.188065,556.4091
"4328",98.861374,556.42255
"4329",96.70313,556.4357
"4330",94.74021,556.44916
"4331",92.95308,556.46234
"4332",91.317314,556.47577
"4333",89.80606,556.48895
"4334",88.4242,556.5024
"4335",87.186386,556.51556
"4336",86.1268,556.529
"4337",85.26498,556.5422
"4338",84.6009,556.5556
"4339",84.09796,556.5688
"4340",83.700005,556.5822
"4341",83.33379,556.5954
"4342",82.93584,556.6088
"4343",82.442665,556.622
"4344",81.81766,556.63544
"4345",81.0486,556.6486
"4346",80.13794,556.66205
"4347",79.10521,556.67523
"4348",77.979706,556.68866
"4349",76.788284,556.70184
"4350",75.56512,556.7153
"4351",74.34196,556.72845
"4352",73.1432,556.7419
"4353",71.99573,556.75507
"4354",70.92149,556.7685
"4355",69.94736,556.7817
"4356",69.09041,556.7951
"4357",68.36042,556.8083
"4358",67.76227,556.8217
"4359",67.28619,556.8349
"4360",66.91753,556.8483
"4361",66.64652,556.8615
"4362",66.458534,556.87494
"4363",66.35111,556.8881
"4364",66.30717,556.90155
"4365",66.321815,556.91473
"4366",66.373085,556.92816
"4367",66.44633,556.94135
"4368",66.53178,556.9548
"4369",66.617226,556.96796
"4370",66.702675,556.9814
"4371",66.79057,556.99457
"4372",66.87602,557.008
"4373",66.95903,557.0212
"4374",67.04204,557.0346
"4375",67.12749,557.0478
"4376",67.22026,557.0612
"4377",67.32281,557.0744
"4378",67.43023,557.0878
"4379",67.54986,557.101
"4380",67.67681,557.11444
"4381",67.80621,557.1276
"4382",67.9234,557.14105
"4383",68.0235,557.15424
"4384",68.09918,557.16766
"4385",68.172424,557.18085
"4386",68.353096,557.1943
"4387",68.89998,557.20746
"4388",70.26719,557.2209
"4389",72.97719,557.2341
"4390",77.38644,557.2475
"4391",83.370415,557.2607
"4392",90.26505,557.2741
"4393",97.06447,557.2873
"4394",102.75548,557.3007
"4395",106.63981,557.3139
"4396",108.53681,557.32733
"4397",108.7248,557.3405
"4398",107.69207,557.35394
"4399",105.8732,557.3671
"4400",103.568474,557.38055
"4401",100.97566,557.39374
"4402",98.253456,557.40717
"4403",95.519035,557.42035
"4404",92.874954,557.4338
"4405",90.3798,557.44696
"4406",88.079956,557.4604
"4407",85.99985,557.4736
"4408",84.16876,557.487
"4409",82.61112,557.5002
"4410",81.38552,557.5136
"4411",80.53101,557.5268
"4412",80.07202,557.5402
"4413",79.9939,557.5534
"4414",80.23804,557.56683
"4415",80.69703,557.58
"4416",81.24147,557.59344
"4417",81.72488,557.6066
"4418",82.01297,557.62006
"4419",82.01541,557.63324
"4420",81.69802,557.64667
"4421",81.06569,557.65985
"4422",80.164795,557.6733
"4423",79.04906,557.68646
"4424",77.79416,557.6999
"4425",76.45136,557.7131
"4426",75.0695,557.7265
"4427",73.69985,557.7397
"4428",72.38636,557.7531
"4429",71.16075,557.7663
"4430",70.05722,557.7797
"4431",69.100174,557.7929
"4432",68.31403,557.80634
"4433",67.70611,557.8195
"4434",67.2691,557.83295
"4435",66.98833,557.8461
"4436",66.844284,557.85956
"4437",66.810104,557.87274
"4438",66.87114,557.88617
"4439",67.002975,557.89935
"4440",67.18608,557.9128
"4441",67.405815,557.92596
"4442",67.649956,557.9394
"4443",67.90875,557.9526
"4444",68.18219,557.966
"4445",68.47761,557.9792
"4446",68.78035,557.9926
"4447",69.08797,558.0058
"4448",69.3785,558.0192
"4449",69.63973,558.0324
"4450",69.86191,558.04584
"4451",70.04257,558.059
"4452",70.18417,558.07245
"4453",70.328224,558.08563
"4454",70.56504,558.09906
"4455",71.10948,558.11224
"4456",72.38392,558.1257
"4457",74.94499,558.13885
"4458",79.202866,558.1523
"4459",85.155106,558.16547
"4460",92.24017,558.1789
"4461",99.48394,558.1921
"4462",105.78531,558.2055
"4463",110.29954,558.2187
"4464",112.69947,558.2321
"4465",113.17067,558.2453
"4466",112.17456,558.2587
"4467",110.19211,558.2719
"4468",107.59441,558.28534
"4469",104.63294,558.2985
"4470",101.49081,558.31195
"4471",98.32426,558.32513
"4472",95.25048,558.33856
"4473",92.35493,558.35175
"4474",89.68398,558.3652
"4475",87.26208,558.37836
"4476",85.09895,558.3918
"4477",83.22148,558.40497
"4478",81.66628,558.4184
"4479",80.49195,558.4316
"4480",79.73266,558.445
"4481",79.38842,558.4582
"4482",79.415276,558.4716
"4483",79.72289,558.4848
"4484",80.184326,558.4982
"4485",80.65797,558.5114
"4486",80.99977,558.52484
"4487",81.10719,558.538
"4488",80.90944,558.55145
"4489",80.394295,558.56464
"4490",79.57885,558.57806
"4491",78.51682,558.59125
"4492",77.27169,558.6047
"4493",75.90936,558.61786
"4494",74.495766,558.6313
"4495",73.09682,558.6445
"4496",71.76135,558.6579
"4497",70.54063,558.6711
"4498",69.46395,558.6845
"4499",68.54597,558.6977
"4500",67.79401,558.7111
"4501",67.210495,558.7243
"4502",66.78813,558.73773
"4503",66.512245,558.7509
"4504",66.373085,558.76434
"4505",66.35355,558.7775
"4506",66.439,558.79095
"4507",66.60746,558.80414
"4508",66.84184,558.81757
"4509",67.122604,558.83075
"4510",67.44244,558.8442
"4511",67.78668,558.85736
"4512",68.14313,558.8708
"4513",68.49958,558.884
"4514",68.841385,558.8974
"4515",69.15633,558.9106
"4516",69.434654,558.924
"4517",69.67391,558.9372
"4518",69.90585,558.9506
"4519",70.22812,558.9638
"4520",70.86046,558.97723
"4521",72.22034,558.9904
"4522",74.85466,559.00385
"4523",79.149155,559.017
"4524",85.050125,559.03046
"4525",91.98871,559.04364
"4526",99.017624,559.05707
"4527",105.074844,559.07025
"4528",109.35226,559.0837
"4529",111.554436,559.09686
"4530",111.86694,559.1103
"4531",110.72678,559.1235
"4532",108.575874,559.1369
"4533",105.795074,559.1501
"4534",102.63584,559.1635
"4535",99.28863,559.1767
"4536",95.91211,559.1901
"4537",92.63325,559.2033
"4538",89.54238,559.21674
"4539",86.70298,559.2299
"4540",84.173645,559.24335
"4541",81.99344,559.25653
"4542",80.22095,559.26996
"4543",78.90257,559.28314
"4544",78.07248,559.2966
"4545",77.738,559.30975
"4546",77.86008,559.3232
"4547",78.348366,559.33636
"4548",79.07347,559.3498
"4549",79.87671,559.363
"4550",80.59205,559.3764
"4551",81.06813,559.3896
"4552",81.20973,559.403
"4553",80.98268,559.4162
"4554",80.39918,559.4296
"4555",79.51537,559.4428
"4556",78.40696,559.45624
"4557",77.154495,559.4694
"4558",75.81903,559.48285
