"","ppg","time"
"1",85.16487,754.903
"2",87.90662,754.91644
"3",89.881744,754.9296
"4",90.968185,754.94305
"5",91.24895,754.95624
"6",90.90227,754.96967
"7",90.09903,754.98285
"8",88.9955,754.9963
"9",87.743034,755.00946
"10",86.46128,755.0229
"11",85.243,755.0361
"12",84.137024,755.0495
"13",83.15312,755.0627
"14",82.286415,755.0761
"15",81.53445,755.0893
"16",80.907,755.1027
"17",80.44312,755.1159
"18",80.177,755.12933
"19",80.111084,755.1425
"20",80.22339,755.15594
"21",80.43824,755.1691
"22",80.67017,755.18256
"23",80.833755,755.19574
"24",80.87038,755.20917
"25",80.74586,755.22235
"26",80.45533,755.2358
"27",80.01343,755.24896
"28",79.449455,755.2624
"29",78.79515,755.2756
"30",78.0798,755.289
"31",77.34249,755.3022
"32",76.61494,755.3156
"33",75.93378,755.3288
"34",75.33318,755.3422
"35",74.83757,755.3554
"36",74.459145,755.36884
"37",74.195465,755.382
"38",74.03189,755.39545
"39",73.94644,755.4086
"40",73.92691,755.42206
"41",73.951324,755.43524
"42",74.002594,755.44867
"43",74.073395,755.46185
"44",74.14908,755.4753
"45",74.212555,755.48846
"46",74.24185,755.5019
"47",74.22232,755.5151
"48",74.144196,755.5285
"49",74.00015,755.5417
"50",73.79263,755.5551
"51",73.54604,755.5683
"52",73.3019,755.5817
"53",73.15053,755.5949
"54",73.26528,755.60834
"55",73.934235,755.6215
"56",75.44793,755.63495
"57",77.90402,755.64813
"58",81.109634,755.66156
"59",84.6424,755.67474
"60",87.97009,755.6882
"61",90.58732,755.70135
"62",92.21576,755.7148
"63",92.86519,755.72797
"64",92.7187,755.7414
"65",92.000916,755.7546
"66",90.89494,755.768
"67",89.564354,755.7812
"68",88.148315,755.7946
"69",86.7567,755.8078
"70",85.45541,755.8212
"71",84.281075,755.8344
"72",83.245895,755.84784
"73",82.34989,755.861
"74",81.60525,755.87445
"75",81.03151,755.88763
"76",80.66529,755.90106
"77",80.52857,755.91425
"78",80.604256,755.9277
"79",80.831314,755.94086
"80",81.12428,755.9543
"81",81.38308,755.96747
"82",81.52712,755.9809
"83",81.50271,755.9941
"84",81.29519,756.0075
"85",80.90944,756.0207
"86",80.37476,756.0341
"87",79.727776,756.0473
"88",78.995346,756.0607
"89",78.21652,756.0739
"90",77.42794,756.08734
"91",76.66865,756.1005
"92",75.97772,756.11395
"93",75.389336,756.12714
"94",74.915695,756.14056
"95",74.56901,756.15375
"96",74.339516,756.1672
"97",74.21011,756.18036
"98",74.1564,756.1938
"99",74.1564,756.207
"100",74.18814,756.2204
"101",74.232086,756.2336
"102",74.285805,756.247
"103",74.3444,756.2602
"104",74.40543,756.2736
"105",74.46647,756.2868
"106",74.52262,756.30023
"107",74.56657,756.3134
"108",74.58854,756.32684
"109",74.581215,756.34
"110",74.53239,756.35345
"111",74.444496,756.36664
"112",74.322426,756.38007
"113",74.20035,756.39325
"114",74.15152,756.4067
"115",74.35172,756.41986
"116",75.10124,756.4333
"117",76.71259,756.4465
"118",79.30541,756.4599
"119",82.72343,756.4731
"120",86.5687,756.4865
"121",90.304115,756.4997
"122",93.41207,756.5131
"123",95.57519,756.5263
"124",96.75441,756.53973
"125",97.08156,756.5529
"126",96.73975,756.56635
"127",95.90723,756.5795
"128",94.747536,756.59296
"129",93.419395,756.60614
"130",92.05951,756.61957
"131",90.75578,756.63275
"132",89.564354,756.6462
"133",88.514534,756.65936
"134",87.61608,756.6728
"135",86.873886,756.686
"136",86.27085,756.6994
"137",85.79477,756.7126
"138",85.41634,756.726
"139",85.08186,756.7392
"140",84.72541,756.7526
"141",84.29328,756.7658
"142",83.74883,756.77924
"143",83.08232,756.7924
"144",82.29862,756.80585
"145",81.41482,756.81903
"146",80.462654,756.83246
"147",79.466545,756.84564
"148",78.45335,756.8591
"149",77.44747,756.87225
"150",76.470894,756.8857
"151",75.545586,756.89886
"152",74.69352,756.9123
"153",73.92935,756.9255
"154",73.272606,756.9389
"155",72.75258,756.9521
"156",72.38392,756.9655
"157",72.198364,756.9787
"158",72.20569,756.9921
"159",72.39857,757.0053
"160",72.75014,757.01874
"161",73.196915,757.0319
"162",73.66567,757.04535
"163",74.075836,757.05853
"164",74.36149,757.07196
"165",74.476234,757.08514
"166",74.40055,757.0986
"167",74.12955,757.11176
"168",73.6852,757.1252
"169",73.1017,757.13837
"170",72.42542,757.1518
"171",71.70275,757.165
"172",70.98741,757.1784
"173",70.3209,757.1916
"174",69.732506,757.205
"175",69.24422,757.2182
"176",68.892654,757.2316
"177",68.73884,757.2448
"178",68.909744,757.25824
"179",69.65194,757.2714
"180",71.28771,757.28485
"181",74.01236,757.29803
"182",77.7087,757.31146
"183",81.93973,757.32465
"184",86.080414,757.3381
"185",89.49355,757.35126
"186",91.74456,757.3647
"187",92.74311,757.37787
"188",92.6894,757.3913
"189",91.89349,757.4045
"190",90.60197,757.4179
"191",88.99794,757.4311
"192",87.235214,757.4445
"193",85.4432,757.4577
"194",83.734184,757.4711
"195",82.178986,757.4843
"196",80.82887,757.49774
"197",79.7058,757.5109
"198",78.82201,757.52435
"199",78.18967,757.53754
"200",77.84299,757.55096
"201",77.80881,757.56415
"202",78.082245,757.5776
"203",78.607155,757.59076
"204",79.28344,757.6042
"205",79.97681,757.6174
"206",80.56519,757.6308
"207",80.94362,757.644
"208",81.05592,757.6574
"209",80.907,757.6706
"210",80.52369,757.684
"211",79.94995,757.6972
"212",79.22728,757.71063
"213",78.41428,757.7238
"214",77.557335,757.73724
"215",76.70283,757.7504
"216",75.88983,757.76385
"217",75.157394,757.77704
"218",74.529945,757.79047
"219",74.01724,757.80365
"220",73.62417,757.8171
"221",73.34585,757.83026
"222",73.16762,757.8437
"223",73.08217,757.8569
"224",73.07973,757.8703
"225",73.14076,757.8835
"226",73.253075,757.8969
"227",73.39956,757.9101
"228",73.55825,757.9235
"229",73.721825,757.9367
"230",73.87808,757.95013
"231",74.00992,757.9633
"232",74.11246,757.97675
"233",74.17349,757.9899
"234",74.178375,758.00336
"235",74.11246,758.01654
"236",73.987946,758.02997
"237",73.829254,758.04315
"238",73.70229,758.0566
"239",73.75357,758.06976
"240",74.27604,758.0832
"241",75.65789,758.0964
"242",78.17502,758.1098
"243",81.77371,758.123
"244",86.046234,758.1364
"245",90.34318,758.1496
"246",93.97604,758.163
"247",96.4419,758.1762
"248",97.60403,758.18964
"249",97.652855,758.2028
"250",96.9131,758.21625
"251",95.66308,758.22943
"252",94.10544,758.24286
"253",92.39887,758.25604
"254",90.66544,758.2695
"255",89.007706,758.28265
"256",87.50622,758.2961
"257",86.187836,758.30927
"258",85.05745,758.3227
"259",84.1004,758.3359
"260",83.3167,758.3493
"261",82.701454,758.3625
"262",82.27909,758.3759
"263",82.05936,758.3891
"264",82.039825,758.4025
"265",82.161896,758.4157
"266",82.34745,758.42914
"267",82.513466,758.4423
"268",82.58427,758.45575
"269",82.5037,758.46893
"270",82.247345,758.48236
"271",81.815216,758.49554
"272",81.22438,758.509
"273",80.50416,758.52216
"274",79.68871,758.5356
"275",78.81224,758.54877
"276",77.91135,758.5622
"277",77.032425,758.5754
"278",76.20477,758.5888
"279",75.46746,758.602
"280",74.844894,758.6154
"281",74.34928,758.6286
"282",73.97818,758.642
"283",73.721825,758.6552
"284",73.56069,758.66864
"285",73.480125,758.6818
"286",73.46548,758.69525
"287",73.50454,758.70844
"288",73.58022,758.72186
"289",73.68032,758.73505
"290",73.79019,758.7485
"291",73.89517,758.76166
"292",73.97818,758.7751
"293",74.02457,758.78827
"294",74.02701,758.8017
"295",73.970856,758.8149
"296",73.85855,758.8283
"297",73.70229,758.8415
"298",73.5436,758.8549
"299",73.463036,758.8681
"300",73.66323,758.88153
"301",74.46647,758.8947
"302",76.20477,758.90814
"303",78.995346,758.9213
"304",82.62333,758.93475
"305",86.60288,758.94794
"306",90.30656,758.96136
"307",93.170364,758.97455
"308",94.89159,758.988
"309",95.49218,759.00116
"310",95.21385,759.0146
"311",94.31785,759.0278
"312",93.016556,759.0412
"313",91.476006,759.0544
"314",89.83536,759.0678
"315",88.21179,759.081
"316",86.693214,759.0944
"317",85.33578,759.1076
"318",84.14923,759.12103
"319",83.13359,759.1342
"320",82.28153,759.14764
"321",81.600365,759.1608
"322",81.10719,759.17426
"323",80.82887,759.18744
"324",80.76784,759.20087
"325",80.88014,759.21405
"326",81.09987,759.2275
"327",81.341576,759.24066
"328",81.529564,759.2541
"329",81.59304,759.2673
"330",81.4905,759.2807
"331",81.214615,759.2939
"332",80.77028,759.3073
"333",80.177,759.3205
"334",79.47143,759.3339
"335",78.68772,759.3471
"336",77.86252,759.36053
"337",77.02998,759.3737
"338",76.22919,759.38715
"339",75.49676,759.4003
"340",74.8571,759.41376
"341",74.337074,759.42694
"342",73.944,759.44037
"343",73.673,759.45355
"344",73.514305,759.467
"345",73.445946,759.48016
"346",73.45083,759.4936
"347",73.51186,759.5068
"348",73.60708,759.5202
"349",73.724266,759.5334
"350",73.846344,759.5468
"351",73.96597,759.56
"352",74.06607,759.5734
"353",74.13931,759.5866
"354",74.17349,759.60004
"355",74.161285,759.6132
"356",74.092926,759.62665
"357",73.9733,759.63983
"358",73.812164,759.65326
"359",73.64858,759.66644
"360",73.58022,759.6799
"361",73.79996,759.69305
"362",74.62272,759.7065
"363",76.34638,759.71967
"364",79.05882,759.7331
"365",82.530556,759.7463
"366",86.27329,759.7597
"367",89.69619,759.7729
"368",92.281685,759.7863
"369",93.76364,759.7995
"370",94.188446,759.8129
"371",93.788055,759.8261
"372",92.82124,759.83954
"373",91.48089,759.8527
"374",89.933014,759.86615
"375",88.307014,759.87933
"376",86.71519,759.89276
"377",85.23811,759.90594
"378",83.929504,759.9194
"379",82.804,759.93256
"380",81.866486,759.946
"381",81.12428,759.95917
"382",80.584724,759.9726
"383",80.26978,759.9858
"384",80.18921,759.9992
"385",80.323494,760.0124
"386",80.618904,760.0258
"387",80.98512,760.039
"388",81.32693,760.0524
"389",81.56863,760.0656
"390",81.651634,760.07904
"391",81.54421,760.0922
"392",81.248795,760.10565
"393",80.78493,760.11884
"394",80.184326,760.13226
"395",79.48119,760.14545
"396",78.71702,760.1589
"397",77.925995,760.17206
"398",77.152054,760.1855
"399",76.42695,760.19867
"400",75.78485,760.2121
"401",75.245285,760.2253
"402",74.82536,760.2387
"403",74.52506,760.2519
"404",74.337074,760.2653
"405",74.24429,760.2785
"406",74.2272,760.29193
"407",74.26139,760.3051
"408",74.33219,760.31854
"409",74.42252,760.3317
"410",74.5153,760.34515
"411",74.60807,760.35834
"412",74.69108,760.37177
"413",74.757,760.38495
"414",74.79851,760.3984
"415",74.80339,760.41156
"416",74.76677,760.425
"417",74.67643,760.4382
"418",74.53239,760.4516
"419",74.34928,760.4648
"420",74.16373,760.4782
"421",74.075836,760.4914
"422",74.28092,760.5048
"423",75.0695,760.518
"424",76.70283,760.53143
"425",79.22972,760.5446
"426",82.41337,760.55804
"427",85.79721,760.5712
"428",88.84657,760.58466
"429",91.104904,760.59784
"430",92.367134,760.61127
"431",92.69184,760.62445
"432",92.29389,760.6379
"433",91.38567,760.65106
"434",90.142975,760.6645
"435",88.70496,760.6777
"436",87.19615,760.6911
"437",85.711754,760.7043
"438",84.334785,760.7177
"439",83.11162,760.7309
"440",82.06424,760.7443
"441",81.20973,760.7575
"442",80.55787,760.77094
"443",80.130615,760.7841
"444",79.94507,760.79755
"445",80.01099,760.8107
"446",80.2942,760.82416
"447",80.72144,760.83734
"448",81.1902,760.85077
"449",81.59548,760.86395
"450",81.849396,760.8774
"451",81.90311,760.89056
"452",81.74441,760.904
"453",81.409935,760.9172
"454",80.92653,760.9306
"455",80.33326,760.9438
"456",79.66674,760.9572
"457",78.9514,760.9704
"458",78.21164,760.9838
"459",77.488976,760.997
"460",76.81758,761.01044
"461",76.22919,761.0236
"462",75.74334,761.03705
"463",75.369804,761.05023
"464",75.09636,761.06366
"465",74.91081,761.07684
"466",74.79607,761.0903
"467",74.737465,761.10345
"468",74.71061,761.1169
"469",74.70573,761.13007
"470",74.703285,761.1435
"471",74.70573,761.1567
"472",74.71061,761.1701
"473",74.72282,761.1833
"474",74.73502,761.1967
"475",74.74723,761.2099
"476",74.74235,761.2233
"477",74.70084,761.2365
"478",74.61051,761.24994
"479",74.46647,761.2631
"480",74.27604,761.27655
"481",74.06119,761.28973
"482",73.882965,761.30316
"483",73.85611,761.31635
"484",74.20279,761.3298
"485",75.211105,761.34296
"486",77.09102,761.3564
"487",79.823,761.36957
"488",83.104294,761.383
"489",86.44907,761.3962
"490",89.32998,761.4096
"491",91.336845,761.4228
"492",92.33051,761.4362
"493",92.42573,761.4494
"494",91.85443,761.4628
"495",90.829025,761.476
"496",89.50576,761.48944
"497",88.01404,761.5026
"498",86.46128,761.51605
"499",84.93294,761.52924
"500",83.50469,761.54266
"501",82.23514,761.55585
"502",81.163345,761.5693
"503",80.325935,761.58246
"504",79.7522,761.5959
"505",79.466545,761.6091
"506",79.47631,761.6225
"507",79.75708,761.6357
"508",80.24048,761.6491
"509",80.82399,761.6623
"510",81.38796,761.6757
"511",81.83719,761.6889
"512",82.09598,761.70233
"513",82.13504,761.7155
"514",81.96414,761.72894
"515",81.61013,761.7421
"516",81.112076,761.75555
"517",80.51881,761.76874
"518",79.86206,761.78217
"519",79.17601,761.79535
"520",78.49973,761.8088
"521",77.86496,761.82196
"522",77.30099,761.8354
"523",76.839554,761.8486
"524",76.48798,761.862
"525",76.25117,761.8752
"526",76.11688,761.8886
"527",76.068054,761.9018
"528",76.085144,761.9152
"529",76.15839,761.9284
"530",76.265816,761.94183
"531",76.39521,761.955
"532",76.53681,761.96844
"533",76.67353,761.9816
"534",76.7834,761.99506
"535",76.8542,762.00824
"536",76.87373,762.02167
"537",76.824905,762.03485
"538",76.71259,762.0483
"539",76.55634,762.06146
"540",76.39521,762.0749
"541",76.30244,762.0881
"542",76.41474,762.1015
"543",76.944534,762.1147
"544",78.07492,762.1281
"545",79.84985,762.1413
"546",82.11307,762.1547
"547",84.56184,762.1679
"548",86.81285,762.18134
"549",88.52186,762.1945
"550",89.5082,762.20795
"551",89.78897,762.2211
"552",89.49355,762.23456
"553",88.76601,762.24774
"554",87.743034,762.26117
"555",86.54185,762.27435
"556",85.25765,762.2878
"557",83.97101,762.30096
"558",82.735634,762.3144
"559",81.60525,762.3276
"560",80.62379,762.341
"561",79.84497,762.3542
"562",79.3225,762.3676
"563",79.10277,762.3808
"564",79.200424,762.3942
"565",79.58373,762.4074
"566",80.16724,762.42084
"567",80.82155,762.434
"568",81.41482,762.44745
"569",81.846954,762.46063
"570",82.054474,762.47406
"571",82.01785,762.48724
"572",81.76883,762.5007
"573",81.339134,762.51385
"574",80.780045,762.5273
"575",80.130615,762.54047
"576",79.432365,762.5539
"577",78.72678,762.5671
"578",78.05783,762.5805
"579",77.452354,762.5937
"580",76.93965,762.6071
"581",76.53681,762.6203
"582",76.25117,762.6337
"583",76.07294,762.6469
"584",75.98749,762.66034
"585",75.9704,762.6735
"586",76.00458,762.68695
"587",76.06561,762.70013
"588",76.1413,762.71356
"589",76.226746,762.72675
"590",76.314644,762.7402
"591",76.402534,762.75336
"592",76.48798,762.7668
"593",76.55634,762.77997
"594",76.595406,762.7934
"595",76.59785,762.8066
"596",76.55634,762.82
"597",76.48798,762.8332
"598",76.44404,762.8466
"599",76.53925,762.8598
"600",76.97383,762.8732
"601",77.96994,762.8864
"602",79.639885,762.89984
"603",81.90311,762.913
"604",84.508125,762.92645
"605",87.078964,762.93964
"606",89.24208,762.95306
"607",90.7338,762.96625
"608",91.49798,762.9797
"609",91.61028,762.99286
"610",91.205,763.0063
"611",90.43107,763.0195
"612",89.42519,763.0329
"613",88.31922,763.0461
"614",87.22301,763.0595
"615",86.2269,763.0727
"616",85.36996,763.0861
"617",84.65705,763.0993
"618",84.06378,763.11273
"619",83.5584,763.1259
"620",83.1165,763.13934
"621",82.74052,763.1525
"622",82.44755,763.16595
"623",82.262,763.17914
"624",82.176544,763.19257
"625",82.16434,763.20575
"626",82.18143,763.2192
"627",82.1741,763.23236
"628",82.10086,763.2458
"629",81.9324,763.259
"630",81.66628,763.2724
"631",81.31472,763.2856
"632",80.89723,763.299
"633",80.43336,763.3122
"634",79.94507,763.3256
"635",79.44457,763.3388
"636",78.95384,763.35223
"637",78.48264,763.3654
"638",78.05539,763.37885
"639",77.68917,763.392
"640",77.3962,763.40546
"641",77.17891,763.41864
"642",77.04219,763.43207
"643",76.96895,763.44525
"644",76.93721,763.4587
"645",76.927444,763.47186
"646",76.929886,763.4853
"647",76.93477,763.4985
"648",76.93233,763.5119
"649",76.925,763.5251
"650",76.910355,763.5385
"651",76.87129,763.5517
"652",76.80049,763.5651
"653",76.69062,763.5783
"654",76.54658,763.59174
"655",76.383,763.6049
"656",76.21698,763.61835
"657",76.09979,763.63153
"658",76.14374,763.64496
"659",76.5124,763.65814
"660",77.36446,763.6716
"661",78.768295,763.68475
"662",80.635994,763.6982
"663",82.74052,763.71136
"664",84.78645,763.7248
"665",86.47837,763.738
"666",87.63561,763.7514
"667",88.216675,763.7646
"668",88.28504,763.778
"669",87.95056,763.7912
"670",87.33288,763.8046
"671",86.54673,763.8178
"672",85.70443,763.83124
"673",84.89143,763.8444
"674",84.16144,763.85785
"675",83.53155,763.87103
"676",82.98711,763.88446
"677",82.50858,763.89764
"678",82.07889,763.9111
"679",81.688255,763.92426
"680",81.356224,763.9377
"681",81.112076,763.95087
"682",80.970474,763.9643
"683",80.92653,763.9775
"684",80.95094,763.9909
"685",81.00221,764.0041
"686",81.03151,764.0175
"687",80.99977,764.0307
"688",80.87526,764.0441
"689",80.65797,764.0573
"690",80.35279,764.07074
"691",79.97681,764.0839
"692",79.551994,764.09735
"693",79.09544,764.11053
"694",78.63645,764.12396
"695",78.19211,764.13715
"696",77.78195,764.1506
"697",77.4255,764.16376
"698",77.13252,764.1772
"699",76.90547,764.19037
"700",76.74677,764.2038
"701",76.646675,764.217
"702",76.592964,764.2304
"703",76.57343,764.2436
"704",76.578316,764.257
"705",76.592964,764.2702
"706",76.60761,764.2836
"707",76.62226,764.2968
"708",76.627144,764.31024
"709",76.62226,764.3234
"710",76.60761,764.33685
"711",76.57343,764.35004
"712",76.52216,764.36346
"713",76.44648,764.37665
"714",76.34638,764.3901
"715",76.21942,764.40326
"716",76.070496,764.4167
"717",75.92157,764.4299
"718",75.80682,764.4433
"719",75.809265,764.4565
"720",76.06561,764.4699
"721",76.734566,764.4831
"722",77.908905,764.4965
"723",79.55932,764.5097
"724",81.52224,764.52313
"725",83.54864,764.5363
"726",85.3431,764.54974
"727",86.69077,764.5629
"728",87.484245,764.57635
"729",87.74792,764.58954
"730",87.56237,764.60297
"731",87.047226,764.61615
"732",86.31724,764.6296
"733",85.49935,764.64276
"734",84.68635,764.6562
"735",83.946594,764.6694
"736",83.30694,764.6828
"737",82.7625,764.696
"738",82.29862,764.7094
"739",81.88846,764.7226
"740",81.514915,764.736
"741",81.20241,764.7492
"742",80.97536,764.76263
"743",80.850845,764.7758
"744",80.831314,764.78925
"745",80.88991,764.8024
"746",80.972916,764.81586
"747",81.02663,764.82904
"748",81.007095,764.84247
"749",80.89235,764.85565
"750",80.68238,764.8691
"751",80.39185,764.88226
"752",80.03296,764.8957
"753",79.62768,764.9089
"754",79.19554,764.9223
"755",78.75365,764.9355
"756",78.32395,764.9489
"757",77.92844,764.9621
"758",77.576866,764.9755
"759",77.28634,764.9887
"760",77.05928,765.00214
"761",76.895706,765.0153
"762",76.788284,765.02875
"763",76.7248,765.04193
"764",76.69306,765.05536
"765",76.680855,765.06854
"766",76.66865,765.082
"767",76.66132,765.09515
"768",76.65156,765.1086
"769",76.63691,765.12177
"770",76.612495,765.1352
"771",76.5832,765.1484
"772",76.541695,765.1618
"773",76.49287,765.175
"774",76.439156,765.1884
"775",76.37812,765.2016
"776",76.30976,765.215
"777",76.22919,765.2282
"778",76.12909,765.24164
"779",76.00946,765.2548
"780",75.86542,765.26825
"781",75.701836,765.28143
"782",75.53094,765.29486
"783",75.372246,765.30804
"784",75.25994,765.3215
"785",75.27703,765.33466
"786",75.57,765.3481
"787",76.3122,765.36127
"788",77.59884,765.3747
"789",79.40063,765.3879
"790",81.53933,765.4013
"791",83.734184,765.4145
"792",85.66537,765.4279
"793",87.096054,765.4411
"794",87.93103,765.4545
"795",88.1947,765.4677
"796",87.989624,765.48114
"797",87.44274,765.4943
"798",86.68345,765.50775
"799",85.83383,765.52094
"800",84.996414,765.53436
"801",84.242004,765.54755
"802",83.597466,765.561
"803",83.055466,765.57416
"804",82.59403,765.5876
"805",82.19119,765.60077
"806",81.83719,765.6142
"807",81.54421,765.6274
"808",81.33669,765.6408
"809",81.22926,765.654
"810",81.2195,765.6674
"811",81.270775,765.6806
"812",81.341576,765.69403
"813",81.38552,765.7072
"814",81.36355,765.72064
"815",81.253685,765.7338
"816",81.05348,765.74725
"817",80.77272,765.76044
"818",80.42603,765.77386
"819",80.0354,765.78705
"820",79.622795,765.8005
"821",79.202866,765.81366
"822",78.79515,765.8271
"823",78.42161,765.8403
"824",78.10422,765.8537
"825",77.84299,765.8669
"826",77.64767,765.8803
"827",77.506065,765.8935
"828",77.41085,765.9069
"829",77.349815,765.9201
"830",77.313194,765.93353
"831",77.28634,765.9467
"832",77.26925,765.96014
"833",77.24971,765.9733
"834",77.21553,765.98676
"835",77.16914,765.99994
"836",77.11055,766.01337
"837",77.03975,766.02655
"838",76.95918,766.04
"839",76.87373,766.05316
"840",76.78584,766.0666
"841",76.6955,766.0798
"842",76.60517,766.0932
"843",76.51484,766.1064
"844",76.422066,766.1198
"845",76.32685,766.133
"846",76.22186,766.1464
"847",76.09979,766.1596
"848",75.96063,766.17303
"849",75.80682,766.1862
"850",75.650566,766.19965
"851",75.50408,766.2128
"852",75.40887,766.22626
"853",75.44793,766.23944
"854",75.7702,766.25287
"855",76.55146,766.26605
"856",77.8967,766.2795
"857",79.764404,766.29266
"858",81.96414,766.3061
"859",84.20538,766.3193
"860",86.16342,766.3327
"861",87.589226,766.3459
"862",88.394905,766.3593
"863",88.61707,766.3725
"864",88.35584,766.3859
"865",87.75037,766.3991
"866",86.942245,766.41254
"867",86.056,766.4257
"868",85.19661,766.43915
"869",84.422676,766.45233
"870",83.758606,766.46576
"871",83.192184,766.47894
"872",82.70634,766.4924
"873",82.28153,766.50555
"874",81.91287,766.519
"875",81.61013,766.53217
"876",81.40261,766.5456
"877",81.29763,766.5588
"878",81.28542,766.5722
"879",81.33669,766.5854
"880",81.40017,766.5988
"881",81.427025,766.612
"882",81.3782,766.6254
"883",81.23903,766.6386
"884",80.99977,766.65204
"885",80.6775,766.6652
"886",80.29908,766.67865
"887",79.888916,766.69183
"888",79.46166,766.70526
"889",79.046616,766.71844
"890",78.66331,766.7319
"891",78.32395,766.74506
"892",78.03586,766.7585
"893",77.806366,766.77167
"894",77.64034,766.7851
"895",77.53292,766.7983
"896",77.47921,766.8117
"897",77.47677,766.8249
"898",77.51827,766.8383
"899",77.58907,766.8515
"900",77.6672,766.8649
"901",77.738,766.8781
"902",77.79416,766.89154
"903",77.8259,766.9047
"904",77.83566,766.91815
"905",77.823456,766.93134
"906",77.80148,766.94476
"907",77.7551,766.95795
"908",77.679405,766.9714
"909",77.574425,766.98456
"910",77.452354,766.998
"911",77.32296,767.01117
"912",77.20088,767.0246
"913",77.11055,767.0378
"914",77.051956,767.0512
"915",77.01289,767.0644
"916",76.981155,767.0778
"917",76.929886,767.091
"918",76.85176,767.10443
"919",76.73945,767.1176
"920",76.60517,767.13104
"921",76.470894,767.1442
"922",76.39521,767.15765
"923",76.48066,767.17084
"924",76.88838,767.18427
"925",77.77951,767.19745
"926",79.2224,767.2109
"927",81.13649,767.22406
"928",83.302055,767.2375
"929",85.42123,767.2507
"930",87.19127,767.2641
"931",88.41688,767.2773
"932",89.04433,767.2907
"933",89.127335,767.3039
"934",88.77089,767.3173
"935",88.094604,767.3305
"936",87.220566,767.34393
"937",86.26353,767.3571
"938",85.32357,767.37054
"939",84.46662,767.3837
"940",83.72686,767.39716
"941",83.09697,767.41034
"942",82.55253,767.42377
"943",82.074005,767.43695
"944",81.65652,767.4504
"945",81.31716,767.46356
"946",81.08766,767.477
"947",80.9778,767.4902
"948",80.972916,767.5036
"949",81.04372,767.5168
"950",81.126724,767.5302
"951",81.16823,767.5434
"952",81.11452,767.5568
"953",80.94606,767.57
"954",80.66041,767.58344
"955",80.272224,767.5966
"956",79.818115,767.61005
"957",79.3225,767.6232
"958",78.81224,767.63666
"959",78.3093,767.64984
"960",77.838104,767.66327
"961",77.40841,767.67645
"962",77.03975,767.6899
"963",76.73945,767.70306
"964",76.507515,767.7165
"965",76.33173,767.7297
"966",76.20233,767.7431
"967",76.10712,767.7563
"968",76.03876,767.7697
"969",75.98505,767.7829
"970",75.9411,767.7963
"971",75.897156,767.8095
"972",75.84833,767.82294
"973",75.789734,767.8361
"974",75.72869,767.84955
"975",75.66277,767.86273
"976",75.60662,767.87616
"977",75.562675,767.88934
"978",75.53582,767.9028
"979",75.511406,767.91595
"980",75.48943,767.9294
"981",75.46502,767.94257
"982",75.43084,767.956
"983",75.39178,767.9692
"984",75.352715,767.9826
"985",75.31365,767.9958
"986",75.27703,768.0092
"987",75.24284,768.0224
"988",75.21355,768.0358
"989",75.211105,768.049
"990",75.29168,768.06244
"991",75.577324,768.0756
"992",76.22919,768.08905
"993",77.36935,768.10223
"994",79.00755,768.11566
"995",81.01198,768.12885
"996",83.1458,768.1423
"997",85.118484,768.15546
"998",86.678566,768.1689
"999",87.682,768.18207
"1000",88.1239,768.1955
"1001",88.07263,768.2087
"1002",87.640495,768.2221
"1003",86.94957,768.2353
"1004",86.12192,768.2487
"1005",85.2723,768.2619
"1006",84.47639,768.2753
"1007",83.78546,768.2885
"1008",83.20195,768.30194
"1009",82.720985,768.3151
"1010",82.31327,768.32855
"1011",81.95438,768.34174
"1012",81.64187,768.35516
"1013",81.392845,768.36835
"1014",81.22682,768.3818
"1015",81.15602,768.39496
"1016",81.16823,768.4084
"1017",81.22438,768.4216
"1018",81.28298,768.435
"1019",81.304955,768.4482
"1020",81.26101,768.4616
"1021",81.14137,768.4748
"1022",80.94118,768.4882
"1023",80.66773,768.5014
"1024",80.325935,768.51483
"1025",79.92798,768.528
"1026",79.49828,768.54144
"1027",79.063705,768.5546
"1028",78.641335,768.56805
"1029",78.25559,768.58124
"1030",77.91379,768.59467
"1031",77.62081,768.60785
"1032",77.37667,768.6213
"1033",77.17403,768.63446
"1034",77.01289,768.6479
"1035",76.89082,768.6611
"1036",76.80293,768.6745
"1037",76.74189,768.6877
"1038",76.70283,768.7011
"1039",76.67841,768.7143
"1040",76.66621,768.7277
"1041",76.654,768.7409
"1042",76.646675,768.75433
"1043",76.63935,768.7675
"1044",76.627144,768.78094
"1045",76.610054,768.7941
"1046",76.59052,768.80756
"1047",76.558784,768.82074
"1048",76.51728,768.83417
"1049",76.46357,768.84735
"1050",76.39033,768.8608
"1051",76.29511,768.87396
"1052",76.173035,768.8874
"1053",76.02167,768.9006
"1054",75.84589,768.914
"1055",75.66277,768.9272
"1056",75.508965,768.9406
"1057",75.491875,768.9538
"1058",75.78485,768.9672
"1059",76.59785,768.9804
"1060",78.05051,768.99384
"1061",80.093994,769.007
"1062",82.513466,769.02045
"1063",84.979324,769.0336
"1064",87.13023,769.04706
"1065",88.71473,769.06024
"1066",89.64248,769.07367
"1067",89.96475,769.08685
"1068",89.79141,769.1003
"1069",89.25674,769.11346
"1070",88.49012,769.1269
"1071",87.61608,769.1401
"1072",86.7396,769.1535
"1073",85.94125,769.1667
"1074",85.262535,769.1801
"1075",84.70588,769.1933
"1076",84.25178,769.2067
"1077",83.85626,769.2199
"1078",83.48516,769.23334
"1079",83.13603,769.2465
"1080",82.82109,769.25995
"1081",82.56718,769.27313
"1082",82.39384,769.28656
"1083",82.30595,769.29974
"1084",82.28397,769.3132
"1085",82.28397,769.32635
"1086",82.266884,769.3398
"1087",82.196075,769.35297
"1088",82.04471,769.3664
"1089",81.80301,769.3796
"1090",81.47097,769.393
"1091",81.06569,769.4062
"1092",80.61158,769.4196
"1093",80.13306,769.4328
"1094",79.64721,769.4462
"1095",79.17357,769.4594
"1096",78.73167,769.47284
"1097",78.32639,769.486
"1098",77.962616,769.49945
"1099",77.65255,769.51263
"1100",77.38644,769.52606
"1101",77.16426,769.53925
"1102",76.981155,769.5527
"1103",76.83467,769.56586
"1104",76.715034,769.5793
"1105",76.61982,769.59247
"1106",76.53437,769.6059
"1107",76.453804,769.6191
"1108",76.383,769.6325
"1109",76.3122,769.6457
"1110",76.243835,769.6591
"1111",76.17792,769.6723
"1112",76.11444,769.6857
"1113",76.04608,769.6989
"1114",75.965515,769.71234
"1115",75.8703,769.7255
"1116",75.75067,769.73895
"1117",75.60662,769.75214
"1118",75.43328,769.76556
"1119",75.23308,769.77875
"1120",75.00847,769.7922
"1121",74.776535,769.80536
"1122",74.55192,769.8188
"1123",74.373695,769.832
"1124",74.322426,769.8454
"1125",74.54459,769.8586
"1126",75.23796,769.872
"1127",76.57099,769.8852
"1128",78.56565,769.8986
"1129",81.058365,769.9118
"1130",83.74151,769.92523
"1131",86.239105,769.9384
"1132",88.233765,769.95184
"1133",89.549706,769.965
"1134",90.18448,769.97845
"1135",90.23331,769.99164
"1136",89.82315,770.00507
"1137",89.08339,770.01825
"1138",88.14343,770.0317
"1139",87.13023,770.04486
"1140",86.14633,770.0583
"1141",85.27474,770.0715
"1142",84.53986,770.0849
"1143",83.94415,770.0981
"1144",83.45098,770.1115
"1145",83.0164,770.1247
"1146",82.616005,770.1381
"1147",82.23758,770.1513
"1148",81.90555,770.16473
"1149",81.64431,770.1779
"1150",81.47585,770.19135
"1151",81.392845,770.2045
"1152",81.36599,770.21796
"1153",81.34646,770.23114
"1154",81.290306,770.24457
"1155",81.17067,770.25775
"1156",80.987564,770.2712
"1157",80.75075,770.28436
"1158",80.47486,770.2978
"1159",80.16724,770.311
"1160",79.83276,770.3244
"1161",79.466545,770.3376
"1162",79.07591,770.351
"1163",78.67307,770.3642
"1164",78.28733,770.3776
"1165",77.943085,770.3908
"1166",77.65743,770.40424
"1167",77.437706,770.4174
"1168",77.279015,770.43085
"1169",77.15694,770.44403
"1170",77.05928,770.45746
"1171",76.96651,770.47064
"1172",76.876175,770.4841
"1173",76.78584,770.49725
"1174",76.6955,770.5107
"1175",76.610054,770.52386
"1176",76.51972,770.5373
"1177",76.43427,770.5505
"1178",76.34638,770.5639
"1179",76.2707,770.5771
"1180",76.19989,770.5905
"1181",76.13153,770.6037
"1182",76.06073,770.6171
"1183",75.97772,770.6303
"1184",75.877625,770.64374
"1185",75.75311,770.6569
"1186",75.5993,770.67035
"1187",75.423515,770.68353
"1188",75.24284,770.69696
"1189",75.07439,770.71014
"1190",74.96208,770.7236
"1191",75.01091,770.73676
"1192",75.40154,770.7502
"1193",76.30732,770.76337
"1194",77.81125,770.7768
"1195",79.84497,770.79
"1196",82.193634,770.8034
"1197",84.53986,770.8166
"1198",86.56382,770.83
"1199",88.04578,770.8432
"1200",88.91737,770.8566
"1201",89.22499,770.8698
"1202",89.06142,770.88324
"1203",88.54383,770.8964
"1204",87.79675,770.90985
"1205",86.94713,770.92303
"1206",86.09262,770.93646
"1207",85.316246,770.94965
"1208",84.65949,770.9631
"1209",84.122375,770.97626
"1210",83.682915,770.9897
"1211",83.3045,771.00287
"1212",82.96025,771.0163
"1213",82.650185,771.0295
"1214",82.391396,771.0429
"1215",82.20828,771.0561
"1216",82.12283,771.0695
"1217",82.12283,771.0827
"1218",82.17166,771.0961
"1219",82.230255,771.1093
"1220",82.26444,771.12274
"1221",82.24246,771.1359
"1222",82.15457,771.14935
"1223",81.988556,771.16254
"1224",81.74929,771.17596
"1225",81.42214,771.18915
"1226",81.01198,771.2026
"1227",80.51881,771.21576
"1228",79.9646,771.2292
"1229",79.36645,771.2424
"1230",78.76097,771.2558
"1231",78.17746,771.269
"1232",77.64034,771.2824
"1233",77.15938,771.2956
"1234",76.74433,771.309
"1235",76.39033,771.3222
"1236",76.10712,771.33563
"1237",75.88739,771.3488
"1238",75.74578,771.36224
"1239",75.67254,771.3754
"1240",75.65301,771.38885
"1241",75.6701,771.40204
"1242",75.70428,771.41547
"1243",75.74334,771.42865
"1244",75.78241,771.4421
"1245",75.81415,771.45526
"1246",75.83856,771.4687
"1247",75.84589,771.4819
"1248",75.8288,771.4953
"1249",75.76532,771.5085
"1250",75.65789,771.5219
"1251",75.50164,771.5351
"1252",75.29412,771.5485
"1253",75.04997,771.5617
"1254",74.78874,771.57513
"1255",74.55436,771.5883
"1256",74.44694,771.60175
"1257",74.649574,771.6149
"1258",75.386894,771.62836
"1259",76.807816,771.64154
"1260",78.89281,771.65497
"1261",81.42458,771.66815
"1262",84.05646,771.6816
"1263",86.40269,771.69476
"1264",88.16785,771.7082
"1265",89.22987,771.7214
"1266",89.63027,771.7348
"1267",89.48867,771.748
"1268",88.936905,771.7614
"1269",88.10437,771.7746
"1270",87.10826,771.788
"1271",86.056,771.8012
"1272",85.04036,771.81464
"1273",84.11261,771.8278
"1274",83.302055,771.84125
"1275",82.60624,771.85443
"1276",82.022736,771.86786
"1277",81.52712,771.88104
"1278",81.109634,771.8945
"1279",80.7776,771.90765
"1280",80.54566,771.9211
"1281",80.411385,771.93427
"1282",80.36256,771.9477
"1283",80.37476,771.9609
"1284",80.413826,771.9743
"1285",80.43336,771.9875
"1286",80.4065,772.0009
"1287",80.31129,772.0141
"1288",80.14038,772.0275
"1289",79.886475,772.0407
"1290",79.554436,772.05414
"1291",79.15892,772.0673
"1292",78.71702,772.08075
"1293",78.238495,772.09393
"1294",77.75754,772.10736
"1295",77.28878,772.12054
"1296",76.85664,772.134
"1297",76.46357,772.14716
"1298",76.12665,772.1606
"1299",75.841,772.17377
"1300",75.6115,772.1872
"1301",75.440605,772.2004
"1302",75.318535,772.2138
"1303",75.245285,772.227
"1304",75.22087,772.2404
"1305",75.24284,772.2536
"1306",75.30633,772.267
"1307",75.40154,772.2802
"1308",75.51629,772.29364
"1309",75.63592,772.3068
"1310",75.75067,772.32025
"1311",75.84589,772.33344
"1312",75.92157,772.34686
"1313",75.96796,772.36005
"1314",75.9704,772.3735
"1315",75.92645,772.38666
"1316",75.8288,772.4001
"1317",75.684746,772.41327
"1318",75.51873,772.4267
"1319",75.37469,772.4399
"1320",75.36004,772.4533
"1321",75.66033,772.4665
"1322",76.473335,772.4799
"1323",77.91135,772.4931
"1324",79.923096,772.50653
"1325",82.2913,772.5197
"1326",84.69123,772.53314
"1327",86.77623,772.5463
"1328",88.30213,772.55975
"1329",89.19081,772.57294
"1330",89.48623,772.58636
"1331",89.2958,772.59955
"1332",88.741585,772.613
"1333",87.94568,772.62616
"1334",87.01305,772.6396
"1335",86.04135,772.6528
"1336",85.10628,772.6662
"1337",84.24689,772.6794
"1338",83.47784,772.6928
"1339",82.804,772.706
"1340",82.22293,772.7194
"1341",81.74197,772.7326
"1342",81.38064,772.74603
"1343",81.15358,772.7592
"1344",81.08278,772.77264
"1345",81.146255,772.7858
"1346",81.30007,772.79926
"1347",81.48562,772.81244
"1348",81.64187,772.82587
"1349",81.71511,772.83905
"1350",81.671165,772.8525
"1351",81.50515,772.86566
"1352",81.22194,772.8791
"1353",80.83864,772.8923
"1354",80.37965,772.9057
"1355",79.86694,772.9189
"1356",79.32494,772.9323
"1357",78.77562,772.9455
"1358",78.238495,772.9589
"1359",77.738,772.9721
"1360",77.29122,772.98553
"1361",76.91524,772.9987
"1362",76.61494,773.01215
"1363",76.385445,773.0253
"1364",76.21942,773.03876
"1365",76.09979,773.05194
"1366",76.016785,773.06537
"1367",75.95575,773.07855
"1368",75.90936,773.092
"1369",75.87274,773.10516
"1370",75.84833,773.1186
"1371",75.826355,773.1318
"1372",75.80438,773.1452
"1373",75.77997,773.1584
"1374",75.74578,773.1718
"1375",75.68963,773.185
"1376",75.60418,773.1984
"1377",75.48455,773.2116
"1378",75.32586,773.22504
"1379",75.125656,773.2382
"1380",74.8864,773.25165
"1381",74.63004,773.26483
"1382",74.39567,773.27826
"1383",74.29557,773.29144
"1384",74.53239,773.3049
"1385",75.36492,773.31805
"1386",76.961624,773.3315
"1387",79.293205,773.34467
"1388",82.10086,773.3581
"1389",84.98665,773.3713
"1390",87.518425,773.3847
"1391",89.36416,773.3979
"1392",90.41642,773.4113
"1393",90.7509,773.4245
"1394",90.51652,773.4379
"1395",89.87686,773.4511
"1396",88.96864,773.46454
"1397",87.923706,773.4777
"1398",86.84703,773.49115
"1399",85.83383,773.50433
"1400",84.93538,773.51776
"1401",84.17609,773.53094
"1402",83.53643,773.5444
"1403",82.99199,773.55756
"1404",82.51835,773.571
"1405",82.09842,773.58417
"1406",81.74685,773.5976
"1407",81.480736,773.6108
"1408",81.322044,773.6242
"1409",81.26101,773.6374
"1410",81.26833,773.6508
"1411",81.29763,773.664
"1412",81.29519,773.6774
"1413",81.22438,773.6906
"1414",81.05592,773.70404
"1415",80.78737,773.7172
"1416",80.42359,773.73065
"1417",79.974365,773.74384
"1418",79.45434,773.75726
"1419",78.87816,773.77045
"1420",78.2678,773.7839
"1421",77.642784,773.79706
"1422",77.03487,773.8105
"1423",76.47578,773.82367
"1424",75.98505,773.8371
"1425",75.579765,773.8503
"1426",75.26238,773.8637
"1427",75.04021,773.8769
"1428",74.90105,773.8903
"1429",74.83513,773.9035
"1430",74.82292,773.91693
"1431",74.84978,773.9301
"1432",74.90105,773.94354
"1433",74.96452,773.9567
"1434",75.04509,773.97015
"1435",75.13298,773.98334
"1436",75.22575,773.99677
"1437",75.31121,774.00995
"1438",75.372246,774.0234
"1439",75.386894,774.03656
"1440",75.335625,774.05
"1441",75.208664,774.0632
"1442",75.01579,774.0766
"1443",74.76189,774.0898
"1444",74.478676,774.1032
"1445",74.1857,774.1164
"1446",73.93179,774.1298
"1447",73.78287,774.143
"1448",73.89517,774.15643
"1449",74.50553,774.1696
"1450",75.841,774.18304
"1451",77.9675,774.1962
"1452",80.71656,774.20966
"1453",83.72442,774.22284
"1454",86.539406,774.23627
"1455",88.74647,774.24945
"1456",90.125885,774.2629
"1457",90.687416,774.27606
"1458",90.597084,774.2895
"1459",90.02823,774.3027
"1460",89.146866,774.3161
"1461",88.08484,774.3293
"1462",86.95201,774.3427
"1463",85.83627,774.3559
"1464",84.8011,774.3693
"1465",83.88556,774.3825
"1466",83.09209,774.39594
"1467",82.41825,774.4091
"1468",81.85672,774.42255
"1469",81.40749,774.4357
"1470",81.075455,774.44916
"1471",80.87526,774.46234
"1472",80.80934,774.47577
"1473",80.85573,774.48895
"1474",80.972916,774.5024
"1475",81.10475,774.51556
"1476",81.20485,774.529
"1477",81.22926,774.5422
"1478",81.1487,774.5556
"1479",80.955826,774.5688
"1480",80.65064,774.5822
"1481",80.24292,774.5954
"1482",79.74731,774.6088
"1483",79.183334,774.622
"1484",78.57053,774.63544
"1485",77.94797,774.6486
"1486",77.33517,774.66205
"1487",76.76143,774.67523
"1488",76.24628,774.68866
"1489",75.81415,774.70184
"1490",75.4699,774.7153
"1491",75.211105,774.72845
"1492",75.03288,774.7419
"1493",74.9279,774.75507
"1494",74.881516,774.7685
"1495",74.8864,774.7817
"1496",74.93523,774.7951
"1497",75.01091,774.8083
"1498",75.0988,774.8217
"1499",75.194016,774.8349
"1500",75.284355,774.8483
"1501",75.369804,774.8615
"1502",75.45037,774.87494
"1503",75.51873,774.8881
"1504",75.56512,774.90155
"1505",75.577324,774.91473
"1506",75.543144,774.92816
"1507",75.46258,774.94135
"1508",75.338066,774.9548
"1509",75.17937,774.96796
"1510",75.003586,774.9814
"1511",74.84001,774.99457
"1512",74.759445,775.008
"1513",74.92058,775.0212
"1514",75.57244,775.0346
"1515",76.94209,775.0478
"1516",79.10277,775.0612
"1517",81.88602,775.0744
"1518",84.92073,775.0878
"1519",87.73571,775.101
"1520",89.915924,775.11444
"1521",91.246506,775.1276
"1522",91.73968,775.14105
"1523",91.563896,775.15424
"1524",90.90471,775.16766
"1525",89.92325,775.18085
"1526",88.74891,775.1943
"1527",87.48669,775.20746
"1528",86.219574,775.2209
"1529",85.01106,775.2341
"1530",83.89288,775.2475
"1531",82.88457,775.2607
"1532",82.003204,775.2741
"1533",81.27322,775.2873
"1534",80.723885,775.3007
"1535",80.38453,775.3139
"1536",80.274666,775.32733
"1537",80.38941,775.3405
"1538",80.67506,775.35394
"1539",81.05348,775.3671
"1540",81.42947,775.38055
"1541",81.72488,775.39374
"1542",81.866486,775.40717
"1543",81.82254,775.42035
"1544",81.59792,775.4338
"1545",81.21217,775.44696
"1546",80.70191,775.4604
"1547",80.09888,775.4736
"1548",79.43725,775.487
"1549",78.751205,775.5002
"1550",78.06271,775.5136
"1551",77.39376,775.5268
"1552",76.771194,775.5402
"1553",76.209656,775.5534
"1554",75.72625,775.56683
"1555",75.32098,775.58
"1556",75.003586,775.59344
"1557",74.76921,775.6066
"1558",74.60807,775.62006
"1559",74.510414,775.63324
"1560",74.46891,775.64667
"1561",74.486,775.65985
"1562",74.55192,775.6733
"1563",74.649574,775.68646
"1564",74.76677,775.6999
"1565",74.8864,775.7131
"1566",74.98161,775.7265
"1567",75.04265,775.7397
"1568",75.04997,775.7531
"1569",74.9987,775.7663
"1570",74.88884,775.7797
"1571",74.73014,775.7929
"1572",74.53727,775.80634
"1573",74.36393,775.8195
"1574",74.31266,775.83295
"1575",74.57877,775.8461
"1576",75.43572,775.85956
"1577",77.117874,775.87274
"1578",79.639885,775.88617
"1579",82.75517,775.89935
"1580",86.01938,775.9128
"1581",88.919815,775.92596
"1582",91.04387,775.9394
"1583",92.2182,775.9526
"1584",92.52094,775.966
"1585",92.16937,775.9792
"1586",91.36858,775.9926
"1587",90.287025,776.0058
"1588",89.04677,776.0192
"1589",87.745476,776.0324
"1590",86.45396,776.04584
"1591",85.2137,776.059
"1592",84.054016,776.07245
"1593",82.99931,776.08563
"1594",82.08133,776.09906
"1595",81.3489,776.11224
"1596",80.84596,776.1257
"1597",80.621346,776.13885
"1598",80.67506,776.1523
"1599",80.96803,776.16547
"1600",81.41238,776.1789
"1601",81.89578,776.1921
"1602",82.303505,776.2055
"1603",82.55741,776.2187
"1604",82.6038,776.2321
"1605",82.43778,776.2453
"1606",82.08133,776.2587
"1607",81.57351,776.2719
"1608",80.955826,776.28534
"1609",80.26734,776.2985
"1610",79.54223,776.31195
"1611",78.8098,776.32513
"1612",78.09445,776.33856
"1613",77.4255,776.35175
"1614",76.82002,776.3652
"1615",76.29267,776.37836
"1616",75.85565,776.3918
"1617",75.50652,776.40497
"1618",75.23796,776.4184
"1619",75.04265,776.4316
"1620",74.91814,776.445
"1621",74.85466,776.4582
"1622",74.847336,776.4716
"1623",74.88396,776.4848
"1624",74.95964,776.4982
"1625",75.0573,776.5114
"1626",75.157394,776.52484
"1627",75.2404,776.538
"1628",75.29168,776.55145
"1629",75.29168,776.56464
"1630",75.228195,776.57806
"1631",75.0988,776.59125
"1632",74.92546,776.6047
"1633",74.74479,776.61786
"1634",74.649574,776.6313
"1635",74.82536,776.6445
"1636",75.543144,776.6579
"1637",77.03975,776.6711
"1638",79.36889,776.6845
"1639",82.31815,776.6977
"1640",85.4847,776.7111
"1641",88.37293,776.7243
"1642",90.562904,776.73773
"1643",91.84955,776.7509
"1644",92.27436,776.76434
"1645",92.02289,776.7775
"1646",91.29534,776.79095
"1647",90.25773,776.80414
"1648",89.04433,776.81757
"1649",87.75769,776.83075
"1650",86.47837,776.8442
"1651",85.25765,776.85736
"1652",84.13214,776.8708
"1653",83.11162,776.884
"1654",82.20584,776.8974
"1655",81.43679,776.9106
"1656",80.84352,776.924
"1657",80.46021,776.9372
"1658",80.31373,776.9506
"1659",80.39918,776.9638
"1660",80.66773,776.97723
"1661",81.02907,776.9904
"1662",81.38552,777.00385
"1663",81.64919,777.017
"1664",81.75662,777.03046
"1665",81.67361,777.04364
"1666",81.39773,777.05707
"1667",80.955826,777.07025
"1668",80.37965,777.0837
"1669",79.710686,777.09686
"1670",78.992905,777.1103
"1671",78.260475,777.1235
"1672",77.54757,777.1369
"1673",76.8835,777.1501
"1674",76.29023,777.1635
"1675",75.78241,777.1767
"1676",75.36492,777.1901
"1677",75.04265,777.2033
"1678",74.82048,777.21674
"1679",74.686195,777.2299
"1680",74.64225,777.24335
"1681",74.68131,777.25653
"1682",74.79851,777.26996
"1683",74.97429,777.28314
"1684",75.1989,777.2966
"1685",75.44549,777.30975
"1686",75.67498,777.3232
"1687",75.85077,777.33636
"1688",75.93378,777.3498
"1689",75.914246,777.363
"1690",75.79462,777.3764
"1691",75.6115,777.3896
"1692",75.421074,777.403
"1693",75.33074,777.4162
"1694",75.52117,777.4296
"1695",76.25361,777.4428
"1696",77.71847,777.45624
"1697",79.9353,777.4694
"1698",82.69657,777.48285
"1699",85.6141,777.49603
"1700",88.24353,777.50946
"1701",90.21622,777.52264
"1702",91.3637,777.5361
"1703",91.737236,777.54926
"1704",91.493095,777.5627
"1705",90.809494,777.57587
"1706",89.84512,777.5893
"1707",88.72938,777.6025
"1708",87.56725,777.6159
"1709",86.44419,777.6291
"1710",85.41146,777.6425
"1711",84.488594,777.6557
"1712",83.66827,777.6691
"1713",82.948044,777.6823
"1714",82.32548,777.69574
"1715",81.815216,777.7089
"1716",81.43435,777.72235
"1717",81.21706,777.73553
"1718",81.15846,777.74896
"1719",81.24147,777.76215
"1720",81.40749,777.7756
"1721",81.5906,777.78876
"1722",81.722435,777.8022
"1723",81.75418,777.81537
"1724",81.651634,777.8288
"1725",81.41238,777.842
"1726",81.0486,777.8554
"1727",80.5774,777.8686
"1728",80.03296,777.882
"1729",79.44213,777.8952
"1730",78.836655,777.9086
"1731",78.23361,777.9218
"1732",77.662315,777.93524
"1733",77.134964,777.9484
"1734",76.66132,777.96185
"1735",76.241394,777.97504
"1736",75.88739,777.98846
"1737",75.60662,778.00165
"1738",75.406425,778.0151
"1739",75.2868,778.02826
"1740",75.23552,778.0417
"1741",75.23552,778.0549
"1742",75.25994,778.0683
"1743",75.27703,778.0815
"1744",75.25994,778.0949
"1745",75.20378,778.1081
"1746",75.10124,778.1215
"1747",74.969406,778.1347
"1748",74.827805,778.14813
"1749",74.71061,778.1613
"1750",74.69596,778.17474
"1751",74.94011,778.1879
"1752",75.66033,778.20135
"1753",77.04219,778.21454
"1754",79.11009,778.22797
"1755",81.685814,778.24115
"1756",84.44221,778.2546
"1757",86.976425,778.26776
"1758",88.94667,778.2812
"1759",90.18936,778.2944
"1760",90.72404,778.3078
"1761",90.68253,778.321
"1762",90.213776,778.3344
"1763",89.45937,778.3476
"1764",88.54139,778.361
"1765",87.56237,778.3742
"1766",86.598,778.38763
"1767",85.697105,778.4008
"1768",84.874344,778.41425
"1769",84.119934,778.4274
"1770",83.421684,778.44086
"1771",82.76494,778.45404
"1772",82.161896,778.46747
"1773",81.634544,778.48065
"1774",81.21706,778.4941
"1775",80.93385,778.50726
"1776",80.78493,778.5207
"1777",80.740974,778.5339
"1778",80.75319,778.5473
"1779",80.77028,778.5605
"1780",80.743416,778.5739
"1781",80.635994,778.5871
"1782",80.43336,778.6005
"1783",80.13794,778.6137
"1784",79.764404,778.62714
"1785",79.33227,778.6403
"1786",78.86107,778.65375
"1787",78.363014,778.66693
"1788",77.8674,778.68036
"1789",77.39376,778.69354
"1790",76.95674,778.707
"1791",76.575874,778.72015
"1792",76.263374,778.7336
"1793",76.01434,778.74677
"1794",75.81903,778.7602
"1795",75.665215,778.7734
"1796",75.54803,778.7868
"1797",75.44793,778.8
"1798",75.352715,778.8134
"1799",75.25262,778.8266
"1800",75.13298,778.84
"1801",74.97673,778.8532
"1802",74.7863,778.86664
"1803",74.564125,778.8798
"1804",74.32487,778.89325
"1805",74.11246,778.90643
"1806",74.00992,778.91986
"1807",74.178375,778.93304
"1808",74.81804,778.9465
"1809",76.087585,778.95966
"1810",77.994354,778.9731
"1811",80.365,778.98627
"1812",82.879684,778.9997
"1813",85.16487,779.0129
"1814",86.925156,779.0263
"1815",88.01892,779.0395
"1816",88.463264,779.0529
"1817",88.377815,779.0661
"1818",87.89929,779.0795
"1819",87.14732,779.0927
"1820",86.23422,779.10614
"1821",85.26986,779.1193
"1822",84.34211,779.13275
"1823",83.49493,779.14594
"1824",82.75517,779.15936
"1825",82.108185,779.17255
"1826",81.52712,779.186
"1827",80.98268,779.19916
"1828",80.46754,779.2126
"1829",80.00122,779.22577
"1830",79.61059,779.2392
"1831",79.33227,779.2524
"1832",79.185776,779.2658
"1833",79.14671,779.279
"1834",79.17357,779.2924
"1835",79.200424,779.3056
"1836",79.16136,779.31903
"1837",79.009995,779.3322
"1838",78.7219,779.34564
"1839",78.3093,779.3588
"1840",77.79416,779.37225
"1841",77.21065,779.38544
"1842",76.578316,779.39886
"1843",75.93866,779.41205
"1844",75.32586,779.4255
"1845",74.77165,779.43866
"1846",74.302895,779.4521
"1847",73.934235,779.4653
"1848",73.66567,779.4787
"1849",73.494774,779.4919
"1850",73.409325,779.5053
"1851",73.392235,779.5185
"1852",73.4313,779.5319
"1853",73.51675,779.5451
"1854",73.633934,779.55853
"1855",73.76822,779.5717
"1856",73.90982,779.58514
"1857",74.05386,779.5983
"1858",74.18082,779.61176
"1859",74.285805,779.62494
"1860",74.36881,779.63837
"1861",74.41764,779.65155
"1862",74.41764,779.665
"1863",74.36637,779.67816
"1864",74.26627,779.6916
"1865",74.14664,779.7048
"1866",74.08804,779.7182
"1867",74.25895,779.7314
"1868",74.87663,779.7448
"1869",76.10956,779.758
"1870",77.96994,779.7714
"1871",80.30396,779.7846
"1872",82.811325,779.79803
"1873",85.14046,779.8112
"1874",86.98863,779.82465
"1875",88.21423,779.8378
"1876",88.831924,779.85126
"1877",88.94667,779.86444
"1878",88.690315,779.87787
"1879",88.19714,779.89105
"1880",87.589226,779.9045
"1881",86.956894,779.91766
"1882",86.37339,779.9311
"1883",85.88266,779.9443
"1884",85.489586,779.9577
"1885",85.16487,779.9709
"1886",84.874344,779.9843
"1887",84.58381,779.9975
"1888",84.26887,780.0109
"1889",83.93683,780.0241
"1890",83.62188,780.03754
"1891",83.36797,780.0507
"1892",83.19707,780.06415
"1893",83.104294,780.07733
"1894",83.06523,780.09076
"1895",83.04326,780.10394
"1896",82.99687,780.1174
"1897",82.89433,780.13055
"1898",82.72587,780.144
"1899",82.48173,780.15717
"1900",82.16678,780.1706
"1901",81.78592,780.1838
"1902",81.36599,780.1972
"1903",80.92897,780.2104
"1904",80.49439,780.2238
"1905",80.08179,780.237
"1906",79.710686,780.2504
"1907",79.378654,780.2636
"1908",79.08568,780.27704
"1909",78.82933,780.2902
"1910",78.61204,780.30365
"1911",78.42649,780.31683
"1912",78.28001,780.33026
"1913",78.16281,780.34344
"1914",78.07492,780.3569
"1915",78.011444,780.37006
"1916",77.95773,780.3835
"1917",77.908905,780.39667
"1918",77.86008,780.4101
"1919",77.803925,780.4233
"1920",77.733116,780.4367
"1921",77.642784,780.4499
"1922",77.523155,780.4633
"1923",77.36446,780.4765
"1924",77.15694,780.4899
"1925",76.90059,780.5031
"1926",76.59785,780.51654
"1927",76.299995,780.5297
"1928",76.0827,780.54315
"1929",76.11688,780.55634
"1930",76.61982,780.56976
"1931",77.76242,780.58295
"1932",79.554436,780.5964
"1933",81.82742,780.60956
"1934",84.27619,780.623
"1935",86.536964,780.63617
"1936",88.29969,780.6496
"1937",89.410545,780.6628
"1938",89.88663,780.6762
"1939",89.84024,780.6894
"1940",89.40566,780.7028
"1941",88.72205,780.716
"1942",87.923706,780.72943
"1943",87.1107,780.7426
"1944",86.36118,780.75604
"1945",85.71664,780.7692
"1946",85.17708,780.78265
"1947",84.715645,780.79584
"1948",84.29084,780.80927
"1949",83.8587,780.82245
"1950",83.39971,780.8359
"1951",82.92119,780.84906
"1952",82.45487,780.8625
"1953",82.039825,780.8757
"1954",81.705345,780.8891
"1955",81.45876,780.9023
"1956",81.28542,780.9157
"1957",81.1487,780.9289
"1958",81.01198,780.9423
"1959",80.83864,780.9555
"1960",80.6067,780.96893
"1961",80.31373,780.9821
"1962",79.96216,780.99554
"1963",79.56176,781.0087
"1964",79.12474,781.02216
"1965",78.67063,781.03534
"1966",78.21164,781.04877
"1967",77.769745,781.06195
"1968",77.35958,781.0754
"1969",76.995804,781.08856
"1970",76.68818,781.102
"1971",76.44404,781.1152
"1972",76.25849,781.1286
"1973",76.12421,781.1418
"1974",76.02899,781.1552
"1975",75.96063,781.1684
"1976",75.90204,781.1818
"1977",75.843445,781.195
"1978",75.78485,781.20844
"1979",75.718925,781.2216
"1980",75.64568,781.23505
"1981",75.577324,781.2482
"1982",75.511406,781.26166
"1983",75.44549,781.27484
"1984",75.37713,781.28827
"1985",75.31121,781.30145
"1986",75.23064,781.3149
"1987",75.13298,781.32806
"1988",75.00847,781.3415
"1989",74.861984,781.3547
"1990",74.69352,781.3681
"1991",74.510414,781.3813
"1992",74.33219,781.3947
"1993",74.212555,781.4079
"1994",74.26139,781.4213
"1995",74.65934,781.4345
"1996",75.59441,781.44794
"1997",77.154495,781.4611
"1998",79.2517,781.47455
"1999",81.64675,781.48773
"2000",83.99298,781.50116
"2001",85.9559,781.51434
"2002",87.31579,781.5278
"2003",88.0238,781.54095
"2004",88.162964,781.5544
"2005",87.87244,781.56757
"2006",87.291374,781.581
"2007",86.54673,781.5942
"2008",85.75571,781.6076
"2009",85.00374,781.6208
"2010",84.33723,781.6342
"2011",83.78058,781.6474
"2012",83.32403,781.6608
"2013",82.92607,781.674
"2014",82.545204,781.68744
"2015",82.15213,781.7006
"2016",81.74685,781.71405
"2017",81.35134,781.72723
"2018",81.00221,781.74066
"2019",80.726326,781.75385
"2020",80.53834,781.7673
"2021",80.41871,781.78046
"2022",80.33814,781.7939
"2023",80.26246,781.80707
"2024",80.16235,781.8205
"2025",80.008545,781.8337
"2026",79.79126,781.8471
"2027",79.51293,781.8603
"2028",79.185776,781.8737
"2029",78.82201,781.8869
"2030",78.4387,781.9003
"2031",78.04318,781.9135
"2032",77.65011,781.92694
"2033",77.279015,781.9401
"2034",76.94209,781.95355
"2035",76.64912,781.96674
"2036",76.41474,781.98016
"2037",76.23651,781.99335
"2038",76.104675,782.0068
"2039",76.00946,782.01996
"2040",75.94354,782.0334
"2041",75.8996,782.0466
"2042",75.86542,782.06
"2043",75.83612,782.0732
"2044",75.809265,782.0866
"2045",75.772644,782.0998
"2046",75.73113,782.1132
"2047",75.684746,782.1264
"2048",75.62859,782.13983
"2049",75.562675,782.153
"2050",75.491875,782.16644
"2051",75.41863,782.1796
"2052",75.34295,782.19305
"2053",75.27459,782.20624
"2054",75.20378,782.21967
"2055",75.1281,782.23285
"2056",75.04021,782.2463
"2057",74.94011,782.25946
"2058",74.8156,782.2729
"2059",74.68131,782.2861
"2060",74.53971,782.2995
"2061",74.41032,782.3127
"2062",74.34684,782.3261
"2063",74.486,782.3393
"2064",75.028,782.3527
"2065",76.173035,782.3659
"2066",77.979706,782.37933
"2067",80.32838,782.3925
"2068",82.92851,782.40594
"2069",85.399254,782.4191
"2070",87.40368,782.43256
"2071",88.73914,782.44574
"2072",89.38857,782.45917
"2073",89.46426,782.47235
"2074",89.112686,782.4858
"2075",88.47059,782.49896
"2076",87.67956,782.5124
"2077",86.854355,782.5256
"2078",86.07797,782.539
"2079",85.401695,782.5522
"2080",84.842606,782.5656
"2081",84.37385,782.5788
"2082",83.95636,782.5922
"2083",83.54864,782.6054
"2084",83.13847,782.61884
"2085",82.72343,782.632
"2086",82.33036,782.64545
"2087",81.986115,782.6586
"2088",81.722435,782.67206
"2089",81.53689,782.68524
"2090",81.41238,782.69867
"2091",81.31472,782.71185
"2092",81.20729,782.7253
"2093",81.0486,782.73846
"2094",80.8069,782.7519
"2095",80.48463,782.7651
"2096",80.096436,782.7785
"2097",79.66674,782.7917
"2098",79.22728,782.8051
"2099",78.79271,782.8183
"2100",78.37766,782.8317
"2101",77.98947,782.8449
"2102",77.625694,782.85834
"2103",77.29122,782.8715
"2104",76.998245,782.88495
"2105",76.75166,782.89813
"2106",76.56367,782.91156
"2107",76.42939,782.92474
"2108",76.34394,782.9382
"2109",76.30244,782.95135
"2110",76.282906,782.9648
"2111",76.27314,782.97797
"2112",76.26093,782.9914
"2113",76.23895,783.0046
"2114",76.20233,783.018
"2115",76.14862,783.0312
"2116",76.0827,783.0446
"2117",76.00214,783.0578
"2118",75.90692,783.0712
"2119",75.79706,783.0844
"2120",75.67986,783.09784
"2121",75.560234,783.111
"2122",75.44305,783.12445
"2123",75.335625,783.13763
"2124",75.23552,783.15106
"2125",75.15007,783.16425
"2126",75.06462,783.1777
"2127",74.98161,783.19086
"2128",74.896164,783.2043
"2129",74.80095,783.21747
"2130",74.69108,783.2309
"2131",74.56901,783.2441
"2132",74.43961,783.2575
"2133",74.33463,783.2707
"2134",74.322426,783.2841
"2135",74.55924,783.2973
"2136",75.2868,783.3107
"2137",76.700386,783.3239
"2138",78.83177,783.33734
"2139",81.49294,783.3505
"2140",84.3299,783.36395
"2141",86.92027,783.37714
"2142",88.8954,783.39056
"2143",90.09415,783.40375
"2144",90.5507,783.4172
"2145",90.426186,783.43036
"2146",89.89395,783.4438
"2147",89.110245,783.457
"2148",88.21179,783.4704
"2149",87.2987,783.4836
"2150",86.4564,783.497
"2151",85.72884,783.5102
"2152",85.12581,783.5236
"2153",84.62043,783.5368
"2154",84.17853,783.55023
"2155",83.76105,783.5634
"2156",83.346,783.57684
"2157",82.94316,783.59
"2158",82.57694,783.60345
"2159",82.27665,783.61664
"2160",82.056915,783.63007
"2161",81.90799,783.64325
"2162",81.80057,783.6567
"2163",81.705345,783.66986
"2164",81.58816,783.6833
"2165",81.42458,783.6965
"2166",81.20485,783.7099
"2167",80.919205,783.7231
"2168",80.5774,783.7365
"2169",80.177,783.7497
"2170",79.73754,783.7631
"2171",79.273674,783.7763
"2172",78.81224,783.78973
"2173",78.37278,783.8029
"2174",77.977264,783.81635
"2175",77.628136,783.8295
"2176",77.31808,783.84296
"2177",77.049515,783.85614
"2178",76.824905,783.86957
"2179",76.64179,783.88275
"2180",76.50507,783.8962
"2181",76.41474,783.90936
"2182",76.368355,783.9228
"2183",76.34882,783.936
"2184",76.34394,783.9494
"2185",76.35859,783.9626
"2186",76.385445,783.976
"2187",76.419624,783.9892
"2188",76.46357,784.0026
"2189",76.50996,784.0158
"2190",76.54658,784.02924
"2191",76.56611,784.0424
"2192",76.56855,784.05585
"2193",76.5539,784.06903
"2194",76.52949,784.08246
"2195",76.507515,784.09564
"2196",76.49287,784.1091
"2197",76.48798,784.12225
"2198",76.507515,784.1357
"2199",76.56855,784.14886
"2200",76.67841,784.1623
"2201",76.83223,784.1755
"2202",77.00557,784.1889
"2203",77.154495,784.2021
"2204",77.26925,784.2155
"2205",77.38888,784.2287
"2206",77.576866,784.2421
"2207",77.8674,784.2553
"2208",78.277565,784.26874
"2209",78.82201,784.2819
"2210",79.520256,784.29535
"2211",80.38941,784.30853
"2212",81.446556,784.32196
"2213",82.6746,784.33514
"2214",83.98566,784.3486
"2215",85.23079,784.36176
"2216",86.258644,784.3752
"2217",86.9691,784.38837
"2218",87.32067,784.4018
"2219",87.325554,784.415
"2220",87.03746,784.4284
"2221",86.56138,784.4416
"2222",85.99985,784.455
"2223",85.43099,784.4682
"2224",84.90608,784.4816
"2225",84.41779,784.4948
"2226",83.914856,784.50824
"2227",83.33868,784.5214
"2228",82.65507,784.53485
"2229",81.87869,784.54803
"2230",81.04616,784.56146
"2231",80.20874,784.57465
"2232",79.42016,784.5881
"2233",78.71946,784.60126
"2234",78.10422,784.6147
"2235",77.55245,784.62787
"2236",77.01289,784.6413
"2237",76.43183,784.6545
"2238",75.809265,784.6679
"2239",75.18425,784.6811
"2240",74.60319,784.6945
"2241",74.09781,784.7077
"2242",73.67788,784.7211
"2243",73.33608,784.7343
"2244",73.03334,784.74774
"2245",72.75258,784.7609
"2246",72.515755,784.77435
"2247",72.35218,784.78754
"2248",72.274055,784.80096
"2249",72.274055,784.81415
"2250",72.33021,784.8276
"2251",72.42298,784.84076
"2252",72.532845,784.8542
"2253",72.65003,784.8674
"2254",72.77211,784.8808
"2255",72.91127,784.894
"2256",73.06996,784.9074
"2257",73.248184,784.9206
"2258",73.445946,784.934
"2259",73.65591,784.9472
"2260",73.85855,784.96063
"2261",74.039215,784.9738
"2262",74.1857,784.98724
"2263",74.288246,785.0004
"2264",74.34196,785.01385
"2265",74.36149,785.02704
"2266",74.36393,785.04047
"2267",74.36149,785.05365
"2268",74.36881,785.0671
"2269",74.39323,785.08026
"2270",74.42985,785.0937
"2271",74.476234,785.1069
"2272",74.512856,785.1203
"2273",74.53727,785.1335
"2274",74.53239,785.1469
"2275",74.50065,785.1601
"2276",74.45182,785.1735
"2277",74.407875,785.1867
"2278",74.390785,785.20013
"2279",74.444496,785.2133
"2280",74.68131,785.22675
"2281",75.30633,785.2399
"2282",76.57099,785.25336
"2283",78.64866,785.26654
"2284",81.48562,785.27997
"2285",84.78645,785.29315
"2286",88.09216,785.3066
"2287",90.91936,785.31976
"2288",92.928665,785.3332
"2289",94.02487,785.3464
"2290",94.327614,785.3598
"2291",94.05417,785.373
"2292",93.39498,785.3864
"2293",92.51118,785.3996
"2294",91.52972,785.413
"2295",90.548256,785.4262
"2296",89.637596,785.43964
"2297",88.84169,785.4528
"2298",88.17273,785.46625
"2299",87.6112,785.47943
"2300",87.12291,785.49286
"2301",86.68101,785.50604
"2302",86.26597,785.5195
"2303",85.8851,785.53265
"2304",85.555504,785.5461
"2305",85.29427,785.55927
"2306",85.103836,785.5727
"2307",84.979324,785.5859
"2308",84.89876,785.5993
"2309",84.83284,785.6125
"2310",84.7425,785.6259
"2311",84.58869,785.6391
"2312",84.33967,785.6525
"2313",83.980774,785.6657
"2314",83.51202,785.67914
"2315",82.94072,785.6923
"2316",82.28153,785.70575
"2317",81.55154,785.71893
"2318",80.780045,785.73236
"2319",80.00122,785.74554
"2320",79.24437,785.759
"2321",78.553444,785.77216
"2322",77.96506,785.7856
"2323",77.488976,785.79877
"2324",77.120316,785.8122
"2325",76.84932,785.8254
"2326",76.64912,785.8388
"2327",76.50263,785.852
"2328",76.39277,785.8654
"2329",76.30244,785.8786
"2330",76.224304,785.892
"2331",76.16083,785.9052
"2332",76.102234,785.91864
"2333",76.04852,785.9318
"2334",76.00214,785.94525
"2335",75.9704,785.95844
"2336",75.94354,785.97186
"2337",75.91913,785.98505
"2338",75.88739,785.9985
"2339",75.84833,786.01166
"2340",75.7995,786.0251
"2341",75.74334,786.03827
"2342",75.67254,786.0517
"2343",75.58221,786.0649
"2344",75.46258,786.0783
"2345",75.31609,786.0915
"2346",75.140305,786.1049
"2347",74.94499,786.1181
"2348",74.76677,786.13153
"2349",74.66422,786.1447
"2350",74.76677,786.15814
"2351",75.299,786.1713
"2352",76.53437,786.18475
"2353",78.63645,786.19794
"2354",81.54177,786.21136
"2355",84.92561,786.22455
"2356",88.30213,786.238
"2357",91.16594,786.25116
"2358",93.170364,786.2646
"2359",94.21774,786.2778
"2360",94.435036,786.2912
"2361",94.049286,786.3044
"2362",93.277794,786.3178
"2363",92.27924,786.331
"2364",91.18303,786.3444
"2365",90.07706,786.3576
"2366",89.024796,786.37103
"2367",88.0531,786.3842
"2368",87.17418,786.39764
"2369",86.36118,786.4108
"2370",85.60189,786.42426
"2371",84.88655,786.43744
"2372",84.244446,786.45087
"2373",83.702446,786.46405
"2374",83.302055,786.4775
"2375",83.053024,786.49066
"2376",82.9456,786.5041
"2377",82.933395,786.5173
"2378",82.95537,786.5307
"2379",82.95781,786.5439
"2380",82.88457,786.5573
"2381",82.69657,786.5705
"2382",82.37675,786.5839
"2383",81.934845,786.5971
"2384",81.38308,786.61053
"2385",80.74586,786.6237
"2386",80.05493,786.63715
"2387",79.33227,786.6503
"2388",78.61204,786.66376
"2389",77.91135,786.67694
"2390",77.26681,786.69037
"2391",76.70283,786.70355
"2392",76.23895,786.717
"2393",75.87518,786.73016
"2394",75.5993,786.7436
"2395",75.403984,786.7568
"2396",75.26238,786.7702
"2397",75.1696,786.7834
"2398",75.11589,786.7968
"2399",75.09636,786.81
"2400",75.10368,786.8234
"2401",75.123215,786.8366
"2402",75.13786,786.85004
"2403",75.13786,786.8632
"2404",75.11833,786.87665
"2405",75.08659,786.88983
"2406",75.0695,786.90326
"2407",75.08659,786.91644
"2408",75.15007,786.9299
"2409",75.250175,786.94305
"2410",75.36004,786.9565
"2411",75.43816,786.96967
"2412",75.44793,786.9831
"2413",75.369804,786.9963
"2414",75.22331,787.0097
"2415",75.052414,787.0229
"2416",74.94011,787.0363
"2417",75.028,787.0495
"2418",75.55047,787.0629
"2419",76.74189,787.0761
"2420",78.72678,787.08954
"2421",81.40261,787.1027
"2422",84.4593,787.11615
"2423",87.447624,787.12933
"2424",89.92813,787.14276
"2425",91.598076,787.15594
"2426",92.39643,787.1694
"2427",92.45258,787.18256
"2428",91.964294,787.196
"2429",91.11223,787.20917
"2430",90.05264,787.2226
"2431",88.902725,787.2358
"2432",87.75525,787.2492
"2433",86.67368,787.2624
"2434",85.69222,787.2758
"2435",84.82063,787.289
"2436",84.03693,787.3024
"2437",83.32403,787.3156
"2438",82.6746,787.32904
"2439",82.09354,787.3422
"2440",81.62234,787.35565
"2441",81.287865,787.36884
"2442",81.112076,787.38226
"2443",81.08522,787.39545
"2444",81.160904,787.4089
"2445",81.26833,787.42206
"2446",81.34646,787.4355
"2447",81.33669,787.44867
"2448",81.20485,787.4621
"2449",80.94118,787.4753
"2450",80.56031,787.4887
"2451",80.08179,787.5019
"2452",79.52514,787.5153
"2453",78.91478,787.5285
"2454",78.27512,787.54193
"2455",77.63546,787.5551
"2456",77.02022,787.56854
"2457",76.45869,787.5817
"2458",75.97772,787.59515
"2459",75.58709,787.60834
"2460",75.299,787.62177
"2461",75.10124,787.63495
"2462",74.98161,787.6484
"2463",74.91814,787.66156
"2464",74.89372,787.675
"2465",74.89128,787.6882
"2466",74.915695,787.7016
"2467",74.95476,787.7148
"2468",75.003586,787.7282
"2469",75.0573,787.7414
"2470",75.11345,787.7548
"2471",75.14763,787.768
"2472",75.159836,787.78143
"2473",75.14763,787.7946
"2474",75.11101,787.80804
"2475",75.054855,787.8212
"2476",74.97917,787.83466
"2477",74.8864,787.84784
"2478",74.776535,787.86127
"2479",74.64469,787.87445
"2480",74.48356,787.8879
"2481",74.305336,787.90106
"2482",74.12955,787.9145
"2483",74.01724,787.9277
"2484",74.09781,787.9411
"2485",74.60319,787.9543
"2486",75.79706,787.9677
"2487",77.855194,787.9809
"2488",80.71412,787.9943
"2489",84.068665,788.0075
"2490",87.44274,788.02094
"2491",90.34318,788.0341
"2492",92.40864,788.04755
"2493",93.524376,788.0607
"2494",93.79294,788.07416
"2495",93.42672,788.08734
"2496",92.62592,788.10077
"2497",91.55657,788.11395
"2498",90.36515,788.1274
"2499",89.15663,788.14056
"2500",88.009155,788.154
"2501",86.96666,788.1672
"2502",86.046234,788.1806
"2503",85.23323,788.1938
"2504",84.50324,788.2072
"2505",83.83917,788.2204
"2506",83.24834,788.2338
"2507",82.75517,788.247
"2508",82.39384,788.26044
"2509",82.17166,788.2736
"2510",82.08133,788.28705
"2511",82.07645,788.30023
"2512",82.1033,788.31366
"2513",82.1033,788.32684
"2514",82.02518,788.3403
"2515",81.83719,788.35345
"2516",81.529564,788.3669
"2517",81.09987,788.38007
"2518",80.56031,788.3935
"2519",79.93286,788.4067
"2520",79.23949,788.4201
"2521",78.49973,788.4333
"2522",77.74288,788.4467
"2523",77.00069,788.4599
"2524",76.299995,788.4733
"2525",75.667656,788.4865
"2526",75.12077,788.49994
"2527",74.67155,788.5131
"2528",74.32731,788.52655
"2529",74.075836,788.53973
"2530",73.91226,788.55316
"2531",73.814606,788.56635
"2532",73.76822,788.5798
"2533",73.75845,788.59296
"2534",73.77066,788.6064
"2535",73.79019,788.61957
"2536",73.814606,788.633
"2537",73.83658,788.6462
"2538",73.85367,788.6596
"2539",73.86099,788.6728
"2540",73.85855,788.6862
"2541",73.8439,788.6994
"2542",73.812164,788.7128
"2543",73.763336,788.726
"2544",73.69741,788.73944
"2545",73.60708,788.7526
"2546",73.494774,788.76605
"2547",73.358055,788.77924
"2548",73.2018,788.79266
"2549",73.05043,788.80585
"2550",72.95033,788.8193
"2551",73.00893,788.83246
"2552",73.443504,788.8459
"2553",74.54948,788.8591
"2554",76.57343,788.8725
"2555",79.56176,788.8857
"2556",83.267876,788.8991
"2557",87.20836,788.9123
"2558",90.78508,788.9257
"2559",93.504845,788.9389
"2560",95.12352,788.95233
"2561",95.68505,788.9655
"2562",95.40429,788.97894
"2563",94.5449,788.9921
"2564",93.33395,789.00555
"2565",91.935,789.01874
"2566",90.48234,789.03217
"2567",89.0663,789.04535
"2568",87.73815,789.0588
"2569",86.52476,789.07196
"2570",85.43099,789.0854
"2571",84.44953,789.0986
"2572",83.580376,789.112
"2573",82.84062,789.1252
"2574",82.26444,789.1386
"2575",81.87625,789.1518
"2576",81.68337,789.1652
"2577",81.65652,789.1784
"2578",81.74441,789.19183
"2579",81.86893,789.205
"2580",81.94705,789.21844
"2581",81.917755,789.2316
"2582",81.739525,789.24506
"2583",81.40017,789.25824
"2584",80.90456,789.27167
"2585",80.27711,789.28485
"2586",79.537346,789.2983
"2587",78.72434,789.31146
"2588",77.872284,789.3249
"2589",77.02022,789.3381
"2590",76.207214,789.3515
"2591",75.46014,789.3647
"2592",74.810715,789.3781
"2593",74.2736,789.3913
"2594",73.848785,789.4047
"2595",73.53628,789.4179
"2596",73.32632,789.43134
"2597",73.2018,789.4445
"2598",73.1432,789.45795
"2599",73.131,789.4711
"2600",73.15053,789.48456
"2601",73.18471,789.49774
"2602",73.233536,789.51117
"2603",73.289696,789.52435
"2604",73.34341,789.5378
"2605",73.38491,789.55096
"2606",73.411766,789.5644
"2607",73.41909,789.5776
"2608",73.409325,789.591
"2609",73.38247,789.6042
"2610",73.32632,789.6176
"2611",73.2433,789.6308
"2612",73.128555,789.6442
"2613",72.99672,789.6574
"2614",72.87709,789.67084
"2615",72.84535,789.684
"2616",73.06996,789.69745
"2617",73.814606,789.71063
"2618",75.37469,789.72406
"2619",77.89914,789.73724
"2620",81.28298,789.7507
"2621",85.1429,789.76385
"2622",88.919815,789.7773
"2623",92.05463,789.79047
"2624",94.186005,789.8039
"2625",95.24071,789.8171
"2626",95.37255,789.8305
"2627",94.82323,789.8437
"2628",93.82712,789.8571
"2629",92.56245,789.8703
"2630",91.1635,789.8837
"2631",89.73281,789.8969
"2632",88.341194,789.91034
"2633",87.03746,789.9235
"2634",85.82651,789.93695
"2635",84.7132,789.95013
"2636",83.70489,789.96356
"2637",82.82109,789.97675
"2638",82.1033,789.9902
"2639",81.59548,790.00336
"2640",81.3196,790.0168
"2641",81.26101,790.02997
"2642",81.36355,790.0434
"2643",81.53933,790.0566
"2644",81.69802,790.07
"2645",81.75662,790.0832
"2646",81.66628,790.0966
"2647",81.41238,790.1098
"2648",80.99733,790.1232
"2649",80.44068,790.1364
"2650",79.77173,790.14984
"2651",79.01488,790.163
"2652",78.20676,790.17645
"2653",77.39132,790.18964
"2654",76.60273,790.20306
"2655",75.877625,790.21625
"2656",75.2404,790.2297
"2657",74.70573,790.24286
"2658",74.27848,790.2563
"2659",73.96353,790.2695
"2660",73.7438,790.2829
"2661",73.60952,790.2961
"2662",73.55093,790.3095
"2663",73.55337,790.3227
"2664",73.61196,790.3361
"2665",73.70962,790.3493
"2666",73.83414,790.36273
"2667",73.9733,790.3759
"2668",74.107574,790.38934
"2669",74.22232,790.4025
"2670",74.302895,790.41595
"2671",74.337074,790.42914
"2672",74.322426,790.44257
"2673",74.251625,790.45575
"2674",74.127106,790.4692
"2675",73.970856,790.48236
"2676",73.80728,790.4958
"2677",73.69009,790.509
"2678",73.74868,790.5224
"2679",74.20035,790.5356
"2680",75.31609,790.549
"2681",77.29366,790.5622
"2682",80.11841,790.5756
"2683",83.52178,790.5888
"2684",87.02525,790.60223
"2685",90.091705,790.6154
"2686",92.315865,790.62885
"2687",93.521935,790.642
"2688",93.7905,790.65546
"2689",93.33395,790.66864
"2690",92.39643,790.68207
"2691",91.17326,790.69525
"2692",89.82071,790.7087
"2693",88.44373,790.72186
"2694",87.11803,790.7353
"2695",85.875336,790.7485
"2696",84.732735,790.7619
"2697",83.6878,790.7751
"2698",82.74784,790.7885
"2699",81.9324,790.8017
"2700",81.27566,790.8151
"2701",80.816666,790.8283
"2702",80.57984,790.84174
"2703",80.552986,790.8549
"2704",80.69215,790.86835
"2705",80.91432,790.88153
"2706",81.126724,790.89496
"2707",81.248795,790.90814
"2708",81.22194,790.9216
"2709",81.0193,790.93475
"2710",80.64332,790.9482
"2711",80.11597,790.96136
"2712",79.466545,790.9748
"2713",78.71702,790.988
"2714",77.90158,791.0014
"2715",77.051956,791.0146
"2716",76.20477,791.028
"2717",75.3991,791.0412
"2718",74.65934,791.0546
"2719",74.00992,791.0678
"2720",73.46548,791.08124
"2721",73.0309,791.0944
"2722",72.706184,791.10785
"2723",72.49134,791.12103
"2724",72.379036,791.13446
"2725",72.36439,791.14764
"2726",72.43275,791.1611
"2727",72.5597,791.17426
"2728",72.73548,791.1877
"2729",72.935684,791.20087
"2730",73.13832,791.2143
"2731",73.323875,791.2275
"2732",73.47524,791.2409
"2733",73.58022,791.2541
"2734",73.63149,791.2675
"2735",73.633934,791.2807
"2736",73.59487,791.2941
"2737",73.53628,791.3073
"2738",73.497215,791.32074
"2739",73.5436,791.3339
"2740",73.814606,791.34735
"2741",74.512856,791.36053
"2742",75.85565,791.37396
"2743",77.95773,791.38715
"2744",80.7483,791.4006
"2745",83.94171,791.41376
"2746",87.096054,791.4272
"2747",89.76456,791.44037
"2748",91.6347,791.4538
"2749",92.59907,791.467
"2750",92.73823,791.4804
"2751",92.23529,791.4936
"2752",91.29534,791.507
"2753",90.091705,791.5202
"2754",88.73914,791.5336
"2755",87.31335,791.5468
"2756",85.855804,791.56024
"2757",84.4007,791.5734
"2758",82.98711,791.58685
"2759",81.67605,791.60004
"2760",80.54566,791.61346
"2761",79.693596,791.62665
"2762",79.1931,791.6401
"2763",79.078354,791.65326
"2764",79.33227,791.6667
"2765",79.87915,791.6799
"2766",80.58961,791.6933
"2767",81.322044,791.7065
"2768",81.934845,791.7199
"2769",82.32304,791.7331
"2770",82.43778,791.7465
"2771",82.286415,791.7597
"2772",81.90311,791.77313
"2773",81.341576,791.7863
"2774",80.65308,791.79974
"2775",79.8938,791.8129
"2776",79.09544,791.82635
"2777",78.30686,791.83954
"2778",77.557335,791.85297
"2779",76.876175,791.86615
"2780",76.28535,791.8796
"2781",75.80194,791.89276
"2782",75.43328,791.9062
"2783",75.174484,791.9194
"2784",75.01091,791.9328
"2785",74.93523,791.946
"2786",74.92302,791.9594
"2787",74.95232,791.9726
"2788",75.00603,791.986
"2789",75.05974,791.9992
"2790",75.09392,792.01263
"2791",75.106125,792.0258
"2792",75.10124,792.03925
"2793",75.11589,792.0524
"2794",75.22575,792.06586
"2795",75.58465,792.07904
"2796",76.37324,792.09247
"2797",77.752655,792.10565
"2798",79.75464,792.1191
"2799",82.23758,792.13226
"2800",84.89632,792.1457
"2801",87.34753,792.1589
"2802",89.26162,792.1723
"2803",90.45304,792.1855
"2804",90.90715,792.1989
"2805",90.73136,792.2121
"2806",90.08682,792.2255
"2807",89.11757,792.2387
"2808",87.938354,792.25214
"2809",86.63462,792.2653
"2810",85.25521,792.27875
"2811",83.83673,792.29193
"2812",82.423134,792.30536
"2813",81.075455,792.31854
"2814",79.87427,792.332
"2815",78.91478,792.34515
"2816",78.277565,792.3586
"2817",78.00656,792.37177
"2818",78.10422,792.3852
"2819",78.52415,792.3984
"2820",79.15648,792.4118
"2821",79.871826,792.425
"2822",80.52857,792.4384
"2823",81.004654,792.4516
"2824",81.231705,792.465
"2825",81.197525,792.4782
"2826",80.93385,792.49164
"2827",80.48951,792.5048
"2828",79.91577,792.51825
"2829",79.237045,792.53143
"2830",78.4802,792.54486
"2831",77.68429,792.55804
"2832",76.89815,792.5715
"2833",76.16083,792.58466
"2834",75.52361,792.5981
"2835",75.00603,792.61127
"2836",74.62272,792.6247
"2837",74.371254,792.6379
"2838",74.24429,792.6513
"2839",74.21988,792.6645
"2840",74.2736,792.6779
"2841",74.37858,792.6911
"2842",74.50553,792.7045
"2843",74.634926,792.7177
"2844",74.76921,792.73114
"2845",74.91814,792.7443
"2846",75.11101,792.75775
"2847",75.42596,792.77094
"2848",76.019226,792.78436
"2849",77.086136,792.79755
"2850",78.79271,792.811
"2851",81.15358,792.82416
"2852",83.980774,792.8376
"2853",86.905624,792.85077
"2854",89.50332,792.8642
"2855",91.4345,792.8774
"2856",92.525826,792.8908
"2857",92.823685,792.904
"2858",92.49409,792.9174
"2859",91.73235,792.9306
"2860",90.702065,792.94403
"2861",89.530174,792.9572
"2862",88.309456,792.97064
"2863",87.09361,792.9838
"2864",85.924164,792.99725
"2865",84.808426,793.01044
"2866",83.76105,793.02386
"2867",82.79912,793.03705
"2868",81.95926,793.0505
"2869",81.30251,793.06366
"2870",80.88747,793.0771
"2871",80.73365,793.0903
"2872",80.82887,793.1037
"2873",81.09743,793.1169
"2874",81.44167,793.1303
"2875",81.761505,793.1435
"2876",81.971466,793.1569
"2877",82.02518,793.1701
"2878",81.90555,793.18353
"2879",81.617455,793.1967
"2880",81.17311,793.21014
"2881",80.6067,793.2233
"2882",79.94751,793.23676
"2883",79.23216,793.24994
"2884",78.49485,793.26337
"2885",77.77463,793.27655
"2886",77.10567,793.29
"2887",76.51728,793.30316
"2888",76.019226,793.3166
"2889",75.613945,793.3298
"2890",75.29656,793.3432
"2891",75.05974,793.3564
"2892",74.89372,793.3698
"2893",74.79118,793.383
"2894",74.74235,793.3964
"2895",74.73258,793.4096
"2896",74.73991,793.42303
"2897",74.737465,793.4362
"2898",74.70084,793.44965
"2899",74.62272,793.4628
"2900",74.53239,793.47626
"2901",74.52506,793.48944
"2902",74.79607,793.50287
"2903",75.58221,793.51605
"2904",77.05928,793.5295
"2905",79.22484,793.54266
"2906",81.87625,793.5561
"2907",84.647285,793.5693
"2908",87.13023,793.5827
"2909",89.005264,793.5959
"2910",90.125885,793.6093
"2911",90.53605,793.6225
"2912",90.374916,793.6359
"2913",89.813385,793.6491
"2914",89.00282,793.66254
"2915",88.07019,793.6757
"2916",87.10826,793.68915
"2917",86.16586,793.70233
"2918",85.262535,793.71576
"2919",84.403145,793.72894
"2920",83.5877,793.7424
"2921",82.83574,793.75555
"2922",82.16678,793.769
"2923",81.602806,793.78217
"2924",81.16823,793.7956
"2925",80.87282,793.8088
"2926",80.71412,793.8222
"2927",80.6775,793.8354
"2928",80.72877,793.8488
"2929",80.814224,793.862
"2930",80.86061,793.8754
"2931",80.81911,793.8886
"2932",80.66041,793.90204
"2933",80.37232,793.9152
"2934",79.974365,793.92865
"2935",79.49828,793.94183
"2936",78.96361,793.95526
"2937",78.38499,793.96844
"2938",77.77951,793.9819
"2939",77.15938,793.99506
"2940",76.54902,794.0085
"2941",75.96307,794.02167
"2942",75.4284,794.0351
"2943",74.969406,794.0483
"2944",74.617836,794.0617
"2945",74.3859,794.0749
"2946",74.27848,794.0883
"2947",74.28336,794.1015
"2948",74.36637,794.1149
"2949",74.495766,794.1281
"2950",74.632484,794.14154
"2951",74.74723,794.1547
"2952",74.813156,794.16815
"2953",74.827805,794.18134
"2954",74.793625,794.19476
"2955",74.74479,794.20795
"2956",74.77409,794.2214
"2957",75.0573,794.23456
"2958",75.83612,794.248
"2959",77.28634,794.26117
"2960",79.40795,794.2746
"2961",81.99832,794.2878
"2962",84.70588,794.3012
"2963",87.1107,794.3144
"2964",88.88808,794.3278
"2965",89.90616,794.341
"2966",90.228424,794.35443
"2967",90.01114,794.3676
"2968",89.42031,794.38104
"2969",88.604866,794.3942
"2970",87.69421,794.40765
"2971",86.783554,794.42084
"2972",85.94614,794.43427
"2973",85.23567,794.44745
"2974",84.65461,794.4609
"2975",84.16144,794.47406
"2976",83.702446,794.4875
"2977",83.22392,794.5007
"2978",82.701454,794.5141
"2979",82.16434,794.5273
"2980",81.66628,794.5407
"2981",81.26345,794.5539
"2982",80.98512,794.5673
"2983",80.82643,794.5805
"2984",80.75319,794.59393
"2985",80.71412,794.6071
"2986",80.655525,794.62054
"2987",80.5359,794.6337
"2988",80.3357,794.64716
"2989",80.04761,794.66034
"2990",79.676506,794.67377
"2991",79.24681,794.68695
"2992",78.768295,794.7004
"2993",78.2678,794.71356
"2994",77.75754,794.727
"2995",77.25704,794.7402
"2996",76.771194,794.7536
"2997",76.317085,794.7668
"2998",75.90936,794.7802
"2999",75.56512,794.7934
"3000",75.29412,794.8068
"3001",75.10857,794.82
"3002",75.00603,794.83344
"3003",74.966965,794.8466
"3004",74.97429,794.86005
"3005",74.9987,794.8732
"3006",75.02312,794.88666
"3007",75.03044,794.89984
"3008",75.00847,794.91327
"3009",74.94499,794.92645
"3010",74.830246,794.9399
"3011",74.66422,794.95306
"3012",74.48112,794.9665
"3013",74.37858,794.9797
"3014",74.53483,794.9931
"3015",75.174484,795.0063
"3016",76.456245,795.0197
"3017",78.37278,795.0329
"3018",80.73609,795.0463
"3019",83.21904,795.0595
"3020",85.46517,795.07294
"3021",87.186386,795.0861
"3022",88.26307,795.09955
"3023",88.72938,795.11273
"3024",88.69276,795.12616
"3025",88.28016,795.13934
"3026",87.61608,795.1528
"3027",86.82506,795.16595
"3028",86.02426,795.1794
"3029",85.30404,795.19257
"3030",84.70832,795.206
"3031",84.23712,795.2192
"3032",83.84894,795.2326
"3033",83.4876,795.2458
"3034",83.09453,795.2592
"3035",82.65751,795.2724
"3036",82.19119,795.2858
"3037",81.74441,795.299
"3038",81.356224,795.31244
"3039",81.06325,795.3256
"3040",80.86549,795.33905
"3041",80.743416,795.35223
"3042",80.65064,795.36566
"3043",80.53834,795.37885
"3044",80.37232,795.3923
"3045",80.130615,795.40546
"3046",79.81079,795.4189
"3047",79.4226,795.43207
"3048",78.97337,795.4455
"3049",78.485085,795.4587
"3050",77.9675,795.4721
"3051",77.44015,795.4853
"3052",76.92256,795.4987
"3053",76.42695,795.5119
"3054",75.9704,795.5253
"3055",75.577324,795.5385
"3056",75.245285,795.55194
"3057",74.98161,795.5651
"3058",74.7863,795.57855
"3059",74.64713,795.59174
"3060",74.55192,795.60516
"3061",74.48356,795.61835
"3062",74.43229,795.6318
"3063",74.39323,795.64496
"3064",74.34928,795.6584
"3065",74.29557,795.6716
"3066",74.23453,795.685
"3067",74.1564,795.6982
"3068",74.06119,795.7116
"3069",73.94156,795.7248
"3070",73.795074,795.7382
"3071",73.61196,795.7514
"3072",73.402,795.76483
"3073",73.1725,795.778
"3074",72.97719,795.79144
"3075",72.91371,795.8046
"3076",73.17738,795.81805
"3077",74.039215,795.83124
"3078",75.69695,795.84467
"3079",78.15549,795.85785
"3080",81.17311,795.8713
"3081",84.3299,795.88446
"3082",87.15465,795.8979
"3083",89.28115,795.9111
"3084",90.55558,795.9245
"3085",91.056076,795.9377
"3086",90.9633,795.9511
"3087",90.47501,795.9643
"3088",89.75235,795.9777
"3089",88.9247,795.9909
"3090",88.09216,796.00433
"3091",87.325554,796.0175
"3092",86.661476,796.03094
"3093",86.10239,796.0441
"3094",85.62386,796.05756
"3095",85.17464,796.07074
"3096",84.70588,796.08417
"3097",84.17853,796.09735
"3098",83.58282,796.1108
"3099",82.93584,796.12396
"3100",82.2913,796.1374
"3101",81.70046,796.1506
"3102",81.21217,796.164
"3103",80.83864,796.1772
"3104",80.5774,796.1906
"3105",80.394295,796.2038
"3106",80.23804,796.2172
"3107",80.0647,796.2304
"3108",79.84253,796.24384
"3109",79.55688,796.257
"3110",79.202866,796.27045
"3111",78.785385,796.2836
"3112",78.32151,796.29706
"3113",77.83322,796.31024
"3114",77.332726,796.32367
"3115",76.839554,796.33685
"3116",76.37324,796.3503
"3117",75.95087,796.36346
"3118",75.57488,796.3769
"3119",75.264824,796.3901
"3120",75.02312,796.4035
"3121",74.847336,796.4167
"3122",74.73502,796.4301
"3123",74.67643,796.4433
"3124",74.64469,796.4567
"3125",74.62272,796.4699
"3126",74.59586,796.48334
"3127",74.55436,796.4965
"3128",74.48844,796.50995
"3129",74.39811,796.52313
"3130",74.28092,796.53656
"3131",74.14664,796.54974
"3132",73.99527,796.5632
"3133",73.83658,796.57635
"3134",73.670555,796.5898
"3135",73.5021,796.60297
"3136",73.34341,796.6164
"3137",73.19447,796.6296
"3138",73.05531,796.643
"3139",72.9308,796.6562
"3140",72.82338,796.6696
"3141",72.7306,796.6828
"3142",72.6598,796.6962
"3143",72.64027,796.7094
"3144",72.75258,796.72284
"3145",73.1725,796.736
"3146",74.158844,796.74945
"3147",75.93866,796.76263
"3148",78.538795,796.77606
"3149",81.73708,796.78925
"3150",85.09895,796.8027
"3151",88.13367,796.81586
"3152",90.426186,796.8293
"3153",91.80316,796.84247
"3154",92.32563,796.8559
"3155",92.20355,796.8691
"3156",91.65667,796.8825
"3157",90.85832,796.8957
"3158",89.94522,796.9091
"3159",89.02724,796.9223
"3160",88.17761,796.9357
"3161",87.430534,796.9489
"3162",86.7982,796.96234
"3163",86.2562,796.9755
"3164",85.753265,796.98895
"3165",85.24544,797.00214
"3166",84.70588,797.01556
"3167",84.137024,797.02875
"3168",83.56817,797.0422
"3169",83.038376,797.05536
"3170",82.581825,797.0688
"3171",82.210724,797.082
"3172",81.917755,797.0954
"3173",81.67361,797.1086
"3174",81.45632,797.122
"3175",81.22682,797.1352
"3176",80.96315,797.1486
"3177",80.65064,797.1618
"3178",80.274666,797.17523
"3179",79.83032,797.1884
"3180",79.32494,797.20184
"3181",78.77806,797.215
"3182",78.19943,797.22845
"3183",77.61593,797.24164
"3184",77.04463,797.25507
"3185",76.507515,797.26825
"3186",76.0119,797.2817
"3187",75.56756,797.29486
"3188",75.18425,797.3083
"3189",74.86687,797.3215
"3190",74.617836,797.3349
"3191",74.43229,797.3481
"3192",74.302895,797.3615
"3193",74.215,797.3747
"3194",74.15152,797.3881
"3195",74.10513,797.4013
"3196",74.06363,797.41473
"3197",74.019684,797.4279
"3198",73.970856,797.44135
"3199",73.90738,797.4545
"3200",73.829254,797.46796
"3201",73.741356,797.48114
"3202",73.64858,797.49457
"3203",73.55581,797.50775
"3204",73.47036,797.5212
"3205",73.38979,797.53436
"3206",73.31899,797.5478
"3207",73.25796,797.561
"3208",73.199356,797.5744
"3209",73.145645,797.5876
"3210",73.094376,797.601
"3211",73.03822,797.6142
"3212",72.97719,797.6276
"3213",72.918594,797.6408
"3214",72.886856,797.65424
"3215",72.93324,797.6674
"3216",73.19447,797.68085
"3217",73.90982,797.69403
"3218",75.3576,797.70746
"3219",77.71847,797.72064
"3220",80.936295,797.7341
"3221",84.66682,797.74725
"3222",88.38026,797.7607
"3223",91.52483,797.77386
"3224",93.714806,797.7873
"3225",94.83299,797.8005
"3226",95.0161,797.8139
"3227",94.52537,797.8271
"3228",93.61715,797.8405
"3229",92.489204,797.8537
"3230",91.285576,797.8671
"3231",90.108795,797.8803
"3232",89.02968,797.89374
"3233",88.07507,797.9069
"3234",87.237656,797.92035
"3235",86.48814,797.93353
"3236",85.79477,797.94696
"3237",85.12825,797.96014
"3238",84.48127,797.9736
"3239",83.878235,797.98676
"3240",83.35088,798.0002
"3241",82.930954,798.01337
"3242",82.62577,798.0268
"3243",82.408485,798.04
"3244",82.2449,798.0534
"3245",82.08377,798.0666
"3246",81.87869,798.08
"3247",81.60525,798.0932
"3248",81.253685,798.1066
"3249",80.82399,798.1198
"3250",80.32105,798.13324
"3251",79.74975,798.1464
"3252",79.114975,798.15985
"3253",78.42893,798.17303
"3254",77.71847,798.18646
"3255",77.02266,798.19965
"3256",76.368355,798.2131
"3257",75.789734,798.22626
"3258",75.30633,798.2397
"3259",74.915695,798.25287
"3260",74.60563,798.2663
"3261",74.36881,798.2795
"3262",74.195465,798.2929
"3263",74.08072,798.3061
"3264",74.0148,798.3195
"3265",73.99527,798.3327
"3266",74.005035,798.3461
"3267",74.02457,798.3593
"3268",74.0441,798.37274
"3269",74.056305,798.3859
"3270",74.05875,798.39935
"3271",74.0441,798.41254
"3272",74.0148,798.42596
"3273",73.96109,798.43915
"3274",73.89761,798.4526
"3275",73.82437,798.46576
"3276",73.74868,798.4792
"3277",73.68032,798.4924
"3278",73.62905,798.5058
"3279",73.59243,798.519
"3280",73.57534,798.5324
"3281",73.5729,798.5456
"3282",73.58755,798.559
"3283",73.60708,798.5722
"3284",73.63149,798.58563
"3285",73.65591,798.5988
"3286",73.69253,798.61224
"3287",73.76578,798.6254
"3288",73.96109,798.63885
"3289",74.45182,798.65204
"3290",75.51629,798.66547
"3291",77.40597,798.67865
"3292",80.201416,798.6921
"3293",83.71221,798.70526
"3294",87.50866,798.7187
"3295",91.019455,798.7319
"3296",93.7441,798.7453
"3297",95.40673,798.7585
"3298",96.01953,798.7719
"3299",95.79248,798.7851
"3300",94.991684,798.7985
"3301",93.856415,798.8117
"3302",92.56489,798.82513
"3303",91.23918,798.8383
"3304",89.95987,798.85175
"3305",88.77577,798.8649
"3306",87.69909,798.87836
"3307",86.727394,798.89154
"3308",85.83627,798.90497
"3309",85.013504,798.91815
"3310",84.26887,798.9316
"3311",83.62676,798.94476
"3312",83.12138,798.9582
"3313",82.76494,798.9714
"3314",82.55253,798.9848
"3315",82.44999,798.998
"3316",82.391396,799.0114
"3317",82.32304,799.0246
"3318",82.19119,799.038
"3319",81.9617,799.0512
"3320",81.62234,799.06464
"3321",81.17067,799.0778
"3322",80.621346,799.09125
"3323",79.98657,799.10443
"3324",79.28832,799.11786
"3325",78.54856,799.13104
"3326",77.7966,799.1445
"3327",77.05928,799.15765
"3328",76.36347,799.1711
"3329",75.72869,799.18427
"3330",75.174484,799.1977
"3331",74.71549,799.2109
"3332",74.35172,799.2243
"3333",74.08804,799.2375
"3334",73.90738,799.2509
"3335",73.79996,799.2641
"3336",73.74868,799.2775
"3337",73.73647,799.2907
"3338",73.74868,799.30414
"3339",73.77554,799.3173
"3340",73.80972,799.33075
"3341",73.83902,799.34393
"3342",73.85367,799.35736
"3343",73.85123,799.37054
"3344",73.83658,799.384
"3345",73.812164,799.39716
"3346",73.78287,799.4106
"3347",73.763336,799.42377
"3348",73.75357,799.4372
"3349",73.75601,799.4504
"3350",73.76822,799.4638
"3351",73.78287,799.477
"3352",73.78775,799.4904
"3353",73.777985,799.5036
"3354",73.75845,799.517
"3355",73.721825,799.5302
"3356",73.6852,799.54364
"3357",73.68032,799.5568
"3358",73.76822,799.57025
"3359",74.08316,799.58344
"3360",74.86687,799.59686
"3361",76.387886,799.61005
"3362",78.79271,799.6235
"3363",81.99588,799.63666
"3364",85.65072,799.6501
"3365",89.24208,799.66327
"3366",92.242615,799.6767
"3367",94.29099,799.6899
"3368",95.294426,799.7033
"3369",95.3872,799.7165
"3370",94.80858,799.7299
"3371",93.802704,799.7431
"3372",92.55024,799.75653
"3373",91.192795,799.7697
"3374",89.830475,799.78314
"3375",88.51942,799.7963
"3376",87.28405,799.80975
"3377",86.136566,799.82294
"3378",85.07942,799.83636
"3379",84.12482,799.84955
"3380",83.29473,799.863
"3381",82.62333,799.87616
"3382",82.15701,799.8896
"3383",81.90799,799.9028
"3384",81.85672,799.9162
"3385",81.94705,799.9294
"3386",82.10574,799.9428
"3387",82.2449,799.956
"3388",82.28886,799.9694
"3389",82.193634,799.9826
"3390",81.93729,799.99603
"3391",81.52224,800.0092
"3392",80.970474,800.02264
"3393",80.29908,800.0358
"3394",79.54467,800.04926
"3395",78.73899,800.06244
"3396",77.91379,800.07587
"3397",77.100784,800.08905
"3398",76.334175,800.1025
"3399",75.63592,800.11566
"3400",75.03044,800.1291
"3401",74.52262,800.1423
"3402",74.11978,800.1557
"3403",73.81705,800.1689
"3404",73.61196,800.1823
"3405",73.48501,800.1955
"3406",73.426414,800.2089
"3407",73.426414,800.2221
"3408",73.48501,800.23553
"3409",73.585106,800.2487
"3410",73.72671,800.26215
"3411",73.89273,800.2753
"3412",74.06119,800.28876
"3413",74.20767,800.30194
"3414",74.319984,800.31537
"3415",74.38346,800.32855
"3416",74.40543,800.342
"3417",74.39567,800.35516
"3418",74.356606,800.3686
"3419",74.29313,800.3818
"3420",74.21744,800.3952
"3421",74.13687,800.4084
"3422",74.06119,800.4218
"3423",74.002594,800.435
"3424",73.98306,800.4484
"3425",74.0441,800.4616
"3426",74.29069,800.47504
"3427",74.915695,800.4882
"3428",76.1828,800.50165
"3429",78.28489,800.51483
"3430",81.21706,800.52826
"3431",84.71809,800.54144
"3432",88.33631,800.5549
"3433",91.53216,800.56805
"3434",93.875946,800.5815
"3435",95.17479,800.59467
"3436",95.499504,800.6081
"3437",95.05272,800.6213
"3438",94.083466,800.6347
"3439",92.79927,800.6479
"3440",91.36614,800.6613
"3441",89.88907,800.6745
"3442",88.44373,800.6879
"3443",87.06676,800.7011
"3444",85.78989,800.71454
"3445",84.630196,800.7277
"3446",83.60723,800.74115
"3447",82.760056,800.75433
"3448",82.15457,800.76776
"3449",81.83719,800.78094
"3450",81.812775,800.7944
"3451",82.05203,800.80756
"3452",82.4744,800.821
"3453",82.95293,800.83417
"3454",83.36309,800.8476
"3455",83.60479,800.8608
"3456",83.62188,800.8742
"3457",83.37774,800.8874
"3458",82.86015,800.9008
"3459",82.08865,800.914
"3460",81.094986,800.9274
"3461",79.93286,800.9406
"3462",78.675514,800.95404
"3463",77.40597,800.9672
"3464",76.18768,800.98065
"3465",75.06218,800.99384
"3466",74.04654,801.00726
"3467",73.14809,801.02045
"3468",72.361946,801.0339
"3469",71.69787,801.04706
"3470",71.165634,801.0605
"3471",70.767685,801.07367
"3472",70.49668,801.0871
"3473",70.3502,801.1003
"3474",70.31602,801.1137
"3475",70.37705,801.1269
"3476",70.51377,801.1403
"3477",70.711525,801.1535
"3478",70.94835,801.16693
"3479",71.2047,801.1801
"3480",71.468376,801.19354
"3481",71.72961,801.2067
"3482",71.97864,801.22015
"3483",72.20325,801.23334
"3484",72.39124,801.24677
"3485",72.535286,801.25995
"3486",72.64515,801.2734
"3487",72.73792,801.28656
"3488",72.84535,801.3
"3489",73.00404,801.3132
"3490",73.26528,801.3266
"3491",73.70962,801.3398
"3492",74.495766,801.3532
"3493",75.84589,801.3664
"3494",77.9675,801.3798
"3495",80.91188,801.393
"3496",84.48127,801.40643
"3497",88.24841,801.4196
"3498",91.70306,801.43304
"3499",94.383766,801.4462
"3500",96.03418,801.45966
"3501",96.64698,801.47284
"3502",96.4004,801.48627
"3503",95.519035,801.49945
"3504",94.2153,801.5129
"3505",92.65766,801.52606
"3506",90.97795,801.5395
"3507",89.2665,801.5527
"3508",87.59411,801.5661
"3509",85.99985,801.5793
"3510",84.52277,801.5927
"3511",83.21904,801.6059
"3512",82.159454,801.6193
"3513",81.40017,801.6325
"3514",80.98024,801.64594
"3515",80.89479,801.6591
"3516",81.0901,801.67255
"3517",81.47341,801.6857
"3518",81.92264,801.69916
"3519",82.31571,801.71234
"3520",82.55009,801.72577
"3521",82.55985,801.73895
"3522",82.32792,801.7524
"3523",81.864044,801.76556
"3524",81.2195,801.779
"3525",80.45045,801.7922
"3526",79.61303,801.8056
"3527",78.751205,801.8188
"3528",77.91135,801.8322
"3529",77.1252,801.8454
"3530",76.42451,801.8588
"3531",75.826355,801.872
"3532",75.338066,801.88544
"3533",74.96452,801.8986
"3534",74.703285,801.91205
"3535",74.547035,801.92523
"3536",74.48844,801.93866
"3537",74.512856,801.95184
"3538",74.61051,801.9653
"3539",74.75456,801.97845
"3540",74.932785,801.9919
"3541",75.1281,802.00507
"3542",75.32342,802.0185
"3543",75.508965,802.0317
"3544",75.67254,802.0451
"3545",75.81171,802.0583
"3546",75.914246,802.0717
"3547",75.982605,802.0849
"3548",76.016785,802.0983
"3549",76.02655,802.1115
"3550",76.02411,802.12494
"3551",76.019226,802.1381
"3552",76.03876,802.15155
"3553",76.13397,802.16473
"3554",76.41718,802.17816
"3555",77.07393,802.19135
"3556",78.348366,802.2048
"3557",80.42115,802.21796
"3558",83.2752,802.2314
"3559",86.6395,802.24457
"3560",90.06973,802.258
"3561",93.065384,802.2712
"3562",95.22606,802.2846
"3563",96.36866,802.2978
"3564",96.549324,802.3112
"3565",95.96338,802.3244
"3566",94.82811,802.3378
"3567",93.34127,802.351
"3568",91.65911,802.36444
"3569",89.90372,802.3776
"3570",88.15564,802.39105
"3571",86.47349,802.40424
"3572",84.90608,802.41766
"3573",83.49004,802.43085
"3574",82.28153,802.4443
"3575",81.33425,802.45746
"3576",80.69459,802.4709
"3577",80.38941,802.4841
"3578",80.38941,802.4975
"3579",80.62867,802.5107
"3580",81.007095,802.5241
"3581",81.40261,802.5373
"3582",81.70046,802.5507
"3583",81.8201,802.5639
"3584",81.71755,802.57733
"3585",81.38308,802.5905
"3586",80.84352,802.60394
"3587",80.14526,802.6171
"3588",79.33715,802.63055
"3589",78.47288,802.64374
"3590",77.60616,802.65717
"3591",76.77852,802.67035
"3592",76.033875,802.6838
"3593",75.39178,802.69696
"3594",74.87175,802.7104
"3595",74.476234,802.7236
"3596",74.19791,802.737
"3597",74.02457,802.7502
"3598",73.944,802.7636
"3599",73.936676,802.7768
"3600",73.97574,802.7902
"3601",74.04654,802.8034
"3602",74.141754,802.81683
"3603",74.25407,802.83
"3604",74.37858,802.84344
"3605",74.51774,802.8566
"3606",74.66178,802.87006
"3607",74.79118,802.88324
"3608",74.90105,802.89667
"3609",74.97917,802.90985
"3610",75.02312,802.9233
"3611",75.035324,802.93646
"3612",75.02312,802.9499
"3613",75.00603,802.9631
"3614",75.018234,802.9765
"3615",75.15251,802.9897
"3616",75.57,803.0031
"3617",76.50263,803.0163
"3618",78.17502,803.0297
"3619",80.67017,803.0429
"3620",83.81476,803.05634
"3621",87.23277,803.0695
"3622",90.43107,803.08295
"3623",92.95308,803.0961
"3624",94.52537,803.10956
"3625",95.116196,803.12274
"3626",94.8745,803.13617
"3627",94.01022,803.14935
"3628",92.72846,803.1628
"3629",91.19524,803.17596
"3630",89.547264,803.1894
"3631",87.87976,803.2026
"3632",86.258644,803.216
"3633",84.73029,803.2292
"3634",83.33135,803.2426
"3635",82.108185,803.2558
"3636",81.10475,803.2692
"3637",80.37232,803.2824
"3638",79.954834,803.29584
"3639",79.84741,803.309
"3640",80.01343,803.32245
"3641",80.36256,803.33563
"3642",80.780045,803.34906
"3643",81.15114,803.36224
"3644",81.37087,803.3757
"3645",81.373314,803.38885
"3646",81.15114,803.4023
"3647",80.719,803.41547
"3648",80.11841,803.4289
"3649",79.39086,803.4421
"3650",78.58518,803.4555
"3651",77.74044,803.4687
"3652",76.89815,803.4821
"3653",76.09735,803.4953
"3654",75.37957,803.5087
"3655",74.77165,803.5219
"3656",74.29069,803.53534
"3657",73.93912,803.5485
"3658",73.70718,803.56195
"3659",73.58022,803.57513
"3660",73.53384,803.58856
"3661",73.55581,803.60175
"3662",73.633934,803.6152
"3663",73.763336,803.62836
"3664",73.93179,803.6418
"3665",74.127106,803.65497
"3666",74.32731,803.6684
"3667",74.510414,803.6816
"3668",74.65446,803.695
"3669",74.757,803.7082
"3670",74.80339,803.7216
"3671",74.80583,803.7348
"3672",74.776535,803.7482
"3673",74.73014,803.7614
"3674",74.686195,803.77484
"3675",74.69352,803.788
"3676",74.84978,803.80145
"3677",75.32586,803.81464
"3678",76.36103,803.82806
"3679",78.16037,803.84125
"3680",80.75563,803.8547
"3681",83.93439,803.86786
"3682",87.30358,803.8813
"3683",90.3798,803.8945
"3684",92.74799,803.9079
"3685",94.17624,803.9211
"3686",94.67429,803.9345
"3687",94.39597,803.9477
"3688",93.54635,803.9611
"3689",92.30854,803.9743
"3690",90.86076,803.98773
"3691",89.32754,804.0009
"3692",87.79431,804.01434
"3693",86.30991,804.0275
"3694",84.90364,804.04095
"3695",83.60723,804.05414
"3696",82.4622,804.06757
"3697",81.52224,804.08075
"3698",80.848404,804.0942
"3699",80.4773,804.10736
"3700",80.413826,804.1208
"3701",80.60914,804.134
"3702",80.96071,804.1474
"3703",81.356224,804.1606
"3704",81.67605,804.174
"3705",81.832306,804.1872
"3706",81.761505,804.2006
"3707",81.463646,804.2138
"3708",80.96071,804.22723
"3709",80.29664,804.2404
"3710",79.51049,804.25385
"3711",78.6511,804.267
"3712",77.76242,804.28046
"3713",76.88838,804.29364
"3714",76.068054,804.30707
"3715",75.338066,804.32025
"3716",74.72526,804.3337
"3717",74.23697,804.34686
"3718",73.8732,804.3603
"3719",73.62905,804.3735
"3720",73.49233,804.3869
"3721",73.45327,804.4001
"3722",73.497215,804.4135
"3723",73.60708,804.4267
"3724",73.760895,804.4401
"3725",73.93179,804.4533
"3726",74.10025,804.46674
"3727",74.24429,804.4799
"3728",74.356606,804.49335
"3729",74.424965,804.50653
"3730",74.4567,804.51996
"3731",74.45426,804.53314
"3732",74.424965,804.5466
"3733",74.36881,804.55975
"3734",74.29313,804.5732
"3735",74.215,804.58636
"3736",74.19058,804.5998
"3737",74.339516,804.613
"3738",74.87175,804.6264
"3739",76.02899,804.6396
"3740",77.98215,804.653
"3741",80.69215,804.6662
"3742",83.90753,804.6796
"3743",87.2108,804.6928
"3744",90.13809,804.70624
"3745",92.315865,804.7194
"3746",93.58541,804.73285
"3747",93.98337,804.74603
"3748",93.67574,804.75946
"3749",92.85542,804.77264
"3750",91.71038,804.7861
"3751",90.39689,804.79926
"3752",89.024796,804.8127
"3753",87.66491,804.82587
"3754",86.35386,804.8393
"3755",85.120926,804.8525
"3756",83.9881,804.8659
"3757",82.98711,804.8791
"3758",82.16678,804.8925
"3759",81.583275,804.9057
"3760",81.26589,804.9191
"3761",81.21706,804.9323
"3762",81.38552,804.94574
"3763",81.67361,804.9589
"3764",81.97635,804.97235
"3765",82.18631,804.98553
"3766",82.22293,804.99896
"3767",82.05203,805.01215
"3768",81.671165,805.0256
"3769",81.112076,805.03876
"3770",80.411385,805.0522
"3771",79.61303,805.06537
"3772",78.76097,805.0788
"3773",77.05684,805.1054
"3774",76.27558,805.1186
"3775",75.577324,805.132
"3776",74.98161,805.1452
"3777",74.50309,805.1586
"3778",74.144196,805.1718
"3779",73.89761,805.18524
"3780",73.75113,805.1984
"3781",73.687645,805.21185
"3782",73.68276,805.22504
"3783",73.70718,805.23846
"3784",73.73647,805.25165
"3785",73.7438,805.2651
"3786",73.721825,805.27826
"3787",73.673,805.2917
"3788",73.60708,805.3049
"3789",73.53872,805.3183
"3790",73.48257,805.3315
"3791",73.43374,805.3449
"3792",73.38491,805.3581
"3793",73.32876,805.3715
"3794",73.27993,805.3847
"3795",73.248184,805.39813
"3796",73.270164,805.4113
"3797",73.40688,805.42474
"3798",73.79263,805.4379
"3799",74.615395,805.45135
"3800",76.09979,805.46454
"3801",78.36057,805.47797
"3802",81.3196,805.49115
"3803",84.67414,805.5046
"3804",87.99451,805.51776
"3805",90.83147,805.5312
"3806",92.85542,805.5444
"3807",93.95407,805.5578
"3808",94.20065,805.571
"3809",93.770966,805.5844
"3810",92.86275,805.5976
"3811",91.65179,805.611
"3812",90.29435,805.6242
"3813",88.902725,805.63763
"3814",87.53796,805.6508
"3815",86.23422,805.66425
"3816",85.01839,805.6774
"3817",83.92462,805.69086
"3818",82.98955,805.70404
"3819",82.266884,805.71747
"3820",81.80301,805.73065
"3821",81.61257,805.7441
"3822",81.6614,805.75726
"3823",81.86893,805.7707
"3824",82.144806,805.7839
"3825",82.39384,805.7973
"3826",82.52079,805.8105
"3827",82.47196,805.8239
"3828",82.22049,805.8371
"3829",81.77371,805.8505
"3830",81.15358,805.8637
"3831",80.40162,805.87714
"3832",79.55932,805.8903
"3833",78.68528,805.90375
"3834",77.823456,805.91693
"3835",77.015335,805.93036
"3836",76.29023,805.94354
"3837",75.67498,805.957
"3838",75.18425,805.97015
"3839",74.810715,805.9836
"3840",74.5568,805.99677
"3841",74.41276,806.0102
"3842",74.36637,806.0234
"3843",74.39323,806.0368
"3844",74.476234,806.05
"3845",74.59098,806.0634
"3846",74.720375,806.0766
"3847",74.85222,806.09
"3848",74.97673,806.1032
"3849",75.08415,806.11664
"3850",75.159836,806.1298
"3851",75.1989,806.14325
"3852",75.18913,806.15643
"3853",75.123215,806.16986
"3854",75.01335,806.18304
"3855",74.86931,806.1965
"3856",74.71061,806.20966
"3857",74.56901,806.2231
"3858",74.49088,806.23627
"3859",74.56901,806.2497
"3860",74.97429,806.2629
"3861",75.911804,806.2763
"3862",77.540245,806.2895
"3863",79.87427,806.3029
"3864",82.73075,806.3161
"3865",85.76303,806.3295
"3866",88.54383,806.3427
"3867",90.71183,806.35614
"3868",92.088806,806.3693
"3869",92.66987,806.38275
"3870",92.57954,806.39594
"3871",91.99359,806.40936
"3872",91.08293,806.42255
"3873",89.98428,806.436
"3874",88.80263,806.44916
"3875",87.61364,806.4626
"3876",86.4564,806.47577
"3877",85.35531,806.4892
"3878",84.33723,806.5024
"3879",83.41924,806.5158
"3880",82.63798,806.529
"3881",82.04471,806.5424
"3882",81.668724,806.5556
"3883",81.5198,806.56903
"3884",81.55886,806.5822
"3885",81.71511,806.59564
"3886",81.900665,806.6088
"3887",82.02518,806.62225
"3888",82.02762,806.63544
"3889",81.87381,806.64886
"3890",81.549095,806.66205
"3891",81.06813,806.6755
"3892",80.45533,806.68866
"3893",79.73266,806.7021
"3894",78.93919,806.7153
"3895",78.1091,806.7287
"3896",77.28634,806.7419
"3897",76.50996,806.7553
"3898",75.81415,806.7685
"3899",75.21843,806.7819
"3900",74.73502,806.7951
"3901",74.354164,806.80853
"3902",74.073395,806.8217
"3903",73.88052,806.83514
"3904",73.75601,806.8483
"3905",73.69741,806.86176
"3906",73.69497,806.87494
"3907",73.73403,806.88837
"3908",73.795074,806.90155
"3909",73.86099,806.915
"3910",73.9147,806.92816
"3911",73.944,806.9416
"3912",73.94156,806.9548
"3913",73.917145,806.9682
"3914",73.88052,806.9814
"3915",73.831696,806.9948
"3916",73.763336,807.008
"3917",73.66811,807.0214
"3918",73.55093,807.0346
"3919",73.42397,807.04803
"3920",73.33608,807.0612
"3921",73.37759,807.07465
"3922",73.73159,807.0878
"3923",74.62272,807.10126
"3924",76.24628,807.11444
"3925",78.64622,807.12787
"3926",81.66384,807.14105
"3927",84.947586,807.1545
"3928",88.04089,807.16766
"3929",90.53605,807.1811
"3930",92.191345,807.1943
"3931",92.982376,807.2077
"3932",93.02632,807.2209
"3933",92.506294,807.2343
"3934",91.60296,807.2475
"3935",90.47013,807.2609
"3936",89.22743,807.2741
"3937",87.96033,807.28754
"3938",86.73228,807.3007
"3939",85.57992,807.31415
"3940",84.52277,807.32733
"3941",83.577934,807.34076
"3942",82.76982,807.35394
"3943",82.13504,807.3674
"3944",81.71023,807.38055
"3945",81.51003,807.394
"3946",81.51736,807.40717
"3947",81.671165,807.4206
"3948",81.87869,807.4338
"3949",82.039825,807.4472
"3950",82.074005,807.4604
"3951",81.934845,807.4738
"3952",81.617455,807.487
"3953",81.14137,807.5004
"3954",80.533455,807.5136
"3955",79.82056,807.52704
"3956",79.029526,807.5402
"3957",78.187225,807.55365
"3958",77.33517,807.56683
"3959",76.51972,807.58026
"3960",75.77753,807.59344
"3961",75.140305,807.6069
"3962",74.62272,807.62006
"3963",74.2272,807.6335
"3964",73.944,807.64667
"3965",73.76578,807.6601
"3966",73.670555,807.6733
"3967",73.633934,807.6867
"3968",73.63149,807.6999
"3969",73.64614,807.7133
"3970",73.673,807.7265
"3971",73.704735,807.7399
"3972",73.738914,807.7531
"3973",73.77554,807.76654
"3974",73.812164,807.7797
"3975",73.83902,807.79315
"3976",73.848785,807.80634
"3977",73.83658,807.81976
"3978",73.797516,807.83295
"3979",73.72671,807.8464
"3980",73.62661,807.85956
"3981",73.50698,807.873
"3982",73.38491,807.88617
"3983",73.31167,807.8996
"3984",73.38247,807.9128
"3985",73.78775,807.9262
"3986",74.76433,807.9394
"3987",76.51972,807.9528
"3988",79.09544,807.966
"3989",82.31571,807.97943
"3990",85.80209,807.9926
"3991",89.08583,808.00604
"3992",91.720146,808.0192
"3993",93.45113,808.03265
"3994",94.23483,808.04584
"3995",94.19577,808.05927
"3996",93.52926,808.07245
"3997",92.45014,808.0859
"3998",91.14641,808.09906
"3999",89.76944,808.1125
"4000",88.42664,808.1257
"4001",87.17418,808.1391
"4002",86.03647,808.1523
"4003",85.015945,808.1657
"4004",84.11017,808.1789
"4005",83.32403,808.1923
"4006",82.68192,808.2055
"4007",82.210724,808.21893
"4008",81.93729,808.2321
"4009",81.84451,808.24554
"4010",81.88602,808.2587
"4011",81.986115,808.27216
"4012",82.06668,808.28534
"4013",82.054474,808.29877
"4014",81.900665,808.31195
"4015",81.59792,808.3254
"4016",81.15602,808.33856
"4017",80.59937,808.352
"4018",79.94995,808.3652
"4019",79.234604,808.3786
"4020",78.48264,808.3918
"4021",77.733116,808.4052
"4022",77.0251,808.4184
"4023",76.39765,808.4318
"4024",75.88251,808.445
"4025",75.49676,808.45844
"4026",75.22575,808.4716
"4027",75.054855,808.48505
"4028",74.94255,808.4982
"4029",74.87419,808.51166
"4030",74.830246,808.52484
"4031",74.80583,808.53827
"4032",74.80339,808.55145
"4033",74.844894,808.5649
"4034",74.94499,808.57806
"4035",75.09148,808.5915
"4036",75.264824,808.6047
"4037",75.43084,808.6181
"4038",75.545586,808.6313
"4039",75.55291,808.6447
"4040",75.45037,808.6579
"4041",75.24773,808.6713
"4042",74.95232,808.6845
"4043",74.57389,808.69794
"4044",74.161285,808.7111
"4045",73.777985,808.72455
"4046",73.460594,808.73773
"4047",73.248184,808.75116
"4048",73.214005,808.76434
"4049",73.48501,808.7778
"4050",74.27848,808.79095
"4051",75.81903,808.8044
"4052",78.21896,808.81757
"4053",81.339134,808.831
"4054",84.81087,808.8442
"4055",88.111694,808.8576
"4056",90.74357,808.8708
"4057",92.43305,808.8842
"4058",93.18013,808.8974
"4059",93.1606,808.9108
"4060",92.58198,808.924
"4061",91.62249,808.93744
"4062",90.426186,808.9506
"4063",89.0956,808.96405
"4064",87.69421,808.97723
"4065",86.30503,808.99066
"4066",85.00374,809.00385
"4067",83.83185,809.0173
"4068",82.78447,809.03046
"4069",81.85428,809.0439
"4070",81.06325,809.05707
"4071",80.428474,809.0705
"4072",79.97925,809.0837
"4073",79.7351,809.0971
"4074",79.674065,809.1103
"4075",79.73998,809.1237
"4076",79.84741,809.1369
"4077",79.90845,809.1503
"4078",79.86206,809.1635
"4079",79.68871,809.17694
"4080",79.39086,809.1901
"4081",78.98314,809.20355
"4082",78.49241,809.21674
"4083",77.945526,809.23016
"4084",77.366905,809.24335
"4085",76.77608,809.2568
"4086",76.19501,809.26996
"4087",75.650566,809.2834
"4088",75.16228,809.2966
"4089",74.74479,809.31
"4090",74.40543,809.3232
"4091",74.15396,809.3366
"4092",73.985504,809.3498
"4093",73.89029,809.3632
"4094",73.85611,809.3764
"4095",73.882965,809.38983
"4096",73.95865,809.403
"4097",74.07828,809.41644
"4098",74.23453,809.4296
"4099",74.41032,809.44305
"4100",74.57145,809.45624
"4101",74.68131,809.46967
"4102",74.71061,809.48285
"4103",74.6569,809.4963
"4104",74.53239,809.50946
"4105",74.36393,809.5229
"4106",74.19302,809.5361
"4107",74.07095,809.5495
"4108",74.06363,809.5627
"4109",74.305336,809.5761
"4110",74.97673,809.5893
"4111",76.25117,809.6027
"4112",78.187225,809.6159
"4113",80.689705,809.62933
"4114",83.49004,809.6425
"4115",86.21225,809.65594
"4116",88.499886,809.6691
"4117",90.11856,809.68256
"4118",91.00725,809.69574
"4119",91.23918,809.70917
"4120",90.948654,809.72235
"4121",90.284584,809.7358
"4122",89.37148,809.74896
"4123",88.3119,809.7624
"4124",87.19127,809.7756
"4125",86.07309,809.789
"4126",84.996414,809.8022
"4127",83.97833,809.8156
"4128",83.03105,809.8288
"4129",82.1741,809.8422
"4130",81.446556,809.8554
"4131",80.88991,809.86884
"4132",80.54322,809.882
"4133",80.42359,809.89545
"4134",80.49683,809.9086
"4135",80.68726,809.92206
"4136",80.90944,809.93524
"4137",81.08522,809.94867
"4138",81.15358,809.96185
"4139",81.077896,809.9753
"4140",80.84108,809.98846
"4141",80.448006,810.0019
"4142",79.903564,810.0151
"4143",79.2224,810.0285
"4144",78.4387,810.0417
"4145",77.59884,810.0551
"4146",76.76143,810.0683
"4147",75.97284,810.0817
"4148",75.26971,810.0949
"4149",74.683754,810.10834
"4150",74.215,810.1215
"4151",73.86099,810.13495
"4152",73.62173,810.14813
"4153",73.48989,810.16156
"4154",73.445946,810.17474
"4155",73.4728,810.1882
"4156",73.5436,810.20135
"4157",73.636375,810.2148
"4158",73.741356,810.22797
"4159",73.83902,810.2414
"4160",73.92203,810.2546
"4161",73.98306,810.268
"4162",74.01724,810.2812
"4163",74.02457,810.2946
"4164",74.022125,810.3078
"4165",74.039215,810.3212
"4166",74.14664,810.3344
"4167",74.46891,810.34784
"4168",75.194016,810.361
"4169",76.5124,810.37445
"4170",78.51682,810.38763
"4171",81.143814,810.40106
"4172",84.137024,810.41425
"4173",87.10826,810.4277
"4174",89.654686,810.44086
"4175",91.48333,810.4543
"4176",92.489204,810.46747
"4177",92.733345,810.4809
"4178",92.367134,810.4941
"4179",91.5761,810.5075
"4180",90.528725,810.5207
"4181",89.35439,810.5341
"4182",88.14099,810.5473
"4183",86.95445,810.5607
"4184",85.82651,810.5739
"4185",84.771805,810.58734
"4186",83.790344,810.6005
"4187",82.90898,810.61395
"4188",82.15701,810.62714
"4189",81.57595,810.64056
"4190",81.20729,810.65375
"4191",81.06325,810.6672
"4192",81.1194,810.68036
"4193",81.30251,810.6938
"4194",81.532005,810.707
"4195",81.71023,810.7204
"4196",81.76883,810.7336
"4197",81.66628,810.747
"4198",81.38552,810.7602
"4199",80.94118,810.7736
"4200",80.34791,810.7868
"4201",79.63256,810.80023
"4202",78.83177,810.8134
"4203",77.98215,810.82684
"4204",77.12764,810.84
"4205",76.30488,810.85345
"4206",75.55047,810.86664
"4207",74.88396,810.88007
"4208",74.319984,810.89325
"4209",73.87076,810.9067
"4210",73.531395,810.91986
"4211",73.3019,810.9333
"4212",73.1725,810.9465
"4213",73.11879,810.9599
"4214",73.126114,810.9731
"4215",73.179825,810.9865
"4216",73.26772,810.9997
"4217",73.3605,811.0131
"4218",73.43862,811.0263
"4219",73.48257,811.03973
"4220",73.48989,811.0529
"4221",73.4728,811.06635
"4222",73.45083,811.0795
"4223",73.46548,811.09296
"4224",73.599754,811.10614
"4225",74.0148,811.11957
"4226",74.93034,811.13275
"4227",76.5539,811.1462
"4228",78.95628,811.15936
"4229",82.00076,811.1728
"4230",85.35775,811.186
"4231",88.56336,811.1994
"4232",91.20012,811.2126
"4233",92.997025,811.226
"4234",93.907684,811.2392
"4235",94.02731,811.2526
"4236",93.5317,811.2658
"4237",92.613716,811.27924
"4238",91.44915,811.2924
"4239",90.179596,811.30585
"4240",88.92226,811.31903
"4241",87.75037,811.33246
"4242",86.69077,811.34564
"4243",85.74593,811.3591
"4244",84.89143,811.37225
"4245",84.119934,811.3857
"4246",83.43389,811.39886
"4247",82.85771,811.4123
"4248",82.42069,811.4255
"4249",82.1326,811.4389
"4250",81.97879,811.4521
"4251",81.9202,811.4655
"4252",81.898224,811.4787
"4253",81.85428,811.4921
"4254",81.73464,811.5053
"4255",81.50759,811.51874
"4256",81.15358,811.5319
"4257",80.67506,811.54535
"4258",80.08911,811.55853
"4259",79.415276,811.57196
"4260",78.675514,811.58514
"4261",77.90402,811.5986
"4262",77.134964,811.61176
"4263",76.39521,811.6252
"4264",75.71404,811.63837
"4265",75.11345,811.6518
"4266",74.60319,811.665
"4267",74.18814,811.6784
"4268",73.863434,811.6916
"4269",73.62905,811.705
"4270",73.48257,811.7182
"4271",73.40688,811.7316
"4272",73.38979,811.7448
"4273",73.409325,811.75824
"4274",73.45327,811.7714
"4275",73.49233,811.78485
"4276",73.50454,811.79803
"4277",73.48257,811.81146
"4278",73.42153,811.82465
"4279",73.33364,811.8381
"4280",73.23598,811.85126
"4281",73.18715,811.8647
"4282",73.29214,811.87787
"4283",73.73403,811.8913
"4284",74.73502,811.9045
"4285",76.46113,811.9179
"4286",78.922104,811.9311
"4287",81.90311,811.9445
"4288",85.030594,811.9577
"4289",87.85535,811.9711
"4290",90.01846,811.9843
"4291",91.353935,811.99774
"4292",91.88373,812.0109
"4293",91.7641,812.02435
"4294",91.18547,812.03754
"4295",90.321205,812.05096
"4296",89.30801,812.06415
"4297",88.255745,812.0776
"4298",87.237656,812.09076
"4299",86.29038,812.1042
"4300",85.42123,812.1174
"4301",84.62287,812.1308
"4302",83.88556,812.144
"4303",83.20439,812.1574
"4304",82.598915,812.1706
"4305",82.10574,812.184
"4306",81.74685,812.1972
"4307",81.52712,812.21063
"4308",81.42214,812.2238
"4309",81.3904,812.23724
"4310",81.36599,812.2504
"4311",81.29763,812.26385
"4312",81.143814,812.27704
"4313",80.885025,812.29047
"4314",80.51392,812.30365
"4315",80.03296,812.3171
"4316",79.46166,812.33026
"4317",78.81712,812.3437
"4318",78.12375,812.3569
"4319",77.41329,812.3703
"4320",76.717476,812.3835
"4321",76.06561,812.3969
"4322",75.474785,812.4101
"4323",74.95964,812.4235
"4324",74.527504,812.4367
"4325",74.18082,812.45013
"4326",73.9147,812.4633
"4327",73.73159,812.47675
"4328",73.62661,812.4899
"4329",73.585106,812.50336
"4330",73.59731,812.51654
"4331",73.6437,812.52997
"4332",73.70229,812.54315
"4333",73.74868,812.5566
"4334",73.76822,812.56976
"4335",73.74624,812.5832
"4336",73.67788,812.5964
"4337",73.5729,812.6098
"4338",73.445946,812.623
"4339",73.338524,812.6364
"4340",73.32632,812.6496
"4341",73.57046,812.663
"4342",74.27848,812.6762
"4343",75.650566,812.68964
"4344",77.76242,812.7028
"4345",80.48707,812.71625
"4346",83.49981,812.72943
"4347",86.383156,812.74286
"4348",88.744026,812.75604
"4349",90.33585,812.7695
"4350",91.121994,812.78265
"4351",91.21721,812.7961
"4352",90.811935,812.80927
"4353",90.08438,812.8227
"4354",89.18837,812.8359
"4355",88.24353,812.8493
"4356",87.325554,812.8625
"4357",86.47593,812.8759
"4358",85.70687,812.8891
"4359",85.00862,812.9025
"4360",84.36164,812.9157
"4361",83.75372,812.92914
"4362",83.19707,812.9423
"4363",82.71366,812.95575
"4364",82.337685,812.96893
"4365",82.08133,812.98236
"4366",81.93729,812.99554
"4367",81.86893,813.009
"4368",81.82742,813.02216
"4369",81.76395,813.0356
"4370",81.634544,813.04877
"4371",81.4197,813.0622
"4372",81.112076,813.0754
"4373",80.71656,813.0888
"4374",80.24292,813.102
"4375",79.69604,813.1154
"4376",79.093,813.1286
"4377",78.45335,813.142
"4378",77.81125,813.1552
"4379",77.19112,813.16864
"4380",76.627144,813.1818
"4381",76.138855,813.19525
"4382",75.73846,813.20844
"4383",75.41375,813.22186
"4384",75.15251,813.23505
"4385",74.94743,813.2485
"4386",74.793625,813.26166
"4387",74.686195,813.2751
"4388",74.62272,813.28827
"4389",74.598305,813.3017
"4390",74.59586,813.3149
"4391",74.59586,813.3283
"4392",74.58366,813.3415
"4393",74.54948,813.3549
"4394",74.48112,813.3681
"4395",74.373695,813.38153
"4396",74.23697,813.3947
"4397",74.07095,813.40814
"4398",73.89761,813.4213
"4399",73.76578,813.43475
"4400",73.780426,813.44794
"4401",74.10513,813.46136
"4402",74.9572,813.47455
"4403",76.48798,813.488
"4404",78.709694,813.50116
"4405",81.42214,813.5146
"4406",84.27375,813.5278
"4407",86.85924,813.5412
"4408",88.84657,813.5544
"4409",90.072174,813.5678
"4410",90.56046,813.581
"4411",90.457924,813.5944
"4412",89.94522,813.6076
"4413",89.19325,813.62103
"4414",88.33631,813.6342
"4415",87.47204,813.64764
"4416",86.66392,813.6608
"4417",85.924164,813.67426
"4418",85.25765,813.68744
"4419",84.63508,813.70087
"4420",84.04425,813.71405
"4421",83.48028,813.7275
"4422",82.967575,813.74066
"4423",82.52567,813.7541
"4424",82.178986,813.7673
"4425",81.94217,813.7807
"4426",81.79813,813.7939
"4427",81.70046,813.8073
"4428",81.61501,813.8205
"4429",81.495384,813.8339
"4430",81.31228,813.8471
"4431",81.041275,813.86053
"4432",80.68482,813.8737
"4433",80.2478,813.88715
"4434",79.744865,813.9003
"4435",79.1931,813.91376
"4436",78.61692,813.92694
"4437",78.0383,813.94037
"4438",77.47677,813.95355
"4439",76.95674,813.967
"4440",76.49287,813.98016
"4441",76.102234,813.9936
"4442",75.78729,814.0068
"4443",75.543144,814.0202
"4444",75.36736,814.0334
"4445",75.245285,814.0468
"4446",75.16716,814.06
"4447",75.12077,814.0734
"4448",75.09392,814.0866
"4449",75.071945,814.10004
"4450",75.054855,814.1132
"4451",75.037766,814.12665
"4452",75.00603,814.13983
"4453",74.96452,814.15326
"4454",74.90593,814.16644
"4455",74.813156,814.1799
"4456",74.68131,814.19305
"4457",74.51774,814.2065
"4458",74.32975,814.21967
"4459",74.127106,814.2331
"4460",73.93912,814.2463
"4461",73.83658,814.2597
"4462",73.93912,814.2729
"4463",74.43473,814.2863
"4464",75.51873,814.2995
"4465",77.28878,814.3129
"4466",79.65209,814.3261
"4467",82.34257,814.33954
"4468",84.98421,814.3527
"4469",87.20836,814.36615
"4470",88.77089,814.37933
"4471",89.61318,814.39276
"4472",89.82559,814.40594
"4473",89.566795,814.4194
"4474",88.9955,814.43256
"4475",88.25819,814.446
"4476",87.45983,814.45917
"4477",86.67368,814.4726
"4478",85.94858,814.4858
"4479",85.29916,814.4992
"4480",84.70832,814.5124
"4481",84.15411,814.5258
"4482",83.6292,814.539
"4483",83.13359,814.5524
"4484",82.686806,814.5656
"4485",82.31815,814.57904
"4486",82.05203,814.5922
"4487",81.87869,814.60565
"4488",81.78104,814.61884
"4489",81.71267,814.63226
"4490",81.62478,814.64545
"4491",81.48318,814.6589
"4492",81.26101,814.67206
"4493",80.94606,814.6855
"4494",80.550545,814.69867
"4495",80.08911,814.7121
"4496",79.57885,814.7253
"4497",79.046616,814.7387
"4498",78.51194,814.7519
"4499",77.98947,814.7653
"4500",77.488976,814.7785
"4501",77.02998,814.79193
"4502",76.627144,814.8051
"4503",76.28535,814.81854
"4504",76.01434,814.8317
"4505",75.81903,814.84515
"4506",75.684746,814.85834
"4507",75.596855,814.87177
"4508",75.5407,814.88495
"4509",75.50164,814.8984
"4510",75.47234,814.91156
"4511",75.45037,814.925
"4512",75.43328,814.9382
"4513",75.41375,814.9516
"4514",75.39178,814.9648
"4515",75.352715,814.9782
"4516",75.29168,814.9914
"4517",75.208664,815.0048
"4518",75.10857,815.018
"4519",74.97917,815.03143
"4520",74.830246,815.0446
"4521",74.65446,815.05804
"4522",74.461586,815.0712
"4523",74.26383,815.08466
"4524",74.0856,815.09784
"4525",73.970856,815.11127
"4526",74.02945,815.12445
"4527",74.42985,815.1379
"4528",75.369804,815.15106
"4529",76.9836,815.1645
"4530",79.22972,815.1777
"4531",81.87869,815.1911
"4532",84.5716,815.2043
"4533",86.922714,815.2177
"4534",88.64637,815.2309
"4535",89.637596,815.2443
"4536",89.969635,815.2575
"4537",89.79385,815.27094
"4538",89.28115,815.2841
"4539",88.57069,815.29755
"4540",87.77966,815.3107
"4541",86.99596,815.32416
"4542",86.26597,815.33734
"4543",85.60677,815.35077
"4544",85.01106,815.36395
"4545",84.456856,815.3774
"4546",83.92706,815.39056
"4547",83.421684,815.404
"4548",82.95781,815.4172
"4549",82.55985,815.4306
"4550",82.25956,815.4438
"4551",82.056915,815.4572
"4552",81.934845,815.4704
"4553",81.85184,815.4838
"4554",81.77127,815.497
"4555",81.651634,815.51044
"4556",81.463646,815.5236
"4557",81.19508,815.53705
"4558",80.848404,815.55023
"4559",80.4358,815.56366
"4560",79.96948,815.57684
"4561",79.46899,815.5903
"4562",78.941635,815.60345
"4563",78.41917,815.6169
"4564",77.91867,815.63007
"4565",77.46456,815.6435
"4566",77.07149,815.6567
"4567",76.754105,815.6701
"4568",76.507515,815.6833
"4569",76.32441,815.6967
"4570",76.190125,815.7099
"4571",76.09003,815.7233
"4572",76.00946,815.7365
"4573",75.9411,815.74994
"4574",75.877625,815.7631
