"","ppg","time"
"1",90.528725,574.09625
"2",93.53658,574.1097
"3",95.84619,574.12286
"4",97.35256,574.1363
"5",98.06058,574.1495
"6",98.06302,574.1629
"7",97.513695,574.1761
"8",96.59327,574.1895
"9",95.47997,574.2027
"10",94.310524,574.2161
"11",93.172806,574.2293
"12",92.11566,574.24274
"13",91.141525,574.2559
"14",90.23819,574.26935
"15",89.393456,574.28253
"16",88.59754,574.29596
"17",87.84558,574.30914
"18",87.14488,574.3226
"19",86.48814,574.33575
"20",85.875336,574.3492
"21",85.29183,574.36237
"22",84.72053,574.3758
"23",84.15167,574.389
"24",83.563286,574.4024
"25",82.92607,574.4156
"26",82.2327,574.429
"27",81.46853,574.4422
"28",80.64088,574.4556
"29",79.766846,574.4688
"30",78.873276,574.48224
"31",77.98215,574.4954
"32",77.120316,574.50885
"33",76.299995,574.52203
"34",75.53094,574.53546
"35",74.82292,574.54865
"36",74.1857,574.5621
"37",73.63149,574.57526
"38",73.17006,574.5887
"39",72.798965,574.60187
"40",72.52308,574.6153
"41",72.33021,574.6285
"42",72.20325,574.6419
"43",72.12756,574.6551
"44",72.08606,574.6685
"45",72.05676,574.6817
"46",72.02991,574.6951
"47",71.99817,574.7083
"48",71.956665,574.72174
"49",71.91028,574.7349
"50",71.86145,574.74835
"51",71.80774,574.76154
"52",71.75159,574.77496
"53",71.70275,574.78815
"54",71.66857,574.8016
"55",71.63683,574.81476
"56",71.60265,574.8282
"57",71.56603,574.8414
"58",71.52453,574.8548
"59",71.485466,574.868
"60",71.45373,574.8814
"61",71.431755,574.8946
"62",71.412224,574.908
"63",71.4049,574.9212
"64",71.45129,574.93463
"65",71.68566,574.9478
"66",72.30091,574.96124
"67",73.5021,574.9744
"68",75.40154,574.98785
"69",77.98459,575.00104
"70",81.07301,575.01447
"71",84.37141,575.02765
"72",87.53307,575.0411
"73",90.267494,575.05426
"74",92.38911,575.0677
"75",93.80026,575.0809
"76",94.50584,575.0943
"77",94.56687,575.1075
"78",94.103,575.1209
"79",93.25582,575.1341
"80",92.16205,575.1475
"81",90.95598,575.1607
"82",89.720604,575.17413
"83",88.52674,575.1873
"84",87.411,575.20074
"85",86.417336,575.2139
"86",85.57259,575.22736
"87",84.89876,575.24054
"88",84.40803,575.25397
"89",84.08331,575.26715
"90",83.895325,575.2806
"91",83.79523,575.29376
"92",83.73174,575.3072
"93",83.64629,575.3204
"94",83.49493,575.3338
"95",83.23857,575.347
"96",82.85283,575.3604
"97",82.33524,575.3736
"98",81.70779,575.387
"99",80.990005,575.4002
"100",80.2063,575.41364
"101",79.39086,575.4268
"102",78.57053,575.44025
"103",77.76486,575.4534
"104",77.00069,575.46686
"105",76.30488,575.48004
"106",75.70428,575.49347
"107",75.208664,575.50665
"108",74.82536,575.5201
"109",74.54948,575.53326
"110",74.371254,575.5467
"111",74.27116,575.5599
"112",74.23453,575.5733
"113",74.246735,575.5865
"114",74.28336,575.5999
"115",74.322426,575.6131
"116",74.34196,575.6265
"117",74.322426,575.6397
"118",74.26139,575.65314
"119",74.16617,575.6663
"120",74.092926,575.67975
"121",74.158844,575.69293
"122",74.53483,575.70636
"123",75.39422,575.71954
"124",76.841995,575.733
"125",78.85863,575.74615
"126",81.287865,575.7596
"127",83.86603,575.77277
"128",86.30015,575.7862
"129",88.3534,575.7994
"130",89.85977,575.8128
"131",90.74113,575.826
"132",90.99748,575.8394
"133",90.67765,575.8526
"134",89.884186,575.866
"135",88.7367,575.8792
"136",87.37194,575.89264
"137",85.91928,575.9058
"138",84.46906,575.91925
"139",83.087204,575.93243
"140",81.82742,575.94586
"141",80.73365,575.95905
"142",79.823,575.9725
"143",79.09056,575.98566
"144",78.52659,575.9991
"145",78.10422,576.01227
"146",77.78439,576.0257
"147",77.523155,576.0389
"148",77.30587,576.0523
"149",77.09346,576.0655
"150",76.841995,576.0789
"151",76.51484,576.0921
"152",76.0827,576.1055
"153",75.53338,576.1187
"154",74.87419,576.13214
"155",74.13199,576.1453
"156",73.35073,576.15875
"157",72.567024,576.17194
"158",71.80774,576.18536
"159",71.08507,576.19855
"160",70.416115,576.212
"161",69.81308,576.22516
"162",69.312584,576.2386
"163",68.9366,576.2518
"164",68.70222,576.2652
"165",68.58259,576.2784
"166",68.52155,576.2918
"167",68.48249,576.305
"168",68.4654,576.3184
"169",68.51179,576.3316
"170",68.72175,576.34503
"171",69.26864,576.3582
"172",70.347755,576.37164
"173",72.10071,576.3848
"174",74.598305,576.39825
"175",77.823456,576.41144
"176",81.64431,576.42487
"177",85.79965,576.43805
"178",89.92081,576.4515
"179",93.61471,576.46466
"180",96.54688,576.4781
"181",98.495155,576.4913
"182",99.39605,576.5047
"183",99.35943,576.5179
"184",98.62943,576.5313
"185",97.48196,576.5445
"186",96.13916,576.5579
"187",94.747536,576.5711
"188",93.38033,576.58453
"189",92.05707,576.5977
"190",90.77043,576.61115
"191",89.51064,576.6243
"192",88.30213,576.63776
"193",87.203476,576.65094
"194",86.258644,576.66437
"195",85.4847,576.67755
"196",84.874344,576.691
"197",84.39582,576.70416
"198",83.983215,576.7176
"199",83.580376,576.7308
"200",83.13359,576.7442
"201",82.58915,576.7574
"202",81.898224,576.7708
"203",81.05592,576.784
"204",80.09155,576.7974
"205",79.04906,576.8106
"206",77.97238,576.82404
"207",76.90791,576.8372
"208",75.894714,576.85065
"209",74.969406,576.86383
"210",74.13443,576.87726
"211",73.39712,576.89044
"212",72.762344,576.9039
"213",72.215454,576.91705
"214",71.727165,576.9305
"215",71.28527,576.94366
"216",70.89464,576.9571
"217",70.56504,576.9703
"218",70.31846,576.9837
"219",70.26475,576.9969
"220",70.66758,577.0103
"221",71.93713,577.0235
"222",74.50309,577.0369
"223",78.607155,577.0501
"224",84.088196,577.06354
"225",90.37736,577.0767
"226",96.6128,577.09015
"227",101.93515,577.10333
"228",105.74624,577.11676
"229",107.86542,577.12994
"230",108.49287,577.1434
"231",108.019226,577.15656
"232",106.86931,577.17
"233",105.39956,577.18317
"234",103.86389,577.1966
"235",102.39414,577.2098
"236",101.00496,577.2232
"237",99.63775,577.2364
"238",98.20706,577.2498
"239",96.65186,577.263
"240",94.96971,577.2764
"241",93.224075,577.2896
"242",91.51995,577.30304
"243",89.94766,577.3162
"244",88.57069,577.32965
"245",87.398796,577.34283
"246",86.41001,577.35626
"247",85.54818,577.36945
"248",84.74494,577.3829
"249",83.914856,577.39606
"250",82.98955,577.4095
"251",81.92508,577.42267
"252",80.719,577.4361
"253",79.39086,577.4493
"254",77.98947,577.4627
"255",76.56855,577.4759
"256",75.17204,577.4893
"257",73.83902,577.5025
"258",72.61341,577.5159
"259",71.52453,577.5291
"260",70.60166,577.54254
"261",69.839935,577.5557
"262",69.22957,577.56915
"263",68.733955,577.58234
"264",68.316475,577.59576
"265",67.92584,577.60895
"266",67.510796,577.6224
"267",67.04936,577.63556
"268",66.54154,577.649
"269",66.01663,577.6622
"270",65.58938,577.6756
"271",65.53811,577.6888
"272",66.2974,577.7022
"273",68.32624,577.7154
"274",71.8761,577.7288
"275",76.824905,577.742
"276",82.62821,577.75543
"277",88.465706,577.7686
"278",93.49996,577.78204
"279",97.14748,577.7952
"280",99.23491,577.80865
"281",99.93561,577.82184
"282",99.596245,577.83527
"283",98.60746,577.84845
"284",97.29641,577.8619
"285",95.9292,577.87506
"286",94.65476,577.8885
"287",93.51949,577.9017
"288",92.46235,577.9151
"289",91.37835,577.9283
"290",90.14786,577.9417
"291",88.71717,577.9549
"292",87.10826,577.9683
"293",85.40658,577.9815
"294",83.74883,577.99493
"295",82.25712,578.0081
"296",81.00954,578.02155
"297",80.025635,578.0347
"298",79.27856,578.04816
"299",78.70237,578.06134
"300",78.21652,578.07477
"301",77.73556,578.08795
"302",77.18623,578.1014
"303",76.51728,578.11456
"304",75.70428,578.128
"305",74.75212,578.1412
"306",73.69985,578.1546
"307",72.601204,578.1678
"308",71.505,578.1812
"309",70.467384,578.1944
"310",69.5201,578.2078
"311",68.69001,578.221
"312",67.98688,578.23444
"313",67.42535,578.2476
"314",67.00542,578.26105
"315",66.722206,578.27423
"316",66.55375,578.28766
"317",66.46586,578.30084
"318",66.41947,578.3143
"319",66.38773,578.32745
"320",66.34623,578.3409
"321",66.28275,578.35406
"322",66.19241,578.3675
"323",66.0679,578.3807
"324",65.91409,578.3941
"325",65.7261,578.4073
"326",65.51125,578.4207
"327",65.27932,578.4339
"328",65.04982,578.4473
"329",64.83009,578.4605
"330",64.63477,578.47394
"331",64.47364,578.4871
"332",64.34669,578.50055
"333",64.23682,578.51373
"334",64.12451,578.52716
"335",63.992676,578.54034
"336",63.836422,578.5538
"337",63.66064,578.56696
"338",63.504387,578.5804
"339",63.50683,578.59357
"340",63.990234,578.607
"341",65.49172,578.6202
"342",68.577705,578.6336
"343",73.5436,578.6468
"344",80.15747,578.6602
"345",87.66003,578.6734
"346",94.97948,578.6868
"347",101.09041,578.7
"348",105.321434,578.71344
"349",107.56512,578.7266
"350",108.1535,578.74005
"351",107.596855,578.75323
"352",106.37858,578.76666
"353",104.90639,578.77985
"354",103.46105,578.7933
"355",102.186615,578.80646
"356",101.100174,578.8199
"357",100.11383,578.83307
"358",99.07866,578.8465
"359",97.85306,578.8597
"360",96.361336,578.8731
"361",94.62058,578.8863
"362",92.72114,578.8997
"363",90.809494,578.9129
"364",89.02968,578.92633
"365",87.47936,578.9395
"366",86.20004,578.95294
"367",85.186844,578.9661
"368",84.38117,578.97955
"369",83.70489,578.99274
"370",83.075,579.00616
"371",82.41093,579.01935
"372",81.64919,579.0328
"373",80.76784,579.04596
"374",79.76929,579.0594
"375",78.68528,579.0726
"376",77.55001,579.086
"377",76.40986,579.0992
"378",75.31365,579.1126
"379",74.29313,579.1258
"380",73.37759,579.1392
"381",72.59144,579.1524
"382",71.94446,579.16583
"383",71.42931,579.179
"384",71.03136,579.19244
"385",70.73594,579.2056
"386",70.518654,579.21906
"387",70.3502,579.23224
"388",70.21103,579.24567
"389",70.07675,579.25885
"390",69.93027,579.2723
"391",69.75693,579.28546
"392",69.542076,579.2989
"393",69.28573,579.3121
"394",68.997635,579.3255
"395",68.699776,579.3387
"396",68.40925,579.3521
"397",68.15289,579.3653
"398",67.93317,579.3787
"399",67.754944,579.3919
"400",67.60357,579.40533
"401",67.457085,579.4185
"402",67.300835,579.43195
"403",67.11772,579.4451
"404",66.92241,579.45856
"405",66.758835,579.47174
"406",66.793015,579.48517
"407",67.39605,579.49835
"408",69.07332,579.5118
"409",72.22522,579.52496
"410",76.925,579.5384
"411",82.80156,579.5516
"412",89.11513,579.565
"413",94.959946,579.5782
"414",99.55718,579.5916
"415",102.5333,579.6048
"416",103.92737,579.6182
"417",104.05432,579.6314
"418",103.309685,579.64484
"419",102.084076,579.658
"420",100.699776,579.67145
"421",99.38384,579.68463
"422",98.248566,579.69806
"423",97.30129,579.71124
"424",96.4419,579.7247
"425",95.52148,579.73785
"426",94.38865,579.7513
"427",92.97749,579.76447
"428",91.30511,579.7779
"429",89.47646,579.7911
"430",87.64538,579.8045
"431",85.95834,579.8177
"432",84.51301,579.8311
"433",83.34356,579.8443
"434",82.44022,579.8577
"435",81.75174,579.8709
"436",81.19264,579.88434
"437",80.67506,579.8975
"438",80.11841,579.91095
"439",79.47387,579.92413
"440",78.71946,579.93756
"441",77.8674,579.95074
"442",76.93965,579.9642
"443",75.97284,579.97736
"444",74.99138,579.9908
"445",74.02945,580.00397
"446",73.111465,580.0174
"447",72.26673,580.0306
"448",71.52209,580.044
"449",70.89952,580.0572
"450",70.41123,580.0706
"451",70.04501,580.0838
"452",69.7789,580.0972
"453",69.58358,580.1104
"454",69.42733,580.12384
"455",69.28329,580.137
"456",69.13924,580.15045
"457",68.980545,580.16364
"458",68.807205,580.17706
"459",68.611885,580.19025
"460",68.39948,580.2037
"461",68.172424,580.21686
"462",67.94049,580.2303
"463",67.70367,580.24347
"464",67.474174,580.2569
"465",67.25933,580.2701
"466",67.054245,580.2835
"467",66.86626,580.2967
"468",66.70512,580.3101
"469",66.565956,580.3233
"470",66.45365,580.33673
"471",66.37064,580.3499
"472",66.31693,580.36334
"473",66.285194,580.3765
"474",66.26566,580.38995
"475",66.248566,580.40314
"476",66.214386,580.41656
"477",66.15091,580.42975
"478",66.06302,580.4432
"479",66.004425,580.45636
"480",66.18021,580.4698
"481",67.017624,580.483
"482",69.083084,580.4964
"483",72.8185,580.5096
"484",78.25315,580.523
"485",84.91829,580.5362
"486",91.93988,580.5496
"487",98.285194,580.5628
"488",103.116806,580.57623
"489",106.08316,580.5894
"490",107.29656,580.60284
"491",107.14519,580.616
"492",106.10269,580.62946
"493",104.59144,580.64264
"494",102.95079,580.65607
"495",101.41024,580.66925
"496",100.09674,580.6827
"497",99.02251,580.69586
"498",98.10452,580.7093
"499",97.198746,580.7225
"500",96.14404,580.7359
"501",94.84276,580.7491
"502",93.29244,580.7625
"503",91.563896,580.7757
"504",89.78653,580.7891
"505",88.094604,580.8023
"506",86.58579,580.81573
"507",85.31136,580.8289
"508",84.27619,580.84235
"509",83.44366,580.8555
"510",82.757614,580.86896
"511",82.13748,580.88214
"512",81.497826,580.89557
"513",80.7776,580.90875
"514",79.94507,580.9222
"515",79.00023,580.93536
"516",77.96994,580.9488
"517",76.88838,580.962
"518",75.78729,580.9754
"519",74.71061,580.9886
"520",73.687645,581.002
"521",72.74769,581.0152
"522",71.9176,581.0286
"523",71.22423,581.0418
"524",70.674904,581.05524
"525",70.26475,581.0684
"526",69.96445,581.08185
"527",69.754486,581.09503
"528",69.59823,581.10846
"529",69.46639,581.12164
"530",69.34188,581.1351
"531",69.205154,581.14825
"532",69.05379,581.1617
"533",68.875565,581.17487
"534",68.67048,581.1883
"535",68.43366,581.2015
"536",68.16998,581.2149
"537",67.88922,581.2281
"538",67.59869,581.2415
"539",67.30816,581.2547
"540",67.03227,581.2681
"541",66.78081,581.2813
"542",66.563515,581.29474
"543",66.38773,581.3079
"544",66.2559,581.32135
"545",66.16556,581.33453
"546",66.10452,581.34796
"547",66.058136,581.36115
"548",66.00931,581.3746
"549",65.94827,581.38776
"550",65.865265,581.4012
"551",65.76517,581.41437
"552",65.66506,581.4278
"553",65.63088,581.441
"554",65.8555,581.4544
"555",66.74662,581.4676
"556",68.88289,581.481
"557",72.7306,581.4942
"558",78.35081,581.5076
"559",85.27718,581.5208
"560",92.6186,581.53424
"561",99.30572,581.5474
"562",104.43519,581.56085
"563",107.59441,581.57404
"564",108.89082,581.58746
"565",108.7248,581.60065
"566",107.57488,581.6141
"567",105.882965,581.62726
"568",104.010376,581.6407
"569",102.20615,581.6539
"570",100.62653,581.6673
"571",99.320366,581.6805
"572",98.229034,581.6939
"573",97.22072,581.7071
"574",96.13916,581.7205
"575",94.86961,581.7337
"576",93.382774,581.74713
"577",91.73235,581.7603
"578",90.03311,581.77374
"579",88.40711,581.7869
"580",86.93736,581.80035
"581",85.677574,581.81354
"582",84.630196,581.82697
"583",83.76105,581.84015
"584",83.021286,581.8536
"585",82.34501,581.86676
"586",81.654076,581.8802
"587",80.89235,581.8934
"588",80.028076,581.9068
"589",79.04906,581.92
"590",77.96994,581.9334
"591",76.81758,581.9466
"592",75.62859,581.96
"593",74.44694,581.9732
"594",73.31411,581.98663
"595",72.26673,581.9998
"596",71.33654,582.01324
"597",70.54551,582.0264
"598",69.910736,582.03986
"599",69.42245,582.05304
"600",69.065994,582.06647
"601",68.81453,582.07965
"602",68.6363,582.0931
"603",68.4947,582.10626
"604",68.367744,582.1197
"605",68.2359,582.1329
"606",68.086975,582.1463
"607",67.913635,582.1595
"608",67.72076,582.1729
"609",67.510796,582.1861
"610",67.283745,582.1995
"611",67.0396,582.2127
"612",66.78081,582.22614
"613",66.50492,582.2393
"614",66.21927,582.25275
"615",65.933624,582.2659
"616",65.66506,582.27936
"617",65.42092,582.29254
"618",65.21095,582.30597
"619",65.03029,582.31915
"620",64.87404,582.3326
"621",64.742195,582.34576
"622",64.62989,582.3592
"623",64.549324,582.3724
"624",64.500496,582.3858
"625",64.49561,582.399
"626",64.52735,582.4124
"627",64.59815,582.4256
"628",64.69581,582.439
"629",64.81056,582.4522
"630",64.937515,582.46564
"631",65.06447,582.4788
"632",65.230484,582.49225
"633",65.533226,582.50543
"634",66.24368,582.51886
"635",67.845276,582.53204
"636",70.96788,582.5455
"637",76.06317,582.55865
"638",83.08232,582.5721
"639",91.32952,582.58527
"640",99.68902,582.5987
"641",106.94255,582.6119
"642",112.16235,582.6253
"643",115.01152,582.6385
"644",115.74639,582.6519
"645",114.948044,582.6651
"646",113.197525,582.6785
"647",110.9807,582.6917
"648",108.663765,582.70514
"649",104.62562,582.73175
"650",103.06554,582.74493
"651",101.74471,582.75836
"652",100.51911,582.77155
"653",99.24223,582.785
"654",97.82132,582.79816
"655",96.24902,582.8116
"656",94.57664,582.82477
"657",92.89693,582.8382
"658",91.302666,582.8514
"659",89.847565,582.8648
"660",88.55604,582.878
"661",87.415886,582.8914
"662",86.40757,582.9046
"663",85.487144,582.918
"664",84.58625,582.9312
"665",83.63653,582.94464
"666",82.59403,582.9578
"667",81.43679,582.97125
"668",80.16724,582.98444
"669",78.819565,582.99786
"670",77.43282,583.01105
"671",76.053406,583.0245
"672",74.71793,583.03766
"673",73.463036,583.0511
"674",72.33265,583.0643
"675",71.346306,583.0777
"676",70.521095,583.0909
"677",69.85458,583.1043
"678",69.34188,583.1175
"679",68.95613,583.1309
"680",68.680244,583.1441
"681",68.48005,583.15753
"682",68.33112,583.1707
"683",68.21393,583.18414
"684",68.10651,583.1973
"685",67.981995,583.21075
"686",67.825745,583.22394
"687",67.6231,583.23737
"688",67.36431,583.25055
"689",67.04936,583.264
"690",66.69779,583.27716
"691",66.32914,583.2906
"692",65.95804,583.3038
"693",65.59426,583.3172
"694",65.247574,583.3304
"695",64.93019,583.3438
"696",64.64454,583.357
"697",64.4004,583.3704
"698",64.19531,583.3836
"699",64.041504,583.39703
"700",63.93164,583.4102
"701",63.8706,583.42365
"702",63.855953,583.4368
"703",63.89258,583.45026
"704",63.975586,583.46344
"705",64.10742,583.47687
"706",64.28321,583.49005
"707",64.498055,583.5035
"708",64.73487,583.51666
"709",64.98146,583.5301
"710",65.22804,583.5433
"711",65.46975,583.5567
"712",65.75296,583.5699
"713",66.22171,583.5833
"714",67.14702,583.5965
"715",68.97078,583.6099
"716",72.24963,583.6231
"717",77.435265,583.63654
"718",84.52766,583.6497
"719",92.909134,583.66315
"720",101.51278,583.67633
"721",109.12764,583.68976
"722",114.76982,583.70294
"723",117.98276,583.7164
"724",118.925156,583.72955
"725",118.14633,583.743
"726",116.27375,583.75616
"727",113.83475,583.7696
"728",111.22972,583.7828
"729",108.74677,583.7962
"730",106.55436,583.8094
"731",104.7013,583.8228
"732",103.13634,583.836
"733",101.732506,583.8494
"734",100.34821,583.8626
"735",98.89067,583.87604
"736",97.33303,583.8892
"737",95.70702,583.90265
"738",94.07858,583.91583
"739",92.51118,583.92926
"740",91.04387,583.94244
"741",89.69375,583.9559
"742",88.463264,583.96906
"743",87.33044,583.9825
"744",86.2562,583.99567
"745",85.1844,584.0091
"746",84.06378,584.0223
"747",82.845505,584.0357
"748",81.514915,584.0489
"749",80.079346,584.0623
"750",78.56565,584.0755
"751",77.01045,584.0889
"752",75.46014,584.1021
"753",73.94888,584.11554
"754",72.518196,584.1287
"755",71.20958,584.14215
"756",70.04501,584.15533
"757",69.0367,584.16876
"758",68.189514,584.18195
"759",67.50103,584.1954
"760",66.95415,584.20856
"761",66.52445,584.222
"762",66.18021,584.23517
"763",65.89456,584.2486
"764",65.63821,584.2618
"765",65.39651,584.2752
"766",65.15236,584.2884
"767",64.903336,584.3018
"768",64.64698,584.315
"769",64.38575,584.3284
"770",64.12207,584.3416
"771",63.86572,584.35504
"772",63.621574,584.3682
"773",63.399406,584.38165
"774",63.20653,584.39484
"775",63.045395,584.40826
"776",62.923325,584.42145
"777",62.842754,584.4349
"778",62.808575,584.44806
"779",62.8159,584.4615
"780",62.86717,584.4747
"781",62.959946,584.4881
"782",63.099106,584.5013
"783",63.284657,584.5147
"784",63.516594,584.5279
"785",63.785152,584.5413
"786",64.08545,584.5545
"787",64.412605,584.56793
"788",64.75929,584.5811
"789",65.12062,584.59454
"790",65.49172,584.6077
"791",65.85794,584.62115
"792",66.22415,584.63434
"793",66.62211,584.64777
"794",67.16655,584.66095
"795",68.10162,584.6744
"796",69.75693,584.68756
"797",72.54749,584.701
"798",76.90303,584.7142
"799",83.070114,584.7276
"800",90.83147,584.7408
"801",99.46929,584.7542
"802",107.914246,584.7674
"803",115.05791,584.7808
"804",120.0531,584.794
"805",122.58488,584.80743
"806",122.897385,584.8206
"807",121.57412,584.83405
"808",119.26452,584.8472
"809",116.51545,584.86066
"810",113.70779,584.87384
"811",111.093,584.88727
"812",108.80293,584.90045
"813",106.847336,584.9139
"814",105.15053,584.92706
"815",103.58312,584.9405
"816",102.03281,584.9537
"817",100.42878,584.9671
"818",98.76128,584.9803
"819",97.08156,584.9937
"820",95.44335,585.0069
"821",93.893036,585.0203
"822",92.4477,585.0335
"823",91.104904,585.04694
"824",89.830475,585.0601
"825",88.585335,585.07355
"826",87.31579,585.08673
"827",85.980316,585.10016
"828",84.55451,585.11334
"829",83.021286,585.1268
"830",81.39529,585.13995
"831",79.693596,585.1534
"832",77.95041,585.16656
"833",76.20477,585.18
"834",74.49821,585.1932
"835",72.86244,585.2066
"836",71.33166,585.2198
"837",69.93271,585.2332
"838",68.682686,585.2464
"839",67.596245,585.2598
"840",66.67582,585.273
"841",65.91165,585.28644
"842",65.29641,585.2996
"843",64.81056,585.31305
"844",64.43458,585.32623
"845",64.15625,585.33966
"846",63.94873,585.35284
"847",63.802242,585.3663
"848",63.689938,585.37946
"849",63.604485,585.3929
"850",63.5288,585.40607
"851",63.46044,585.4195
"852",63.394524,585.4327
"853",63.34081,585.4461
"854",63.29198,585.4593
"855",63.2578,585.4727
"856",63.23827,585.4859
"857",63.24071,585.4993
"858",63.265125,585.5125
"859",63.32616,585.52594
"860",63.42382,585.5391
"861",63.553215,585.55255
"862",63.716793,585.56573
"863",63.91211,585.57916
"864",64.13672,585.59235
"865",64.395515,585.6058
"866",64.68604,585.61896
"867",65.005875,585.6324
"868",65.34524,585.64557
"869",65.70168,585.659
"870",66.06546,585.6722
"871",66.42924,585.6856
"872",66.78569,585.6988
"873",67.159225,585.7122
"874",67.63775,585.7254
"875",68.40925,585.73883
"876",69.76669,585.752
"877",72.03479,585.76544
"878",75.57244,585.7786
"879",80.65797,585.79205
"880",87.293816,585.80524
"881",95.06004,585.81866
"882",103.1754,585.83185
"883",110.66575,585.8453
"884",116.596016,585.85846
"885",120.36561,585.8719
"886",121.85977,585.8851
"887",121.42031,585.8985
"888",119.60876,585.9117
"889",117.015945,585.9251
"890",114.12283,585.9383
"891",111.26635,585.9517
"892",108.64179,585.9649
"893",106.337074,585.97833
"894",104.32288,585.9915
"895",102.52842,586.00494
"896",100.878006,586.0181
"897",99.30572,586.03156
"898",97.78958,586.04474
"899",96.33936,586.05817
"900",94.96971,586.07135
"901",93.680626,586.0848
"902",92.46479,586.09796
"903",91.29778,586.1114
"904",90.14542,586.1246
"905",88.97841,586.138
"906",87.76013,586.1512
"907",86.45396,586.1646
"908",85.02815,586.1778
"909",83.47784,586.1912
"910",81.812775,586.2044
"911",80.0647,586.21783
"912",78.27024,586.231
"913",76.47822,586.24445
"914",74.7277,586.2576
"915",73.060196,586.27106
"916",71.50988,586.28424
"917",70.101166,586.29767
"918",68.85115,586.31085
"919",67.77203,586.3243
"920",66.85893,586.33746
"921",66.109406,586.3509
"922",65.50393,586.3641
"923",65.03517,586.3775
"924",64.67872,586.3907
"925",64.42481,586.4041
"926",64.24414,586.4173
"927",64.11963,586.4307
"928",64.03906,586.4439
"929",63.990234,586.45734
"930",63.960938,586.4705
"931",63.94629,586.48395
"932",63.94873,586.49713
"933",63.96338,586.51056
"934",64,586.52374
"935",64.05371,586.5372
"936",64.129395,586.55035
"937",64.22949,586.5638
"938",64.344246,586.57697
"939",64.480965,586.5904
"940",64.63233,586.6036
"941",64.79591,586.617
"942",64.96193,586.6302
"943",65.1255,586.6436
"944",65.289085,586.6568
"945",65.46487,586.6702
"946",65.721214,586.6834
"947",66.20462,586.69684
"948",67.156784,586.71
"949",68.875565,586.72345
"950",71.67834,586.73663
"951",75.862976,586.75006
"952",81.52224,586.76324
"953",88.38026,586.7767
"954",95.802246,586.78986
"955",102.93858,586.8033
"956",108.90059,586.81647
"957",113.02174,586.8299
"958",115.04326,586.8431
"959",115.15556,586.8565
"960",113.79813,586.8697
"961",111.50317,586.8831
"962",108.75166,586.8963
"963",105.90494,586.9097
"964",103.19249,586.9229
"965",100.731514,586.93634
"966",98.54398,586.9495
"967",96.62257,586.96295
"968",94.92821,586.97614
"969",93.43893,586.98956
"970",92.1474,587.00275
"971",91.056076,587.0162
"972",90.1503,587.02936
"973",89.38369,587.0428
"974",88.6952,587.05597
"975",88.01892,587.0694
"976",87.28649,587.0826
"977",86.44419,587.096
"978",85.452965,587.1092
"979",84.29572,587.1226
"980",82.967575,587.1358
"981",81.480736,587.14923
"982",79.86694,587.1624
"983",78.16525,587.17584
"984",76.422066,587.189
"985",74.68864,587.20245
"986",73.01869,587.21564
"987",71.45373,587.22906
"988",70.0206,587.24225
"989",68.748604,587.2557
"990",67.64507,587.26886
"991",66.719765,587.2823
"992",65.97269,587.2955
"993",65.39651,587.3089
"994",64.96681,587.3221
"995",64.671394,587.3355
"996",64.480965,587.3487
"997",64.38087,587.3621
"998",64.35157,587.3753
"999",64.375984,587.38873
"1000",64.43946,587.4019
"1001",64.532234,587.41534
"1002",64.64698,587.4285
"1003",64.778824,587.44196
"1004",64.92531,587.45514
"1005",65.08888,587.46857
"1006",65.26223,587.48175
"1007",65.43313,587.4952
"1008",65.59426,587.50836
"1009",65.740746,587.5218
"1010",65.86038,587.535
"1011",65.9556,587.5484
"1012",66.041046,587.5616
"1013",66.14114,587.575
"1014",66.338905,587.5882
"1015",66.812546,587.6016
"1016",67.81598,587.6148
"1017",69.63729,587.62823
"1018",72.57923,587.6414
"1019",76.87373,587.65485
"1020",82.511024,587.668
"1021",89.13954,587.68146
"1022",96.10254,587.69464
"1023",102.59678,587.70807
"1024",107.83612,587.72125
"1025",111.276115,587.7347
"1026",112.76784,587.74786
"1027",112.52613,587.7613
"1028",110.97826,587.7745
"1029",108.61738,587.7879
"1030",105.87808,587.8011
"1031",103.0753,587.8145
"1032",100.40925,587.8277
"1033",97.970245,587.8411
"1034",95.79248,587.8543
"1035",93.873505,587.86774
"1036",92.21332,587.8809
"1037",90.8217,587.89435
"1038",89.69863,587.90753
"1039",88.831924,587.92096
"1040",88.17029,587.93414
"1041",87.638054,587.9476
"1042",87.15221,587.96075
"1043",86.624855,587.9742
"1044",85.9852,587.98737
"1045",85.186844,588.0008
"1046",84.19318,588.014
"1047",83.001755,588.0274
"1048",81.619896,588.0406
"1049",80.09155,588.054
"1050",78.46555,588.0672
"1051",76.79805,588.0806
"1052",75.142746,588.0938
"1053",73.5436,588.10724
"1054",72.047,588.1204
"1055",70.68223,588.13385
"1056",69.4786,588.14703
"1057",68.44587,588.16046
"1058",67.5938,588.17365
"1059",66.9102,588.1871
"1060",66.38529,588.20026
"1061",65.99954,588.2137
"1062",65.73586,588.22687
"1063",65.57961,588.2403
"1064",65.50881,588.2535
"1065",65.50637,588.2669
"1066",65.5552,588.2801
"1067",65.64797,588.2935
"1068",65.77493,588.3067
"1069",65.92142,588.3201
"1070",66.08011,588.3333
"1071",66.2388,588.34674
"1072",66.39262,588.3599
"1073",66.53666,588.37335
"1074",66.66361,588.38654
"1075",66.778366,588.39996
"1076",66.87602,588.41315
"1077",66.949265,588.4266
"1078",67.00542,588.43976
"1079",67.07378,588.4532
"1080",67.247116,588.4664
"1081",67.70367,588.4798
"1082",68.71198,588.493
"1083",70.58213,588.5064
"1084",73.62661,588.5196
"1085",78.06027,588.533
"1086",83.826965,588.5462
"1087",90.50919,588.55963
"1088",97.40139,588.5728
"1089",103.673454,588.58624
"1090",108.56367,588.5994
"1091",111.59838,588.61285
"1092",112.706795,588.62604
"1093",112.17456,588.63947
"1094",110.450905,588.65265
"1095",108.02655,588.6661
"1096",105.306786,588.67926
"1097",102.57969,588.6927
"1098",100.00641,588.7059
"1099",97.652855,588.7193
"1100",95.52636,588.7325
"1101",93.62447,588.7459
"1102",91.935,588.7591
"1103",90.46281,588.7725
"1104",89.21767,588.7857
"1105",88.18738,588.79913
"1106",87.3402,588.8123
"1107",86.61997,588.82574
"1108",85.9559,588.8389
"1109",85.28451,588.85236
"1110",84.53986,588.86554
"1111",83.67559,588.87897
"1112",82.65751,588.89215
"1113",81.47341,588.9056
"1114",80.130615,588.91876
"1115",78.658424,588.9322
"1116",77.09834,588.9454
"1117",75.494316,588.9588
"1118",73.900055,588.972
"1119",72.36927,588.9854
"1120",70.9337,588.9986
"1121",69.627525,589.012
"1122",68.47028,589.0252
"1123",67.47906,589.03864
"1124",66.65629,589.0518
"1125",65.99954,589.06525
"1126",65.50393,589.0784
"1127",65.15968,589.09186
"1128",64.94728,589.10504
"1129",64.8423,589.11847
"1130",64.82765,589.13165
"1131",64.886246,589.1451
"1132",65.00343,589.15826
"1133",65.162125,589.1717
"1134",65.34524,589.1849
"1135",65.53811,589.1983
"1136",65.721214,589.2115
"1137",65.87991,589.2249
"1138",66.00687,589.2381
"1139",66.09964,589.2515
"1140",66.160675,589.2647
"1141",66.197296,589.27814
"1142",66.23636,589.2913
"1143",66.35111,589.30475
"1144",66.71,589.31793
"1145",67.56939,589.33136
"1146",69.21736,589.34454
"1147",71.956665,589.358
"1148",76.00702,589.37115
"1149",81.358665,589.3846
"1150",87.66735,589.39777
"1151",94.295876,589.4112
"1152",100.46052,589.4244
"1153",105.411766,589.4378
"1154",108.63691,589.451
"1155",109.98947,589.4644
"1156",109.68673,589.4776
"1157",108.14862,589.491
"1158",105.848785,589.5042
"1159",103.21202,589.51764
"1160",100.52888,589.5308
"1161",97.98001,589.54425
"1162",95.638664,589.55743
"1163",93.52926,589.57086
"1164",91.66155,589.58405
"1165",90.040436,589.5975
"1166",88.68299,589.61066
"1167",87.606316,589.6241
"1168",86.79576,589.63727
"1169",86.20004,589.6507
"1170",85.74593,589.6639
"1171",85.33578,589.6773
"1172",84.88167,589.6905
"1173",84.30305,589.7039
"1174",83.54864,589.7171
"1175",82.58915,589.7305
"1176",81.42214,589.7437
"1177",80.07202,589.75714
"1178",78.58762,589.7703
"1179",77.0251,589.78375
"1180",75.43328,589.79694
"1181",73.86832,589.81036
"1182",72.38148,589.82355
"1183",71.009384,589.837
"1184",69.78134,589.85016
"1185",68.71931,589.8636
"1186",67.83307,589.8768
"1187",67.12993,589.8902
"1188",66.60502,589.9034
"1189",66.24368,589.9168
"1190",66.0264,589.93
"1191",65.93118,589.9434
"1192",65.9263,589.9566
"1193",65.98001,589.97003
"1194",66.0679,589.9832
"1195",66.16312,589.99664
"1196",66.246124,590.0098
"1197",66.30717,590.02325
"1198",66.355995,590.03644
"1199",66.439,590.04987
"1200",66.702675,590.06305
"1201",67.36187,590.0765
"1202",68.716866,590.08966
"1203",71.10216,590.1031
"1204",74.78142,590.1163
"1205",79.75952,590.1297
"1206",85.70931,590.1429
"1207",92.0058,590.1563
"1208",97.85794,590.1695
"1209",102.53574,590.1829
"1210",105.55581,590.1961
"1211",106.813156,590.20953
"1212",106.51774,590.2227
"1213",105.06752,590.23615
"1214",102.906845,590.2493
"1215",100.40681,590.26276
"1216",97.83841,590.27594
"1217",95.360344,590.28937
"1218",93.04341,590.30255
"1219",90.92424,590.316
"1220",89.02724,590.32916
"1221",87.39391,590.3426
"1222",86.05356,590.3558
"1223",85.04036,590.3692
"1224",84.33967,590.3824
"1225",83.90753,590.3958
"1226",83.65118,590.409
"1227",83.46319,590.4224
"1228",83.23369,590.4356
"1229",82.85527,590.44904
"1230",82.26444,590.4622
"1231",81.42214,590.47565
"1232",80.33326,590.48883
"1233",79.03685,590.50226
"1234",77.58907,590.51544
"1235",76.0412,590.5289
"1236",74.46647,590.54205
"1237",72.92348,590.5555
"1238",71.46105,590.56866
"1239",70.12802,590.5821
"1240",68.95857,590.5953
"1241",67.97711,590.6087
"1242",67.18608,590.6219
"1243",66.580605,590.6353
"1244",66.143585,590.6485
"1245",65.84573,590.6619
"1246",65.652855,590.6751
"1247",65.52834,590.68854
"1248",65.45266,590.7017
"1249",65.42336,590.71515
"1250",65.459984,590.72833
"1251",65.672386,590.74176
"1252",66.27299,590.75494
"1253",67.60113,590.7684
"1254",70.05966,590.78156
"1255",73.94156,590.795
"1256",79.234604,590.80817
"1257",85.52621,590.8216
"1258",92.06439,590.8348
"1259",97.96536,590.8482
"1260",102.469826,590.8614
"1261",105.18227,590.8748
"1262",106.1149,590.888
"1263",105.58022,590.9014
"1264",104.042114,590.9146
"1265",101.94736,590.92804
"1266",99.65972,590.9412
"1267",97.41604,590.95465
"1268",95.31884,590.96783
"1269",93.38766,590.98126
"1270",91.60296,590.99445
"1271",89.952545,591.0079
"1272",88.44373,591.02106
"1273",87.12047,591.0345
"1274",86.031586,591.04767
"1275",85.19661,591.0611
"1276",84.58381,591.0743
"1277",84.13458,591.0877
"1278",83.756165,591.1009
"1279",83.36065,591.1143
"1280",82.862595,591.1275
"1281",82.19852,591.1409
"1282",81.33181,591.1541
"1283",80.255135,591.16754
"1284",78.98558,591.1807
"1285",77.55489,591.19415
"1286",76.01434,591.20734
"1287",74.42008,591.22076
"1288",72.82826,591.23395
"1289",71.29992,591.2474
"1290",69.88632,591.26056
"1291",68.62165,591.274
"1292",67.53033,591.2872
"1293",66.61234,591.3006
"1294",65.865265,591.3138
"1295",65.271996,591.3272
"1296",64.80812,591.3404
"1297",64.45167,591.3538
"1298",64.200195,591.367
"1299",64.095215,591.38043
"1300",64.29786,591.3936
"1301",65.145035,591.40704
"1302",67.0811,591.4202
"1303",70.484474,591.43365
"1304",75.43084,591.44684
"1305",81.55154,591.46027
"1306",88.09216,591.47345
"1307",94.12253,591.4869
"1308",98.83696,591.50006
"1309",101.803314,591.5135
"1310",103.01915,591.5267
"1311",102.80675,591.5401
"1312",101.6202,591.5533
"1313",99.88922,591.5667
"1314",97.96536,591.5799
"1315",96.09277,591.5933
"1316",94.38865,591.6065
"1317",92.86275,591.61993
"1318",91.44427,591.6331
"1319",90.057526,591.64655
"1320",88.65125,591.6597
"1321",87.237656,591.67316
"1322",85.88266,591.68634
"1323",84.6717,591.69977
"1324",83.66094,591.71295
"1325",82.85527,591.7264
"1326",82.22293,591.73956
"1327",81.6907,591.753
"1328",81.18288,591.7662
"1329",80.61402,591.7796
"1330",79.91821,591.7928
"1331",79.04906,591.8062
"1332",77.99191,591.8194
"1333",76.771194,591.8328
"1334",75.423515,591.846
"1335",74.00992,591.85944
"1336",72.586555,591.8726
"1337",71.2169,591.88605
"1338",69.9498,591.89923
"1339",68.81941,591.91266
"1340",67.84772,591.92584
"1341",67.037155,591.9393
"1342",66.37553,591.95245
"1343",65.84329,591.9659
"1344",65.408714,591.97906
"1345",65.040054,591.9925
"1346",64.7129,592.0057
"1347",64.41749,592.0191
"1348",64.20996,592.0323
"1349",64.273445,592.0457
"1350",64.9839,592.0589
"1351",66.83208,592.0723
"1352",70.20615,592.0855
"1353",75.13298,592.09894
"1354",81.1902,592.1121
"1355",87.56481,592.12555
"1356",93.32662,592.13873
"1357",97.71389,592.15216
"1358",100.37263,592.16534
"1359",101.38827,592.1788
"1360",101.136795,592.19196
"1361",100.06012,592.2054
"1362",98.57084,592.21857
"1363",96.9839,592.232
"1364",95.49218,592.2452
"1365",94.16403,592.2586
"1366",92.95552,592.2718
"1367",91.74212,592.2852
"1368",90.39933,592.2984
"1369",88.87099,592.3118
"1370",87.1815,592.325
"1371",85.42367,592.33844
"1372",83.7293,592.3516
"1373",82.22781,592.36505
"1374",80.98024,592.37823
"1375",80.00122,592.39166
"1376",79.2517,592.40485
"1377",78.675514,592.4183
"1378",78.19211,592.43146
"1379",77.7087,592.4449
"1380",77.14961,592.45807
"1381",76.45136,592.4715
"1382",75.59441,592.4847
"1383",74.57877,592.4981
"1384",73.43618,592.5113
"1385",72.21301,592.5247
"1386",70.958115,592.5379
"1387",69.7203,592.55133
"1388",68.541084,592.5645
"1389",67.47173,592.57794
"1390",66.53666,592.5911
"1391",65.77005,592.60455
"1392",65.17677,592.61774
"1393",64.75197,592.63116
"1394",64.46143,592.64435
"1395",64.26856,592.6578
"1396",64.12695,592.67096
"1397",63.990234,592.6844
"1398",63.819332,592.6976
"1399",63.587395,592.711
"1400",63.294422,592.7242
"1401",62.957504,592.7376
"1402",62.640118,592.7508
"1403",62.525368,592.7642
"1404",62.979477,592.7774
"1405",64.52247,592.79083
"1406",67.6524,592.804
"1407",72.567024,592.81744
"1408",78.95384,592.8306
"1409",86.0267,592.84406
"1410",92.752884,592.85724
"1411",98.19974,592.87067
"1412",101.81308,592.88385
"1413",103.56359,592.8973
"1414",103.81506,592.91046
"1415",103.080185,592.9239
"1416",101.82773,592.9371
"1417",100.4239,592.9505
"1418",99.08598,592.9637
"1419",97.89212,592.9771
"1420",96.79103,592.9903
"1421",95.65087,593.0037
"1422",94.32517,593.0169
"1423",92.70893,593.03033
"1424",90.79729,593.0435
"1425",88.67567,593.05695
"1426",86.49302,593.0701
"1427",84.42756,593.08356
"1428",82.62577,593.09674
"1429",81.17555,593.11017
"1430",80.096436,593.12335
"1431",79.34203,593.1368
"1432",78.81712,593.14996
"1433",78.40696,593.1634
"1434",77.996796,593.1766
"1435",77.49142,593.19
"1436",76.839554,593.2032
"1437",76.02167,593.2166
"1438",75.04509,593.2298
"1439",73.93912,593.2432
"1440",72.75014,593.2564
"1441",71.52697,593.26984
"1442",70.3209,593.283
"1443",69.18074,593.29645
"1444",68.14313,593.30963
"1445",67.23735,593.32306
"1446",66.478065,593.33624
"1447",65.86038,593.3497
"1448",65.376976,593.36285
"1449",65.005875,593.3763
"1450",64.71778,593.38947
"1451",64.480965,593.4029
"1452",64.271,593.4161
"1453",64.06348,593.4295
"1454",63.841305,593.4427
"1455",63.5996,593.4561
"1456",63.335926,593.4693
"1457",63.060043,593.4827
"1458",62.789043,593.4959
"1459",62.535133,593.50934
"1460",62.31296,593.5225
"1461",62.129856,593.53595
"1462",61.995575,593.54913
"1463",61.907684,593.56256
"1464",61.861294,593.57574
"1465",61.858852,593.5892
"1466",61.890594,593.60236
"1467",61.94919,593.6158
"1468",62.02487,593.62897
"1469",62.11032,593.6424
"1470",62.2031,593.6556
"1471",62.32517,593.669
"1472",62.56443,593.6822
"1473",63.128407,593.6956
"1474",64.42725,593.7088
"1475",67.06645,593.7222
"1476",71.605095,593.7354
"1477",78.23361,593.74884
"1478",86.52476,593.762
"1479",95.47753,593.77545
"1480",103.79553,593.78864
"1481",110.3386,593.80206
"1482",114.48661,593.81525
"1483",116.266426,593.8287
"1484",116.2005,593.84186
"1485",114.99199,593.8553
"1486",113.248795,593.86847
"1487",111.40551,593.8819
"1488",109.70382,593.8951
"1489",108.22186,593.9085
"1490",106.8864,593.9217
"1491",105.5436,593.9351
"1492",104.010376,593.9483
"1493",102.17441,593.96173
"1494",100.0235,593.9749
"1495",97.6553,593.98834
"1496",95.23094,594.0015
"1497",92.92378,594.01495
"1498",90.87541,594.02814
"1499",89.15907,594.04156
"1500",87.77966,594.05475
"1501",86.69077,594.0682
"1502",85.804535,594.08136
"1503",85.00862,594.0948
"1504",84.19318,594.108
"1505",83.2752,594.1214
"1506",82.20584,594.1346
"1507",80.98024,594.148
"1508",79.622795,594.1612
"1509",78.1799,594.1746
"1510",76.71259,594.1878
"1511",75.267265,594.20123
"1512",73.88785,594.2144
"1513",72.61585,594.22784
"1514",71.465935,594.241
"1515",70.46006,594.25446
"1516",69.60555,594.26764
"1517",68.89998,594.28107
"1518",68.33112,594.29425
"1519",67.879456,594.3077
"1520",67.508354,594.32086
"1521",67.19096,594.3343
"1522",66.89555,594.3475
"1523",66.597694,594.3609
"1524",66.27787,594.3741
"1525",65.94095,594.3875
"1526",65.58694,594.4007
"1527",65.232925,594.4141
"1528",64.89601,594.4273
"1529",64.59083,594.44073
"1530",64.31251,594.4539
"1531",64.06836,594.46735
"1532",63.84863,594.4805
"1533",63.64111,594.49396
"1534",63.436028,594.50714
"1535",63.22362,594.52057
"1536",63.00389,594.53375
"1537",62.8159,594.5472
"1538",62.76463,594.56036
"1539",63.116196,594.5738
"1540",64.34913,594.587
"1541",67.07378,594.6004
"1542",71.75891,594.6136
"1543",78.42405,594.627
"1544",86.46616,594.6402
"1545",94.79393,594.6536
"1546",102.186615,594.6668
"1547",107.68719,594.68024
"1548",110.89525,594.6934
"1549",112.00122,594.70685
"1550",111.57885,594.72003
"1551",110.260475,594.73346
"1552",108.54902,594.74664
"1553",106.78874,594.7601
"1554",105.17006,594.77325
"1555",103.73937,594.7867
"1556",102.43809,594.79987
"1557",101.119705,594.8133
"1558",99.63775,594.8265
"1559",97.88724,594.8399
"1560",95.86084,594.8531
"1561",93.63424,594.8665
"1562",91.35638,594.8797
"1563",89.195694,594.8931
"1564",87.28161,594.9063
"1565",85.694664,594.91974
"1566",84.44709,594.9329
"1567",83.4876,594.94635
"1568",82.72587,594.95953
"1569",82.054474,594.97296
"1570",81.35378,594.98615
"1571",80.550545,594.9996
"1572",79.603264,595.01276
"1573",78.5095,595.0262
"1574",77.29366,595.03937
"1575",75.99481,595.0528
"1576",74.64713,595.066
"1577",73.29458,595.0794
"1578",71.97864,595.0926
"1579",70.74082,595.106
"1580",69.61288,595.1192
"1581",68.62653,595.1326
"1582",67.79889,595.1458
"1583",67.125046,595.15924
"1584",66.59281,595.1724
"1585",66.18021,595.18585
"1586",65.8555,595.19904
"1587",65.58938,595.21246
"1588",65.359886,595.22565
"1589",65.145035,595.2391
"1590",64.93019,595.25226
"1591",64.70313,595.2657
"1592",64.45655,595.2789
"1593",64.18799,595.2923
"1594",63.899902,595.3055
"1595",63.602043,595.3189
"1596",63.30907,595.3321
"1597",63.042953,595.3455
"1598",62.8159,595.3587
"1599",62.630352,595.37213
"1600",62.483864,595.3853
"1601",62.373997,595.39874
"1602",62.27878,595.4119
"1603",62.195774,595.42535
"1604",62.122528,595.43854
"1605",62.063934,595.45197
"1606",62.01999,595.46515
"1607",62.02487,595.4786
"1608",62.17136,595.49176
"1609",62.69871,595.5052
"1610",64.05859,595.5184
"1611",66.87846,595.5318
"1612",71.68322,595.545
"1613",78.57542,595.5584
"1614",87.02037,595.5716
"1615",95.93164,595.585
"1616",104.010376,595.5982
"1617",110.187225,595.61163
"1618",113.934845,595.6248
"1619",115.36797,595.63824
"1620",115.038376,595.6514
"1621",113.62478,595.66486
"1622",111.691154,595.67804
"1623",109.64767,595.69147
"1624",107.736015,595.70465
"1625",106.06607,595.7181
"1626",104.60853,595.73126
"1627",103.236435,595.7447
"1628",101.78378,595.7579
"1629",100.1236,595.7713
"1630",98.20462,595.7845
"1631",96.07324,595.7979
"1632",93.84665,595.8111
"1633",91.67864,595.8245
"1634",89.69375,595.8377
"1635",87.974976,595.85114
"1636",86.54673,595.8643
"1637",85.38949,595.87775
"1638",84.439766,595.8909
"1639",83.60723,595.90436
"1640",82.794235,595.91754
"1641",81.91043,595.93097
"1642",80.89479,595.94415
"1643",79.73266,595.9576
"1644",78.42893,595.97076
"1645",77.02266,595.9842
"1646",75.55779,595.9974
"1647",74.08316,596.0108
"1648",72.64515,596.024
"1649",71.292595,596.0374
"1650",70.05722,596.0506
"1651",68.97566,596.064
"1652",68.05524,596.0772
"1653",67.300835,596.09064
"1654",66.69535,596.1038
"1655",66.229034,596.11725
"1656",65.86771,596.13043
"1657",65.582054,596.14386
"1658",65.33791,596.15704
"1659",65.12062,596.1705
"1660",64.903336,596.18365
"1661",64.67872,596.1971
"1662",64.43458,596.21027
"1663",64.16846,596.2237
"1664",63.87793,596.2369
"1665",63.570305,596.2503
"1666",63.267567,596.2635
"1667",62.9868,596.2769
"1668",62.74754,596.2901
"1669",62.554665,596.3035
"1670",62.41062,596.3167
"1671",62.303196,596.33014
"1672",62.22507,596.3433
"1673",62.164036,596.35675
"1674",62.122528,596.36993
"1675",62.09079,596.38336
"1676",62.078583,596.39655
"1677",62.12497,596.41
"1678",62.354465,596.42316
"1679",63.050278,596.4366
"1680",64.7129,596.44977
"1681",67.9527,596.4632
"1682",73.24086,596.4764
"1683",80.55543,596.4898
"1684",89.24452,596.503
"1685",98.15091,596.5164
"1686",105.985504,596.5296
"1687",111.75464,596.543
"1688",115.038376,596.5562
"1689",116.051575,596.56964
"1690",115.38506,596.5828
"1691",113.71267,596.59625
"1692",111.588615,596.60944
"1693",109.3962,596.62286
"1694",107.369804,596.63605
"1695",105.60464,596.6495
"1696",104.06653,596.66266
"1697",102.63096,596.6761
"1698",101.14168,596.6893
"1699",99.46929,596.7027
"1700",97.57229,596.7159
"1701",95.49706,596.7293
"1702",93.35592,596.7425
"1703",91.28069,596.7559
"1704",89.37881,596.7691
"1705",87.71374,596.78253
"1706",86.30503,596.7957
"1707",85.12825,596.80914
"1708",84.122375,596.8223
"1709",83.20683,596.83575
"1710",82.29618,596.84894
"1711",81.31228,596.86237
"1712",80.2063,596.87555
"1713",78.958725,596.889
"1714",77.58907,596.90216
"1715",76.12421,596.9156
"1716",74.60807,596.9288
"1717",73.077286,596.9422
"1718",71.59045,596.9554
"1719",70.1915,596.9688
"1720",68.926834,596.982
"1721",67.825745,596.9954
"1722",66.90288,597.0086
"1723",66.15579,597.02203
"1724",65.564964,597.0352
"1725",65.10597,597.04865
"1726",64.74952,597.0618
"1727",64.463875,597.07526
"1728",64.22705,597.08844
"1729",64.01465,597.10187
"1730",63.804684,597.11505
"1731",63.584953,597.1285
"1732",63.350574,597.14166
"1733",63.10399,597.1551
"1734",62.85008,597.1683
"1735",62.59617,597.1817
"1736",62.354465,597.1949
"1737",62.13718,597.2083
"1738",61.95407,597.2215
"1739",61.810024,597.2349
"1740",61.71725,597.2481
"1741",61.673306,597.26154
"1742",61.67819,597.2747
"1743",61.7319,597.28815
"1744",61.827114,597.30133
"1745",61.956512,597.31476
"1746",62.112762,597.32794
"1747",62.283665,597.3414
"1748",62.464333,597.35455
"1749",62.66453,597.368
"1750",62.957504,597.38116
"1751",63.52636,597.3946
"1752",64.708015,597.4078
"1753",67.00786,597.4212
"1754",70.98253,597.4344
"1755",76.98848,597.4478
"1756",84.87923,597.461
"1757",93.92233,597.4744
"1758",102.93614,597.4876
"1759",110.660866,597.50104
"1760",116.16632,597.5142
"1761",119.1107,597.52765
"1762",119.74792,597.54083
"1763",118.70054,597.55426
"1764",116.67414,597.56744
"1765",114.24246,597.5809
"1766",111.80347,597.59406
"1767",109.58663,597.6075
"1768",107.6701,597.62067
"1769",106.00748,597.6341
"1770",104.45716,597.6473
"1771",102.855576,597.6607
"1772",101.0782,597.6739
"1773",99.09575,597.6873
"1774",96.96681,597.7005
"1775",94.80614,597.7139
"1776",92.72846,597.7271
"1777",90.82414,597.74054
"1778",89.13954,597.7537
"1779",87.67956,597.76715
"1780",86.41245,597.78033
"1781",85.28207,597.79376
"1782",84.21515,597.80695
"1783",83.12871,597.8204
"1784",81.95682,597.83356
"1785",80.66285,597.847
"1786",79.237045,597.86017
"1787",77.69161,597.8736
"1788",76.07294,597.8868
"1789",74.42008,597.9002
"1790",72.781876,597.9134
"1791",71.202255,597.9268
"1792",69.730064,597.94
"1793",68.39216,597.9534
"1794",67.21782,597.9666
"1795",66.21927,597.98004
"1796",65.40139,597.9932
"1797",64.74708,598.00665
"1798",64.2417,598.01984
"1799",63.860836,598.03326
"1800",63.570305,598.04645
"1801",63.348133,598.0599
"1802",63.174793,598.07306
"1803",63.01854,598.0865
"1804",62.86961,598.0997
"1805",62.720684,598.1131
"1806",62.56443,598.1263
"1807",62.40574,598.1397
"1808",62.25681,598.1529
"1809",62.127415,598.1663
"1810",62.029755,598.1795
"1811",61.973602,598.19293
"1812",61.961395,598.2061
"1813",61.995575,598.21954
"1814",62.0737,598.2327
"1815",62.195774,598.24615
"1816",62.34714,598.25934
"1817",62.53025,598.27277
"1818",62.735332,598.28595
"1819",62.955063,598.2994
"1820",63.18944,598.31256
"1821",63.44335,598.326
"1822",63.755856,598.3392
"1823",64.25147,598.3526
"1824",65.1841,598.3658
"1825",66.95415,598.3792
"1826",70.09384,598.3924
"1827",75.07683,598.4058
"1828",82.039825,598.419
"1829",90.565346,598.43243
"1830",99.70611,598.4456
"1831",108.23163,598.45905
"1832",115.00664,598.4722
"1833",119.34264,598.48566
"1834",121.1664,598.49884
"1835",120.91005,598.51227
"1836",119.25231,598.52545
"1837",116.85481,598.5389
"1838",114.22049,598.55206
"1839",111.68139,598.5655
"1840",109.41329,598.5787
"1841",107.45281,598.5921
"1842",105.70962,598.6053
"1843",104.03723,598.6187
"1844",102.30137,598.6319
"1845",100.419014,598.6453
"1846",98.40238,598.6585
"1847",96.327156,598.67194
"1848",94.295876,598.6851
"1849",92.38911,598.69855
"1850",90.650795,598.71173
"1851",89.08827,598.72516
"1852",87.68932,598.73834
"1853",86.42466,598.7518
"1854",85.23323,598.76495
"1855",84.05646,598.7784
"1856",82.82597,598.79156
"1857",81.497826,598.805
"1858",80.05005,598.8182
"1859",78.48997,598.8316
"1860",76.84688,598.8448
"1861",75.157394,598.8582
"1862",73.46792,598.8714
"1863",71.82483,598.8848
"1864",70.259865,598.898
"1865",68.81453,598.91144
"1866",67.508354,598.9246
"1867",66.355995,598.93805
"1868",65.359886,598.95123
"1869",64.52247,598.96466
"1870",63.836422,598.97784
"1871",63.287098,598.9913
"1872",62.859844,599.00446
"1873",62.532692,599.0179
"1874",62.283665,599.03107
"1875",62.09079,599.0445
"1876",61.9321,599.0577
"1877",61.792934,599.0711
"1878",61.670864,599.0843
"1879",61.56344,599.0977
"1880",61.465782,599.1109
"1881",61.385216,599.1243
"1882",61.324177,599.1375
"1883",61.287556,599.15094
"1884",61.28023,599.1641
"1885",61.304646,599.17755
"1886",61.373005,599.19073
"1887",61.482872,599.20416
"1888",61.634243,599.21735
"1889",61.824673,599.2308
"1890",62.051727,599.24396
"1891",62.31052,599.2574
"1892",62.60105,599.27057
"1893",62.925766,599.284
"1894",63.277332,599.2972
"1895",63.6582,599.3106
"1896",64.061035,599.3238
"1897",64.47852,599.3372
"1898",64.91066,599.3504
"1899",65.357445,599.36383
"1900",65.813995,599.377
"1901",66.27299,599.39044
"1902",66.73197,599.4036
"1903",67.1812,599.41705
"1904",67.62066,599.43024
"1905",68.09186,599.44366
"1906",68.7364,599.45685
"1907",69.80087,599.4703
"1908",71.605095,599.48346
"1909",74.54459,599.4969
"1910",79.03685,599.5101
"1911",85.31136,599.5235
"1912",93.18501,599.5367
"1913",102.00351,599.5501
"1914",110.77562,599.5633
"1915",118.3856,599.5767
"1916",123.92035,599.5899
"1917",126.959946,599.60333
"1918",127.65331,599.6165
"1919",126.52781,599.62994
"1920",124.25971,599.6431
"1921",121.461815,599.65656
"1922",118.598,599.66974
"1923",115.949036,599.68317
"1924",113.636986,599.69635
"1925",111.639885,599.7098
"1926",109.83078,599.72296
"1927",108.05585,599.7364
"1928",106.19058,599.7496
"1929",104.17395,599.763
"1930",102.0206,599.7762
"1931",99.808655,599.7896
"1932",97.616234,599.8028
"1933",95.50439,599.8162
"1934",93.51705,599.8294
"1935",91.666435,599.84283
"1936",89.94766,599.856
"1937",88.33875,599.86945
"1938",86.78844,599.8826
"1939",85.240555,599.89606
"1940",83.64629,599.90924
"1941",81.969025,599.92267
"1942",80.198975,599.93585
"1943",78.35813,599.9493
"1944",76.47578,599.96246
"1945",74.59342,599.9759
"1946",72.75502,599.9891
"1947",70.99718,600.0025
"1948",69.35165,600.0157
"1949",67.84772,600.0291
"1950",66.50248,600.0423
"1951",65.33303,600.0557
"1952",64.341805,600.0689
"1953",63.52636,600.08234
"1954",62.87938,600.0955
"1955",62.378883,600.10895
"1956",62.00534,600.12213
"1957",61.739223,600.13556
"1958",61.560997,600.14874
"1959",61.453575,600.1622
"1960",61.399864,600.17535
"1961",61.39498,600.1888
"1962",61.42672,600.20197
"1963",61.487755,600.2154
"1964",61.56344,600.2286
"1965",61.653774,600.242
"1966",61.75143,600.2552
"1967",61.85397,600.2686
"1968",61.97116,600.2818
"1969",62.10544,600.2952
"1970",62.264133,600.3084
"1971",62.449684,600.32184
"1972",62.666973,600.335
"1973",62.908676,600.34845
"1974",63.174793,600.36163
"1975",63.462883,600.37506
"1976",63.78027,600.38824
"1977",64.12451,600.4017
"1978",64.498055,600.41486
"1979",64.900894,600.4283
"1980",65.323265,600.44147
"1981",65.760284,600.4549
"1982",66.19974,600.4681
"1983",66.634315,600.4815
"1984",67.0518,600.4947
"1985",67.46197,600.5081
"1986",67.91852,600.5213
"1987",68.560616,600.5347
"1988",69.64217,600.5479
"1989",71.465935,600.56134
"1990",74.33219,600.5745
"1991",78.52903,600.58795
"1992",84.210266,600.60114
"1993",91.23674,600.61456
"1994",99.090866,600.62775
"1995",106.98894,600.6412
"1996",114.03494,600.65436
"1997",119.41833,600.6678
"1998",122.663,600.68097
"1999",123.74212,600.6944
"2000",123.01701,600.7076
"2001",121.01991,600.721
"2002",118.312355,600.7342
"2003",115.35577,600.7476
"2004",112.4773,600.7608
"2005",109.86252,600.77423
"2006",107.560234,600.7874
"2007",105.514305,600.80084
"2008",103.63439,600.814
"2009",101.83017,600.82745
"2010",100.050354,600.84064
"2011",98.285194,600.85406
"2012",96.55909,600.86725
"2013",94.89403,600.8807
"2014",93.29977,600.89386
"2015",91.7641,600.9073
"2016",90.27482,600.9205
"2017",88.80507,600.9339
"2018",87.33288,600.9471
"2019",85.821625,600.9605
"2020",84.244446,600.9737
"2021",82.58915,600.9871
"2022",80.848404,601.0003
"2023",79.04173,601.01373
"2024",77.19844,601.0269
"2025",75.3576,601.04034
"2026",73.55581,601.0535
"2027",71.837036,601.06696
"2028",70.22568,601.08014
"2029",68.75105,601.09357
"2030",67.43755,601.10675
"2031",66.302284,601.1202
"2032",65.355,601.13336
"2033",64.59083,601.1468
"2034",64.00244,601.16
"2035",63.575188,601.1734
"2036",63.29198,601.1866
"2037",63.130848,601.2
"2038",63.067368,601.2132
"2039",63.084457,601.2266
"2040",63.15282,601.2398
"2041",63.2578,601.25323
"2042",63.377434,601.2664
"2043",63.50683,601.27985
"2044",63.636227,601.293
"2045",63.768063,601.30646
"2046",63.89746,601.31964
"2047",64.02197,601.33307
"2048",64.146484,601.34625
"2049",64.271,601.3597
"2050",64.4004,601.37286
"2051",64.54444,601.3863
"2052",64.71046,601.3995
"2053",64.89845,601.4129
"2054",65.11818,601.4261
"2055",65.355,601.4395
"2056",65.61379,601.4527
"2057",65.882355,601.4661
"2058",66.15335,601.4793
"2059",66.424355,601.49274
"2060",66.702675,601.5059
"2061",67.04936,601.51935
"2062",67.59869,601.53253
"2063",68.594795,601.54596
"2064",70.313576,601.55914
"2065",73.00893,601.5726
"2066",76.895706,601.58575
"2067",82.054474,601.5992
"2068",88.32899,601.61237
"2069",95.25536,601.6258
"2070",102.17197,601.639
"2071",108.32441,601.6524
"2072",113.041275,601.6656
"2073",115.89044,601.679
"2074",116.825516,601.6922
"2075",116.12726,601.7056
"2076",114.23758,601.7188
"2077",111.62035,601.73224
"2078",108.700386,601.7454
"2079",105.77066,601.75885
"2080",103.011826,601.77203
"2081",100.49958,601.78546
"2082",98.24368,601.79865
"2083",96.23193,601.8121
"2084",94.43748,601.82526
"2085",92.85298,601.8387
"2086",91.47112,601.85187
"2087",90.27726,601.8653
"2088",89.23476,601.8785
"2089",88.29969,601.8919
"2090",87.41833,601.9051
"2091",86.54185,601.9185
"2092",85.62386,601.9317
"2093",84.627754,601.9451
"2094",83.52178,601.9583
"2095",82.28886,601.97174
"2096",80.93385,601.9849
"2097",79.47631,601.99835
"2098",77.95041,602.01154
"2099",76.402534,602.02496
"2100",74.87175,602.03815
"2101",73.39712,602.0516
"2102",72.0177,602.06476
"2103",70.75792,602.0782
"2104",69.63973,602.0914
"2105",68.67292,602.1048
"2106",67.859924,602.118
"2107",67.19829,602.1314
"2108",66.68314,602.1446
"2109",66.304726,602.158
"2110",66.04593,602.1712
"2111",65.897,602.18463
"2112",65.83353,602.1978
"2113",65.84573,602.21124
"2114",65.918976,602.2244
"2115",66.038605,602.23785
"2116",66.18997,602.25104
"2117",66.36576,602.26447
"2118",66.54398,602.27765
"2119",66.71,602.2911
"2120",66.85161,602.30426
"2121",66.96391,602.3177
"2122",67.04936,602.3309
"2123",67.11284,602.3443
"2124",67.16411,602.3575
"2125",67.21294,602.3709
"2126",67.28863,602.3841
"2127",67.47906,602.3975
"2128",67.96735,602.4107
"2129",69.0074,602.42413
"2130",70.85802,602.4373
"2131",73.763336,602.45074
"2132",77.891815,602.4639
"2133",83.209274,602.47736
"2134",89.376366,602.49054
"2135",95.80713,602.50397
"2136",101.79843,602.51715
"2137",106.64469,602.5306
"2138",109.840546,602.54376
"2139",111.20531,602.5572
"2140",110.91234,602.5704
"2141",109.330284,602.5838
"2142",106.91081,602.597
"2143",104.061646,602.6104
"2144",101.09773,602.6236
"2145",98.231476,602.637
"2146",95.57763,602.6502
"2147",93.18257,602.66364
"2148",91.073166,602.6768
"2149",89.26162,602.69025
"2150",87.74792,602.7034
"2151",86.536964,602.71686
"2152",85.609215,602.73004
"2153",84.910965,602.74347
"2154",84.36652,602.75665
"2155",83.89044,602.7701
"2156",83.404594,602.78326
"2157",82.84062,602.7967
"2158",82.14969,602.8099
"2159",81.29763,602.8233
"2160",80.27955,602.8365
"2161",79.114975,602.8499
"2162",77.83322,602.8631
"2163",76.473335,602.8765
"2164",75.09148,602.8897
"2165",73.72671,602.90314
"2166",72.42054,602.9163
"2167",71.202255,602.92975
"2168",70.0914,602.94293
"2169",69.1075,602.95636
"2170",68.25788,602.96954
"2171",67.54986,602.983
"2172",66.983444,602.99615
"2173",66.56107,603.0096
"2174",66.27543,603.02277
"2175",66.11673,603.0362
"2176",66.075226,603.0494
"2177",66.126495,603.0628
"2178",66.2559,603.076
"2179",66.439,603.0894
"2180",66.65385,603.1026
"2181",66.88335,603.116
"2182",67.1104,603.1292
"2183",67.31548,603.14264
"2184",67.48394,603.1558
"2185",67.62066,603.16925
"2186",67.73296,603.18243
"2187",67.88922,603.19586
"2188",68.24567,603.20905
"2189",69.04402,603.2225
"2190",70.54551,603.23566
"2191",73.023575,603.2491
"2192",76.697945,603.26227
"2193",81.60525,603.2757
"2194",87.481804,603.2889
"2195",93.77585,603.3023
"2196",99.791565,603.3155
"2197",104.80385,603.3289
"2198",108.25605,603.3421
"2199",109.90158,603.3555
"2200",109.86252,603.3687
"2201",108.473335,603.38214
"2202",106.17349,603.3953
"2203",103.380486,603.40875
"2204",100.42634,603.42194
"2205",97.530785,603.43536
"2206",94.820786,603.44855
"2207",92.350044,603.462
"2208",90.14542,603.47516
"2209",88.22644,603.4886
"2210",86.60288,603.5018
"2211",85.27718,603.5152
"2212",84.242004,603.5284
"2213",83.45098,603.5418
"2214",82.84306,603.555
"2215",82.340126,603.5684
"2216",81.864044,603.5816
"2217",81.3489,603.59503
"2218",80.73365,603.6082
"2219",79.971924,603.62164
"2220",79.04906,603.6348
"2221",77.962616,603.64825
"2222",76.74189,603.66144
"2223",75.43084,603.67487
"2224",74.07095,603.68805
"2225",72.71595,603.7015
"2226",71.4049,603.71466
"2227",70.169525,603.7281
"2228",69.03914,603.7413
"2229",68.033264,603.7547
"2230",67.16899,603.7679
"2231",66.45609,603.7813
"2232",65.90677,603.7945
"2233",65.52102,603.8079
"2234",65.289085,603.8211
"2235",65.196304,603.83453
"2236",65.22072,603.8477
"2237",65.33547,603.86115
"2238",65.513695,603.8743
"2239",65.72854,603.88776
"2240",65.96292,603.90094
"2241",66.18997,603.91437
"2242",66.39506,603.92755
"2243",66.565956,603.941
"2244",66.71,603.95416
"2245",66.87602,603.9676
"2246",67.19585,603.9808
"2247",67.894104,603.9942
"2248",69.24422,604.0074
"2249",71.52697,604.0208
"2250",74.97917,604.034
"2251",79.68383,604.0474
"2252",85.42855,604.0606
"2253",91.7055,604.07404
"2254",97.82376,604.0872
"2255",103.05577,604.10065
"2256",106.810715,604.11383
"2257",108.79561,604.12726
"2258",109.07637,604.14044
"2259",107.96796,604.1539
"2260",105.90494,604.16705
"2261",103.309685,604.1805
"2262",100.526436,604.19366
"2263",97.777374,604.2071
"2264",95.19188,604.2203
"2265",92.81148,604.2337
"2266",90.65812,604.2469
"2267",88.75136,604.2603
"2268",87.10826,604.2735
"2269",85.75571,604.2869
"2270",84.701,604.3001
"2271",83.929504,604.31354
"2272",83.38018,604.3267
"2273",82.97246,604.34015
"2274",82.616005,604.35333
"2275",82.22537,604.36676
"2276",81.71267,604.37994
"2277",81.024185,604.3934
"2278",80.130615,604.40656
"2279",79.046616,604.42
"2280",77.7966,604.43317
"2281",76.436714,604.4466
"2282",75.02312,604.4598
"2283",73.61196,604.4732
"2284",72.256966,604.4864
"2285",70.99962,604.4998
"2286",69.86923,604.513
"2287",68.895096,604.5264
"2288",68.086975,604.5396
"2289",67.44732,604.55304
"2290",66.966354,604.5662
"2291",66.63676,604.57965
"2292",66.43656,604.59283
"2293",66.336464,604.60626
"2294",66.30717,604.61945
"2295",66.321815,604.6329
"2296",66.36576,604.64606
"2297",66.45365,604.6595
"2298",66.67338,604.67267
"2299",67.21538,604.6861
"2300",68.34577,604.6993
"2301",70.39658,604.7127
"2302",73.673,604.7259
"2303",78.29954,604.7393
"2304",84.07599,604.7525
"2305",90.457924,604.7659
"2306",96.69337,604.7791
"2307",101.9913,604.79254
"2308",105.741356,604.8057
"2309",107.67742,604.81915
"2310",107.91669,604.83234
"2311",106.80583,604.84576
"2312",104.79408,604.85895
"2313",102.30869,604.8724
"2314",99.67925,604.88556
"2315",97.09865,604.899
"2316",94.6572,604.9122
"2317",92.3769,604.9256
"2318",90.26261,604.9388
"2319",88.326546,604.9522
"2320",86.60288,604.9654
"2321",85.135574,604.9788
"2322",83.9588,604.992
"2323",83.06035,605.00543
"2324",82.39872,605.0186
"2325",81.89334,605.03204
"2326",81.463646,605.0452
"2327",81.00954,605.05865
"2328",80.448006,605.07184
"2329",79.71557,605.08527
"2330",78.77562,605.09845
"2331",77.62325,605.1119
"2332",76.28779,605.12506
"2333",74.82292,605.1385
"2334",73.287254,605.1517
"2335",71.744255,605.1651
"2336",70.26475,605.1783
"2337",68.89998,605.1917
"2338",67.6939,605.2049
"2339",66.66117,605.2183
"2340",65.80667,605.2315
"2341",65.12062,605.24493
"2342",64.59571,605.2581
"2343",64.20264,605.27155
"2344",63.926758,605.2847
"2345",63.753414,605.29816
"2346",63.687496,605.31134
"2347",63.802242,605.32477
"2348",64.26612,605.33795
"2349",65.36965,605.3514
"2350",67.50347,605.36456
"2351",71.011826,605.378
"2352",76.00214,605.3912
"2353",82.20828,605.4046
"2354",88.98085,605.4178
"2355",95.43847,605.4312
"2356",100.72175,605.4444
"2357",104.256966,605.4578
"2358",105.88541,605.471
"2359",105.83414,605.48444
"2360",104.54261,605.4976
"2361",102.51377,605.51105
"2362",100.17975,605.52423
"2363",97.831085,605.53766
"2364",95.61669,605.55084
"2365",93.57076,605.5643
"2366",91.66155,605.57745
"2367",89.84024,605.5909
"2368",88.10681,605.60406
"2369",86.49302,605.6175
"2370",85.05745,605.6307
"2371",83.84894,605.6441
"2372",82.88945,605.6573
"2373",82.144806,605.6707
"2374",81.55398,605.6839
"2375",81.041275,605.6973
"2376",80.52369,605.7105
"2377",79.91089,605.72394
"2378",79.13695,605.7371
"2379",78.167694,605.75055
"2380",76.995804,605.76373
"2381",75.64568,605.77716
"2382",74.16861,605.79034
"2383",72.61829,605.8038
"2384",71.046005,605.81696
"2385",69.5079,605.8304
"2386",68.04791,605.84357
"2387",66.71244,605.857
"2388",65.533226,605.8702
"2389",64.52735,605.8836
"2390",63.69482,605.8968
"2391",63.033188,605.9102
"2392",62.520485,605.9234
"2393",62.15183,605.9368
"2394",61.95407,605.95
"2395",62.05417,605.96344
"2396",62.723125,605.9766
"2397",64.38575,605.99005
"2398",67.48394,606.00323
"2399",72.25208,606.01666
"2400",78.519264,606.02985
"2401",85.645836,606.0433
"2402",92.664986,606.05646
"2403",98.58793,606.0699
"2404",102.71641,606.08307
"2405",104.8185,606.0965
"2406",105.109024,606.1097
"2407",104.059204,606.1231
"2408",102.20859,606.1363
"2409",100.01373,606.1497
"2410",97.794464,606.1629
"2411",95.71923,606.17633
"2412",93.83444,606.1895
"2413",92.09125,606.20294
"2414",90.41154,606.2161
"2415",88.741585,606.22955
"2416",87.081406,606.24274
"2417",85.47738,606.25616
"2418",84.00763,606.26935
"2419",82.73075,606.2828
"2420",81.668724,606.29596
"2421",80.80446,606.3094
"2422",80.08911,606.3226
"2423",79.45678,606.336
"2424",78.83177,606.3492
"2425",78.133514,606.3626
"2426",77.29366,606.3758
"2427",76.26826,606.3892
"2428",75.04753,606.4024
"2429",73.66079,606.41583
"2430",72.15442,606.429
"2431",70.58701,606.44244
"2432",69.01961,606.4556
"2433",67.508354,606.46906
"2434",66.106964,606.48224
"2435",64.84474,606.49567
"2436",63.74609,606.50885
"2437",62.830547,606.5223
"2438",62.08835,606.53546
"2439",61.492638,606.5489
"2440",61.028763,606.5621
"2441",60.689404,606.5755
"2442",60.50141,606.5887
"2443",60.594185,606.6021
"2444",61.2607,606.6153
"2445",62.96971,606.6287
"2446",66.20706,606.6419
"2447",71.22423,606.65533
"2448",77.81613,606.6685
"2449",85.25277,606.68195
"2450",92.48188,606.6951
"2451",98.475624,606.70856
"2452",102.54551,606.72174
"2453",104.53773,606.73517
"2454",104.7599,606.74835
"2455",103.77112,606.7618
"2456",102.11337,606.77496
"2457",100.223694,606.7884
"2458",98.38529,606.8016
"2459",96.73243,606.815
"2460",95.25292,606.8282
"2461",93.84665,606.8416
"2462",92.37934,606.8548
"2463",90.76311,606.8682
"2464",88.97841,606.8814
"2465",87.10338,606.89484
"2466",85.26009,606.908
"2467",83.58282,606.92145
"2468",82.159454,606.93463
"2469",81.02174,606.94806
"2470",80.15015,606.96124
"2471",79.48119,606.9747
"2472",78.91966,606.98785
"2473",78.35813,607.0013
"2474",77.70382,607.01447
"2475",76.88106,607.0279
"2476",75.86542,607.0411
"2477",74.66178,607.0545
"2478",73.29946,607.0677
"2479",71.82239,607.0811
"2480",70.28428,607.0943
"2481",68.7364,607.1077
"2482",67.24223,607.1209
"2483",65.86038,607.13434
"2484",64.639656,607.1475
"2485",63.61669,607.16095
"2486",62.8159,607.17413
"2487",62.229954,607.18756
"2488",61.83444,607.20074
"2489",61.592735,607.2142
"2490",61.456017,607.22736
"2491",61.385216,607.2408
"2492",61.333942,607.25397
"2493",61.272907,607.2674
"2494",61.1899,607.2806
"2495",61.10933,607.294
"2496",61.14107,607.3072
"2497",61.55123,607.3206
"2498",62.811016,607.3338
"2499",65.513695,607.3472
"2500",70.11093,607.3604
"2501",76.60273,607.37384
"2502",84.37385,607.387
"2503",92.36225,607.40045
"2504",99.386284,607.41364
"2505",104.532845,607.42706
"2506",107.44549,607.44025
"2507",108.34638,607.4537
"2508",107.79706,607.46686
"2509",106.41032,607.4803
"2510",104.674446,607.49347
"2511",102.90196,607.5069
"2512",101.25399,607.5201
"2513",99.7525,607.5335
"2514",98.30717,607.5467
"2515",96.77638,607.5601
"2516",95.04051,607.5733
"2517",93.06294,607.58673
"2518",90.89006,607.5999
"2519",88.656136,607.61334
"2520",86.51011,607.6265
"2521",84.58381,607.63995
"2522",82.950485,607.65314
"2523",81.6321,607.66656
"2524",80.601814,607.67975
"2525",79.79614,607.6932
"2526",79.1223,607.70636
"2527",78.485085,607.7198
"2528",77.77707,607.733
"2529",76.929886,607.7464
"2530",75.92157,607.7596
"2531",74.74967,607.773
"2532",73.45083,607.7862
"2533",72.08118,607.7996
"2534",70.70176,607.8128
"2535",69.366295,607.82623
"2536",68.11139,607.8394
"2537",66.95903,607.85284
"2538",65.918976,607.866
"2539",65.01076,607.87946
"2540",64.22705,607.89264
"2541",63.567863,607.90607
"2542",63.03563,607.91925
"2543",62.623024,607.9327
"2544",62.30808,607.94586
"2545",62.07126,607.9593
"2546",61.88327,607.9725
"2547",61.739223,607.9859
"2548",61.614708,607.9991
"2549",61.502403,608.0125
"2550",61.40719,608.0257
"2551",61.34615,608.0391
"2552",61.32906,608.0523
"2553",61.36324,608.06573
"2554",61.451134,608.0789
"2555",61.592735,608.09235
"2556",61.773403,608.1055
"2557",61.98581,608.11896
"2558",62.20798,608.13214
"2559",62.42527,608.14557
"2560",62.632793,608.15875
"2561",62.825665,608.1722
"2562",63.047836,608.18536
"2563",63.433586,608.1988
"2564",64.26124,608.212
"2565",65.9971,608.2254
"2566",69.25643,608.2386
"2567",74.529945,608.252
"2568",81.84451,608.2652
"2569",90.57267,608.2786
"2570",99.562065,608.2918
"2571",107.508965,608.30524
"2572",113.36111,608.3184
"2573",116.6717,608.33185
"2574",117.6556,608.34503
"2575",116.962234,608.35846
"2576",115.319145,608.37164
"2577",113.307396,608.3851
"2578",111.290764,608.39825
"2579",109.44747,608.4117
"2580",107.79706,608.42487
"2581",106.24185,608.4383
"2582",104.61829,608.4515
"2583",102.78722,608.4649
"2584",100.682686,608.4781
"2585",98.34135,608.4915
"2586",95.87549,608.5047
"2587",93.44381,608.5181
"2588",91.20012,608.5313
"2589",89.24696,608.54474
"2590",87.623405,608.5579
"2591",86.31968,608.57135
"2592",85.26498,608.58453
"2593",84.368965,608.59796
"2594",83.52178,608.61115
"2595",82.62333,608.6246
"2596",81.59792,608.63776
"2597",80.413826,608.6512
"2598",79.05882,608.66437
"2599",77.574425,608.6778
"2600",76.01434,608.691
"2601",74.43229,608.7044
"2602",72.87709,608.7176
"2603",71.38781,608.731
"2604",70.00595,608.7442
"2605",68.755936,608.7576
"2606",67.66216,608.7708
"2607",66.739296,608.78424
"2608",65.98978,608.7974
"2609",65.391624,608.81085
"2610",64.92287,608.82404
"2611",64.55421,608.83746
"2612",64.25147,608.85065
"2613",63.98535,608.8641
"2614",63.741207,608.87726
"2615",63.50927,608.8907
"2616",63.282215,608.9039
"2617",63.07225,608.9173
"2618",62.894028,608.9305
"2619",62.74754,608.9439
"2620",62.635235,608.9571
"2621",62.557106,608.9705
"2622",62.51072,608.9837
"2623",62.486305,608.99713
"2624",62.471657,609.0103
"2625",62.46189,609.02374
"2626",62.454567,609.0369
"2627",62.466774,609.05035
"2628",62.54978,609.06354
"2629",62.86717,609.07697
"2630",63.74365,609.09015
"2631",65.687035,609.1036
"2632",69.27596,609.11676
"2633",74.87663,609.1302
"2634",82.34501,609.1434
"2635",90.914474,609.1568
"2636",99.39849,609.17
"2637",106.56901,609.1834
"2638",111.55932,609.1966
"2639",114.1033,609.21
"2640",114.528114,609.2232
"2641",113.480736,609.23663
"2642",111.64233,609.2498
"2643",109.5256,609.26324
"2644",107.46746,609.2764
"2645",105.619286,609.28986
"2646",103.99573,609.30304
"2647",102.484474,609.31647
"2648",100.93172,609.32965
"2649",99.19585,609.3431
"2650",97.22804,609.35626
"2651",95.062485,609.3697
"2652",92.8188,609.3829
"2653",90.633705,609.3963
"2654",88.636604,609.4095
"2655",86.908066,609.4229
"2656",85.46517,609.4361
"2657",84.2884,609.4495
"2658",83.32159,609.4627
"2659",82.476845,609.47614
"2660",81.64675,609.4893
"2661",80.743416,609.50275
"2662",79.70336,609.5159
"2663",78.487526,609.52936
"2664",77.11543,609.54254
"2665",75.62127,609.55597
"2666",74.05386,609.56915
"2667",72.46937,609.5826
"2668",70.923935,609.59576
"2669",69.45907,609.6092
"2670",68.10651,609.6224
"2671",66.897995,609.6358
"2672",65.8555,609.649
"2673",64.9839,609.6624
"2674",64.27833,609.6756
"2675",63.733883,609.689
"2676",63.321278,609.7022
"2677",63.01854,609.71564
"2678",62.79881,609.7288
"2679",62.630352,609.74225
"2680",62.491188,609.75543
"2681",62.369114,609.76886
"2682",62.251926,609.78204
"2683",62.13962,609.7955
"2684",62.03708,609.80865
"2685",61.946747,609.8221
"2686",61.875946,609.83527
"2687",61.831997,609.8487
"2688",61.81979,609.8619
"2689",61.85641,609.8753
"2690",61.944305,609.8885
"2691",62.081024,609.9019
"2692",62.264133,609.9151
"2693",62.483864,609.9285
"2694",62.725567,609.9417
"2695",62.96971,609.95514
"2696",63.208973,609.9683
"2697",63.44335,609.98175
"2698",63.71435,609.99493
"2699",64.163574,610.00836
"2700",65.06935,610.02155
"2701",66.87114,610.035
"2702",70.13046,610.04816
"2703",75.28924,610.0616
"2704",82.391396,610.07477
"2705",90.897385,610.0882
"2706",99.774475,610.1014
"2707",107.775085,610.1148
"2708",113.849396,610.128
"2709",117.45785,610.1414
"2710",118.67368,610.1546
"2711",118.029144,610.168
"2712",116.21515,610.1812
"2713",113.85184,610.19464
"2714",111.395744,610.2078
"2715",109.11299,610.22125
"2716",107.10857,610.23444
"2717",105.35073,610.24786
"2718",103.71252,610.26105
"2719",102.04013,610.2745
"2720",100.22858,610.28766
"2721",98.24368,610.3011
"2722",96.14404,610.3143
"2723",94.029755,610.3277
"2724",92.018005,610.3409
"2725",90.19913,610.3543
"2726",88.61707,610.3675
"2727",87.27917,610.3809
"2728",86.14389,610.3941
"2729",85.14046,610.40753
"2730",84.18341,610.4207
"2731",83.18242,610.43414
"2732",82.0618,610.4473
"2733",80.78737,610.46075
"2734",79.35424,610.47394
"2735",77.78439,610.48737
"2736",76.11932,610.50055
"2737",74.41764,610.514
"2738",72.7306,610.52716
"2739",71.116806,610.5406
"2740",69.625084,610.5538
"2741",68.29206,610.5672
"2742",67.139694,610.5804
"2743",66.177765,610.5938
"2744",65.40139,610.607
"2745",64.79347,610.6204
"2746",64.324715,610.6336
"2747",63.96338,610.64703
"2748",63.687496,610.6602
"2749",63.47753,610.67365
"2750",63.311512,610.6868
"2751",63.16747,610.70026
"2752",63.03807,610.71344
"2753",62.908676,610.72687
"2754",62.786602,610.74005
"2755",62.666973,610.7535
"2756",62.56199,610.76666
"2757",62.47654,610.7801
"2758",62.42527,610.7933
"2759",62.41062,610.8067
"2760",62.447243,610.8199
"2761",62.540016,610.8333
"2762",62.688946,610.8465
"2763",62.87938,610.8599
"2764",63.10399,610.8731
"2765",63.34325,610.88654
"2766",63.57763,610.8997
"2767",63.802242,610.91315
"2768",64.026855,610.92633
"2769",64.31739,610.93976
"2770",64.85695,610.95294
"2771",65.96536,610.9664
"2772",68.09918,610.97955
"2773",71.77844,610.993
"2774",77.36446,611.00616
"2775",84.76692,611.0196
"2776",93.32906,611.0328
"2777",101.959564,611.0462
"2778",109.44503,611.0594
"2779",114.845505,611.0728
"2780",117.74593,611.086
"2781",118.33433,611.0994
"2782",117.20149,611.1126
"2783",115.03349,611.12604
"2784",112.41627,611.1392
"2785",109.76242,611.15265
"2786",107.31609,611.16583
"2787",105.17494,611.17926
"2788",103.29748,611.19244
"2789",101.576256,611.2059
"2790",99.87213,611.21906
"2791",98.089874,611.2325
"2792",96.20996,611.24567
"2793",94.29832,611.2591
"2794",92.4477,611.2723
"2795",90.738686,611.2857
"2796",89.22499,611.2989
"2797",87.90906,611.3123
"2798",86.77135,611.3255
"2799",85.76303,611.3389
"2800",84.823074,611.3521
"2801",83.87335,611.36554
"2802",82.84306,611.3787
"2803",81.66628,611.39215
"2804",80.31861,611.40533
"2805",78.80003,611.41876
"2806",77.13985,611.43195
"2807",75.386894,611.4454
"2808",73.59731,611.45856
"2809",71.834595,611.472
"2810",70.15976,611.48517
"2811",68.63142,611.4986
"2812",67.28863,611.5118
"2813",66.15091,611.5252
"2814",65.230484,611.5384
"2815",64.52491,611.5518
"2816",64.01465,611.565
"2817",63.67529,611.5784
"2818",63.479973,611.5916
"2819",63.392082,611.60504
"2820",63.382317,611.6182
"2821",63.414055,611.63165
"2822",63.47265,611.64484
"2823",63.536125,611.65826
"2824",63.606926,611.67145
"2825",63.67529,611.6849
"2826",63.74609,611.69806
"2827",63.821774,611.7115
"2828",63.91211,611.7247
"2829",64.01953,611.7381
"2830",64.15137,611.7513
"2831",64.31495,611.7647
"2832",64.50538,611.7779
"2833",64.71046,611.7913
"2834",64.92287,611.8045
"2835",65.13039,611.81793
"2836",65.323265,611.8311
"2837",65.50637,611.84454
"2838",65.704124,611.8577
"2839",66.01663,611.87115
"2840",66.66605,611.88434
"2841",67.97711,611.89777
"2842",70.39414,611.91095
"2843",74.390785,611.9244
"2844",80.22827,611.93756
"2845",87.66979,611.951
"2846",95.92676,611.9642
"2847",103.871216,611.9776
"2848",110.380104,611.9908
"2849",114.669716,612.0042
"2850",116.52277,612.0174
"2851",116.30305,612.0308
"2852",114.67704,612.044
"2853",112.291756,612.05743
"2854",109.64034,612.0706
"2855",107.04265,612.08405
"2856",104.672005,612.0972
"2857",102.58457,612.11066
"2858",100.74372,612.12384
"2859",99.04936,612.13727
"2860",97.40383,612.15045
"2861",95.7412,612.1639
"2862",94.06149,612.17706
"2863",92.41596,612.1905
"2864",90.87297,612.2037
"2865",89.48867,612.2171
"2866",88.28504,612.2303
"2867",87.25475,612.2437
"2868",86.35874,612.2569
"2869",85.540855,612.2703
"2870",84.72541,612.2835
"2871",83.84161,612.29694
"2872",82.83574,612.3101
"2873",81.68093,612.32355
"2874",80.37232,612.33673
"2875",78.93187,612.35016
"2876",77.39376,612.36334
"2877",75.792175,612.3768
"2878",74.18082,612.38995
"2879",72.61585,612.4034
"2880",71.148544,612.41656
"2881",69.82773,612.43
"2882",68.682686,612.4432
"2883",67.73052,612.4566
"2884",66.968796,612.4698
"2885",66.38285,612.4832
"2886",65.96536,612.4964
"2887",65.68459,612.5098
"2888",65.52346,612.523
"2889",65.45022,612.53644
"2890",65.442894,612.5496
"2891",65.46975,612.56305
"2892",65.50881,612.57623
"2893",65.54055,612.58966
"2894",65.55276,612.60284
"2895",65.54299,612.6163
"2896",65.52102,612.62946
"2897",65.49416,612.6429
"2898",65.479515,612.65607
"2899",65.48928,612.6695
"2900",65.530785,612.6827
"2901",65.599144,612.6961
"2902",65.69192,612.7093
"2903",65.796906,612.7227
"2904",65.897,612.7359
"2905",65.98245,612.7493
"2906",66.058136,612.7625
"2907",66.17044,612.77594
"2908",66.45609,612.7891
"2909",67.18852,612.80255
"2910",68.790115,612.81573
"2911",71.78821,612.82916
"2912",76.61738,612.84235
"2913",83.284966,612.8558
"2914",91.18059,612.86896
"2915",99.23003,612.8824
"2916",106.251625,612.89557
"2917",111.293205,612.909
"2918",113.93973,612.9222
"2919",114.37919,612.9356
"2920",113.214615,612.9488
"2921",111.097885,612.9622
"2922",108.53681,612.9754
"2923",105.87808,612.98883
"2924",103.34875,613.002
"2925",101.0782,613.01544
"2926",99.09575,613.0286
"2927",97.355,613.04205
"2928",95.75586,613.05524
"2929",94.222626,613.06866
"2930",92.696724,613.08185
"2931",91.192795,613.0953
"2932",89.767,613.10846
"2933",88.47791,613.1219
"2934",87.36462,613.1351
"2935",86.43687,613.1485
"2936",85.662926,613.1617
"2937",84.99397,613.1751
"2938",84.37141,613.1883
"2939",83.72198,613.2017
"2940",82.98222,613.2149
"2941",82.091095,613.22833
"2942",81.03639,613.2415
"2943",79.818115,613.25494
"2944",78.47532,613.2681
"2945",77.03487,613.28156
"2946",75.55047,613.29474
"2947",74.06607,613.30817
"2948",72.63538,613.32135
"2949",71.30236,613.3348
"2950",70.115814,613.34796
"2951",69.102615,613.3614
"2952",68.28474,613.3746
"2953",67.65484,613.388
"2954",67.19829,613.4012
"2955",66.897995,613.4146
"2956",66.72465,613.4278
"2957",66.65385,613.4412
"2958",66.65385,613.4544
"2959",66.69779,613.46783
"2960",66.75151,613.481
"2961",66.7979,613.49445
"2962",66.81743,613.5076
"2963",66.80522,613.52106
"2964",66.76372,613.53424
"2965",66.69779,613.54767
"2966",66.60746,613.56085
"2967",66.50736,613.5743
"2968",66.407265,613.58746
"2969",66.31693,613.6009
"2970",66.24124,613.6141
"2971",66.18753,613.6275
"2972",66.15579,613.6407
"2973",66.1387,613.6541
"2974",66.13382,613.6673
"2975",66.13626,613.6807
"2976",66.18265,613.6939
"2977",66.38285,613.70734
"2978",67.000534,613.7205
"2979",68.48493,613.73395
"2980",71.448845,613.74713
"2981",76.3415,613.76056
"2982",83.10918,613.77374
"2983",91.05119,613.7872
"2984",99.037155,613.80035
"2985",105.846344,613.8138
"2986",110.56565,613.82697
"2987",112.87526,613.8404
"2988",113.07301,613.8536
"2989",111.77661,613.867
"2990",109.58175,613.8802
"2991",106.949875,613.8936
"2992",104.20813,613.9068
"2993",101.593346,613.9202
"2994",99.24223,613.9334
"2995",97.2256,613.94684
"2996",95.50927,613.96
"2997",94.01022,613.97345
"2998",92.62592,613.98663
"2999",91.283134,614.00006
"3000",89.95987,614.01324
"3001",88.68299,614.0267
"3002",87.501335,614.03986
"3003",86.44419,614.0533
"3004",85.51888,614.06647
"3005",84.70832,614.0799
"3006",83.983215,614.0931
"3007",83.30694,614.1065
"3008",82.63554,614.1197
"3009",81.91043,614.1331
"3010",81.0901,614.1463
"3011",80.13794,614.1597
"3012",79.04906,614.1729
"3013",77.83566,614.18634
"3014",76.52705,614.1995
"3015",75.157394,614.21295
"3016",73.77554,614.22614
"3017",72.42054,614.23956
"3018",71.13634,614.25275
"3019",69.96689,614.2662
"3020",68.9366,614.27936
"3021",68.06012,614.2928
"3022",67.335014,614.30597
"3023",66.76128,614.3194
"3024",66.3267,614.3326
"3025",66.021515,614.346
"3026",65.831085,614.3592
"3027",65.73586,614.3726
"3028",65.71389,614.3858
"3029",65.73098,614.39923
"3030",65.76761,614.4124
"3031",65.811554,614.42584
"3032",65.84329,614.439
"3033",65.86282,614.45245
"3034",65.86771,614.46564
"3035",65.85062,614.47906
"3036",65.80667,614.49225
"3037",65.74563,614.5057
"3038",65.669945,614.51886
"3039",65.5967,614.5323
"3040",65.53567,614.5455
"3041",65.49905,614.5589
"3042",65.49172,614.5721
"3043",65.516136,614.5855
"3044",65.57229,614.5987
"3045",65.65774,614.6121
"3046",65.77005,614.6253
"3047",65.90921,614.63873
"3048",66.0679,614.6519
"3049",66.231476,614.66534
"3050",66.407265,614.6785
"3051",66.634315,614.69196
"3052",67.0518,614.70514
"3053",67.94293,614.71857
"3054",69.75693,614.73175
"3055",73.074844,614.7452
"3056",78.35813,614.75836
"3057",85.56283,614.7718
"3058",93.98581,614.785
"3059",102.46494,614.7984
"3060",109.752655,614.8116
"3061",114.88701,614.825
"3062",117.47738,614.8382
"3063",117.785,614.8516
"3064",116.46174,614.8648
"3065",114.15701,614.87823
"3066",111.36645,614.8914
"3067",108.436714,614.90485
"3068",105.619286,614.918
"3069",103.07286,614.93146
"3070",100.88045,614.94464
"3071",99.03471,614.95807
"3072",97.46731,614.97125
"3073",96.078125,614.9847
"3074",94.7744,614.99786
"3075",93.49508,615.0113
"3076",92.23285,615.0245
"3077",91.01213,615.0379
"3078",89.85977,615.0511
"3079",88.79042,615.0645
"3080",87.79675,615.0777
"3081",86.86656,615.0911
"3082",85.977875,615.1043
"3083",85.09651,615.11774
"3084",84.17853,615.1309
"3085",83.18486,615.14435
"3086",82.08377,615.15753
"3087",80.867935,615.17096
"3088",79.54467,615.18414
"3089",78.14328,615.1976
"3090",76.700386,615.21075
"3091",75.25506,615.2242
"3092",73.846344,615.23737
"3093",72.50843,615.2508
"3094",71.27795,615.264
"3095",70.17441,615.2774
"3096",69.21492,615.2906
"3097",68.404366,615.304
"3098",67.73785,615.3172
"3099",67.210495,615.3306
"3100",66.80766,615.3438
"3101",66.5098,615.35724
"3102",66.2974,615.3704
"3103",66.160675,615.38385
"3104",66.07034,615.39703
"3105",66.01663,615.41046
"3106",65.97757,615.42365
"3107",65.94095,615.4371
"3108",65.89212,615.45026
"3109",65.82864,615.4637
"3110",65.75052,615.47687
"3111",65.66018,615.4903
"3112",65.567406,615.5035
"3113",65.47707,615.5169
"3114",65.39895,615.5301
"3115",65.33303,615.5435
"3116",65.2842,615.5567
"3117",65.25979,615.5701
"3118",65.26223,615.5833
"3119",65.289085,615.59674
"3120",65.34768,615.6099
"3121",65.43069,615.62335
"3122",65.54299,615.63654
"3123",65.68459,615.64996
"3124",65.86038,615.66315
"3125",66.0679,615.6766
"3126",66.2974,615.68976
"3127",66.54398,615.7032
"3128",66.795456,615.7164
"3129",67.05913,615.7298
"3130",67.40826,615.743
"3131",68.050354,615.7564
"3132",69.32723,615.7696
"3133",71.7174,615.783
"3134",75.76776,615.7962
"3135",81.80301,615.80963
"3136",89.564354,615.8228
"3137",98.18509,615.83624
"3138",106.459145,615.8494
"3139",113.21706,615.86285
"3140",117.63607,615.87604
"3141",119.51354,615.88947
"3142",119.2401,615.90265
"3143",117.49447,615.9161
"3144",114.896774,615.92926
"3145",111.91089,615.9427
"3146",108.87373,615.9559
"3147",106.01724,615.9693
"3148",103.49035,615.9825
"3149",101.34432,615.9959
"3150",99.54986,616.0091
"3151",98.01907,616.0225
"3152",96.639656,616.0357
"3153",95.326164,616.04913
"3154",94.03952,616.0623
"3155",92.78462,616.07574
"3156",91.58831,616.0889
"3157",90.47013,616.10236
"3158",89.43496,616.11554
"3159",88.465706,616.12897
"3160",87.53307,616.14215
"3161",86.61021,616.1556
"3162",85.65804,616.16876
"3163",84.63996,616.1822
"3164",83.52422,616.1954
"3165",82.29374,616.2088
"3166",80.953384,616.222
"3167",79.517815,616.2354
"3168",78.02121,616.2486
"3169",76.50019,616.262
"3170",74.99626,616.2752
"3171",73.54116,616.28864
"3172",72.17151,616.3018
"3173",70.91173,616.31525
"3174",69.7789,616.3284
"3175",68.787674,616.34186
"3176",67.94049,616.35504
"3177",67.23247,616.36847
"3178",66.65873,616.38165
"3179",66.211945,616.3951
"3180",65.87747,616.40826
"3181",65.635765,616.4217
"3182",65.47463,616.4349
"3183",65.376976,616.4483
"3184",65.323265,616.4615
"3185",65.303734,616.4749
"3186",65.30129,616.4881
"3187",65.30862,616.5015
"3188",65.31594,616.5147
"3189",65.32082,616.52814
"3190",65.31594,616.5413
"3191",65.303734,616.55475
"3192",65.28176,616.56793
"3193",65.254906,616.58136
"3194",65.22316,616.59454
"3195",65.20363,616.608
"3196",65.20119,616.62115
"3197",65.22804,616.6346
"3198",65.289085,616.64777
"3199",65.38918,616.6612
"3200",65.516136,616.6744
"3201",65.65774,616.6878
"3202",65.80423,616.701
"3203",65.950714,616.7144
"3204",66.143585,616.7276
"3205",66.53178,616.741
"3206",67.40093,616.7542
"3207",69.15144,616.76764
"3208",72.26429,616.7808
"3209",77.152054,616.79425
"3210",83.8465,616.80743
"3211",91.78607,616.82086
"3212",99.964905,616.83405
"3213",107.24284,616.8475
"3214",112.65797,616.86066
"3215",115.70977,616.8741
"3216",116.473946,616.88727
"3217",115.46563,616.9007
"3218",113.31228,616.9139
"3219",110.52903,616.9273
"3220",107.49676,616.9405
"3221",104.49622,616.9539
"3222",101.715416,616.9671
"3223",99.24956,616.9805
"3224",97.11818,616.9937
"3225",95.28954,617.00714
"3226",93.70504,617.0203
"3227",92.32807,617.03375
"3228",91.124435,617.04694
"3229",90.0795,617.06036
"3230",89.17616,617.07355
"3231",88.39002,617.087
"3232",87.67956,617.10016
"3233",86.99596,617.1136
"3234",86.30015,617.1268
"3235",85.557945,617.1402
"3236",84.73029,617.1534
"3237",83.77814,617.1668
"3238",82.667274,617.18
"3239",81.39773,617.1934
"3240",79.98413,617.2066
"3241",78.46555,617.22003
"3242",76.87862,617.2332
"3243",75.28191,617.24664
"3244",73.71694,617.2598
"3245",72.22522,617.27325
"3246",70.8336,617.28644
"3247",69.573814,617.29987
"3248",68.45319,617.31305
"3249",67.48394,617.3265
"3250",66.668495,617.33966
"3251",66.004425,617.3531
"3252",65.48196,617.3663
"3253",65.093765,617.3797
"3254",64.82765,617.3929
"3255",64.66651,617.4063
"3256",64.58839,617.4195
"3257",64.57862,617.4329
"3258",64.62501,617.4461
"3259",64.708015,617.45953
"3260",64.813,617.4727
"3261",64.93996,617.48615
"3262",65.07179,617.4993
"3263",65.20851,617.51276
"3264",65.34768,617.52594
"3265",65.479515,617.53937
"3266",65.61135,617.55255
"3267",65.73342,617.566
"3268",65.83841,617.57916
"3269",65.92142,617.5926
"3270",65.98489,617.6058
"3271",66.03616,617.6192
"3272",66.13138,617.6324
"3273",66.43412,617.6458
"3274",67.23003,617.659
"3275",68.892654,617.6724
"3276",71.851685,617.6856
"3277",76.45136,617.69904
"3278",82.686806,617.7122
"3279",90.04532,617.72565
"3280",97.5967,617.73883
"3281",104.30091,617.75226
"3282",109.281456,617.76544
"3283",112.06958,617.7789
"3284",112.723885,617.79205
"3285",111.68871,617.8055
"3286",109.53536,617.81866
"3287",106.759445,617.8321
"3288",103.727165,617.8453
"3289",100.697334,617.8587
"3290",97.84329,617.8719
"3291",95.25536,617.8853
"3292",92.97261,617.8985
"3293",90.98772,617.9119
"3294",89.29824,617.9251
"3295",87.90173,617.93854
"3296",86.81041,617.9517
"3297",86.01694,617.96515
"3298",85.489586,617.97833
"3299",85.15999,617.99176
"3300",84.93538,618.00494
"3301",84.715645,618.0184
"3302",84.41291,618.03156
"3303",83.9588,618.045
"3304",83.302055,618.05817
"3305",82.42802,618.0716
"3306",81.341576,618.0848
"3307",80.06714,618.0982
"3308",78.643776,618.1114
"3309",77.11543,618.1248
"3310",75.53826,618.138
"3311",73.96597,618.1514
"3312",72.44984,618.1646
"3313",71.0338,618.17804
"3314",69.747154,618.1912
"3315",68.60456,618.20465
"3316",67.6231,618.21783
"3317",66.80278,618.23126
"3318",66.143585,618.24445
"3319",65.64309,618.2579
"3320",65.29153,618.27106
"3321",65.07912,618.2845
"3322",64.9839,618.29767
"3323",64.99367,618.3111
"3324",65.091324,618.3243
"3325",65.254906,618.3377
"3326",65.4551,618.3509
"3327",65.672386,618.3643
"3328",65.87747,618.3775
"3329",66.055695,618.3909
"3330",66.18997,618.4041
"3331",66.285194,618.41754
"3332",66.36332,618.4307
"3333",66.50248,618.44415
"3334",66.88579,618.45734
"3335",67.79645,618.47076
"3336",69.607994,618.48395
"3337",72.71839,618.4974
"3338",77.37179,618.51056
"3339",83.45342,618.524
"3340",90.38712,618.5372
"3341",97.27932,618.5506
"3342",103.17296,618.5638
"3343",107.3283,618.5772
"3344",109.41085,618.5904
"3345",109.56222,618.6038
"3346",108.21942,618.617
"3347",105.90738,618.63043
"3348",103.07774,618.6436
"3349",100.069885,618.65704
"3350",97.1133,618.6702
"3351",94.347145,618.68365
"3352",91.84711,618.69684
"3353",89.64492,618.71027
"3354",87.75525,618.72345
"3355",86.20004,618.7369
"3356",85.00618,618.75006
"3357",84.18097,618.7635
"3358",83.700005,618.7767
"3359",83.49737,618.7901
"3360",83.46319,618.8033
"3361",83.48028,618.8167
"3362",83.42901,618.8299
"3363",83.22148,618.8433
"3364",82.78691,618.8565
"3365",82.09354,618.86993
"3366",81.14137,618.8831
"3367",79.95972,618.89655
"3368",78.590065,618.9097
"3369",77.0959,618.92316
"3370",75.53826,618.93634
"3371",73.9733,618.94977
"3372",72.4596,618.96295
"3373",71.03868,618.9764
"3374",69.752045,618.98956
"3375",68.62409,619.003
"3376",67.66949,619.0162
"3377",66.88823,619.0296
"3378",66.28275,619.0428
"3379",65.85306,619.0562
"3380",65.57717,619.0694
"3381",65.43801,619.0828
"3382",65.41604,619.096
"3383",65.48684,619.10944
"3384",65.618675,619.1226
"3385",65.78226,619.13605
"3386",65.9556,619.14923
"3387",66.11429,619.16266
"3388",66.251015,619.17584
"3389",66.373085,619.1893
"3390",66.546425,619.20245
"3391",66.92485,619.2159
"3392",67.77936,619.22906
"3393",69.48592,619.2425
"3394",72.45228,619.2557
"3395",76.94942,619.2691
"3396",82.87236,619.2823
"3397",89.66689,619.2957
"3398",96.45655,619.3089
"3399",102.2916,619.3223
"3400",106.42252,619.3355
"3401",108.53681,619.34894
"3402",108.773636,619.3621
"3403",107.560234,619.37555
"3404",105.40444,619.38873
"3405",102.76036,619.40216
"3406",99.95758,619.41534
"3407",97.22316,619.4288
"3408",94.6865,619.44196
"3409",92.41352,619.4554
"3410",90.42863,619.46857
"3411",88.744026,619.482
"3412",87.36706,619.4952
"3413",86.312355,619.5086
"3414",85.57748,619.5218
"3415",85.13069,619.5352
"3416",84.89143,619.5484
"3417",84.7596,619.5618
"3418",84.630196,619.575
"3419",84.40803,619.58844
"3420",84.01495,619.6016
"3421",83.39483,619.61505
"3422",82.53544,619.62823
"3423",81.43923,619.64166
"3424",80.147705,619.65485
"3425",78.70481,619.6683
"3426",77.17647,619.68146
"3427",75.61639,619.6949
"3428",74.07828,619.70807
"3429",72.61097,619.7215
"3430",71.25109,619.7347
"3431",70.03281,619.7481
"3432",68.97322,619.7613
"3433",68.086975,619.7747
"3434",67.37408,619.7879
"3435",66.83696,619.80133
"3436",66.45609,619.8145
"3437",66.2095,619.82794
"3438",66.07034,619.8411
"3439",66.01419,619.85455
"3440",66.004425,619.86774
"3441",66.01907,619.88116
"3442",66.041046,619.89435
"3443",66.07034,619.9078
"3444",66.14847,619.92096
"3445",66.39994,619.9344
"3446",67.088425,619.9476
"3447",68.61677,619.961
"3448",71.431755,619.9742
"3449",75.81171,619.9876
"3450",81.62966,620.0008
"3451",88.30213,620.0142
"3452",94.92088,620.0274
"3453",100.5362,620.04083
"3454",104.45472,620.054
"3455",106.42252,620.06744
"3456",106.62516,620.0806
"3457",105.494774,620.09406
"3458",103.52209,620.10724
"3459",101.119705,620.12067
"3460",98.600136,620.13385
"3461",96.1709,620.1473
"3462",93.95651,620.16046
"3463",91.98871,620.1739
"3464",90.25773,620.1871
"3465",88.763565,620.2005
"3466",87.49645,620.2137
"3467",86.46372,620.2271
"3468",85.67025,620.2403
"3469",85.09895,620.2537
"3470",84.68635,620.2669
"3471",84.36652,620.28033
"3472",84.054016,620.2935
"3473",83.682915,620.30695
"3474",83.17998,620.3201
"3475",82.51835,620.33356
"3476",81.66384,620.34674
"3477",80.62867,620.36017
"3478",79.42504,620.37335
"3479",78.09445,620.3868
"3480",76.67841,620.39996
"3481",75.21843,620.4134
"3482",73.76822,620.4266
"3483",72.36683,620.44
"3484",71.05333,620.4532
"3485",69.857025,620.4666
"3486",68.79744,620.4798
"3487",67.896545,620.4932
"3488",67.15434,620.5064
"3489",66.57572,620.51984
"3490",66.15091,620.533
"3491",65.86771,620.54645
"3492",65.70168,620.55963
"3493",65.62356,620.57306
"3494",65.59426,620.58624
"3495",65.584496,620.5997
"3496",65.564964,620.61285
"3497",65.51858,620.6263
"3498",65.45754,620.63947
"3499",65.459984,620.6529
"3500",65.71389,620.6661
"3501",66.58793,620.6795
"3502",68.57282,620.6927
"3503",72.08118,620.7061
"3504",77.18379,620.7193
"3505",83.47295,620.7327
"3506",90.11368,620.7459
"3507",96.12451,620.75934
"3508",100.665596,620.7725
"3509",103.31945,620.78595
"3510",104.13245,620.79913
"3511",103.485466,620.81256
"3512",101.857025,620.82574
"3513",99.67437,620.8392
"3514",97.289085,620.85236
"3515",94.95018,620.8658
"3516",92.79927,620.87897
"3517",90.89006,620.8924
"3518",89.2079,620.9056
"3519",87.73327,620.919
"3520",86.44663,620.9322
"3521",85.35775,620.9456
"3522",84.48371,620.9588
"3523",83.83185,620.9722
"3524",83.3753,620.9854
"3525",83.06035,620.99884
"3526",82.804,621.012
"3527",82.533,621.02545
"3528",82.1741,621.03864
"3529",81.68093,621.05206
"3530",81.0193,621.06525
"3531",80.17456,621.0787
"3532",79.151596,621.09186
"3533",77.97482,621.1053
"3534",76.67841,621.11847
"3535",75.30877,621.1319
"3536",73.91226,621.1451
"3537",72.549934,621.1585
"3538",71.27306,621.1717
"3539",70.12802,621.1851
"3540",69.13924,621.1983
"3541",68.32136,621.21173
"3542",67.67681,621.2249
"3543",67.18608,621.23834
"3544",66.83208,621.2515
"3545",66.58549,621.26495
"3546",66.41459,621.27814
"3547",66.28275,621.29156
"3548",66.16556,621.30475
"3549",66.072784,621.3182
"3550",66.08499,621.33136
"3551",66.44633,621.3448
"3552",67.56451,621.358
"3553",69.91562,621.3714
"3554",73.7731,621.3846
"3555",79.00267,621.398
"3556",85.02571,621.4112
"3557",90.97795,621.4246
"3558",95.973145,621.4378
"3559",99.3814,621.45123
"3560",101.031815,621.4644
"3561",101.13924,621.47784
"3562",100.10651,621.491
"3563",98.35111,621.50446
"3564",96.2417,621.51764
"3565",94.05661,621.53107
"3566",91.981384,621.54425
"3567",90.10635,621.5577
"3568",88.43641,621.57086
"3569",86.94713,621.5843
"3570",85.61654,621.5975
"3571",84.43244,621.6109
"3572",83.41192,621.6241
"3573",82.59403,621.6375
"3574",81.991,621.6507
"3575",81.5906,621.6641
"3576",81.33181,621.6773
"3577",81.146255,621.69073
"3578",80.953384,621.7039
"3579",80.68238,621.71735
"3580",80.272224,621.7305
"3581",79.68627,621.74396
"3582",78.907455,621.75714
"3583",77.94797,621.77057
"3584",76.839554,621.78375
"3585",75.62127,621.7972
"3586",74.34928,621.81036
"3587",73.077286,621.8238
"3588",71.86389,621.837
"3589",70.74082,621.8504
"3590",69.73983,621.8636
"3591",68.87068,621.877
"3592",68.140686,621.8902
"3593",67.53765,621.9036
"3594",67.04936,621.9168
"3595",66.65629,621.93024
"3596",66.34867,621.9434
"3597",66.12161,621.95685
"3598",66.04593,621.97003
"3599",66.33158,621.98346
"3600",67.37652,621.99664
"3601",69.63485,622.0101
"3602",73.35317,622.02325
"3603",78.399635,622.0367
"3604",84.210266,622.04987
"3605",89.9501,622.0633
"3606",94.74998,622.0765
"3607",98.021515,622.0899
"3608",99.613335,622.1031
"3609",99.74273,622.1165
"3610",98.795456,622.1297
"3611",97.179214,622.1431
"3612",95.257805,622.1563
"3613",93.30465,622.16974
"3614",91.49554,622.1829
"3615",89.91104,622.19635
"3616",88.52918,622.20953
"3617",87.276726,622.22296
"3618",86.07309,622.23615
"3619",84.87923,622.2496
"3620",83.719536,622.26276
"3621",82.650185,622.2762
"3622",81.74441,622.28937
"3623",81.04372,622.3028
"3624",80.53101,622.316
"3625",80.15503,622.3294
"3626",79.852295,622.3426
"3627",79.54955,622.356
"3628",79.17845,622.3692
"3629",78.68772,622.3826
"3630",78.048065,622.3958
"3631",77.24727,622.40924
"3632",76.299995,622.4224
"3633",75.2404,622.43585
"3634",74.1149,622.44904
"3635",72.969864,622.46246
"3636",71.84436,622.47565
"3637",70.77745,622.4891
"3638",69.803314,622.50226
"3639",68.946365,622.5157
"3640",68.21393,622.5289
"3641",67.60845,622.5423
"3642",67.12016,622.5555
"3643",66.736855,622.5689
"3644",66.48295,622.5821
"3645",66.46342,622.5955
"3646",66.96147,622.6087
"3647",68.39704,622.62213
"3648",71.131454,622.6353
"3649",75.245285,622.64874
"3650",80.428474,622.6619
"3651",86.00473,622.67535
"3652",91.124435,622.68854
"3653",95.06004,622.70197
"3654",97.442894,622.71515
"3655",98.304726,622.7286
"3656",97.950714,622.74176
"3657",96.77394,622.7552
"3658",95.150375,622.7684
"3659",93.382774,622.7818
"3660",91.68597,622.795
"3661",90.18936,622.8084
"3662",88.89784,622.8216
"3663",87.745476,622.835
"3664",86.61021,622.8482
"3665",85.41146,622.86163
"3666",84.12482,622.8748
"3667",82.80644,622.88824
"3668",81.5613,622.9014
"3669",80.49195,622.91486
"3670",79.66918,622.92804
"3671",79.09544,622.94147
"3672",78.72434,622.95465
"3673",78.485085,622.9681
"3674",78.28245,622.98126
"3675",78.02365,622.9947
"3676",77.63058,623.0079
"3677",77.066605,623.0213
"3678",76.32197,623.0345
"3679",75.423515,623.0479
"3680",74.4152,623.0611
"3681",73.34585,623.0745
"3682",72.2765,623.0877
"3683",71.25109,623.10114
"3684",70.3209,623.1143
"3685",69.51766,623.12775
"3686",68.87068,623.1409
"3687",68.38972,623.15436
"3688",68.05768,623.16754
"3689",67.84772,623.18097
"3690",67.718315,623.19415
"3691",67.6231,623.2076
"3692",67.54009,623.22076
"3693",67.49859,623.2342
"3694",67.647514,623.2474
"3695",68.32136,623.2608
"3696",69.962006,623.274
"3697",72.89906,623.2874
"3698",77.154495,623.3006
"3699",82.3328,623.314
"3700",87.71618,623.3272
"3701",92.48188,623.34064
"3702",95.98291,623.3538
"3703",97.9556,623.36725
"3704",98.52445,623.38043
"3705",98.03128,623.39386
"3706",96.87892,623.40704
"3707",95.41894,623.4205
"3708",93.924774,623.43365
"3709",92.56977,623.4471
"3710",91.41741,623.46027
"3711",90.41886,623.4737
"3712",89.45205,623.4869
"3713",88.375374,623.5003
"3714",87.10094,623.5135
"3715",85.63119,623.5269
"3716",84.05646,623.5401
"3717",82.51591,623.5535
"3718",81.1487,623.5667
"3719",80.05249,623.58014
"3720",79.256584,623.5933
"3721",78.72678,623.60675
"3722",78.38987,623.61993
"3723",78.14328,623.63336
"3724",77.88937,623.64655
"3725",77.540245,623.66
"3726",77.049515,623.67316
"3727",76.39277,623.6866
"3728",75.58221,623.69977
"3729",74.652016,623.7132
"3730",73.6437,623.7264
"3731",72.61341,623.7398
"3732",71.60754,623.753
"3733",70.68467,623.7664
"3734",69.879,623.7796
"3735",69.224686,623.793
"3736",68.733955,623.8062
"3737",68.419014,623.81964
"3738",68.26032,623.8328
"3739",68.226135,623.84625
"3740",68.27253,623.85944
"3741",68.34577,623.87286
"3742",68.3946,623.88605
"3743",68.37751,623.8995
"3744",68.27253,623.91266
"3745",68.09186,623.9261
"3746",67.90387,623.9393
"3747",67.92096,623.9527
"3748",68.53132,623.9659
"3749",70.20859,623.9793
"3750",73.270164,623.9925
"3751",77.659874,624.0059
"3752",82.9041,624.0191
"3753",88.216675,624.03253
"3754",92.772415,624.0457
"3755",95.98535,624.05914
"3756",97.68215,624.0723
"3757",98.07034,624.08575
"3758",97.530785,624.09894
"3759",96.45411,624.11237
"3760",95.167465,624.12555
"3761",93.88571,624.139
"3762",92.74555,624.15216
"3763",91.76654,624.1656
"3764",90.89006,624.1788
"3765",89.98917,624.1922
"3766",88.92714,624.2054
"3767",87.620964,624.2188
"3768",86.09262,624.232
"3769",84.43,624.2454
"3770",82.78203,624.2586
"3771",81.30251,624.27203
"3772",80.1062,624.2852
"3773",79.23949,624.29865
"3774",78.67307,624.3118
"3775",78.33372,624.32526
"3776",78.116425,624.33844
"3777",77.908905,624.35187
"3778",77.625694,624.36505
"3779",77.21065,624.3785
"3780",76.63935,624.39166
"3781",75.92645,624.4051
"3782",75.10124,624.4183
"3783",73.28237,624.4449
"3784",72.376595,624.4583
"3785",71.519646,624.4715
"3786",70.748146,624.4849
"3787",70.07675,624.4981
"3788",69.522545,624.51154
"3789",69.09041,624.5247
"3790",68.78279,624.53815
"3791",68.58503,624.55133
"3792",68.48005,624.56476
"3793",68.44099,624.57794
"3794",68.44343,624.5914
"3795",68.45808,624.60455
"3796",68.4654,624.618
"3797",68.44099,624.63116
"3798",68.37995,624.6446
"3799",68.28474,624.6578
"3800",68.16266,624.6712
"3801",68.0235,624.6844
"3802",67.88922,624.6978
"3803",67.76959,624.711
"3804",67.67437,624.7244
"3805",67.613335,624.7376
"3806",67.58404,624.75104
"3807",67.579155,624.7642
"3808",67.5938,624.77765
"3809",67.60601,624.79083
"3810",67.59869,624.80426
"3811",67.5523,624.81744
"3812",67.47173,624.8309
"3813",67.43511,624.84406
"3814",67.701225,624.8575
"3815",68.77547,624.87067
"3816",71.23155,624.8841
"3817",75.41131,624.8973
"3818",81.14137,624.9107
"3819",87.73327,624.9239
"3820",94.15671,624.9373
"3821",99.40093,624.9505
"3822",102.84337,624.9639
"3823",104.413216,624.9771
"3824",104.481575,624.99054
"3825",103.57336,625.0037
"3826",102.15976,625.01715
"3827",100.592354,625.03033
"3828",99.09575,625.04376
"3829",97.80179,625.05695
"3830",96.73487,625.0704
"3831",95.8291,625.08356
"3832",94.96239,625.097
"3833",93.98093,625.11017
"3834",92.77974,625.1236
"3835",91.33196,625.1368
"3836",89.69863,625.1502
"3837",87.99939,625.1634
"3838",86.37339,625.1768
"3839",84.95003,625.19
"3840",83.79523,625.2034
"3841",82.92363,625.2166
"3842",82.2913,625.23004
"3843",81.82742,625.2432
"3844",81.43435,625.25665
"3845",81.0193,625.26984
"3846",80.51392,625.28326
"3847",79.87427,625.29645
"3848",79.08324,625.3099
"3849",78.167694,625.32306
"3850",77.15694,625.3365
"3851",76.104675,625.3497
"3852",75.0573,625.3631
"3853",74.06851,625.3763
"3854",73.1725,625.3897
"3855",72.39124,625.4029
"3856",71.744255,625.4163
"3857",71.23155,625.4295
"3858",70.85069,625.44293
"3859",70.591896,625.4561
"3860",70.433205,625.46954
"3861",70.3502,625.4827
"3862",70.31846,625.49615
"3863",70.311134,625.50934
"3864",70.30869,625.52277
"3865",70.294044,625.53595
"3866",70.259865,625.5494
"3867",70.19882,625.56256
"3868",70.10361,625.576
"3869",69.97421,625.5892
"3870",69.803314,625.6026
"3871",69.590904,625.6158
"3872",69.32967,625.6292
"3873",69.034256,625.6424
"3874",68.72663,625.6558
"3875",68.51179,625.669
"3876",68.648506,625.68243
"3877",69.59823,625.6956
"3878",71.82483,625.70905
"3879",75.56756,625.7222
"3880",80.63355,625.73566
"3881",86.39536,625.74884
"3882",91.95941,625.76227
"3883",96.480965,625.77545
"3884",99.44976,625.7889
"3885",100.82185,625.80206
"3886",100.89021,625.8155
"3887",100.07721,625.8287
"3888",98.78081,625.8421
"3889",97.3135,625.8553
"3890",95.89258,625.8687
"3891",94.66453,625.8819
"3892",93.661095,625.8953
"3893",92.83101,625.9085
"3894",92.04486,625.92194
"3895",91.15129,625.9351
"3896",90.040436,625.94855
"3897",88.69764,625.96173
"3898",87.183945,625.97516
"3899",85.628746,625.98834
"3900",84.16632,626.0018
"3901",82.9041,626.01495
"3902",81.89334,626.0284
"3903",81.13893,626.04156
"3904",80.59693,626.055
"3905",80.198975,626.0682
"3906",79.86206,626.0816
"3907",79.49828,626.0948
"3908",79.03929,626.1082
"3909",78.45579,626.1214
"3910",77.74288,626.1348
"3911",76.91768,626.148
"3912",76.0119,626.16144
"3913",75.06218,626.1746
"3914",74.10269,626.18805
"3915",73.17006,626.20123
"3916",72.29603,626.21466
"3917",71.51476,626.22784
"3918",70.84581,626.2413
"3919",70.30381,626.25446
"3920",69.88876,626.2679
"3921",69.60311,626.28107
"3922",69.42977,626.2945
"3923",69.34676,626.3077
"3924",69.32235,626.3211
"3925",69.332115,626.3343
"3926",69.34188,626.3477
"3927",69.33456,626.3609
"3928",69.29305,626.3743
"3929",69.21004,626.3875
"3930",69.09041,626.40094
"3931",68.943924,626.4141
"3932",68.78279,626.42755
"3933",68.62165,626.44073
"3934",68.48249,626.45416
"3935",68.367744,626.46735
"3936",68.27741,626.4808
"3937",68.206604,626.49396
"3938",68.14557,626.5074
"3939",68.07965,626.52057
"3940",67.98932,626.534
"3941",67.877014,626.5472
"3942",67.74029,626.5606
"3943",67.62554,626.5738
"3944",67.698784,626.5872
"3945",68.36286,626.6004
"3946",70.203705,626.61383
"3947",73.69741,626.627
"3948",78.9099,626.64044
"3949",85.367516,626.6536
"3950",92.157166,626.66705
"3951",98.20462,626.68024
"3952",102.65537,626.69366
"3953",105.17494,626.70685
"3954",105.944,626.7203
"3955",105.41909,626.73346
"3956",104.09094,626.7469
"3957",102.36973,626.7601
"3958",100.55573,626.7735
"3959",98.8687,626.7867
"3960",97.43313,626.8001
"3961",96.273445,626.8133
"3962",95.31884,626.8267
"3963",94.43015,626.8399
"3964",93.45113,626.85333
"3965",92.27924,626.8665
"3966",90.89494,626.87994
"3967",89.36416,626.8931
"3968",87.80408,626.90656
"3969",86.33921,626.91974
"3970",85.067215,626.93317
"3971",84.0296,626.94635
"3972",83.22148,626.9598
"3973",82.6038,626.97296
"3974",82.108185,626.9864
"3975",81.651634,626.9996
"3976",81.15602,627.013
"3977",80.55787,627.0262
"3978",79.82056,627.0396
"3979",78.93675,627.0528
"3980",77.93088,627.0662
"3981",76.841995,627.0794
"3982",75.716484,627.09283
"3983",74.59586,627.106
"3984",73.531395,627.11945
"3985",72.54749,627.1326
"3986",71.68322,627.14606
"3987",70.963,627.15924
"3988",70.40635,627.17267
"3989",70.00595,627.18585
"3990",69.749596,627.1993
"3991",69.60555,627.21246
"3992",69.53719,627.2259
"3993",69.505455,627.2391
"3994",69.4786,627.2525
"3995",69.43954,627.2657
"3996",69.36874,627.2791
"3997",69.25399,627.2923
"3998",69.09773,627.3057
"3999",68.89998,627.3189
"4000",68.67292,627.33234
"4001",68.42878,627.3455
"4002",68.18707,627.35895
"4003",67.95758,627.37213
"4004",67.757385,627.38556
"4005",67.58648,627.39874
"4006",67.45464,627.4122
"4007",67.35699,627.42535
"4008",67.28863,627.4388
"4009",67.23735,627.45197
"4010",67.19585,627.4654
"4011",67.142136,627.4786
"4012",67.06401,627.492
"4013",66.97368,627.5052
"4014",66.915085,627.5186
"4015",67.07866,627.5318
"4016",67.88434,627.5452
"4017",69.962006,627.5584
"4018",73.83658,627.57184
"4019",79.57885,627.585
"4020",86.6688,627.59845
"4021",94.12253,627.61163
"4022",100.770584,627.62506
"4023",105.670555,627.63824
"4024",108.4416,627.6517
"4025",109.27657,627.66486
"4026",108.67841,627.6783
"4027",107.18425,627.69147
"4028",105.24086,627.7049
"4029",103.18028,627.7181
"4030",101.23201,627.7315
"4031",99.54742,627.7447
"4032",98.17044,627.7581
"4033",97.042496,627.7713
"4034",96.026855,627.7847
"4035",94.96727,627.7979
"4036",93.748985,627.81134
"4037",92.34028,627.8245
"4038",90.78996,627.83795
"4039",89.20302,627.85114
"4040",87.691765,627.86456
"4041",86.34165,627.87775
"4042",85.20149,627.8912
"4043",84.27619,627.90436
"4044",83.53399,627.9178
"4045",82.91875,627.93097
"4046",82.34501,627.9444
"4047",81.72976,627.9576
"4048",81.00221,627.971
"4049",80.130615,627.9842
"4050",79.114975,627.9976
"4051",77.97238,628.0108
"4052",76.74433,628.02423
"4053",75.47967,628.0374
"4054",74.22232,628.05084
"4055",73.02113,628.064
"4056",71.9176,628.07745
"4057",70.94591,628.09064
"4058",70.132904,628.10406
"4059",69.49081,628.11725
"4060",69.02449,628.1307
"4061",68.714424,628.14386
"4062",68.5362,628.1573
"4063",68.45075,628.1705
"4064",68.41657,628.1839
"4065",68.39704,628.1971
"4066",68.36286,628.2105
"4067",68.299385,628.2237
"4068",68.189514,628.2371
"4069",68.03815,628.2503
"4070",67.85016,628.26373
"4071",67.62798,628.2769
"4072",67.37408,628.29034
"4073",67.107956,628.3035
"4074",66.8394,628.31696
"4075",66.583046,628.33014
"4076",66.35111,628.34357
"4077",66.15091,628.35675
"4078",65.99954,628.3702
"4079",65.89212,628.38336
"4080",65.82864,628.3968
"4081",65.80911,628.41
"4082",65.83353,628.4234
"4083",65.884796,628.4366
"4084",65.950714,628.45
"4085",66.00931,628.4632
"4086",66.05325,628.4766
"4087",66.08255,628.4898
"4088",66.14114,628.50323
"4089",66.38529,628.5164
"4090",67.18852,628.52985
"4091",69.16853,628.543
"4092",72.96254,628.55646
"4093",78.82445,628.56964
"4094",86.380714,628.58307
"4095",94.66697,628.59625
"4096",102.42344,628.6097
"4097",108.49531,628.62286
"4098",112.24292,628.6363
"4099",113.69558,628.6495
"4100",113.3489,628.6629
"4101",111.835205,628.6761
"4102",109.68917,628.6895
"4103",107.31365,628.7027
"4104",105.006485,628.7161
"4105",102.94835,628.7293
"4106",101.21492,628.74274
"4107",99.774475,628.7559
"4108",98.5098,628.76935
"4109",97.26467,628.78253
"4110",95.91699,628.79596
"4111",94.417946,628.80914
"4112",92.79683,628.8226
"4113",91.139084,628.83575
"4114",89.54482,628.8492
"4115",88.094604,628.86237
"4116",86.8275,628.8758
"4117",85.748375,628.889
"4118",84.83772,628.9024
"4119",84.04181,628.9156
"4120",83.28741,628.929
"4121",82.50126,628.9422
"4122",81.62478,628.9556
"4123",80.62867,628.9688
"4124",79.50561,628.98224
"4125",78.2678,628.9954
"4126",76.94942,629.00885
"4127",75.58709,629.02203
"4128",74.2272,629.03546
"4129",72.91615,629.04865
"4130",71.71252,629.0621
"4131",70.65537,629.07526
"4132",69.771576,629.0887
"4133",69.0782,629.10187
"4134",68.56794,629.1153
"4135",68.223694,629.1285
"4136",68.0235,629.1419
"4137",67.9234,629.1551
"4138",67.88434,629.1685
"4139",67.86481,629.1817
"4140",67.825745,629.1951
"4141",67.74273,629.2083
"4142",67.60845,629.22174
"4143",67.422905,629.2349
"4144",67.19096,629.24835
"4145",66.92485,629.26154
"4146",66.634315,629.27496
"4147",66.336464,629.28815
"4148",66.041046,629.3016
"4149",65.76761,629.31476
"4150",65.5259,629.3282
"4151",65.323265,629.3414
"4152",65.164566,629.3548
"4153",65.05226,629.368
"4154",64.98146,629.3814
"4155",64.954605,629.3946
"4156",64.971695,629.408
"4157",65.02052,629.4212
"4158",65.09865,629.43463
"4159",65.19386,629.4478
"4160",65.29641,629.46124
"4161",65.41848,629.4744
"4162",65.62356,629.48785
"4163",66.08499,629.50104
"4164",67.19585,629.51447
"4165",69.5787,629.52765
"4166",73.86099,629.5411
"4167",80.28199,629.55426
"4168",88.40223,629.5677
"4169",97.20119,629.5809
"4170",105.35561,629.5943
"4171",111.68383,629.6075
"4172",115.53399,629.6209
"4173",116.947586,629.6341
"4174",116.46174,629.6475
"4175",114.75029,629.6607
"4176",112.38209,629.67413
"4177",109.786835,629.6873
"4178",107.27459,629.70074
"4179",105.03822,629.7139
"4180",103.16319,629.72736
"4181",101.60555,629.74054
"4182",100.243225,629.75397
"4183",98.9102,629.76715
"4184",97.47707,629.7806
"4185",95.89258,629.79376
"4186",94.19577,629.8072
"4187",92.474556,629.8204
"4188",90.829025,629.8338
"4189",89.32998,629.847
"4190",88.00427,629.8604
"4191",86.8568,629.8736
"4192",85.85336,629.887
"4193",84.95247,629.9002
"4194",84.09552,629.91364
"4195",83.20683,629.9268
"4196",82.22537,629.94025
"4197",81.109634,629.9534
"4198",79.84985,629.96686
"4199",78.470436,629.98004
"4200",77.01778,629.99347
"4201",75.543144,630.00665
"4202",74.107574,630.0201
"4203",72.75746,630.03326
"4204",71.52209,630.0467
"4205",70.44053,630.0599
"4206",69.52743,630.0733
"4207",68.790115,630.0865
"4208",68.223694,630.0999
"4209",67.80377,630.1131
"4210",67.50591,630.1265
"4211",67.29107,630.1397
"4212",67.12749,630.15314
"4213",66.98833,630.1663
"4214",66.85405,630.17975
"4215",66.70512,630.19293
"4216",66.53178,630.20636
"4217",66.32426,630.21954
"4218",66.089874,630.233
"4219",65.8262,630.24615
"4220",65.54299,630.2596
"4221",65.24513,630.27277
"4222",64.95216,630.2862
"4223",64.66651,630.2994
"4224",64.40284,630.3128
"4225",64.163574,630.326
"4226",63.960938,630.3394
"4227",63.79736,630.3526
"4228",63.682613,630.366
"4229",63.61669,630.3792
"4230",63.606926,630.39264
"4231",63.655758,630.4058
"4232",63.755856,630.41925
"4233",63.902344,630.43243
"4234",64.08545,630.44586
"4235",64.3003,630.45905
"4236",64.532234,630.4725
"4237",64.77394,630.48566
"4238",65.03517,630.4991
"4239",65.376976,630.51227
"4240",65.987335,630.5257
"4241",67.2227,630.5389
"4242",69.644615,630.5523
"4243",73.88785,630.5655
"4244",80.2649,630.5789
"4245",88.4535,630.5921
"4246",97.496605,630.6055
"4247",106.11978,630.6187
"4248",113.075455,630.63214
"4249",117.57748,630.6453
"4250",119.5111,630.65875
"4251",119.35485,630.67194
"4252",117.787445,630.68536
"4253",115.421684,630.69855
"4254",112.72877,630.712
"4255",110.0676,630.72516
"4256",107.66033,630.7386
"4257",105.6144,630.7518
"4258",103.939575,630.7652
"4259",102.521095,630.7784
"4260",101.20271,630.7918
"4261",99.84039,630.805
"4262",98.34379,630.8184
"4263",96.705574,630.8316
"4264",94.98436,630.84503
"4265",93.260704,630.8582
"4266",91.60784,630.87164
"4267",90.074615,630.8848
"4268",88.68299,630.89825
"4269",87.42809,630.91144
"4270",86.29038,630.92487
"4271",85.22102,630.93805
"4272",84.16876,630.9515
"4273",83.075,630.96466
"4274",81.900665,630.9781
"4275",80.62379,630.9913
"4276",79.259026,631.0047
"4277",77.83078,631.0179
"4278",76.37568,631.0313
"4279",74.93767,631.0445
"4280",73.55581,631.0579
"4281",72.26185,631.0711
"4282",71.08263,631.08453
"4283",70.03769,631.0977
"4284",69.14412,631.11115
"4285",68.404366,631.1243
"4286",67.80377,631.13776
"4287",67.33013,631.15094
"4288",66.968796,631.16437
"4289",66.685585,631.17755
"4290",66.46342,631.191
"4291",66.28031,631.20416
"4292",66.124054,631.2176
"4293",65.97513,631.2308
"4294",65.82864,631.2442
"4295",65.672386,631.2574
"4296",65.50881,631.2708
"4297",65.32815,631.284
"4298",65.13771,631.2974
"4299",64.937515,631.3106
"4300",64.73731,631.32404
"4301",64.54444,631.3372
"4302",64.375984,631.35065
"4303",64.23682,631.36383
"4304",64.131836,631.37726
"4305",64.06592,631.39044
"4306",64.03906,631.4039
"4307",64.05371,631.41705
"4308",64.112305,631.4305
"4309",64.21973,631.44366
"4310",64.36866,631.4571
"4311",64.56153,631.4703
"4312",64.79103,631.4837
"4313",65.04982,631.4969
"4314",65.323265,631.5103
"4315",65.60403,631.5235
"4316",65.88968,631.5369
"4317",66.229034,631.5501
"4318",66.77348,631.56354
"4319",67.83307,631.5767
"4320",69.89853,631.59015
"4321",73.58999,631.60333
"4322",79.31762,631.61676
"4323",86.922714,631.62994
"4324",95.60204,631.6434
"4325",104.15198,631.65656
"4326",111.327385,631.67
"4327",116.21515,631.68317
"4328",118.536964,631.6966
"4329",118.659035,631.7098
"4330",117.22102,631.7232
"4331",114.85283,631.7364
"4332",112.04761,631.7498
"4333",109.16914,631.763
"4334",106.459145,631.7764
"4335",104.076294,631.7896
"4336",102.0621,631.80304
"4337",100.37263,631.8162
"4338",98.90288,631.82965
"4339",97.54299,631.84283
"4340",96.20996,631.85626
"4341",94.872055,631.86945
"4342",93.55123,631.8829
"4343",92.27924,631.89606
"4344",91.090256,631.9095
"4345",89.98917,631.92267
"4346",88.96376,631.9361
"4347",87.99695,631.9493
"4348",87.047226,631.9627
"4349",86.07797,631.9759
"4350",85.0428,631.9893
"4351",83.914856,632.0025
"4352",82.67216,632.0159
"4353",81.3196,632.0291
"4354",79.87915,632.04254
"4355",78.382545,632.0557
"4356",76.876175,632.06915
"4357",75.3991,632.08234
"4358",73.99039,632.09576
"4359",72.691536,632.10895
"4360",71.52941,632.1224
"4361",70.518654,632.13556
"4362",69.66415,632.149
"4363",68.96834,632.1622
"4364",68.419014,632.1756
"4365",67.999084,632.1888
"4366",67.68658,632.2022
"4367",67.46197,632.2154
"4368",67.29595,632.2288
"4369",67.17143,632.242
"4370",67.06401,632.25543
"4371",66.96147,632.2686
"4372",66.85161,632.28204
"4373",66.72709,632.2952
"4374",66.580605,632.30865
"4375",66.41215,632.32184
"4376",66.22659,632.33527
"4377",66.03372,632.34845
"4378",65.84329,632.3619
"4379",65.66506,632.37506
"4380",65.50637,632.3885
"4381",65.376976,632.4017
"4382",65.27444,632.4151
"4383",65.20607,632.4283
"4384",65.179214,632.4417
"4385",65.19142,632.4549
"4386",65.232925,632.4683
"4387",65.30129,632.4815
"4388",65.38918,632.49493
"4389",65.48928,632.5081
"4390",65.60403,632.52155
"4391",65.75784,632.5347
"4392",66.06058,632.54816
"4393",66.736855,632.56134
"4394",68.206604,632.57477
"4395",71.043564,632.58795
"4396",75.74334,632.6014
"4397",82.34745,632.61456
"4398",90.269936,632.628
"4399",98.458534,632.6412
"4400",105.704735,632.6546
"4401",111.009995,632.6678
"4402",113.91531,632.6812
"4403",114.58915,632.6944
"4404",113.57839,632.7078
"4405",111.48608,632.721
"4406",108.80293,632.73444
"4407",105.90738,632.7476
"4408",103.07286,632.76105
"4409",100.48005,632.77423
"4410",98.21927,632.78766
"4411",96.29542,632.80084
"4412",94.67185,632.8143
"4413",93.277794,632.82745
"4414",92.06683,632.8409
"4415",91.01213,632.85406
"4416",90.10391,632.8675
"4417",89.33242,632.8807
"4418",88.673225,632.8941
"4419",88.07263,632.9073
"4420",87.47692,632.9207
"4421",86.83971,632.9339
"4422",86.12436,632.9473
"4423",85.3016,632.9605
"4424",84.34699,632.97394
"4425",83.25323,632.9871
"4426",82.02762,633.00055
"4427",80.68238,633.01373
"4428",79.2517,633.02716
"4429",77.77707,633.04034
"4430",76.297554,633.0538
"4431",74.864426,633.06696
"4432",73.5021,633.0804
"4433",72.24475,633.09357
"4434",71.116806,633.107
"4435",70.12558,633.1202
"4436",69.278404,633.1336
"4437",68.575264,633.1468
"4438",68.00641,633.1602
"4439",67.56451,633.1734
"4440",67.23003,633.1868
"4441",66.98833,633.2
"4442",66.82475,633.21344
"4443",66.722206,633.2266
"4444",66.66605,633.24005
"4445",66.6392,633.25323
"4446",66.62943,633.26666
"4447",66.62455,633.27985
"4448",66.614784,633.2933
"4449",66.58549,633.30646
"4450",66.53178,633.3199
"4451",66.45365,633.33307
"4452",66.35111,633.3465
"4453",66.22659,633.3597
"4454",66.07767,633.3731
"4455",65.92142,633.3863
"4456",65.78714,633.3997
"4457",65.77493,633.4129
"4458",66.11185,633.42633
"4459",67.20561,633.4395
"4460",69.60311,633.45294
"4461",73.75357,633.4661
"4462",79.691154,633.47955
"4463",86.88365,633.49274
"4464",94.36668,633.50616
"4465",101.017166,633.51935
"4466",105.9147,633.5328
"4467",108.629585,633.54596
"4468",109.28878,633.5594
"4469",108.36103,633.5726
"4470",106.3859,633.586
"4471",103.82239,633.5992
"4472",101.034256,633.6126
"4473",98.27787,633.6258
"4474",95.72411,633.6392
"4475",93.45602,633.6524
"4476",91.493095,633.66583
"4477",89.813385,633.679
"4478",88.38758,633.69244
"4479",87.19615,633.7056
"4480",86.23422,633.71906
"4481",85.49203,633.73224
"4482",84.9427,633.74567
"4483",84.53986,633.75885
"4484",84.207825,633.7723
"4485",83.87091,633.78546
"4486",83.47295,633.7989
"4487",82.95537,633.8121
"4488",82.28397,633.8255
"4489",81.43435,633.8387
"4490",80.40406,633.8521
"4491",79.20775,633.8653
"4492",77.87961,633.8787
"4493",76.45136,633.8919
"4494",74.969406,633.90533
"4495",73.480125,633.9185
"4496",72.02258,633.93195
"4497",70.6334,633.9451
"4498",69.35165,633.95856
"4499",68.20416,633.97174
"4500",67.21294,633.98517
"4501",66.38041,633.99835
"4502",65.70901,634.0118
"4503",65.196304,634.02496
"4504",64.832535,634.0384
"4505",64.59571,634.0516
"4506",64.46876,634.065
"4507",64.429695,634.0782
"4508",64.45655,634.0916
"4509",64.534676,634.1048
"4510",64.64454,634.1182
"4511",64.76906,634.1314
"4512",64.89113,634.14484
"4513",64.99123,634.158
"4514",65.0547,634.17145
"4515",65.076675,634.18463
"4516",65.074234,634.19806
"4517",65.10841,634.21124
"4518",65.33059,634.2247
"4519",66.02884,634.23785
"4520",67.6524,634.2513
"4521",70.70664,634.26447
"4522",75.50652,634.2779
"4523",81.90555,634.2911
"4524",89.232315,634.3045
"4525",96.463875,634.3177
"4526",102.54551,634.3311
"4527",106.71549,634.3443
"4528",108.71992,634.3577
"4529",108.79561,634.3709
"4530",107.43816,634.38434
"4531",105.17738,634.3975
"4532",102.44297,634.41095
"4533",99.55718,634.42413
"4534",96.75929,634.43756
"4535",94.19089,634.45074
"4536",91.91058,634.4642
"4537",89.933014,634.47736
"4538",88.26063,634.4908
"4539",86.90074,634.50397
"4540",85.858246,634.5174
"4541",85.14534,634.5306
"4542",84.73762,634.544
"4543",84.57404,634.5572
"4544",84.54963,634.5706
"4545",84.55451,634.5838
