"","ppg","time"
"1",71.710075,830.82916
"2",71.363396,830.84235
"3",71.12901,830.8558
"4",70.992294,830.86896
"5",70.94835,830.8824
"6",70.992294,830.89557
"7",71.1046,830.909
"8",71.26574,830.9222
"9",71.45861,830.9356
"10",71.658806,830.9488
"11",71.83948,830.9622
"12",71.990845,830.9754
"13",72.08362,830.98883
"14",72.10559,831.002
"15",72.042114,831.01544
"16",71.91516,831.0286
"17",71.82971,831.04205
"18",72.06409,831.05524
"19",73.10414,831.06866
"20",75.49676,831.08185
"21",79.50561,831.0953
"22",84.859695,831.10846
"23",90.78264,831.1219
"24",96.24658,831.1351
"25",100.32624,831.1485
"26",102.521095,831.1617
"27",102.88243,831.1751
"28",101.86923,831.1883
"29",100.016174,831.2017
"30",97.740746,831.2149
"31",95.326164,831.22833
"32",92.982376,831.2415
"33",90.86809,831.25494
"34",89.0663,831.2681
"35",87.58434,831.28156
"36",86.37095,831.29474
"37",85.3431,831.30817
"38",84.44221,831.32135
"39",83.64385,831.3348
"40",82.96269,831.34796
"41",82.41581,831.3614
"42",82.020294,831.3746
"43",81.761505,831.388
"44",81.59792,831.4012
"45",81.480736,831.4146
"46",81.3489,831.4278
"47",81.15114,831.4412
"48",80.8362,831.4544
"49",80.38209,831.46783
"50",79.781494,831.481
"51",79.04906,831.49445
"52",78.20676,831.5076
"53",77.29366,831.52106
"54",76.34394,831.53424
"55",75.39178,831.54767
"56",74.478676,831.56085
"57",73.636375,831.5743
"58",72.89418,831.58746
"59",72.256966,831.6009
"60",71.73449,831.6141
"61",71.32433,831.6275
"62",71.02159,831.6407
"63",70.818954,831.6541
"64",70.70176,831.6673
"65",70.65537,831.6807
"66",70.660255,831.6939
"67",70.69932,831.70734
"68",70.75792,831.7205
"69",70.83116,831.73395
"70",70.906845,831.74713
"71",70.98497,831.76056
"72",71.06065,831.77374
"73",71.12657,831.7872
"74",71.182724,831.80035
"75",71.22423,831.8138
"76",71.24864,831.82697
"77",71.25109,831.8404
"78",71.22179,831.8536
"79",71.150986,831.867
"80",71.05577,831.8802
"81",70.975204,831.8936
"82",71.0753,831.9068
"83",71.73449,831.9202
"84",73.52163,831.9334
"85",76.94209,831.94684
"86",82.08377,831.96
"87",88.43641,831.97345
"88",94.99901,831.98663
"89",100.64118,832.00006
"90",104.48402,832.01324
"91",106.20279,832.0267
"92",106.056305,832.03986
"93",104.62318,832.0533
"94",102.4625,832.06647
"95",99.97223,832.0799
"96",97.40383,832.0931
"97",94.95018,832.1065
"98",92.74799,832.1197
"99",90.86565,832.1331
"100",89.30312,832.1463
"101",88.00183,832.1597
"102",86.888535,832.1729
"103",85.91684,832.18634
"104",85.06477,832.1995
"105",84.33723,832.21295
"106",83.74639,832.22614
"107",83.302055,832.23956
"108",82.9749,832.25275
"109",82.72343,832.2662
"110",82.50614,832.27936
"111",82.269325,832.2928
"112",81.9617,832.30597
"113",81.54421,832.3194
"114",80.99245,832.3326
"115",80.30152,832.346
"116",79.49096,832.3592
"117",78.58762,832.3726
"118",77.62325,832.3858
"119",76.63447,832.39923
"120",75.65789,832.4124
"121",74.7277,832.42584
"122",73.86832,832.439
"123",73.10658,832.45245
"124",72.444954,832.46564
"125",71.89075,832.47906
"126",71.43908,832.49225
"127",71.08507,832.5057
"128",70.83116,832.51886
"129",70.674904,832.5323
"130",70.60166,832.5455
"131",70.59922,832.5589
"132",70.65049,832.5721
"133",70.73106,832.5855
"134",70.82872,832.5987
"135",70.93126,832.6121
"136",71.0338,832.6253
"137",71.133896,832.63873
"138",71.219345,832.6519
"139",71.28283,832.66534
"140",71.31945,832.6785
"141",71.31945,832.69196
"142",71.28039,832.70514
"143",71.202255,832.71857
"144",71.1046,832.73175
"145",71.07042,832.7452
"146",71.33654,832.75836
"147",72.35706,832.7718
"148",74.67643,832.785
"149",78.643776,832.7984
"150",84.11017,832.8116
"151",90.38468,832.825
"152",96.42481,832.8382
"153",101.21248,832.8516
"154",104.10315,832.8648
"155",105.02602,832.87823
"156",104.361946,832.8914
"157",102.67002,832.90485
"158",100.42634,832.918
"159",97.94827,832.93146
"160",95.44335,832.94464
"161",93.067825,832.95807
"162",90.92912,832.97125
"163",89.07362,832.9847
"164",87.49645,832.99786
"165",86.16342,833.0113
"166",85.050125,833.0245
"167",84.156555,833.0379
"168",83.50225,833.0511
"169",83.1165,833.0645
"170",82.97734,833.0777
"171",83.02861,833.0911
"172",83.17998,833.1043
"173",83.32159,833.11774
"174",83.35821,833.1309
"175",83.22148,833.14435
"176",82.8748,833.15753
"177",82.31815,833.17096
"178",81.56374,833.18414
"179",80.655525,833.1976
"180",79.63744,833.21075
"181",78.555885,833.2242
"182",77.46212,833.23737
"183",76.39521,833.2508
"184",75.389336,833.264
"185",74.476234,833.2774
"186",73.673,833.2906
"187",72.97963,833.304
"188",72.40101,833.3172
"189",71.93713,833.3306
"190",71.588005,833.3438
"191",71.35363,833.35724
"192",71.22911,833.3704
"193",71.19493,833.38385
"194",71.236435,833.39703
"195",71.31945,833.41046
"196",71.42199,833.42365
"197",71.52453,833.4371
"198",71.605095,833.45026
"199",71.64904,833.4637
"200",71.641716,833.47687
"201",71.5758,833.4903
"202",71.46105,833.5035
"203",71.38293,833.5169
"204",71.570915,833.5301
"205",72.47913,833.5435
"206",74.632484,833.5567
"207",78.35569,833.5701
"208",83.50225,833.5833
"209",89.42275,833.59674
"210",95.14549,833.6099
"211",99.71343,833.62335
"212",102.518654,833.63654
"213",103.49279,833.64996
"214",102.975204,833.66315
"215",101.46639,833.6766
"216",99.40826,833.68976
"217",97.110855,833.7032
"218",94.78905,833.7164
"219",92.60639,833.7298
"220",90.663,833.743
"221",88.99794,833.7564
"222",87.5819,833.7696
"223",86.35874,833.783
"224",85.279625,833.7962
"225",84.332344,833.80963
"226",83.52422,833.8228
"227",82.88701,833.83624
"228",82.4329,833.8494
"229",82.13992,833.86285
"230",81.95926,833.87604
"231",81.82254,833.88947
"232",81.6614,833.90265
"233",81.4197,833.9161
"234",81.05348,833.92926
"235",80.52613,833.9427
"236",79.84009,833.9559
"237",79.00267,833.9693
"238",78.048065,833.9825
"239",77.01045,833.9959
"240",75.93622,834.0091
"241",74.861984,834.0225
"242",73.829254,834.0357
"243",72.86977,834.04913
"244",72.007935,834.0623
"245",71.25109,834.07574
"246",70.608986,834.0889
"247",70.07919,834.10236
"248",69.65926,834.11554
"249",69.35165,834.12897
"250",69.15633,834.14215
"251",69.05867,834.1556
"252",69.04646,834.16876
"253",69.102615,834.1822
"254",69.20027,834.1954
"255",69.31747,834.2088
"256",69.42977,834.222
"257",69.522545,834.2354
"258",69.57137,834.2486
"259",69.56405,834.262
"260",69.51522,834.2752
"261",69.4786,834.28864
"262",69.66659,834.3018
"263",70.50645,834.31525
"264",72.54261,834.3284
"265",76.14618,834.34186
"266",81.23903,834.35504
"267",87.23033,834.36847
"268",93.16792,834.38165
"269",98.055695,834.3951
"270",101.22713,834.40826
"271",102.53086,834.4217
"272",102.27207,834.4349
"273",100.946365,834.4483
"274",99.020065,834.4615
"275",96.81789,834.4749
"276",94.56931,834.4881
"277",92.437935,834.5015
"278",90.52384,834.5147
"279",88.868546,834.52814
"280",87.44274,834.5413
"281",86.19028,834.55475
"282",85.05257,834.56793
"283",83.99054,834.58136
"284",83.01152,834.59454
"285",82.144806,834.608
"286",81.43191,834.62115
"287",80.8777,834.6346
"288",80.46754,834.64777
"289",80.16724,834.6612
"290",79.91821,834.6744
"291",79.66186,834.6878
"292",79.344475,834.701
"293",78.91478,834.7144
"294",78.348366,834.7276
"295",77.642784,834.741
"296",76.81514,834.7542
"297",75.897156,834.76764
"298",74.92302,834.7808
"299",73.93179,834.79425
"300",72.96254,834.80743
"301",72.042114,834.82086
"302",71.19249,834.83405
"303",70.433205,834.8475
"304",69.771576,834.86066
"305",69.21492,834.8741
"306",68.76326,834.88727
"307",68.419014,834.9007
"308",68.17975,834.9139
"309",68.04303,834.9273
"310",68.00641,834.9405
"311",68.04547,834.9539
"312",68.15289,834.9671
"313",68.30427,834.9805
"314",68.472725,834.9937
"315",68.64118,835.00714
"316",68.790115,835.0203
"317",68.9073,835.03375
"318",68.97078,835.04694
"319",68.97078,835.06036
"320",68.91707,835.07355
"321",68.88045,835.087
"322",69.07576,835.10016
"323",69.942474,835.1136
"324",72.03235,835.1268
"325",75.7116,835.1402
"326",80.89967,835.1534
"327",86.993515,835.1668
"328",93.02876,835.18
"329",97.98978,835.1934
"330",101.19295,835.2066
"331",102.486916,835.22003
"332",102.18173,835.2332
"333",100.78279,835.24664
"334",98.76372,835.2598
"335",96.47608,835.27325
"336",94.15427,835.28644
"337",91.95453,835.29987
"338",89.98184,835.31305
"339",88.272835,835.3265
"340",86.800644,835.33966
"341",85.514,835.3531
"342",84.37385,835.3663
"343",83.36797,835.3797
"344",82.511024,835.3929
"345",81.829865,835.4063
"346",81.34402,835.4195
"347",81.0486,835.4329
"348",80.89723,835.4461
"349",80.82643,835.45953
"350",80.77272,835.4727
"351",80.66041,835.48615
"352",80.428474,835.4993
"353",80.042725,835.51276
"354",79.48119,835.52594
"355",78.75853,835.53937
"356",77.8967,835.55255
"357",76.94209,835.566
"358",75.93378,835.57916
"359",74.91325,835.5926
"360",73.9147,835.6058
"361",72.972305,835.6192
"362",72.1178,835.6324
"363",71.378044,835.6458
"364",70.77257,835.659
"365",70.313576,835.6724
"366",70.00351,835.6856
"367",69.82529,835.69904
"368",69.75937,835.7122
"369",69.7789,835.72565
"370",69.84482,835.73883
"371",69.93271,835.75226
"372",70.01083,835.76544
"373",70.05478,835.7789
"374",70.05234,835.79205
"375",70.03525,835.8055
"376",70.11337,835.81866
"377",70.58213,835.8321
"378",71.89075,835.8453
"379",74.47135,835.8587
"380",78.450905,835.8719
"381",83.5169,835.8853
"382",88.953995,835.8985
"383",93.85886,835.9119
"384",97.46731,835.9251
"385",99.41314,835.93854
"386",99.7818,835.9517
"387",98.934616,835.96515
"388",97.31106,835.97833
"389",95.26025,835.99176
"390",93.033646,836.00494
"391",90.80705,836.0184
"392",88.70985,836.03156
"393",86.803085,836.045
"394",85.11116,836.05817
"395",83.62432,836.0716
"396",82.340126,836.0848
"397",81.270775,836.0982
"398",80.45289,836.1114
"399",79.92798,836.1248
"400",79.70336,836.138
"401",79.74975,836.1514
"402",79.97925,836.1646
"403",80.28199,836.17804
"404",80.53834,836.1912
"405",80.655525,836.20465
"406",80.56275,836.21783
"407",80.22827,836.23126
"408",79.66674,836.24445
"409",78.922104,836.2579
"410",78.04562,836.27106
"411",77.086136,836.2845
"412",76.09491,836.29767
"413",75.11589,836.3111
"414",74.178375,836.3243
"415",73.30923,836.3377
"416",72.54261,836.3509
"417",71.89319,836.3643
"418",71.36584,836.3775
"419",70.960556,836.3909
"420",70.66514,836.4041
"421",70.45518,836.41754
"422",70.30137,836.4307
"423",70.19394,836.44415
"424",70.169525,836.45734
"425",70.41123,836.47076
"426",71.28527,836.48395
"427",73.22865,836.4974
"428",76.507515,836.51056
"429",81.007095,836.524
"430",86.185394,836.5372
"431",91.226974,836.5506
"432",95.328606,836.5638
"433",97.97269,836.5772
"434",99.05669,836.5904
"435",98.83696,836.6038
"436",97.71633,836.617
"437",96.05127,836.63043
"438",94.115204,836.6436
"439",92.11078,836.65704
"440",90.18936,836.6702
"441",88.43641,836.68365
"442",86.869,836.69684
"443",85.46273,836.71027
"444",84.18829,836.72345
"445",83.02373,836.7369
"446",81.98367,836.75006
"447",81.11696,836.7635
"448",80.46998,836.7767
"449",80.06714,836.7901
"450",79.8938,836.8033
"451",79.8938,836.8167
"452",79.98413,836.8299
"453",80.062256,836.8433
"454",80.0354,836.8565
"455",79.84009,836.86993
"456",79.449455,836.8831
"457",78.870834,836.89655
"458",78.135956,836.9097
"459",77.29366,836.92316
"460",76.387886,836.93634
"461",75.45281,836.94977
"462",74.52262,836.96295
"463",73.62905,836.9764
"464",72.796524,836.98956
"465",72.03967,837.003
"466",71.37072,837.0162
"467",70.7921,837.0296
"468",70.30625,837.0428
"469",69.9205,837.0562
"470",69.70321,837.0694
"471",69.86679,837.0828
"472",70.801865,837.096
"473",72.91127,837.10944
"474",76.36591,837.1226
"475",80.91676,837.13605
"476",85.93637,837.14923
"477",90.614174,837.16266
"478",94.222626,837.17584
"479",96.3711,837.1893
"480",97.08644,837.20245
"481",96.688484,837.2159
"482",95.54833,837.22906
"483",93.98337,837.2425
"484",92.225525,837.2557
"485",90.457924,837.2691
"486",88.80263,837.2823
"487",87.31335,837.2957
"488",85.980316,837.3089
"489",84.754715,837.3223
"490",83.59014,837.3355
"491",82.46708,837.34894
"492",81.409935,837.3621
"493",80.47486,837.37555
"494",79.71801,837.38873
"495",79.18089,837.40216
"496",78.853745,837.41534
"497",78.68528,837.4288
"498",78.607155,837.44196
"499",78.52903,837.4554
"500",78.37522,837.46857
"501",78.09201,837.482
"502",77.65255,837.4952
"503",77.06416,837.5086
"504",76.35859,837.5218
"505",75.57,837.5352
"506",74.73991,837.5484
"507",73.89517,837.5618
"508",73.06264,837.575
"509",72.26429,837.58844
"510",71.519646,837.6016
"511",70.838486,837.61505
"512",70.23056,837.62823
"513",69.698326,837.64166
"514",69.24422,837.65485
"515",68.88289,837.6683
"516",68.7071,837.68146
"517",68.9781,837.6949
"518",70.11093,837.70807
"519",72.46693,837.7215
"520",76.09247,837.7347
"521",80.638435,837.7481
"522",85.42611,837.7613
"523",89.66689,837.7747
"524",92.7309,837.7879
"525",94.364235,837.80133
"526",94.70603,837.8145
"527",94.09323,837.82794
"528",92.877396,837.8411
"529",91.334404,837.85455
"530",89.686424,837.86774
"531",88.09216,837.88116
"532",86.64683,837.89435
"533",85.3724,837.9078
"534",84.22247,837.92096
"535",83.12871,837.9344
"536",82.04227,837.9476
"537",80.96315,837.961
"538",79.92798,837.9742
"539",78.99779,837.9876
"540",78.24094,838.0008
"541",77.696495,838.0142
"542",77.35226,838.0274
"543",77.16426,838.04083
"544",77.06416,838.054
"545",76.96895,838.06744
"546",76.81514,838.0806
"547",76.54902,838.09406
"548",76.14374,838.10724
"549",75.60662,838.12067
"550",74.96208,838.13385
"551",74.22476,838.1473
"552",73.43374,838.16046
"553",72.62806,838.1739
"554",71.84436,838.1871
"555",71.11192,838.2005
"556",70.450294,838.2137
"557",69.88144,838.2271
"558",69.41268,838.2403
"559",69.051346,838.2537
"560",68.79744,838.2669
"561",68.648506,838.28033
"562",68.59724,838.2935
"563",68.61921,838.30695
"564",68.69489,838.3201
"565",68.80232,838.33356
"566",68.909744,838.34674
"567",68.99275,838.36017
"568",69.02937,838.37335
"569",69.0074,838.3868
"570",68.946365,838.39996
"571",68.926834,838.4134
"572",69.205154,838.4266
"573",70.2501,838.44
"574",72.535286,838.4532
"575",76.25849,838.4666
"576",81.14137,838.4798
"577",86.49058,838.4932
"578",91.41985,838.5064
"579",95.14549,838.51984
"580",97.269554,838.533
"581",97.87991,838.54645
"582",97.359886,838.55963
"583",96.13672,838.57306
"584",94.54246,838.58624
"585",92.826126,838.5997
"586",91.16838,838.61285
"587",89.68154,838.6263
"588",88.39979,838.63947
"589",87.28893,838.6529
"590",86.27085,838.6661
"591",85.2723,838.6795
"592",84.25666,838.6927
"593",83.23613,838.7061
"594",82.269325,838.7193
"595",81.41238,838.7327
"596",80.719,838.7459
"597",80.201416,838.75934
"598",79.84497,838.7725
"599",79.59594,838.78595
"600",79.40307,838.79913
"601",79.200424,838.81256
"602",78.924545,838.82574
"603",78.53391,838.8392
"604",78.00656,838.85236
"605",77.35226,838.8658
"606",76.592964,838.87897
"607",75.76044,838.8924
"608",74.896164,838.9056
"609",74.03677,838.919
"610",73.214005,838.9322
"611",72.45716,838.9456
"612",71.78577,838.9588
"613",71.20958,838.9722
"614",70.73106,838.9854
"615",70.35508,838.99884
"616",70.064545,839.012
"617",69.86191,839.02545
"618",69.72762,839.03864
"619",69.65682,839.05206
"620",69.62264,839.06525
"621",69.61532,839.0787
"622",69.61776,839.09186
"623",69.62264,839.1053
"624",69.6202,839.11847
"625",69.610435,839.1319
"626",69.58846,839.1451
"627",69.55184,839.1585
"628",69.5079,839.1717
"629",69.46151,839.1851
"630",69.41512,839.1983
"631",69.38094,839.21173
"632",69.36874,839.2249
"633",69.37606,839.23834
"634",69.402916,839.2515
"635",69.454185,839.26495
"636",69.52743,839.27814
"637",69.610435,839.29156
"638",69.695885,839.30475
"639",69.769135,839.3182
"640",69.82773,839.33136
"641",69.908295,839.3448
"642",70.19882,839.358
"643",71.11925,839.3714
"644",73.2604,839.3846
"645",77.08858,839.398
"646",82.581825,839.4112
"647",89.127335,839.4246
"648",95.68505,839.4378
"649",101.15144,839.45123
"650",104.74769,839.4644
"651",106.27848,839.47784
"652",106.08072,839.491
"653",104.74525,839.50446
"654",102.79942,839.51764
"655",100.59968,839.53107
"656",98.38529,839.54425
"657",96.327156,839.5577
"658",94.53025,839.57086
"659",93.02632,839.5843
"660",91.776306,839.5975
"661",90.6923,839.6109
"662",89.68154,839.6241
"663",88.68299,839.6375
"664",87.68688,839.6507
"665",86.71763,839.6641
"666",85.82651,839.6773
"667",85.05257,839.69073
"668",84.39582,839.7039
"669",83.8465,839.71735
"670",83.372856,839.7305
"671",82.94316,839.74396
"672",82.50858,839.75714
"673",82.022736,839.77057
"674",81.45632,839.78375
"675",80.782486,839.7972
"676",80.0061,839.81036
"677",79.14671,839.8238
"678",78.22629,839.837
"679",77.27413,839.8504
"680",76.32685,839.8636
"681",75.40887,839.877
"682",74.547035,839.8902
"683",73.763336,839.9036
"684",73.06996,839.9168
"685",72.46937,839.93024
"686",71.96399,839.9434
"687",71.551384,839.95685
"688",71.22911,839.97003
"689",70.992294,839.98346
"690",70.82872,839.99664
"691",70.73106,840.0101
"692",70.677345,840.02325
"693",70.65537,840.0367
"694",70.640724,840.04987
"695",70.626076,840.0633
"696",70.6041,840.0765
"697",70.572365,840.0899
"698",70.5333,840.1031
"699",70.48936,840.1165
"700",70.44297,840.1297
"701",70.39414,840.1431
"702",70.347755,840.1563
"703",70.30869,840.16974
"704",70.279396,840.1829
"705",70.26719,840.19635
"706",70.27207,840.20953
"707",70.279396,840.22296
"708",70.28428,840.23615
"709",70.27451,840.2496
"710",70.25742,840.26276
"711",70.26475,840.2762
"712",70.44297,840.28937
"713",71.1461,840.3028
"714",72.92348,840.316
"715",76.27802,840.3294
"716",81.341576,840.3426
"717",87.66491,840.356
"718",94.30808,840.3692
"719",100.172424,840.3826
"720",104.361946,840.3958
"721",106.50309,840.40924
"722",106.79118,840.4224
"723",105.75845,840.43585
"724",103.95422,840.44904
"725",101.788666,840.46246
"726",99.523,840.47565
"727",97.34524,840.4891
"728",95.379875,840.50226
"729",93.68795,840.5157
"730",92.26704,840.5289
"731",91.05119,840.5423
"732",89.95987,840.5555
"733",88.92714,840.5689
"734",87.91394,840.5821
"735",86.925156,840.5955
"736",86.00473,840.6087
"737",85.186844,840.62213
"738",84.49592,840.6353
"739",83.93683,840.64874
"740",83.475395,840.6619
"741",83.06767,840.67535
"742",82.66483,840.68854
"743",82.213165,840.70197
"744",81.668724,840.71515
"745",81.01198,840.7286
"746",80.235596,840.74176
"747",79.35912,840.7552
"748",78.4094,840.7684
"749",77.418175,840.7818
"750",76.41718,840.795
"751",75.43572,840.8084
"752",74.50553,840.8216
"753",73.636375,840.835
"754",72.85268,840.8482
"755",72.15686,840.86163
"756",71.56359,840.8748
"757",71.06798,840.88824
"758",70.66514,840.9014
"759",70.35264,840.91486
"760",70.12558,840.92804
"761",69.96689,840.94147
"762",69.86679,840.95465
"763",69.8082,840.9681
"764",69.78134,840.98126
"765",69.771576,840.9947
"766",69.769135,841.0079
"767",69.769135,841.0213
"768",69.76669,841.0345
"769",69.75693,841.0479
"770",69.730064,841.0611
"771",69.66659,841.0745
"772",69.5494,841.0877
"773",69.35897,841.10114
"774",69.0782,841.1143
"775",68.71198,841.12775
"776",68.26765,841.1409
"777",67.78912,841.15436
"778",67.35943,841.16754
"779",67.173874,841.18097
"780",67.58892,841.19415
"781",69.13924,841.2076
"782",72.33997,841.22076
"783",77.37423,841.2342
"784",83.861145,841.2474
"785",90.90715,841.2608
"786",97.38674,841.274
"787",102.328224,841.2874
"788",105.22377,841.3006
"789",106.14908,841.314
"790",105.57534,841.3272
"791",104.05676,841.34064
"792",102.02792,841.3538
"793",99.77203,841.36725
"794",97.4844,841.38043
"795",95.30175,841.39386
"796",93.31686,841.40704
"797",91.561455,841.4205
"798",90.03555,841.43365
"799",88.71717,841.4471
"800",87.569695,841.46027
"801",86.573586,841.4737
"802",85.72396,841.4869
"803",85.015945,841.5003
"804",84.42756,841.5135
"805",83.95392,841.5269
"806",83.56573,841.5401
"807",83.24101,841.5535
"808",82.916306,841.5667
"809",82.54276,841.58014
"810",82.06424,841.5933
"811",81.45144,841.60675
"812",80.69215,841.61993
"813",79.81079,841.63336
"814",78.84154,841.64655
"815",77.81125,841.66
"816",76.75166,841.67316
"817",75.68963,841.6866
"818",74.6569,841.69977
"819",73.68276,841.7132
"820",72.79164,841.7264
"821",71.99817,841.7398
"822",71.312126,841.753
"823",70.73838,841.7664
"824",70.27451,841.7796
"825",69.908295,841.793
"826",69.62997,841.8062
"827",69.42733,841.81964
"828",69.28329,841.8328
"829",69.17586,841.84625
"830",69.09529,841.85944
"831",69.0367,841.87286
"832",68.99031,841.88605
"833",68.96101,841.8995
"834",68.94881,841.91266
"835",68.946365,841.9261
"836",68.95369,841.9393
"837",68.95369,841.9527
"838",68.9366,841.9659
"839",68.895096,841.9793
"840",68.841385,841.9925
"841",68.84627,842.0059
"842",69.119705,842.0191
"843",70.0914,842.03253
"844",72.33753,842.0457
"845",76.280464,842.05914
"846",81.900665,842.0723
"847",88.62928,842.08575
"848",95.46288,842.09894
"849",101.28817,842.11237
"850",105.272606,842.12555
"851",107.140305,842.139
"852",107.13542,842.15216
"853",105.78775,842.1656
"854",103.624626,842.1788
"855",101.065994,842.1922
"856",98.39506,842.2054
"857",95.802246,842.2188
"858",93.41207,842.232
"859",91.283134,842.2454
"860",89.41299,842.2586
"861",87.77722,842.27203
"862",86.346535,842.2852
"863",85.120926,842.29865
"864",84.11505,842.3118
"865",83.35577,842.32526
"866",82.847946,842.33844
"867",82.564735,842.35187
"868",82.44511,842.36505
"869",82.41093,842.3785
"870",82.36942,842.39166
"871",82.24246,842.4051
"872",81.95682,842.4183
"873",81.47341,842.4317
"874",80.780045,842.4449
"875",79.90112,842.4583
"876",78.87572,842.4715
"877",77.75021,842.4849
"878",76.578316,842.4981
"879",75.39666,842.51154
"880",74.23941,842.5247
"881",73.15053,842.53815
"882",72.15686,842.55133
"883",71.27795,842.56476
"884",70.53086,842.57794
"885",69.925385,842.5914
"886",69.46395,842.60455
"887",69.13924,842.618
"888",68.93416,842.63116
"889",68.83894,842.6446
"890",68.824295,842.6578
"891",68.8658,842.6712
"892",68.94148,842.6844
"893",69.02449,842.6978
"894",69.09285,842.711
"895",69.12459,842.7244
"896",69.119705,842.7376
"897",69.11726,842.75104
"898",69.278404,842.7642
"899",69.95468,842.77765
"900",71.6466,842.79083
"901",74.79118,842.80426
"902",79.48119,842.81744
"903",85.32113,842.8309
"904",91.51507,842.84406
"905",97.06691,842.8575
"906",101.13191,842.87067
"907",103.31457,842.8841
"908",103.70275,842.8973
"909",102.68711,842.9107
"910",100.733955,842.9239
"911",98.253456,842.9373
"912",95.55566,842.9505
"913",92.84566,842.9639
"914",90.25773,842.9771
"915",87.87488,842.99054
"916",85.72884,843.0037
"917",83.84161,843.01715
"918",82.23514,843.03033
"919",80.95094,843.04376
"920",80.03784,843.05695
"921",79.53002,843.0704
"922",79.4226,843.08356
"923",79.64721,843.097
"924",80.07446,843.11017
"925",80.56275,843.1236
"926",80.96315,843.1368
"927",81.15846,843.1502
"928",81.06813,843.1634
"929",80.67017,843.1768
"930",79.98901,843.19
"931",79.07591,843.2034
"932",78.00412,843.2166
"933",76.841995,843.23004
"934",75.65301,843.2432
"935",74.486,843.25665
"936",73.38979,843.26984
"937",72.38636,843.28326
"938",71.49767,843.29645
"939",70.73838,843.3099
"940",70.10605,843.32306
"941",69.59823,843.3365
"942",69.20027,843.3497
"943",68.89998,843.3631
"944",68.67536,843.3763
"945",68.509346,843.3897
"946",68.41169,843.4029
"947",68.489815,843.4163
"948",69.02937,843.4295
"949",70.49668,843.44293
"950",73.33364,843.4561
"951",77.68673,843.46954
"952",83.25323,843.4827
"953",89.29092,843.49615
"954",94.8452,843.50934
"955",99.06645,843.52277
"956",101.51034,843.53595
"957",102.20615,843.5494
"958",101.5079,843.56256
"959",99.862366,843.576
"960",97.67971,843.5892
"961",95.25292,843.6026
"962",92.79195,843.6158
"963",90.43351,843.6292
"964",88.25819,843.6424
"965",86.29038,843.6558
"966",84.52277,843.669
"967",82.950485,843.68243
"968",81.59304,843.6956
"969",80.49195,843.70905
"970",79.69604,843.7222
"971",79.23216,843.73566
"972",79.080795,843.74884
"973",79.17601,843.76227
"974",79.40795,843.77545
"975",79.65209,843.7889
"976",79.798584,843.80206
"977",79.75464,843.8155
"978",79.47387,843.8287
"979",78.941635,843.8421
"980",78.19699,843.8553
"981",77.2839,843.8687
"982",76.265816,843.8819
"983",75.19646,843.8953
"984",74.124664,843.9085
"985",73.07973,843.92194
"986",72.09827,843.9351
"987",71.19737,843.94855
"988",70.39658,843.96173
"989",69.70077,843.97516
"990",69.11238,843.98834
"991",68.62409,844.0018
"992",68.26765,844.01495
"993",68.189514,844.0284
"994",68.72419,844.04156
"995",70.33555,844.055
"996",73.39712,844.0682
"997",77.90402,844.0816
"998",83.40215,844.0948
"999",89.07118,844.1082
"1000",93.99313,844.1214
"1001",97.46731,844.1348
"1002",99.244675,844.148
"1003",99.493706,844.16144
"1004",98.62455,844.1746
"1005",97.0547,844.18805
"1006",95.11864,844.20123
"1007",93.05318,844.21466
"1008",91.02922,844.22784
"1009",89.15907,844.2413
"1010",87.47204,844.25446
"1011",85.94614,844.2679
"1012",84.53498,844.28107
"1013",83.19951,844.2945
"1014",81.94461,844.3077
"1015",80.80934,844.3211
"1016",79.85718,844.3343
"1017",79.14427,844.3477
"1018",78.692604,844.3609
"1019",78.47288,844.3743
"1020",78.42161,844.3875
"1021",78.44114,844.40094
"1022",78.43626,844.4141
"1023",78.32151,844.42755
"1024",78.03586,844.44073
"1025",77.55978,844.45416
"1026",76.90791,844.46735
"1027",76.11444,844.4808
"1028",75.208664,844.49396
"1029",74.24185,844.5074
"1030",73.248184,844.52057
"1031",72.274055,844.534
"1032",71.33898,844.5472
"1033",70.469826,844.5606
"1034",69.68124,844.5738
"1035",68.98299,844.5872
"1036",68.39704,844.6004
"1037",68.016174,844.61383
"1038",68.10651,844.627
"1039",69.085526,844.64044
"1040",71.3756,844.6536
"1041",75.11101,844.66705
"1042",80.00366,844.68024
"1043",85.36019,844.69366
"1044",90.321205,844.70685
"1045",94.12009,844.7203
"1046",96.3711,844.73346
"1047",97.12306,844.7469
"1048",96.71534,844.7601
"1049",95.54101,844.7735
"1050",93.93454,844.7867
"1051",92.1474,844.8001
"1052",90.37003,844.8133
"1053",88.71717,844.8267
"1054",87.237656,844.8399
"1055",85.90219,844.85333
"1056",84.6424,844.8665
"1057",83.40215,844.87994
"1058",82.15701,844.8931
"1059",80.93385,844.90656
"1060",79.80835,844.91974
"1061",78.856186,844.93317
"1062",78.13107,844.94635
"1063",77.64767,844.9598
"1064",77.37667,844.97296
"1065",77.24483,844.9864
"1066",77.1667,844.9996
"1067",77.05684,845.013
"1068",76.83223,845.0262
"1069",76.453804,845.0396
"1070",75.914246,845.0528
"1071",75.24284,845.0662
"1072",74.46891,845.0794
"1073",73.633934,845.09283
"1074",72.78432,845.106
"1075",71.94202,845.11945
"1076",71.131454,845.1326
"1077",70.37217,845.14606
"1078",69.67635,845.15924
"1079",69.05623,845.17267
"1080",68.51423,845.18585
"1081",68.05524,845.1993
"1082",67.681694,845.21246
"1083",67.43023,845.2259
"1084",67.47173,845.2391
"1085",68.18219,845.2525
"1086",70.0206,845.2657
"1087",73.27505,845.2791
"1088",77.8259,845.2923
"1089",83.12627,845.3057
"1090",88.34852,845.3189
"1091",92.662544,845.33234
"1092",95.52636,845.3455
"1093",96.8423,845.35895
"1094",96.88136,845.37213
"1095",96.03906,845.38556
"1096",94.67429,845.39874
"1097",93.067825,845.4122
"1098",91.42962,845.42535
"1099",89.89639,845.4388
"1100",88.5243,845.45197
"1101",87.293816,845.4654
"1102",86.12924,845.4786
"1103",84.9427,845.492
"1104",83.69024,845.5052
"1105",82.38163,845.5186
"1106",81.08522,845.5318
"1107",79.90112,845.5452
"1108",78.91966,845.5584
"1109",78.187225,845.57184
"1110",77.71603,845.585
"1111",77.452354,845.59845
"1112",77.32296,845.61163
"1113",77.23018,845.62506
"1114",77.07881,845.63824
"1115",76.79805,845.6517
"1116",76.351265,845.66486
"1117",75.736015,845.6783
"1118",74.984055,845.69147
"1119",74.13443,845.7049
"1120",73.233536,845.7181
"1121",72.32044,845.7315
"1122",71.431755,845.7447
"1123",70.60166,845.7581
"1124",69.84726,845.7713
"1125",69.190506,845.7847
"1126",68.646065,845.7979
"1127",68.226135,845.81134
"1128",67.92828,845.8245
"1129",67.757385,845.83795
"1130",67.69634,845.85114
"1131",67.7232,845.86456
"1132",67.81354,845.87775
"1133",67.93317,845.8912
"1134",68.052795,845.90436
"1135",68.14313,845.9178
"1136",68.18219,845.93097
"1137",68.16022,845.9444
"1138",68.09674,845.9576
"1139",68.1358,845.971
"1140",68.60944,845.9842
"1141",70.030365,845.9976
"1142",72.86,846.0108
"1143",77.19356,846.02423
"1144",82.63554,846.0374
"1145",88.3827,846.05084
"1146",93.5024,846.064
"1147",97.23537,846.07745
"1148",99.27642,846.09064
"1149",99.77692,846.10406
"1150",99.16411,846.11725
"1151",97.86771,846.1307
"1152",96.23193,846.14386
"1153",94.50095,846.1573
"1154",92.857864,846.1705
"1155",91.39544,846.1839
"1156",90.11612,846.1971
"1157",88.956436,846.2105
"1158",87.82605,846.2237
"1159",86.64927,846.2371
"1160",85.40414,846.2503
"1161",84.139465,846.26373
"1162",82.933395,846.2769
"1163",81.87869,846.29034
"1164",81.02663,846.3035
"1165",80.396736,846.31696
"1166",79.95972,846.33014
"1167",79.65942,846.34357
"1168",79.41772,846.35675
"1169",79.15892,846.3702
"1170",78.8098,846.38336
"1171",78.328835,846.3968
"1172",77.70138,846.41
"1173",76.944534,846.4234
"1174",76.08026,846.4366
"1175",75.15007,846.45
"1176",74.195465,846.4632
"1177",73.25796,846.4766
"1178",72.376595,846.4898
"1179",71.57336,846.50323
"1180",70.870224,846.5164
"1181",70.27451,846.52985
"1182",69.788666,846.543
"1183",69.41268,846.55646
"1184",69.13924,846.56964
"1185",68.95613,846.58307
"1186",68.85115,846.59625
"1187",68.807205,846.6097
"1188",68.807205,846.62286
"1189",68.84383,846.6363
"1190",68.909744,846.6495
"1191",68.99275,846.6629
"1192",69.08064,846.6761
"1193",69.16121,846.6895
"1194",69.222244,846.7027
"1195",69.261314,846.7161
"1196",69.27352,846.7293
"1197",69.25399,846.74274
"1198",69.205154,846.7559
"1199",69.119705,846.76935
"1200",69.00496,846.78253
"1201",68.91951,846.79596
"1202",69.048904,846.80914
"1203",69.80087,846.8226
"1204",71.71984,846.83575
"1205",75.21843,846.8492
"1206",80.26002,846.86237
"1207",86.2855,846.8758
"1208",92.367134,846.889
"1209",97.50881,846.9024
"1210",101.0074,846.9156
"1211",102.67246,846.929
"1212",102.77989,846.9422
"1213",101.81308,846.9556
"1214",100.22125,846.9688
"1215",98.34379,846.98224
"1216",96.41505,846.9954
"1217",94.61082,847.00885
"1218",93.02632,847.02203
"1219",91.67132,847.03546
"1220",90.48722,847.04865
"1221",89.373924,847.0621
"1222",88.25819,847.07526
"1223",87.10826,847.0887
"1224",85.94858,847.10187
"1225",84.84993,847.1153
"1226",83.878235,847.1285
"1227",83.07988,847.1419
"1228",82.459755,847.1551
"1229",81.991,847.1685
"1230",81.617455,847.1817
"1231",81.28298,847.1951
"1232",80.921646,847.2083
"1233",80.47486,847.22174
"1234",79.90845,847.2349
"1235",79.21019,847.24835
"1236",78.38499,847.26154
"1237",77.45968,847.27496
"1238",76.47822,847.28815
"1239",75.47967,847.3016
"1240",74.50553,847.31476
"1241",73.58999,847.3282
"1242",72.75258,847.3414
"1243",72.01526,847.3548
"1244",71.38293,847.368
"1245",70.85802,847.3814
"1246",70.44053,847.3946
"1247",70.132904,847.408
"1248",69.92294,847.4212
"1249",69.80087,847.43463
"1250",69.747154,847.4478
"1251",69.73495,847.46124
"1252",69.749596,847.4744
"1253",69.771576,847.48785
"1254",69.788666,847.50104
"1255",69.79355,847.51447
"1256",69.78134,847.52765
"1257",69.747154,847.5411
"1258",69.70321,847.55426
"1259",69.644615,847.5677
"1260",69.58846,847.5809
"1261",69.542076,847.5943
"1262",69.51522,847.6075
"1263",69.505455,847.6209
"1264",69.51522,847.6341
"1265",69.539635,847.6475
"1266",69.56893,847.6607
"1267",69.590904,847.67413
"1268",69.60067,847.6873
"1269",69.59579,847.70074
"1270",69.57137,847.7139
"1271",69.573814,847.72736
"1272",69.78134,847.74054
"1273",70.59922,847.75397
"1274",72.61585,847.76715
"1275",76.299995,847.7806
"1276",81.70046,847.79376
"1277",88.272835,847.8072
"1278",95.03075,847.8204
"1279",100.85603,847.8338
"1280",104.901505,847.847
"1281",106.879074,847.8604
"1282",107.052414,847.8736
"1283",105.951324,847.887
"1284",104.11047,847.9002
"1285",101.93515,847.91364
"1286",99.68658,847.9268
"1287",97.547874,847.94025
"1288",95.641106,847.9534
"1289",94.00534,847.96686
"1290",92.60395,847.98004
"1291",91.34661,847.99347
"1292",90.13809,848.00665
"1293",88.919815,848.0201
"1294",87.682,848.03326
"1295",86.47105,848.0467
"1296",85.35287,848.0599
"1297",84.386055,848.0733
"1298",83.595024,848.0865
"1299",82.97246,848.0999
"1300",82.48173,848.1131
"1301",82.06912,848.1265
"1302",81.66628,848.1397
"1303",81.21217,848.15314
"1304",80.65064,848.1663
"1305",79.957275,848.17975
"1306",79.13451,848.19293
"1307",78.20187,848.20636
"1308",77.19356,848.21954
"1309",76.15106,848.233
"1310",75.11101,848.24615
"1311",74.110016,848.2596
"1312",73.1725,848.27277
"1313",72.32044,848.2862
"1314",71.570915,848.2994
"1315",70.923935,848.3128
"1316",70.38926,848.326
"1317",69.96689,848.3394
"1318",69.65438,848.3526
"1319",69.44686,848.366
"1320",69.32479,848.3792
"1321",69.26864,848.39264
"1322",69.261314,848.4058
"1323",69.27352,848.41925
"1324",69.29305,848.43243
"1325",69.31014,848.44586
"1326",69.31747,848.45905
"1327",69.315025,848.4725
"1328",69.297935,848.48566
"1329",69.2662,848.4991
"1330",69.2198,848.51227
"1331",69.16853,848.5257
"1332",69.11482,848.5389
"1333",69.068436,848.5523
"1334",69.0367,848.5655
"1335",69.02449,848.5789
"1336",69.02693,848.5921
"1337",69.03914,848.6055
"1338",69.06355,848.6187
"1339",69.09041,848.63214
"1340",69.11726,848.6453
"1341",69.14412,848.65875
"1342",69.15633,848.67194
"1343",69.17586,848.68536
"1344",69.280846,848.69855
"1345",69.71053,848.712
"1346",70.95567,848.72516
"1347",73.62417,848.7386
"1348",78.11398,848.7518
"1349",84.300606,848.7652
"1350",91.46868,848.7784
"1351",98.50004,848.7918
"1352",104.24231,848.805
"1353",107.91913,848.8184
"1354",109.39132,848.8316
"1355",109.04707,848.84503
"1356",107.494316,848.8582
"1357",105.289696,848.87164
"1358",102.83116,848.8848
"1359",100.37263,848.89825
"1360",98.072784,848.91144
"1361",96.03174,848.92487
"1362",94.28367,848.93805
"1363",92.79195,848.9515
"1364",91.47112,848.96466
"1365",90.23331,848.9781
"1366",89.01259,848.9913
"1367",87.79431,849.0047
"1368",86.607765,849.0179
"1369",85.514,849.0313
"1370",84.55207,849.0445
"1371",83.74883,849.0579
"1372",83.09209,849.0711
"1373",82.55009,849.08453
"1374",82.07645,849.0977
"1375",81.61257,849.11115
"1376",81.10475,849.1243
"1377",80.51148,849.13776
"1378",79.80835,849.15094
"1379",78.99046,849.16437
"1380",78.07736,849.17755
"1381",77.100784,849.191
"1382",76.09247,849.20416
"1383",75.08415,849.2176
"1384",74.10513,849.2308
"1385",73.17494,849.2442
"1386",72.318,849.2574
"1387",71.5465,849.2708
"1388",70.87755,849.284
"1389",70.31602,849.2974
"1390",69.86679,849.3106
"1391",69.5201,849.32404
"1392",69.26864,849.3372
"1393",69.08797,849.35065
"1394",68.97078,849.36383
"1395",68.895096,849.37726
"1396",68.84871,849.39044
"1397",68.81941,849.4039
"1398",68.79988,849.41705
"1399",68.78279,849.4305
"1400",68.7657,849.44366
"1401",68.748604,849.4571
"1402",68.7364,849.4703
"1403",68.72907,849.4837
"1404",68.72663,849.4969
"1405",68.72907,849.5103
"1406",68.73884,849.5235
"1407",68.75105,849.5369
"1408",68.773026,849.5501
"1409",68.80476,849.56354
"1410",68.84871,849.5767
"1411",68.88777,849.59015
"1412",68.91951,849.60333
"1413",68.93904,849.61676
"1414",68.99275,849.62994
"1415",69.2491,849.6434
"1416",70.07919,849.65656
"1417",72.05676,849.67
"1418",75.70672,849.68317
"1419",81.16823,849.6966
"1420",87.99695,849.7098
"1421",95.24803,849.7232
"1422",101.73739,849.7364
"1423",106.47379,849.7498
"1424",109.00069,849.763
"1425",109.44991,849.7764
"1426",108.34882,849.7896
"1427",106.29557,849.80304
"1428",103.766235,849.8162
"1429",101.09041,849.82965
"1430",98.48051,849.84283
"1431",96.0708,849.85626
"1432",93.93698,849.86945
"1433",92.08148,849.8829
"1434",90.477455,849.89606
"1435",89.05653,849.9095
"1436",87.78699,849.92267
"1437",86.641945,849.9361
"1438",85.63363,849.9493
"1439",84.78157,849.9627
"1440",84.11017,849.9759
"1441",83.60235,849.9893
"1442",83.226364,850.0025
"1443",82.933395,850.0159
"1444",82.66483,850.0291
"1445",82.357216,850.04254
"1446",81.951935,850.0557
"1447",81.40749,850.06915
"1448",80.706795,850.08234
"1449",79.85962,850.09576
"1450",78.88548,850.10895
"1451",77.823456,850.1224
"1452",76.717476,850.13556
"1453",75.60418,850.149
"1454",74.512856,850.1622
"1455",73.480125,850.1756
"1456",72.5304,850.1888
"1457",71.67834,850.2022
"1458",70.94591,850.2154
"1459",70.33311,850.2288
"1460",69.837494,850.242
"1461",69.45663,850.25543
"1462",69.18074,850.2686
"1463",68.99519,850.28204
"1464",68.88533,850.2952
"1465",68.8365,850.30865
"1466",68.8365,850.32184
"1467",68.875565,850.33527
"1468",68.94148,850.34845
"1469",69.02937,850.3619
"1470",69.12459,850.37506
"1471",69.222244,850.3885
"1472",69.312584,850.4017
"1473",69.39071,850.4151
"1474",69.4493,850.4283
"1475",69.48348,850.4417
"1476",69.49081,850.4549
"1477",69.46395,850.4683
"1478",69.40536,850.4815
"1479",69.349205,850.49493
"1480",69.39315,850.5081
"1481",69.80087,850.52155
"1482",71.03624,850.5347
"1483",73.66567,850.54816
"1484",78.02609,850.56134
"1485",83.980774,850.57477
"1486",90.84856,850.58795
"1487",97.57717,850.6014
"1488",103.07774,850.61456
"1489",106.61051,850.628
"1490",108.0119,850.6412
"1491",107.62127,850.6546
"1492",105.98062,850.6678
"1493",103.62707,850.6812
"1494",100.96101,850.6944
"1495",98.251015,850.7078
"1496",95.655754,850.721
"1497",93.28512,850.73444
"1498",91.17326,850.7476
"1499",89.31289,850.76105
"1500",87.674675,850.77423
"1501",86.23422,850.78766
"1502",84.996414,850.80084
"1503",83.97589,850.8143
"1504",83.20195,850.82745
"1505",82.67948,850.8409
"1506",82.37919,850.85406
"1507",82.24002,850.8675
"1508",82.18875,850.8807
"1509",82.13992,850.8941
"1510",82.01053,850.9073
"1511",81.73464,850.9207
"1512",81.27322,850.9339
"1513",80.61646,850.9473
"1514",79.77905,850.9605
"1515",78.802475,850.97394
"1516",77.72823,850.9871
"1517",76.60517,851.00055
"1518",75.4699,851.01373
"1519",74.35905,851.02716
"1520",73.304344,851.04034
"1521",72.33753,851.0538
"1522",71.48058,851.06696
"1523",70.74326,851.0804
"1524",70.13046,851.09357
"1525",69.64217,851.107
"1526",69.27352,851.1202
"1527",69.014725,851.1336
"1528",68.860916,851.1468
"1529",68.790115,851.1602
"1530",68.795,851.1734
"1531",68.84871,851.1868
"1532",68.94148,851.2
"1533",69.048904,851.21344
"1534",69.15144,851.2266
"1535",69.23689,851.24005
"1536",69.28573,851.25323
"1537",69.295494,851.26666
"1538",69.27108,851.27985
"1539",69.27596,851.2933
"1540",69.46639,851.30646
"1541",70.18417,851.3199
"1542",71.91028,851.33307
"1543",75.08415,851.3465
"1544",79.82544,851.3597
"1545",85.77524,851.3731
"1546",92.14252,851.3863
"1547",97.92142,851.3997
"1548",102.22568,851.4129
"1549",104.59876,851.42633
"1550",105.1017,851.4395
"1551",104.12756,851.45294
"1552",102.17197,851.4661
"1553",99.67925,851.47955
"1554",96.971695,851.49274
"1555",94.25681,851.50616
"1556",91.66888,851.51935
"1557",89.27871,851.5328
"1558",87.12291,851.54596
"1559",85.21126,851.5594
"1560",83.57061,851.5726
"1561",82.22293,851.586
"1562",81.2195,851.5992
"1563",80.59449,851.6126
"1564",80.35279,851.6258
"1565",80.448006,851.6392
"1566",80.7776,851.6524
"1567",81.214615,851.66583
"1568",81.619896,851.679
"1569",81.8616,851.69244
"1570",81.849396,851.7056
"1571",81.53689,851.71906
"1572",80.93385,851.73224
"1573",80.076904,851.74567
"1574",79.03441,851.75885
"1575",77.872284,851.7723
"1576",76.66132,851.78546
"1577",75.45281,851.7989
"1578",74.288246,851.8121
"1579",73.2018,851.8255
"1580",72.22278,851.8387
"1581",71.36584,851.8521
"1582",70.63828,851.8653
"1583",70.047455,851.8787
"1584",69.58602,851.8919
"1585",69.23445,851.90533
"1586",68.9781,851.9185
"1587",68.79256,851.93195
"1588",68.66071,851.9451
"1589",68.575264,851.95856
"1590",68.560616,851.97174
"1591",68.716866,851.98517
"1592",69.31991,851.99835
"1593",70.81407,852.0118
"1594",73.63882,852.02496
"1595",77.979706,852.0384
"1596",83.59258,852.0516
"1597",89.779205,852.065
"1598",95.58495,852.0782
"1599",100.11627,852.0916
"1600",102.85069,852.1048
"1601",103.744255,852.1182
"1602",103.133896,852.1314
"1603",101.488365,852.14484
"1604",99.24956,852.158
"1605",96.74952,852.17145
"1606",94.20798,852.18463
"1607",91.7641,852.19806
"1608",89.49111,852.21124
"1609",87.42077,852.2247
"1610",85.55306,852.23785
"1611",83.88556,852.2513
"1612",82.44999,852.26447
"1613",81.28054,852.2779
"1614",80.43824,852.2911
"1615",79.94751,852.3045
"1616",79.80347,852.3177
"1617",79.940186,852.3311
"1618",80.2478,852.3443
"1619",80.59449,852.3577
"1620",80.850845,852.3709
"1621",80.90456,852.38434
"1622",80.69215,852.3975
"1623",80.201416,852.41095
"1624",79.46166,852.42413
"1625",78.519264,852.43756
"1626",77.435265,852.45074
"1627",76.27802,852.4642
"1628",75.0988,852.47736
"1629",73.944,852.4908
"1630",72.84779,852.50397
"1631",71.84192,852.5174
"1632",70.93126,852.5306
"1633",70.12314,852.544
"1634",69.417564,852.5572
"1635",68.81453,852.5706
"1636",68.316475,852.5838
"1637",67.964905,852.5972
"1638",67.896545,852.6104
"1639",68.44343,852.62384
"1640",70.07919,852.637
"1641",73.20912,852.65045
"1642",77.8967,852.66364
"1643",83.72686,852.67706
"1644",89.86954,852.69025
"1645",95.345695,852.7037
"1646",99.354546,852.71686
"1647",101.55184,852.7303
"1648",102.064545,852.74347
"1649",101.29305,852.7569
"1650",99.701225,852.7701
"1651",97.66262,852.7835
"1652",95.45556,852.7967
"1653",93.260704,852.8101
"1654",91.205,852.8233
"1655",89.34463,852.83673
"1656",87.67712,852.8499
"1657",86.14633,852.86334
"1658",84.72541,852.8765
"1659",83.404594,852.88995
"1660",82.21805,852.90314
"1661",81.214615,852.91656
"1662",80.45289,852.92975
"1663",79.94751,852.9432
"1664",79.67162,852.95636
"1665",79.55688,852.9698
"1666",79.517815,852.983
"1667",79.466545,852.9964
"1668",79.30785,853.0096
"1669",78.98802,853.023
"1670",78.47288,853.0362
"1671",77.769745,853.0496
"1672",76.90303,853.0628
"1673",75.92401,853.07623
"1674",74.86687,853.0894
"1675",73.77554,853.10284
"1676",72.68665,853.116
"1677",71.62951,853.12946
"1678",70.626076,853.14264
"1679",69.698326,853.15607
"1680",68.860916,853.16925
"1681",68.1236,853.1827
"1682",67.510796,853.19586
"1683",67.11528,853.2093
"1684",67.20073,853.2225
"1685",68.206604,853.2359
"1686",70.591896,853.2491
"1687",74.54215,853.2625
"1688",79.801025,853.2757
"1689",85.67269,853.2891
"1690",91.226974,853.3023
"1691",95.604485,853.31573
"1692",98.336464,853.3289
"1693",99.41558,853.34235
"1694",99.16655,853.3555
"1695",98.01907,853.36896
"1696",96.35157,853.38214
"1697",94.452126,853.39557
"1698",92.53071,853.40875
"1699",90.7338,853.4222
"1700",89.13222,853.43536
"1701",87.70397,853.4488
"1702",86.37827,853.462
"1703",85.084305,853.4754
"1704",83.77814,853.4886
"1705",82.46952,853.502
"1706",81.231705,853.5152
"1707",80.13794,853.5286
"1708",79.256584,853.5418
"1709",78.6096,853.55524
"1710",78.17502,853.5684
"1711",77.90158,853.58185
"1712",77.7087,853.59503
"1713",77.506065,853.60846
"1714",77.21797,853.62164
"1715",76.79805,853.6351
"1716",76.22919,853.64825
"1717",75.51873,853.6617
"1718",74.69108,853.67487
"1719",73.777985,853.6883
"1720",72.813614,853.7015
"1721",71.82971,853.7149
"1722",70.85802,853.7281
"1723",69.93271,853.7415
"1724",69.07576,853.7547
"1725",68.29694,853.7681
"1726",67.60357,853.7813
"1727",67.00542,853.79474
"1728",66.55863,853.8079
"1729",66.43168,853.82135
"1730",66.985886,853.83453
"1731",68.69001,853.84796
"1732",71.868774,853.86115
"1733",76.473335,853.8746
"1734",82.01053,853.88776
"1735",87.65514,853.9012
"1736",92.52094,853.91437
"1737",95.96338,853.9278
"1738",97.779816,853.941
"1739",98.16312,853.9544
"1740",97.50881,853.9676
"1741",96.20752,853.981
"1742",94.57908,853.9942
"1743",92.86519,854.0076
"1744",91.23186,854.0208
"1745",89.7499,854.03424
"1746",88.41444,854.0474
"1747",87.15465,854.06085
"1748",85.87045,854.07404
"1749",84.51057,854.08746
"1750",83.08232,854.10065
"1751",81.654076,854.1141
"1752",80.32838,854.12726
"1753",79.21507,854.1407
"1754",78.365456,854.1539
"1755",77.77951,854.1673
"1756",77.41573,854.1805
"1757",77.19356,854.1939
"1758",77.015335,854.2071
"1759",76.78584,854.2205
"1760",76.436714,854.2337
"1761",75.928894,854.24713
"1762",75.250175,854.2603
"1763",74.424965,854.27374
"1764",73.49233,854.2869
"1765",72.498665,854.30035
"1766",71.49035,854.31354
"1767",70.51377,854.32697
"1768",69.610435,854.34015
"1769",68.81453,854.3536
"1770",68.14801,854.36676
"1771",67.62554,854.3802
"1772",67.25201,854.3934
"1773",67.0103,854.4068
"1774",66.880905,854.42
"1775",66.8394,854.4334
"1776",66.85405,854.4466
"1777",66.88579,854.46
"1778",66.90532,854.4732
"1779",66.88335,854.48663
"1780",66.844284,854.4998
"1781",66.91997,854.51324
"1782",67.43755,854.5264
"1783",68.909744,854.53986
"1784",71.79065,854.55304
"1785",76.209656,854.56647
"1786",81.812775,854.57965
"1787",87.835815,854.5931
"1788",93.32662,854.60626
"1789",97.49416,854.6197
"1790",99.96979,854.6329
"1791",100.84627,854.6463
"1792",100.49714,854.6595
"1793",99.369194,854.6729
"1794",97.82864,854.6861
"1795",96.15137,854.6995
"1796",94.52781,854.7127
"1797",93.05806,854.72614
"1798",91.75433,854.7393
"1799",90.54337,854.75275
"1800",89.32021,854.7659
"1801",88.00427,854.77936
"1802",86.5687,854.79254
"1803",85.05989,854.80597
"1804",83.577934,854.81915
"1805",82.22781,854.8326
"1806",81.094986,854.84576
"1807",80.21362,854.8592
"1808",79.5642,854.8724
"1809",79.08568,854.8858
"1810",78.70725,854.899
"1811",78.34104,854.9124
"1812",77.91379,854.9256
"1813",77.36935,854.939
"1814",76.68574,854.9522
"1815",75.860535,854.96564
"1816",74.915695,854.9788
"1817",73.89029,854.99225
"1818",72.8307,855.00543
"1819",71.78088,855.01886
"1820",70.784775,855.03204
"1821",69.87167,855.0455
"1822",69.06355,855.05865
"1823",68.37751,855.0721
"1824",67.81354,855.08527
"1825",67.37408,855.0987
"1826",67.054245,855.1119
"1827",66.84184,855.1253
"1828",66.73197,855.1385
"1829",66.69779,855.1519
"1830",66.722206,855.1651
"1831",66.775925,855.1785
"1832",66.8394,855.1917
"1833",66.89311,855.20514
"1834",66.92729,855.2183
"1835",66.934616,855.23175
"1836",66.915085,855.24493
"1837",66.86626,855.25836
"1838",66.793015,855.27155
"1839",66.71,855.285
"1840",66.62455,855.29816
"1841",66.55863,855.3116
"1842",66.51469,855.32477
"1843",66.50004,855.3382
"1844",66.51713,855.3514
"1845",66.56107,855.3648
"1846",66.61967,855.378
"1847",66.67826,855.3914
"1848",66.72465,855.4046
"1849",66.75151,855.418
"1850",66.76128,855.4312
"1851",66.793015,855.44464
"1852",67.0396,855.4578
"1853",67.94049,855.47125
"1854",70.14755,855.48444
"1855",74.215,855.49786
"1856",80.25025,855.51105
"1857",87.73815,855.5245
"1858",95.63378,855.53766
"1859",102.68223,855.5511
"1860",107.87274,855.5643
"1861",110.77318,855.5777
"1862",111.57641,855.5909
"1863",110.82689,855.6043
"1864",109.13008,855.6175
"1865",106.97185,855.6309
"1866",104.69886,855.6441
"1867",102.5333,855.65753
"1868",100.61433,855.6707
"1869",98.951706,855.68414
"1870",97.48196,855.6973
"1871",96.08789,855.71075
"1872",94.66453,855.72394
"1873",93.153275,855.73737
"1874",91.5761,855.75055
"1875",90.01114,855.764
"1876",88.5536,855.77716
"1877",87.26696,855.7906
"1878",86.17563,855.8038
"1879",85.26986,855.8172
"1880",84.505684,855.8304
"1881",83.81476,855.8438
"1882",83.12871,855.857
"1883",82.391396,855.8704
"1884",81.55154,855.8836
"1885",80.59693,855.89703
"1886",79.5227,855.9102
"1887",78.35325,855.92365
"1888",77.120316,855.9368
"1889",75.86786,855.95026
"1890",74.632484,855.96344
"1891",73.45571,855.97687
"1892",72.37171,855.99005
"1893",71.40734,856.0035
"1894",70.56992,856.01666
"1895",69.86679,856.0301
"1896",69.295494,856.0433
"1897",68.84871,856.0567
"1898",68.51423,856.0699
"1899",68.27009,856.0833
"1900",68.10162,856.0965
"1901",67.98932,856.1099
"1902",67.911194,856.1231
"1903",67.85504,856.13654
"1904",67.80377,856.1497
"1905",67.74761,856.16315
"1906",67.66949,856.17633
"1907",67.57427,856.18976
"1908",67.45464,856.20294
"1909",67.320366,856.2164
"1910",67.173874,856.22955
"1911",67.02739,856.243
"1912",66.89067,856.25616
"1913",66.78325,856.2696
"1914",66.71,856.2828
"1915",66.67094,856.2962
"1916",66.668495,856.3094
"1917",66.69291,856.3228
"1918",66.73197,856.336
"1919",66.775925,856.3494
"1920",66.810104,856.3626
"1921",66.827194,856.37604
"1922",66.84184,856.3892
"1923",66.95415,856.40265
"1924",67.4522,856.41583
"1925",68.87068,856.42926
"1926",71.85901,856.44244
"1927",76.81758,856.4559
"1928",83.612114,856.46906
"1929",91.493095,856.4825
"1930",99.300835,856.49567
"1931",105.831696,856.5091
"1932",110.2678,856.5223
"1933",112.40406,856.5357
"1934",112.58228,856.5489
"1935",111.381096,856.5623
"1936",109.36935,856.5755
"1937",106.9987,856.5889
"1938",104.57923,856.6021
"1939",102.3209,856.61554
"1940",100.33112,856.6287
"1941",98.617226,856.64215
"1942",97.10109,856.65533
"1943",95.66064,856.66876
"1944",94.19333,856.68195
"1945",92.65034,856.6954
"1946",91.04631,856.70856
"1947",89.44961,856.722
"1948",87.953,856.73517
"1949",86.62241,856.7486
"1950",85.49447,856.7618
"1951",84.55451,856.7752
"1952",83.773254,856.7884
"1953",83.08476,856.8018
"1954",82.41581,856.815
"1955",81.69558,856.8284
"1956",80.87282,856.8416
"1957",79.91577,856.85504
"1958",78.839096,856.8682
"1959",77.65743,856.88165
"1960",76.41718,856.89484
"1961",75.15495,856.90826
"1962",73.90738,856.92145
"1963",72.71107,856.9349
"1964",71.59289,856.94806
"1965",70.5626,856.9615
"1966",69.64217,856.9747
"1967",68.83894,856.9881
"1968",68.16266,857.0013
"1969",67.61089,857.0147
"1970",67.176315,857.0279
"1971",66.85649,857.0413
"1972",66.62699,857.0545
"1973",66.47318,857.06793
"1974",66.37553,857.0811
"1975",66.321815,857.09454
"1976",66.29496,857.1077
"1977",66.27787,857.12115
"1978",66.26078,857.13434
"1979",66.23392,857.14777
"1980",66.18997,857.16095
"1981",66.13382,857.1744
"1982",66.072784,857.18756
"1983",66.004425,857.201
"1984",65.94339,857.2142
"1985",65.897,857.2276
"1986",65.87015,857.2408
"1987",65.865265,857.2542
"1988",65.884796,857.2674
"1989",65.92386,857.2808
"1990",65.97513,857.294
"1991",66.03128,857.30743
"1992",66.08255,857.3206
"1993",66.12161,857.33405
"1994",66.15335,857.3472
"1995",66.21683,857.36066
"1996",66.46586,857.37384
"1997",67.27398,857.38727
"1998",69.2491,857.40045
"1999",73.02846,857.4139
"2000",78.89525,857.42706
"2001",86.519875,857.4405
"2002",94.96971,857.4537
"2003",102.977646,857.4671
"2004",109.34249,857.4803
"2005",113.34646,857.4937
"2006",114.950485,857.5069
"2007",114.6038,857.5203
"2008",112.936295,857.5335
"2009",110.52415,857.54694
"2010",107.80438,857.5601
"2011",105.08461,857.57355
"2012",102.55772,857.58673
"2013",100.3238,857.60016
"2014",98.38773,857.61334
"2015",96.68116,857.6268
"2016",95.099106,857.63995
"2017",93.56344,857.6534
"2018",92.035095,857.66656
"2019",90.53361,857.68
"2020",89.11513,857.6932
"2021",87.835815,857.7066
"2022",86.73228,857.7198
"2023",85.79721,857.7332
"2024",85.00618,857.7464
"2025",84.31037,857.7598
"2026",83.64141,857.773
"2027",82.92607,857.78644
"2028",82.11063,857.7996
"2029",81.15846,857.81305
"2030",80.062256,857.82623
"2031",78.839096,857.83966
"2032",77.52804,857.85284
"2033",76.16815,857.8663
"2034",74.80095,857.87946
"2035",73.45815,857.8929
"2036",72.181274,857.90607
"2037",70.994736,857.9195
"2038",69.91806,857.9327
"2039",68.9659,857.9461
"2040",68.15045,857.9593
"2041",67.46685,857.9727
"2042",66.91997,857.9859
"2043",66.50004,857.9993
"2044",66.197296,858.0125
"2045",65.99466,858.02594
"2046",65.87015,858.0391
"2047",65.80667,858.05255
"2048",65.7847,858.06573
"2049",65.7847,858.07916
"2050",65.794464,858.09235
"2051",65.80667,858.1058
"2052",65.811554,858.11896
"2053",65.794464,858.1324
"2054",65.76761,858.14557
"2055",65.73342,858.159
"2056",65.704124,858.1722
"2057",65.67971,858.1856
"2058",65.6675,858.1988
"2059",65.672386,858.2122
"2060",65.689476,858.2254
"2061",65.71145,858.23883
"2062",65.73342,858.252
"2063",65.75052,858.26544
"2064",65.75784,858.2786
"2065",65.7554,858.29205
"2066",65.779816,858.30524
"2067",65.93851,858.31866
"2068",66.52445,858.33185
"2069",68.06012,858.3453
"2070",71.19737,858.35846
"2071",76.39033,858.3719
"2072",83.5584,858.3851
"2073",91.981384,858.3985
"2074",100.472725,858.4117
"2075",107.75067,858.4251
"2076",112.85817,858.4383
"2077",115.45098,858.4517
"2078",115.80011,858.4649
"2079",114.493935,858.47833
"2080",112.15259,858.4915
"2081",109.27657,858.50494
"2082",106.25651,858.5181
"2083",103.33898,858.53156
"2084",100.66804,858.54474
"2085",98.285194,858.55817
"2086",96.180664,858.57135
"2087",94.293434,858.5848
"2088",92.57465,858.59796
"2089",91.00481,858.6114
"2090",89.59121,858.6246
"2091",88.36317,858.638
"2092",87.34264,858.6512
"2093",86.522316,858.6646
"2094",85.86313,858.6778
"2095",85.30892,858.6912
"2096",84.78645,858.7044
"2097",84.224915,858.71783
"2098",83.55596,858.731
"2099",82.74052,858.74445
"2100",81.74929,858.7576
"2101",80.587166,858.77106
"2102",79.28344,858.78424
"2103",77.874725,858.79767
"2104",76.40986,858.81085
"2105",74.93523,858.8243
"2106",73.497215,858.83746
"2107",72.13733,858.8509
"2108",70.88243,858.8641
"2109",69.749596,858.8775
"2110",68.753494,858.8907
"2111",67.89899,858.9041
"2112",67.1812,858.9173
"2113",66.597694,858.9307
"2114",66.14603,858.9439
"2115",65.81644,858.95734
"2116",65.58694,858.9705
"2117",65.44778,858.98395
"2118",65.374535,858.99713
"2119",65.34768,859.01056
"2120",65.355,859.02374
"2121",65.376976,859.0372
"2122",65.408714,859.05035
"2123",65.445335,859.0638
"2124",65.4844,859.07697
"2125",65.5259,859.0904
"2126",65.567406,859.1036
"2127",65.601585,859.117
"2128",65.626,859.1302
"2129",65.64065,859.1436
"2130",65.64553,859.1568
"2131",65.63821,859.1702
"2132",65.62112,859.1834
"2133",65.59426,859.19684
"2134",65.57229,859.21
"2135",65.60891,859.22345
"2136",65.84573,859.23663
"2137",66.60258,859.25006
"2138",68.40925,859.26324
"2139",71.84924,859.2767
"2140",77.27413,859.28986
"2141",84.49836,859.3033
"2142",92.74799,859.31647
"2143",100.84383,859.3299
"2144",107.59441,859.3431
"2145",112.147705,859.3565
"2146",114.25956,859.3697
"2147",114.22049,859.3831
"2148",112.618904,859.3963
"2149",110.05539,859.4097
"2150",107.01091,859.4229
"2151",103.854126,859.43634
"2152",100.824295,859.4495
"2153",98.038605,859.46295
"2154",95.5288,859.47614
"2155",93.297325,859.48956
"2156",91.34173,859.50275
"2157",89.66445,859.5162
"2158",88.289925,859.52936
"2159",87.24742,859.5428
"2160",86.536964,859.55597
"2161",86.11948,859.5694
"2162",85.9144,859.5826
"2163",85.81186,859.596
"2164",85.70443,859.6092
"2165",85.489586,859.6226
"2166",85.084305,859.6358
"2167",84.439766,859.64923
"2168",83.53887,859.6624
"2169",82.39872,859.67584
"2170",81.06813,859.689
"2171",79.60082,859.70245
"2172",78.06027,859.71564
"2173",76.507515,859.72906
"2174",74.99138,859.74225
"2175",73.548485,859.7557
"2176",72.20569,859.76886
"2177",70.98741,859.7823
"2178",69.89853,859.7955
"2179",68.95125,859.8089
"2180",68.14557,859.8221
"2181",67.48638,859.8355
"2182",66.968796,859.8487
"2183",66.58793,859.8621
"2184",66.32914,859.8753
"2185",66.17044,859.88873
"2186",66.089874,859.9019
"2187",66.06302,859.91534
"2188",66.06546,859.9285
"2189",66.072784,859.94196
"2190",66.0679,859.95514
"2191",66.03372,859.96857
"2192",65.967804,859.98175
"2193",65.87503,859.9952
"2194",65.80179,860.00836
"2195",65.85794,860.0218
"2196",66.287636,860.035
"2197",67.51568,860.0484
"2198",70.06943,860.0616
"2199",74.32731,860.075
"2200",80.26734,860.0882
"2201",87.35729,860.1016
"2202",94.66941,860.1148
"2203",101.12703,860.12823
"2204",105.87564,860.1414
"2205",108.5124,860.15485
"2206",109.134964,860.168
"2207",108.16327,860.18146
"2208",106.11978,860.19464
"2209",103.47082,860.20807
"2210",100.58259,860.22125
"2211",97.69924,860.2347
"2212",94.96239,860.24786
"2213",92.42329,860.2613
"2214",90.108795,860.2745
"2215",88.04578,860.2879
"2216",86.278175,860.3011
"2217",84.86214,860.3145
"2218",83.85138,860.3277
"2219",83.26299,860.3411
"2220",83.06279,860.3543
"2221",83.15068,860.36774
"2222",83.389946,860.3809
"2223",83.62676,860.39435
"2224",83.73174,860.40753
"2225",83.5877,860.42096
"2226",83.13847,860.43414
"2227",82.38163,860.4476
"2228",81.35378,860.46075
"2229",80.113525,860.4742
"2230",78.73411,860.48737
"2231",77.2839,860.5008
"2232",75.82391,860.514
"2233",74.40299,860.5274
"2234",73.0724,860.5406
"2235",71.85657,860.554
"2236",70.77989,860.5672
"2237",69.839935,860.5806
"2238",69.034256,860.5938
"2239",68.34821,860.60724
"2240",67.76227,860.6204
"2241",67.25933,860.63385
"2242",66.82475,860.64703
"2243",66.460976,860.66046
"2244",66.20462,860.67365
"2245",66.19974,860.6871
"2246",66.76372,860.70026
"2247",68.367744,860.7137
"2248",71.4757,860.72687
"2249",76.2707,860.7403
"2250",82.4744,860.7535
"2251",89.35195,860.7669
"2252",95.8999,860.7801
"2253",101.170975,860.7935
"2254",104.57679,860.8067
"2255",106.022125,860.8201
"2256",105.8024,860.8333
"2257",104.38392,860.84674
"2258",102.24521,860.8599
"2259",99.7818,860.87335
"2260",97.27444,860.88654
"2261",94.89647,860.89996
"2262",92.72358,860.91315
"2263",90.7509,860.9266
"2264",88.94423,860.93976
"2265",87.27184,860.9532
"2266",85.73373,860.9664
"2267",84.368965,860.9798
"2268",83.243454,860.993
"2269",82.39872,861.0064
"2270",81.84207,861.0196
"2271",81.52468,861.033
"2272",81.36599,861.0462
"2273",81.25124,861.05963
"2274",81.075455,861.0728
"2275",80.743416,861.08624
"2276",80.198975,861.0994
"2277",79.43481,861.11285
"2278",78.46555,861.12604
"2279",77.34005,861.13947
"2280",76.11444,861.15265
"2281",74.844894,861.1661
"2282",73.568016,861.17926
"2283",72.32777,861.1927
"2284",71.16319,861.2059
"2285",70.09628,861.2193
"2286",69.13924,861.2325
"2287",68.30427,861.2459
"2288",67.58404,861.2591
"2289",66.97612,861.2725
"2290",66.47318,861.2857
"2291",66.11917,861.29913
"2292",66.075226,861.3123
"2293",66.69535,861.32574
"2294",68.455635,861.3389
"2295",71.74181,861.35236
"2296",76.60273,861.36554
"2297",82.62333,861.37897
"2298",88.9955,861.39215
"2299",94.745094,861.4056
"2300",99.08598,861.41876
"2301",101.63485,861.4322
"2302",102.469826,861.4454
"2303",101.9498,861.4588
"2304",100.53132,861.472
"2305",98.631874,861.4854
"2306",96.57374,861.4986
"2307",94.57664,861.512
"2308",92.75777,861.5252
"2309",91.13664,861.53864
"2310",89.64736,861.5518
"2311",88.199585,861.56525
"2312",86.712746,861.5784
"2313",85.17952,861.59186
"2314",83.65362,861.60504
"2315",82.2327,861.61847
"2316",80.99733,861.63165
"2317",80.01099,861.6451
"2318",79.27123,861.65826
"2319",78.74143,861.6717
"2320",78.345924,861.6849
"2321",78.00168,861.6983
"2322",77.62081,861.7115
"2323",77.14473,861.7249
"2324",76.52949,861.7381
"2325",75.77753,861.7515
"2326",74.90349,861.7647
"2327",73.951324,861.77814
"2328",72.955215,861.7913
"2329",71.94446,861.80475
"2330",70.94835,861.81793
"2331",69.99863,861.83136
"2332",69.11482,861.84454
"2333",68.316475,861.858
"2334",67.615776,861.87115
"2335",67.0103,861.8846
"2336",66.50004,861.89777
"2337",66.092316,861.9112
"2338",65.85306,861.9244
"2339",65.97757,861.9378
"2340",66.84184,861.951
"2341",68.87312,861.9644
"2342",72.33997,861.9776
"2343",77.117874,861.991
"2344",82.6746,862.0042
"2345",88.19226,862.01764
"2346",92.843216,862.0308
"2347",96.05615,862.04425
"2348",97.67971,862.05743
"2349",97.94095,862.07086
"2350",97.22804,862.08405
"2351",95.9292,862.0975
"2352",94.35935,862.11066
"2353",92.75044,862.1241
"2354",91.24895,862.13727
"2355",89.90616,862.1507
"2356",88.67811,862.1639
"2357",87.47692,862.1773
"2358",86.20737,862.1905
"2359",84.81575,862.2039
"2360",83.3167,862.2171
"2361",81.79813,862.2305
"2362",80.37232,862.2437
"2363",79.14427,862.25714
"2364",78.17258,862.2703
"2365",77.469444,862.28375
"2366",76.99336,862.29694
"2367",76.67109,862.31036
"2368",76.41474,862.32355
"2369",76.13153,862.337
"2370",75.75067,862.35016
"2371",75.23796,862.3636
"2372",74.58366,862.3768
"2373",73.80972,862.3902
"2374",72.952774,862.4034
"2375",72.059204,862.4168
"2376",71.17784,862.43
"2377",70.345314,862.4434
"2378",69.590904,862.4566
"2379",68.93172,862.47003
"2380",68.37995,862.4832
"2381",67.93317,862.49664
"2382",67.596245,862.5098
"2383",67.34966,862.52325
"2384",67.17876,862.53644
"2385",67.05913,862.54987
"2386",66.968796,862.56305
"2387",66.89311,862.5765
"2388",66.85893,862.58966
"2389",66.99077,862.6031
"2390",67.58404,862.6163
"2391",69.065994,862.6297
"2392",71.783325,862.6429
"2393",75.775085,862.6563
"2394",80.6775,862.6695
"2395",85.804535,862.6829
"2396",90.3505,862.6961
"2397",93.69039,862.70953
"2398",95.56542,862.7227
"2399",96.112305,862.73615
"2400",95.68505,862.7493
"2401",94.67185,862.76276
"2402",93.38033,862.77594
"2403",92.04242,862.78937
"2404",90.80705,862.80255
"2405",89.72549,862.816
"2406",88.76845,862.82916
"2407",87.84314,862.8426
"2408",86.84947,862.8558
"2409",85.70931,862.8692
"2410",84.41291,862.8824
"2411",83.018845,862.8958
"2412",81.62966,862.909
"2413",80.36988,862.9224
"2414",79.33227,862.9356
"2415",78.56565,862.94904
"2416",78.05051,862.9622
"2417",77.74044,862.97565
"2418",77.55245,862.98883
"2419",77.38888,863.00226
"2420",77.16914,863.01544
"2421",76.83467,863.0289
"2422",76.36347,863.04205
"2423",75.75311,863.0555
"2424",75.03288,863.06866
"2425",74.229645,863.0821
"2426",73.392235,863.0953
"2427",72.55726,863.1087
"2428",71.75891,863.1219
"2429",71.026474,863.1353
"2430",70.381935,863.1485
"2431",69.837494,863.1619
"2432",69.39803,863.1751
"2433",69.06111,863.18854
"2434",68.81941,863.2017
"2435",68.67048,863.21515
"2436",68.60456,863.22833
"2437",68.60944,863.24176
"2438",68.67292,863.25494
"2439",68.78523,863.2684
"2440",68.929276,863.28156
"2441",69.083084,863.295
"2442",69.22957,863.30817
"2443",69.35165,863.3216
"2444",69.434654,863.3348
"2445",69.46395,863.3482
"2446",69.43954,863.3614
"2447",69.35653,863.3748
"2448",69.222244,863.388
"2449",69.04646,863.4014
"2450",68.89021,863.4146
"2451",68.93416,863.42804
"2452",69.56649,863.4412
"2453",71.28527,863.45465
"2454",74.444496,863.46783
"2455",79.00511,863.48126
"2456",84.439766,863.49445
"2457",89.901276,863.5079
"2458",94.49851,863.52106
"2459",97.60891,863.5345
"2460",99.08598,863.54767
"2461",99.193405,863.5611
"2462",98.39262,863.5743
"2463",97.09865,863.5877
"2464",95.62646,863.6009
"2465",94.186005,863.6143
"2466",92.90669,863.6275
"2467",91.83002,863.6409
"2468",90.914474,863.6541
"2469",90.05997,863.66754
"2470",89.15175,863.6807
"2471",88.11658,863.69415
"2472",86.942245,863.70734
"2473",85.68246,863.72076
"2474",84.43488,863.73395
"2475",83.299614,863.7474
"2476",82.35233,863.76056
"2477",81.61501,863.774
"2478",81.07057,863.7872
"2479",80.6775,863.8006
"2480",80.36744,863.8138
"2481",80.06958,863.8272
"2482",79.72289,863.8404
"2483",79.28344,863.8538
"2484",78.73167,863.867
"2485",78.07004,863.88043
"2486",77.32052,863.8936
"2487",76.5124,863.90704
"2488",75.68719,863.9202
"2489",74.87663,863.93365
"2490",74.11734,863.94684
"2491",73.426414,863.96027
"2492",72.82338,863.97345
"2493",72.31312,863.9869
"2494",71.89563,864.00006
"2495",71.56359,864.0135
"2496",71.312126,864.0267
"2497",71.12901,864.0401
"2498",71.009384,864.0533
"2499",70.9337,864.0667
"2500",70.8922,864.0799
"2501",70.86534,864.0933
"2502",70.8336,864.1065
"2503",70.7921,864.11993
"2504",70.728615,864.1331
"2505",70.63828,864.14655
"2506",70.53086,864.1597
"2507",70.40635,864.17316
"2508",70.27207,864.18634
"2509",70.13046,864.19977
"2510",69.98886,864.21295
"2511",69.85458,864.2264
"2512",69.73495,864.23956
"2513",69.63485,864.253
"2514",69.56649,864.2662
"2515",69.52743,864.2796
"2516",69.522545,864.2928
"2517",69.556725,864.3062
"2518",69.625084,864.3194
"2519",69.72762,864.3328
"2520",69.85458,864.346
"2521",69.98886,864.35944
"2522",70.11093,864.3726
"2523",70.20859,864.38605
"2524",70.27451,864.39923
"2525",70.32578,864.41266
"2526",70.469826,864.42584
"2527",71.0045,864.4393
"2528",72.43519,864.45245
"2529",75.301445,864.4659
"2530",79.83765,864.47906
"2531",85.74349,864.4925
"2532",92.20355,864.5057
"2533",98.15091,864.5191
"2534",102.65537,864.5323
"2535",105.22865,864.5457
"2536",105.953766,864.5589
"2537",105.304344,864.5723
"2538",103.83948,864.5855
"2539",102.00107,864.59894
"2540",100.07477,864.6121
"2541",98.25834,864.62555
"2542",96.671394,864.63873
"2543",95.35058,864.65216
"2544",94.25681,864.66534
"2545",93.28756,864.6788
"2546",92.32563,864.69196
"2547",91.283134,864.7054
"2548",90.13321,864.71857
"2549",88.90517,864.732
"2550",87.66979,864.7452
"2551",86.51255,864.7586
"2552",85.49203,864.7718
"2553",84.63264,864.7852
"2554",83.93683,864.7984
"2555",83.372856,864.8118
"2556",82.88945,864.825
"2557",82.43046,864.83844
"2558",81.93729,864.8516
"2559",81.373314,864.86505
"2560",80.71168,864.87823
"2561",79.95972,864.89166
"2562",79.12962,864.90485
"2563",78.25559,864.9183
"2564",77.36446,864.93146
"2565",76.49287,864.9449
"2566",75.665215,864.95807
"2567",74.898605,864.9715
"2568",74.20767,864.9847
"2569",73.60464,864.9981
"2570",73.08705,865.0113
"2571",72.66224,865.0247
"2572",72.325325,865.0379
"2573",72.07141,865.05133
"2574",71.88342,865.0645
"2575",71.75159,865.07794
"2576",71.658806,865.0911
"2577",71.59045,865.10455
"2578",71.52453,865.11774
"2579",71.45861,865.13116
"2580",71.380486,865.14435
"2581",71.28527,865.1578
"2582",71.17296,865.17096
"2583",71.043564,865.1844
"2584",70.9044,865.1976
"2585",70.75304,865.211
"2586",70.59678,865.2242
"2587",70.44053,865.2376
"2588",70.28672,865.2508
"2589",70.14023,865.2642
"2590",70.01572,865.2774
"2591",69.91806,865.29083
"2592",69.86191,865.304
"2593",69.84482,865.31744
"2594",69.86923,865.3306
"2595",69.93027,865.34406
"2596",70.01816,865.35724
"2597",70.12558,865.37067
"2598",70.240326,865.38385
"2599",70.3502,865.3973
"2600",70.43809,865.41046
"2601",70.504005,865.4239
"2602",70.56504,865.4371
"2603",70.73106,865.4505
"2604",71.29015,865.4637
"2605",72.740364,865.4771
"2606",75.6115,865.4903
"2607",80.14038,865.5037
"2608",86.05356,865.5169
"2609",92.56245,865.53033
"2610",98.600136,865.5435
"2611",103.2169,865.55695
"2612",105.89273,865.5701
"2613",106.67155,865.58356
"2614",105.99771,865.59674
"2615",104.427864,865.61017
"2616",102.416115,865.62335
"2617",100.27009,865.6368
"2618",98.197296,865.64996
"2619",96.34669,865.6634
"2620",94.78905,865.6766
"2621",93.51949,865.69
"2622",92.455025,865.7032
"2623",91.48089,865.7166
"2624",90.50187,865.7298
"2625",89.46426,865.7432
"2626",88.37049,865.7564
"2627",87.28161,865.76984
"2628",86.2562,865.783
"2629",85.350426,865.79645
"2630",84.58381,865.80963
"2631",83.949036,865.82306
"2632",83.4168,865.83624
"2633",82.9456,865.8497
"2634",82.48173,865.86285
"2635",81.97391,865.8763
"2636",81.38308,865.88947
"2637",80.689705,865.9029
"2638",79.90112,865.9161
"2639",79.03197,865.9295
"2640",78.11154,865.9427
"2641",77.1667,865.9561
"2642",76.22919,865.9693
"2643",75.32342,865.9827
"2644",74.478676,865.9959
"2645",73.70718,866.00934
"2646",73.02846,866.0225
"2647",72.447395,866.03595
"2648",71.96887,866.04913
"2649",71.58556,866.06256
"2650",71.292595,866.07574
"2651",71.08751,866.0892
"2652",70.95079,866.10236
"2653",70.870224,866.1158
"2654",70.83116,866.12897
"2655",70.81407,866.1424
"2656",70.80675,866.1556
"2657",70.7921,866.169
"2658",70.76524,866.1822
"2659",70.71885,866.1956
"2660",70.65293,866.2088
"2661",70.56748,866.2222
"2662",70.4625,866.2354
"2663",70.3502,866.24884
"2664",70.22812,866.262
"2665",70.118256,866.27545
"2666",70.030365,866.28864
"2667",69.96445,866.30206
"2668",69.93027,866.31525
"2669",69.92294,866.3287
"2670",69.94003,866.34186
"2671",69.976654,866.3553
"2672",70.030365,866.36847
"2673",70.07675,866.3819
"2674",70.11337,866.3951
"2675",70.13046,866.4085
"2676",70.14511,866.4217
"2677",70.240326,866.4351
"2678",70.657814,866.4483
"2679",71.8468,866.46173
"2680",74.34684,866.4749
"2681",78.502174,866.48834
"2682",84.207825,866.5015
"2683",90.80217,866.51495
"2684",97.25979,866.52814
"2685",102.53574,866.54156
"2686",105.936676,866.55475
"2687",107.318535,866.5682
"2688",107.01091,866.58136
"2689",105.568016,866.5948
"2690",103.49035,866.608
"2691",101.149,866.6214
"2692",98.78325,866.6346
"2693",96.566414,866.648
"2694",94.60349,866.6612
"2695",92.93599,866.6746
"2696",91.53704,866.6878
"2697",90.33097,866.70123
"2698",89.24208,866.7144
"2699",88.21423,866.72784
"2700",87.23277,866.741
"2701",86.31724,866.75446
"2702",85.50912,866.76764
"2703",84.83528,866.78107
"2704",84.29328,866.79425
"2705",83.8587,866.8077
"2706",83.492485,866.82086
"2707",83.14336,866.8343
"2708",82.75517,866.8475
"2709",82.27421,866.8609
"2710",81.671165,866.8741
"2711",80.93385,866.8875
"2712",80.06714,866.9007
"2713",79.10033,866.9141
"2714",78.06271,866.9273
"2715",76.98848,866.94073
"2716",75.92157,866.9539
"2717",74.89372,866.96735
"2718",73.936676,866.9805
"2719",73.074844,866.99396
"2720",72.32044,867.00714
"2721",71.67834,867.02057
"2722",71.15831,867.03375
"2723",70.75304,867.0472
"2724",70.4625,867.06036
"2725",70.27451,867.0738
"2726",70.17685,867.087
"2727",70.13779,867.1004
"2728",70.14755,867.1136
"2729",70.18173,867.127
"2730",70.22812,867.1402
"2731",70.276955,867.1536
"2732",70.3209,867.1668
"2733",70.3502,867.18024
"2734",70.35996,867.1934
"2735",70.35752,867.20685
"2736",70.33799,867.22003
"2737",70.313576,867.23346
"2738",70.28672,867.24664
"2739",70.26231,867.2601
"2740",70.24277,867.27325
"2741",70.22812,867.2867
"2742",70.21591,867.29987
"2743",70.19882,867.3133
"2744",70.17197,867.3265
"2745",70.13046,867.3399
"2746",70.07675,867.3531
"2747",70.030365,867.3665
"2748",70.08896,867.3797
"2749",70.504005,867.3931
"2750",71.72228,867.4063
"2751",74.26383,867.41974
"2752",78.45579,867.4329
"2753",84.1712,867.44635
"2754",90.758224,867.45953
"2755",97.20851,867.47296
"2756",102.47959,867.48615
"2757",105.882965,867.4996
"2758",107.25994,867.51276
"2759",106.93034,867.5262
"2760",105.428856,867.53937
"2761",103.255974,867.5528
"2762",100.790115,867.566
"2763",98.27543,867.5794
"2764",95.87549,867.5926
"2765",93.69039,867.606
"2766",91.7641,867.6192
"2767",90.08682,867.6326
"2768",88.61707,867.6458
"2769",87.32311,867.65924
"2770",86.19028,867.6724
"2771",85.24544,867.68585
"2772",84.51545,867.69904
"2773",84.017395,867.71246
"2774",83.74151,867.72565
"2775",83.63653,867.7391
"2776",83.61944,867.75226
"2777",83.60235,867.7657
"2778",83.50225,867.7789
"2779",83.243454,867.7923
"2780",82.78203,867.8055
"2781",82.11063,867.8189
"2782",81.248795,867.8321
"2783",80.233154,867.8455
"2784",79.11253,867.8587
"2785",77.93088,867.87213
"2786",76.73945,867.8853
"2787",75.57,867.89874
"2788",74.461586,867.9119
"2789",73.43862,867.92535
"2790",72.52552,867.93854
"2791",71.73937,867.95197
"2792",71.08507,867.96515
"2793",70.56992,867.9786
"2794",70.18906,867.99176
"2795",69.93271,868.0052
"2796",69.78378,868.0184
"2797",69.730064,868.0318
"2798",69.75693,868.045
"2799",69.839935,868.0584
"2800",69.959564,868.0716
"2801",70.09384,868.085
"2802",70.220795,868.0982
"2803",70.33311,868.11163
"2804",70.41856,868.1248
"2805",70.469826,868.13824
"2806",70.48203,868.1514
"2807",70.44785,868.16486
"2808",70.364845,868.17804
"2809",70.24521,868.19147
"2810",70.12314,868.20465
"2811",70.09628,868.2181
"2812",70.39658,868.23126
"2813",71.43664,868.2447
"2814",73.6852,868.2579
"2815",77.437706,868.2713
"2816",82.58915,868.2845
"2817",88.58045,868.2979
"2818",94.50584,868.3111
"2819",99.42535,868.3245
"2820",102.67979,868.3377
"2821",104.0885,868.35114
"2822",103.885864,868.3643
"2823",102.5333,868.37775
"2824",100.48737,868.3909
"2825",98.109406,868.40436
"2826",95.64599,868.41754
"2827",93.25826,868.43097
"2828",91.04143,868.44415
"2829",89.04433,868.4576
"2830",87.27184,868.47076
"2831",85.71664,868.4842
"2832",84.38361,868.4974
"2833",83.299614,868.5108
"2834",82.5037,868.524
"2835",82.022736,868.5374
"2836",81.846954,868.5506
"2837",81.917755,868.564
"2838",82.13748,868.5772
"2839",82.38651,868.59064
"2840",82.547646,868.6038
"2841",82.52567,868.61725
"2842",82.266884,868.63043
"2843",81.74685,868.64386
"2844",80.98268,868.65704
"2845",80.02319,868.6705
"2846",78.922104,868.68365
"2847",77.73556,868.6971
"2848",76.51484,868.71027
"2849",75.30389,868.7237
"2850",74.13931,868.7369
"2851",73.05287,868.7503
"2852",72.078735,868.7635
"2853",71.236435,868.7769
"2854",70.54307,868.7901
"2855",70.00107,868.8035
"2856",69.607994,868.8167
"2857",69.35165,868.83014
"2858",69.21248,868.8433
"2859",69.16121,868.85675
"2860",69.17586,868.86993
"2861",69.22713,868.88336
"2862",69.280846,868.89655
"2863",69.315025,868.91
"2864",69.32479,868.92316
"2865",69.337,868.9366
"2866",69.48348,868.94977
"2867",70.066986,868.9632
"2868",71.52941,868.9764
"2869",74.29557,868.9898
"2870",78.521706,869.003
"2871",83.931946,869.0164
"2872",89.82559,869.0296
"2873",95.28954,869.043
"2874",99.50347,869.0562
"2875",102.0206,869.06964
"2876",102.836044,869.0828
"2877",102.28672,869.09625
"2878",100.81697,869.10944
"2879",98.8394,869.12286
"2880",96.64942,869.13605
"2881",94.45701,869.1495
"2882",92.40864,869.16266
"2883",90.582436,869.1761
"2884",88.98573,869.1893
"2885",87.5819,869.2027
"2886",86.3148,869.2159
"2887",85.15022,869.2293
"2888",84.08331,869.2425
"2889",83.15556,869.2559
"2890",82.42069,869.2691
"2891",81.90799,869.28253
"2892",81.60525,869.2957
"2893",81.46853,869.30914
"2894",81.41238,869.3223
"2895",81.34646,869.33575
"2896",81.18532,869.34894
"2897",80.85573,869.36237
"2898",80.32105,869.37555
"2899",79.58129,869.389
"2900",78.67063,869.40216
"2901",77.63058,869.4156
"2902",76.51728,869.4288
"2903",75.38201,869.4422
"2904",74.26627,869.4554
"2905",73.20424,869.4688
"2906",72.22522,869.482
"2907",71.35607,869.4954
"2908",70.608986,869.5086
"2909",69.996185,869.52203
"2910",69.50057,869.5352
"2911",69.1075,869.54865
"2912",68.79256,869.5618
"2913",68.55085,869.57526
"2914",68.37751,869.58844
"2915",68.36286,869.60187
"2916",68.72907,869.61505
"2917",69.86923,869.6285
"2918",72.19592,869.64166
"2919",75.92157,869.6551
"2920",80.87038,869.6683
"2921",86.46128,869.6817
"2922",91.84955,869.6949
"2923",96.234375,869.7083
"2924",99.107956,869.7215
"2925",100.38972,869.7349
"2926",100.33845,869.7481
"2927",99.354546,869.76154
"2928",97.813995,869.7747
"2929",96.01465,869.78815
"2930",94.17624,869.80133
"2931",92.45014,869.81476
"2932",90.91936,869.82794
"2933",89.59365,869.8414
"2934",88.40223,869.85455
"2935",87.26452,869.868
"2936",86.11948,869.88116
"2937",84.947586,869.8946
"2938",83.78302,869.9078
"2939",82.69901,869.9212
"2940",81.76883,869.9344
"2941",81.02907,869.9478
"2942",80.48463,869.961
"2943",80.09888,869.9744
"2944",79.81079,869.9876
"2945",79.54467,870.00104
"2946",79.2224,870.0142
"2947",78.78783,870.02765
"2948",78.2092,870.04083
"2949",77.488976,870.05426
"2950",76.65644,870.06744
"2951",75.74822,870.0809
"2952",74.793625,870.09406
"2953",73.831696,870.1075
"2954",72.884415,870.12067
"2955",71.97864,870.1341
"2956",71.13878,870.1473
"2957",70.381935,870.1607
"2958",69.72274,870.1739
"2959",69.16853,870.1873
"2960",68.70466,870.2005
"2961",68.33112,870.2139
"2962",68.065,870.2271
"2963",68.0235,870.24054
"2964",68.48493,870.2537
"2965",69.85947,870.26715
"2966",72.48646,870.28033
"2967",76.422066,870.29376
"2968",81.324486,870.30695
"2969",86.51255,870.3204
"2970",91.18791,870.33356
"2971",94.70603,870.347
"2972",96.77394,870.36017
"2973",97.47219,870.3736
"2974",97.12062,870.3868
"2975",96.08301,870.4002
"2976",94.66697,870.4134
"2977",93.11665,870.4268
"2978",91.612724,870.44
"2979",90.26017,870.4534
"2980",89.08827,870.4666
"2981",88.03601,870.48004
"2982",87.00084,870.4932
"2983",85.88266,870.50665
"2984",84.644844,870.51984
"2985",83.3045,870.53326
"2986",81.95926,870.54645
"2987",80.71656,870.5599
"2988",79.67162,870.57306
"2989",78.86351,870.5865
"2990",78.294655,870.5997
"2991",77.91135,870.6131
"2992",77.64034,870.6263
"2993",77.38888,870.6397
"2994",77.08125,870.6529
"2995",76.654,870.6663
"2996",76.08026,870.6795
"2997",75.372246,870.69293
"2998",74.56657,870.7061
"2999",73.704735,870.71954
"3000",72.82338,870.7327
"3001",71.96643,870.74615
"3002",71.16075,870.75934
"3003",70.42588,870.77277
"3004",69.78134,870.78595
"3005",69.23201,870.7994
"3006",68.78035,870.81256
"3007",68.4239,870.826
"3008",68.14557,870.8392
"3009",67.93317,870.8526
"3010",67.76715,870.8658
"3011",67.64263,870.8792
"3012",67.58648,870.8924
"3013",67.74761,870.9058
"3014",68.43122,870.919
"3015",70.04501,870.93243
"3016",72.86977,870.9456
"3017",76.86641,870.95905
"3018",81.602806,870.9722
"3019",86.39292,870.98566
"3020",90.49943,870.99884
"3021",93.39498,871.01227
"3022",94.91356,871.02545
"3023",95.24559,871.0389
"3024",94.72068,871.05206
"3025",93.68307,871.0655
"3026",92.39887,871.0787
"3027",91.07805,871.0921
"3028",89.86221,871.1053
"3029",88.81239,871.1187
"3030",87.89929,871.1319
"3031",87.03746,871.1453
"3032",86.11459,871.1585
"3033",85.04768,871.17194
"3034",83.81964,871.1851
"3035",82.48661,871.19855
"3036",81.15114,871.21173
"3037",79.93286,871.22516
"3038",78.91722,871.23834
"3039",78.14084,871.2518
"3040",77.60372,871.26495
"3041",77.2546,871.2784
"3042",77.02022,871.29156
"3043",76.8127,871.305
"3044",76.5539,871.3182
"3045",76.18524,871.3316
"3046",75.684746,871.3448
"3047",75.052414,871.3582
"3048",74.31754,871.3714
"3049",73.51675,871.3848
"3050",72.68665,871.398
"3051",71.86633,871.41144
"3052",71.08507,871.4246
"3053",70.36729,871.43805
"3054",69.732506,871.45123
"3055",69.190506,871.46466
"3056",68.74616,871.47784
"3057",68.40925,871.4913
"3058",68.17975,871.50446
"3059",68.065,871.5179
"3060",68.05768,871.53107
"3061",68.138245,871.5445
"3062",68.28962,871.5577
"3063",68.48005,871.5711
"3064",68.6778,871.5843
"3065",68.85603,871.5977
"3066",69.00252,871.6109
"3067",69.100174,871.6243
"3068",69.136795,871.6375
"3069",69.10994,871.65094
"3070",69.014725,871.6641
"3071",68.8658,871.67755
"3072",68.74128,871.69073
"3073",68.85359,871.70416
"3074",69.60555,871.71735
"3075",71.465935,871.7308
"3076",74.70817,871.74396
"3077",79.19798,871.7574
"3078",84.37141,871.77057
"3079",89.410545,871.784
"3080",93.51705,871.7972
"3081",96.180664,871.8106
"3082",97.34524,871.8238
"3083",97.3135,871.8372
"3084",96.50294,871.8504
"3085",95.27245,871.86383
"3086",93.90036,871.877
"3087",92.58442,871.89044
"3088",91.4345,871.9036
"3089",90.48234,871.91705
"3090",89.67422,871.93024
"3091",88.90517,871.94366
"3092",88.05554,871.95685
"3093",87.05211,871.9703
"3094",85.889984,871.98346
"3095",84.6424,871.9969
"3096",83.407036,872.0101
"3097",82.29374,872.0235
"3098",81.38308,872.0367
"3099",80.69703,872.0501
"3100",80.22095,872.0633
"3101",79.90112,872.0767
"3102",79.65942,872.0899
"3103",79.42016,872.10333
"3104",79.114975,872.1165
"3105",78.70725,872.12994
"3106",78.17502,872.1431
"3107",77.53292,872.15656
"3108",76.805374,872.16974
"3109",76.02167,872.18317
"3110",75.21843,872.19635
"3111",74.43473,872.2098
"3112",73.69985,872.22296
"3113",73.03822,872.2364
"3114",72.46204,872.2496
"3115",71.9762,872.263
"3116",71.58556,872.2762
"3117",71.28771,872.2896
"3118",71.0753,872.3028
"3119",70.941025,872.3162
"3120",70.86778,872.3294
"3121",70.836044,872.34283
"3122",70.8336,872.356
"3123",70.836044,872.36945
"3124",70.8336,872.3826
"3125",70.818954,872.39606
"3126",70.78233,872.40924
"3127",70.728615,872.42267
"3128",70.66514,872.43585
"3129",70.59434,872.4493
"3130",70.52842,872.46246
"3131",70.469826,872.4759
"3132",70.42344,872.4891
"3133",70.38926,872.5025
"3134",70.36729,872.5157
"3135",70.35264,872.5291
"3136",70.33799,872.5423
"3137",70.31846,872.5557
"3138",70.28428,872.5689
"3139",70.22568,872.58234
"3140",70.15488,872.5955
"3141",70.15732,872.60895
"3142",70.469826,872.62213
"3143",71.52697,872.63556
"3144",73.81949,872.64874
"3145",77.60372,872.6622
"3146",82.667274,872.67535
"3147",88.343636,872.6888
"3148",93.71725,872.70197
"3149",97.9263,872.7154
"3150",100.48737,872.7286
"3151",101.400475,872.742
"3152",101.04158,872.7552
"3153",99.88678,872.7686
"3154",98.32914,872.7818
"3155",96.639656,872.7952
"3156",95.01854,872.8084
"3157",93.592735,872.82184
"3158",92.41352,872.835
"3159",91.44915,872.84845
"3160",90.60197,872.86163
"3161",89.762115,872.87506
"3162",88.84169,872.88824
"3163",87.8114,872.9017
"3164",86.712746,872.91486
"3165",85.628746,872.9283
"3166",84.63752,872.94147
"3167",83.79523,872.9549
"3168",83.12871,872.9681
"3169",82.62089,872.9815
"3170",82.22781,872.9947
"3171",81.90311,873.0081
"3172",81.57839,873.0213
"3173",81.20241,873.0347
"3174",80.72877,873.0479
"3175",80.14282,873.06134
"3176",79.449455,873.0745
"3177",78.66819,873.08795
"3178",77.8259,873.10114
"3179",76.964066,873.11456
"3180",76.11688,873.12775
"3181",75.31365,873.1412
"3182",74.57633,873.15436
"3183",73.92447,873.1678
"3184",73.36294,873.18097
"3185",72.89174,873.1944
"3186",72.51087,873.2076
"3187",72.217896,873.221
"3188",72.00061,873.2342
"3189",71.85657,873.2476
"3190",71.763794,873.2608
"3191",71.707634,873.27423
"3192",71.673454,873.2874
"3193",71.63683,873.30084
"3194",71.59045,873.314
"3195",71.52697,873.32745
"3196",71.43908,873.34064
"3197",71.33166,873.35406
"3198",71.20714,873.36725
"3199",71.06798,873.3807
"3200",70.923935,873.39386
"3201",70.78233,873.4073
"3202",70.65537,873.4205
"3203",70.54795,873.4339
"3204",70.47227,873.4471
"3205",70.43076,873.4605
"3206",70.42344,873.4737
"3207",70.44053,873.4871
"3208",70.484474,873.5003
"3209",70.54063,873.51373
"3210",70.59922,873.5269
"3211",70.64805,873.54034
"3212",70.68223,873.5535
"3213",70.69688,873.56696
"3214",70.748146,873.58014
"3215",71.01671,873.59357
"3216",71.89563,873.60675
"3217",73.90494,873.6202
"3218",77.44503,873.63336
"3219",82.5037,873.6468
"3220",88.53895,873.66
"3221",94.62791,873.6734
"3222",99.774475,873.6866
"3223",103.26818,873.7
"3224",104.89662,873.7132
"3225",104.9308,873.7266
"3226",103.871216,873.7398
"3227",102.20126,873.75323
"3228",100.27497,873.7664
"3229",98.3267,873.77985
"3230",96.532234,873.793
"3231",94.99657,873.80646
"3232",93.751434,873.81964
"3233",92.74555,873.83307
"3234",91.86664,873.84625
"3235",90.99748,873.8597
"3236",90.0502,873.87286
"3237",89.005264,873.8863
"3238",87.89441,873.8995
"3239",86.800644,873.9129
"3240",85.79233,873.9261
"3241",84.91341,873.9395
"3242",84.173645,873.9527
"3243",83.563286,873.9661
"3244",83.04814,873.9793
"3245",82.58915,873.99274
"3246",82.1326,874.0059
"3247",81.62966,874.01935
"3248",81.041275,874.03253
"3249",80.35523,874.04596
"3250",79.569084,874.05914
"3251",78.70481,874.0726
"3252",77.789276,874.08575
"3253",76.86153,874.0992
"3254",75.95331,874.11237
"3255",75.08415,874.1258
"3256",74.288246,874.139
"3257",73.57534,874.1524
"3258",72.9601,874.1656
"3259",72.44251,874.179
"3260",72.025024,874.1922
"3261",71.70275,874.2056
"3262",71.465935,874.2188
"3263",71.3048,874.23224
"3264",71.2047,874.2454
"3265",71.15343,874.25885
"3266",71.12657,874.27203
"3267",71.10948,874.28546
"3268",71.08507,874.29865
"3269",71.05089,874.3121
"3270",70.98985,874.32526
"3271",70.90929,874.3387
"3272",70.81163,874.35187
"3273",70.69199,874.3653
"3274",70.56504,874.3785
"3275",70.435646,874.3919
"3276",70.32334,874.4051
"3277",70.23056,874.4185
"3278",70.16708,874.4317
"3279",70.13046,874.4451
"3280",70.1207,874.4583
"3281",70.13046,874.47174
"3282",70.15976,874.4849
"3283",70.1915,874.49835
"3284",70.21835,874.51154
"3285",70.23056,874.52496
"3286",70.23056,874.53815
"3287",70.25742,874.5516
"3288",70.45762,874.56476
"3289",71.16319,874.5782
"3290",72.87953,874.5914
"3291",76.0827,874.6048
"3292",80.919205,874.618
"3293",87.00816,874.6314
"3294",93.504845,874.6446
"3295",99.36675,874.658
"3296",103.71252,874.6712
"3297",106.124664,874.68463
"3298",106.70817,874.6978
"3299",105.93179,874.71124
"3300",104.31312,874.7244
"3301",102.279396,874.73785
"3302",100.121155,874.75104
"3303",98.03616,874.76447
"3304",96.15381,874.77765
"3305",94.554665,874.7911
"3306",93.23628,874.80426
"3307",92.13031,874.8177
"3308",91.13176,874.8309
"3309",90.1503,874.8443
"3310",89.13222,874.8575
"3311",88.08484,874.8709
"3312",87.044785,874.8841
"3313",86.082855,874.8975
"3314",85.240555,874.9107
"3315",84.53498,874.92413
"3316",83.949036,874.9373
"3317",83.455864,874.95074
"3318",83.001755,874.9639
"3319",82.54276,874.97736
"3320",82.01785,874.99054
"3321",81.392845,875.00397
"3322",80.64332,875.01715
"3323",79.781494,875.0306
"3324",78.82445,875.04376
"3325",77.80881,875.0572
"3326",76.771194,875.0704
"3327",75.74578,875.0838
"3328",74.759445,875.097
"3329",73.83658,875.1104
"3330",72.99916,875.1236
"3331",72.26185,875.137
"3332",71.63683,875.1502
"3333",71.12657,875.16364
"3334",70.73106,875.1768
"3335",70.44541,875.19025
"3336",70.25498,875.2034
"3337",70.14267,875.21686
"3338",70.08652,875.23004
"3339",70.07187,875.24347
"3340",70.081635,875.25665
"3341",70.098724,875.2701
"3342",70.11337,875.28326
"3343",70.118256,875.2967
"3344",70.11337,875.3099
"3345",70.09384,875.3233
"3346",70.07187,875.3365
"3347",70.0499,875.3499
"3348",70.02792,875.3631
"3349",69.996185,875.3765
"3350",69.959564,875.3897
"3351",69.91562,875.40314
"3352",69.85947,875.4163
"3353",69.786224,875.42975
"3354",69.691,875.44293
"3355",69.590904,875.45636
"3356",69.54452,875.46954
"3357",69.7203,875.483
"3358",70.501564,875.49615
"3359",72.41566,875.5096
"3360",75.88983,875.52277
"3361",80.972916,875.5362
"3362",87.2108,875.5494
"3363",93.714806,875.5628
"3364",99.43755,875.576
"3365",103.553825,875.5894
"3366",105.73159,875.6026
"3367",106.13443,875.616
"3368",105.22621,875.6292
"3369",103.50744,875.64264
"3370",101.38827,875.6558
"3371",99.14702,875.66925
"3372",96.97414,875.68243
"3373",95.00145,875.69586
"3374",93.29977,875.70905
"3375",91.861755,875.7225
"3376",90.6215,875.73566
"3377",89.498436,875.7491
"3378",88.429085,875.76227
"3379",87.38903,875.7757
"3380",86.397804,875.7889
"3381",85.49447,875.8023
"3382",84.7132,875.8155
"3383",84.06134,875.8289
"3384",83.526665,875.8421
"3385",83.08232,875.8555
"3386",82.68192,875.8687
"3387",82.269325,875.88214
"3388",81.795685,875.8953
"3389",81.21706,875.90875
"3390",80.50416,875.92194
"3391",79.64965,875.93536
"3392",78.677956,875.94855
"3393",77.62081,875.962
"3394",76.51728,875.97516
"3395",75.41131,875.9886
"3396",74.33463,876.0018
"3397",73.32632,876.0152
"3398",72.39857,876.0284
"3399",71.5758,876.0418
"3400",70.86046,876.055
"3401",70.26231,876.0684
"3402",69.78378,876.0816
"3403",69.42245,876.09503
"3404",69.16853,876.1082
"3405",69.01228,876.12164
"3406",68.9366,876.1348
"3407",68.91463,876.14825
"3408",68.9366,876.16144
"3409",68.98299,876.17487
"3410",69.04402,876.18805
"3411",69.10994,876.2015
"3412",69.1783,876.21466
"3413",69.24666,876.2281
"3414",69.30038,876.2413
"3415",69.33944,876.2547
"3416",69.35897,876.2679
"3417",69.35653,876.2813
"3418",69.32967,876.2945
"3419",69.278404,876.3079
"3420",69.19295,876.3211
"3421",69.083084,876.33453
"3422",68.97566,876.3477
"3423",68.95613,876.36115
"3424",69.25887,876.3743
"3425",70.30381,876.38776
"3426",72.601204,876.40094
"3427",76.49287,876.41437
"3428",81.91043,876.42755
"3429",88.292366,876.441
"3430",94.69871,876.45416
"3431",100.11871,876.4676
"3432",103.817505,876.4808
"3433",105.57046,876.4942
"3434",105.599754,876.5074
"3435",104.38636,876.5208
"3436",102.41367,876.534
"3437",100.07965,876.5474
"3438",97.66018,876.5606
"3439",95.33105,876.57404
"3440",93.2021,876.5872
"3441",91.32464,876.60065
"3442",89.68154,876.61383
"3443",88.22888,876.62726
"3444",86.93736,876.64044
"3445",85.804535,876.6539
"3446",84.859695,876.66705
"3447",84.139465,876.6805
"3448",83.6585,876.69366
"3449",83.39239,876.7071
"3450",83.282524,876.7203
"3451",83.23857,876.7337
"3452",83.16777,876.7469
"3453",82.98955,876.7603
"3454",82.64286,876.7735
"3455",82.09598,876.7869
"3456",81.35134,876.8001
"3457",80.42603,876.81354
"3458",79.36645,876.8267
"3459",78.2092,876.84015
"3460",77.00557,876.85333
"3461",75.79706,876.86676
"3462",74.62028,876.87994
"3463",73.514305,876.8934
"3464",72.51331,876.90656
"3465",71.639275,876.92
"3466",70.9044,876.93317
"3467",70.31846,876.9466
"3468",69.879,876.9598
"3469",69.576256,876.9732
"3470",69.39559,876.9864
"3471",69.31991,876.9998
"3472",69.31991,877.013
"3473",69.36141,877.0264
"3474",69.41512,877.0396
"3475",69.4493,877.05304
"3476",69.44198,877.0662
"3477",69.39071,877.07965
"3478",69.31014,877.09283
"3479",69.2491,877.10626
"3480",69.36385,877.11945
"3481",69.96689,877.1329
"3482",71.49279,877.14606
"3483",74.322426,877.1595
"3484",78.572975,877.17267
"3485",83.93439,877.1861
"3486",89.69619,877.1993
"3487",94.974594,877.2127
"3488",98.99565,877.2259
"3489",101.349205,877.2393
"3490",102.05966,877.2525
"3491",101.451744,877.2659
"3492",99.95514,877.2791
"3493",97.96048,877.29254
"3494",95.75342,877.3057
"3495",93.53414,877.31915
"3496",91.43206,877.33234
"3497",89.50088,877.34576
"3498",87.74792,877.35895
"3499",86.16342,877.3724
"3500",84.73762,877.38556
"3501",83.49004,877.399
"3502",82.4744,877.4122
"3503",81.739525,877.4256
"3504",81.31472,877.4388
"3505",81.17067,877.4522
"3506",81.23903,877.4654
"3507",81.41238,877.4788
"3508",81.57595,877.492
"3509",81.62234,877.50543
"3510",81.47097,877.5186
"3511",81.08278,877.53204
"3512",80.45533,877.5452
"3513",79.61791,877.55865
"3514",78.61936,877.57184
"3515",77.52071,877.58527
"3516",76.37324,877.59845
"3517",75.22575,877.6119
"3518",74.11978,877.62506
"3519",73.091934,877.6385
"3520",72.164185,877.6517
"3521",71.35607,877.6651
"3522",70.677345,877.6783
"3523",70.12314,877.6917
"3524",69.68856,877.7049
"3525",69.35165,877.7183
"3526",69.09041,877.7315
"3527",68.89754,877.74493
"3528",68.79744,877.7581
"3529",68.91951,877.77155
"3530",69.5494,877.7847
"3531",71.09972,877.79816
"3532",73.92203,877.81134
"3533",78.09445,877.82477
"3534",83.29717,877.83795
"3535",88.834366,877.8514
"3536",93.86618,877.86456
"3537",97.67971,877.878
"3538",99.92828,877.8912
"3539",100.65339,877.9046
"3540",100.17731,877.9178
"3541",98.90044,877.9312
"3542",97.17433,877.9444
"3543",95.26757,877.9578
"3544",93.37789,877.971
"3545",91.62493,877.98444
"3546",90.055084,877.9976
"3547",88.64637,878.01105
"3548",87.33776,878.02423
"3549",86.07553,878.03766
"3550",84.83528,878.05084
"3551",83.65118,878.0643
"3552",82.58915,878.07745
"3553",81.71755,878.0909
"3554",81.07301,878.10406
"3555",80.6482,878.1175
"3556",80.39918,878.1307
"3557",80.24536,878.1441
"3558",80.096436,878.1573
"3559",79.869385,878.1707
"3560",79.51049,878.1839
"3561",78.9807,878.1973
"3562",78.28489,878.2105
"3563",77.44503,878.22394
"3564",76.49775,878.2371
"3565",75.47967,878.25055
"3566",74.42741,878.26373
"3567",73.3727,878.27716
"3568",72.35462,878.29034
"3569",71.40002,878.3038
"3570",70.53086,878.31696
"3571",69.76425,878.3304
"3572",69.1075,878.34357
"3573",68.560616,878.357
"3574",68.14557,878.3702
"3575",67.94537,878.3836
"3576",68.189514,878.3968
"3577",69.25643,878.4102
"3578",71.52941,878.4234
"3579",75.157394,878.4368
"3580",79.91333,878.45
"3581",85.19417,878.46344
"3582",90.20157,878.4766
"3583",94.20065,878.49005
"3584",96.7715,878.50323
"3585",97.884796,878.51666
"3586",97.79935,878.52985
"3587",96.883804,878.5433
"3588",95.47265,878.55646
"3589",93.832,878.5699
"3590",92.174255,878.58307
"3591",90.64103,878.5965
"3592",89.29092,878.6097
"3593",88.09216,878.6231
"3594",86.96178,878.6363
"3595",85.81186,878.6497
"3596",84.58625,878.6629
"3597",83.299614,878.67633
"3598",82.02518,878.6895
"3599",80.86061,878.70294
"3600",79.88403,878.7161
"3601",79.13451,878.72955
"3602",78.59739,878.74274
"3603",78.221405,878.75616
"3604",77.93332,878.76935
"3605",77.65255,878.7828
"3606",77.30343,878.79596
"3607",76.839554,878.8094
"3608",76.25605,878.8226
"3609",75.55291,878.836
"3610",74.759445,878.8492
"3611",73.90494,878.8626
"3612",73.02113,878.8758
"3613",72.13977,878.8892
"3614",71.28039,878.9024
"3615",70.47471,878.91583
"3616",69.73495,878.929
"3617",69.07332,878.94244
"3618",68.49714,878.9556
"3619",68.00397,878.96906
"3620",67.596245,878.98224
"3621",67.29107,878.99567
"3622",67.18364,879.00885
"3623",67.52056,879.0223
"3624",68.69489,879.03546
"3625",71.07774,879.0489
"3626",74.793625,879.0621
"3627",79.57397,879.0755
"3628",84.79378,879.0887
"3629",89.65957,879.1021
"3630",93.470665,879.1153
"3631",95.851074,879.1287
"3632",96.82521,879.1419
"3633",96.6836,879.15533
"3634",95.80713,879.1685
"3635",94.52293,879.18195
"3636",93.09468,879.1951
"3637",91.700615,879.20856
"3638",90.443275,879.22174
"3639",89.33242,879.23517
"3640",88.289925,879.24835
"3641",87.2108,879.2618
"3642",86.00229,879.27496
"3643",84.627754,879.2884
"3644",83.12871,879.3016
"3645",81.61257,879.315
"3646",80.20874,879.3282
"3647",79.02464,879.3416
"3648",78.118866,879.3548
"3649",77.488976,879.3682
"3650",77.09102,879.3814
"3651",76.841995,879.39484
"3652",76.64423,879.408
"3653",76.40009,879.42145
"3654",76.04608,879.43463
"3655",75.543144,879.44806
"3656",74.89372,879.46124
"3657",74.12222,879.4747
"3658",73.270164,879.48785
"3659",72.38148,879.5013
"3660",71.502556,879.51447
"3661",70.66758,879.5279
"3662",69.91562,879.5411
"3663",69.25887,879.5545
"3664",68.70954,879.5677
"3665",68.27009,879.5811
"3666",67.92584,879.5943
"3667",67.66949,879.6077
"3668",67.476616,879.6209
"3669",67.32769,879.63434
"3670",67.20073,879.6475
"3671",67.09575,879.66095
"3672",67.05913,879.67413
"3673",67.27154,879.68756
"3674",68.08453,879.70074
"3675",69.927826,879.7142
"3676",73.08461,879.72736
"3677",77.47921,879.7408
"3678",82.63798,879.75397
"3679",87.80408,879.7674
"3680",92.191345,879.7806
"3681",95.26025,879.794
"3682",96.86183,879.8072
"3683",97.198746,879.8206
"3684",96.63233,879.8338
"3685",95.52392,879.8472
"3686",94.16403,879.8604
"3687",92.76753,879.87384
"3688",91.46624,879.887
"3689",90.31632,879.90045
"3690",89.271385,879.91364
"3691",88.233765,879.92706
"3692",87.10826,879.94025
"3693",85.83383,879.9537
"3694",84.420235,879.96686
"3695",82.948044,879.9803
"3696",81.54177,879.99347
"3697",80.306404,880.0069
"3698",79.31518,880.0201
"3699",78.59251,880.0335
"3700",78.1091,880.0467
"3701",77.79416,880.0601
"3702",77.55489,880.0733
"3703",77.30099,880.08673
"3704",76.95918,880.0999
"3705",76.47578,880.11334
"3706",75.841,880.1265
"3707",75.071945,880.13995
"3708",74.20279,880.15314
"3709",73.272606,880.16656
"3710",72.32288,880.17975
"3711",71.39269,880.1932
"3712",70.518654,880.20636
"3713",69.72518,880.2198
"3714",69.034256,880.233
"3715",68.45319,880.2464
"3716",67.99664,880.2596
"3717",67.66216,880.273
"3718",67.44488,880.2862
"3719",67.33257,880.2996
"3720",67.32281,880.3128
"3721",67.39605,880.32623
"3722",67.53277,880.3394
"3723",67.71587,880.35284
"3724",67.9234,880.366
"3725",68.12604,880.37946
"3726",68.30427,880.39264
"3727",68.438545,880.40607
"3728",68.51911,880.41925
"3729",68.541084,880.4327
"3730",68.49958,880.44586
"3731",68.3946,880.4593
"3732",68.24078,880.4725
"3733",68.0943,880.4859
"3734",68.13092,880.4991
"3735",68.731514,880.5125
"3736",70.41856,880.5257
"3737",73.602196,880.5391
"3738",78.33616,880.5523
"3739",84.16632,880.56573
"3740",90.252846,880.5789
"3741",95.63622,880.59235
"3742",99.57427,880.6055
"3743",101.77646,880.61896
"3744",102.40635,880.63214
"3745",101.89853,880.64557
"3746",100.68757,880.65875
"3747",99.13725,880.6722
"3748",97.50393,880.68536
"3749",95.9707,880.6988
"3750",94.625465,880.712
"3751",93.4609,880.7254
"3752",92.38911,880.7386
"3753",91.300224,880.752
"3754",90.09659,880.7652
"3755",88.75624,880.7786
"3756",87.32067,880.7918
"3757",85.88754,880.80524
"3758",84.56916,880.8184
"3759",83.4461,880.83185
"3760",82.547646,880.84503
"3761",81.8616,880.85846
"3762",81.341576,880.87164
"3763",80.92409,880.8851
"3764",80.52613,880.89825
"3765",80.076904,880.9117
"3766",79.52758,880.92487
"3767",78.84886,880.9383
"3768",78.03586,880.9515
"3769",77.10811,880.9649
"3770",76.10712,880.9781
"3771",75.07683,880.9915
"3772",74.06119,881.0047
"3773",73.10658,881.0181
"3774",72.23987,881.0313
"3775",71.48058,881.04474
"3776",70.838486,881.0579
"3777",70.31602,881.07135
"3778",69.90341,881.08453
"3779",69.59579,881.09796
"3780",69.383385,881.11115
"3781",69.2491,881.1246
"3782",69.18074,881.13776
"3783",69.15633,881.1512
"3784",69.15633,881.16437
"3785",69.15877,881.1778
"3786",69.14656,881.191
"3787",69.11726,881.2044
"3788",69.06355,881.2176
"3789",68.99275,881.231
"3790",68.912186,881.2442
"3791",68.82918,881.2576
"3792",68.755936,881.2708
"3793",68.70466,881.28424
"3794",68.67292,881.2974
"3795",68.65339,881.31085
"3796",68.64362,881.32404
"3797",68.64118,881.33746
"3798",68.63386,881.35065
"3799",68.60944,881.3641
"3800",68.5655,881.37726
"3801",68.509346,881.3907
"3802",68.50446,881.4039
"3803",68.76326,881.4173
"3804",69.72518,881.4305
"3805",71.95911,881.4439
"3806",75.87518,881.4571
"3807",81.43679,881.4705
"3808",88.05798,881.4837
"3809",94.75975,881.49713
"3810",100.47517,881.5103
"3811",104.447395,881.52374
"3812",106.44694,881.5369
"3813",106.74235,881.55035
"3814",105.83658,881.56354
"3815",104.24719,881.57697
"3816",102.3502,881.59015
"3817",100.419014,881.6036
"3818",98.62699,881.61676
"3819",97.06935,881.6302
"3820",95.73632,881.6434
"3821",94.55955,881.6568
"3822",93.416954,881.67
"3823",92.2182,881.6834
"3824",90.914474,881.6966
"3825",89.53994,881.71
"3826",88.17273,881.7232
"3827",86.90318,881.73663
"3828",85.79233,881.7498
"3829",84.86702,881.76324
"3830",84.11261,881.7764
"3831",83.48516,881.78986
"3832",82.92851,881.80304
"3833",82.36942,881.81647
"3834",81.75418,881.82965
"3835",81.03883,881.8431
"3836",80.201416,881.85626
"3837",79.23949,881.8697
"3838",78.184784,881.8829
"3839",77.07149,881.8963
"3840",75.93866,881.9095
"3841",74.82292,881.9229
"3842",73.76822,881.9361
"3843",72.80385,881.9495
"3844",71.94934,881.9627
"3845",71.21446,881.97614
"3846",70.606544,881.9893
"3847",70.12558,882.00275
"3848",69.75693,882.0159
"3849",69.49081,882.02936
"3850",69.312584,882.04254
"3851",69.19783,882.05597
"3852",69.12215,882.06915
"3853",69.065994,882.0826
"3854",69.01228,882.09576
"3855",68.95613,882.1092
"3856",68.88777,882.1224
"3857",68.807205,882.1358
"3858",68.714424,882.149
"3859",68.611885,882.1624
"3860",68.49714,882.1756
"3861",68.38239,882.189
"3862",68.279854,882.2022
"3863",68.19684,882.21564
"3864",68.138245,882.2288
"3865",68.10162,882.24225
"3866",68.07721,882.25543
"3867",68.06256,882.26886
"3868",68.03815,882.28204
"3869",67.999084,882.2955
"3870",67.94049,882.30865
"3871",67.87457,882.3221
"3872",67.879456,882.33527
"3873",68.18707,882.3487
"3874",69.25887,882.3619
"3875",71.68322,882.3753
"3876",75.88495,882.3885
"3877",81.83475,882.4019
"3878",88.93202,882.4151
"3879",96.15625,882.4285
"3880",102.37217,882.4417
"3881",106.74967,882.45514
"3882",109.01289,882.4683
"3883",109.41573,882.48175
"3884",108.47822,882.49493
"3885",106.74967,882.50836
"3886",104.6598,882.52155
"3887",102.504005,882.535
"3888",100.48005,882.54816
"3889",98.70756,882.5616
"3890",97.213394,882.57477
"3891",95.938965,882.5882
"3892",94.767075,882.6014
"3893",93.575645,882.6148
"3894",92.29145,882.628
"3895",90.90959,882.6414
"3896",89.481346,882.6546
"3897",88.09216,882.668
"3898",86.81773,882.6812
"3899",85.697105,882.69464
"3900",84.73762,882.7078
"3901",83.91974,882.72125
"3902",83.209274,882.73444
"3903",82.547646,882.74786
"3904",81.87381,882.76105
"3905",81.13405,882.7745
"3906",80.291756,882.78766
"3907",79.33227,882.8011
"3908",78.27024,882.8143
"3909",77.13008,882.8277
"3910",75.948425,882.8409
"3911",74.759445,882.8543
"3912",73.60464,882.8675
"3913",72.51331,882.8809
"3914",71.505,882.8941
"3915",70.60166,882.90753
"3916",69.81796,882.9207
"3917",69.15877,882.93414
"3918",68.62409,882.9473
"3919",68.209045,882.96075
"3920",67.90387,882.97394
"3921",67.69146,882.98737
"3922",67.5523,883.00055
"3923",67.46929,883.014
"3924",67.42779,883.02716
"3925",67.40093,883.0406
"3926",67.37408,883.0538
"3927",67.33257,883.0672
"3928",67.27398,883.0804
"3929",67.20073,883.0938
"3930",67.12016,883.107
"3931",67.0396,883.1204
"3932",66.97368,883.1336
"3933",66.88335,883.1602
"3934",66.861374,883.17365
"3935",66.85161,883.1868
"3936",66.85893,883.20026
"3937",66.8687,883.21344
"3938",66.880905,883.22687
"3939",66.88579,883.24005
"3940",66.88335,883.2535
"3941",66.88823,883.26666
"3942",67.00542,883.2801
"3943",67.50591,883.2933
"3944",68.88533,883.3067
"3945",71.744255,883.3199
"3946",76.4831,883.3333
"3947",82.99931,883.3465
"3948",90.616615,883.3599
"3949",98.24368,883.3731
"3950",104.708626,883.38654
"3951",109.18135,883.3997
"3952",111.41772,883.41315
"3953",111.69848,883.42633
"3954",110.57786,883.43976
"3955",108.627144,883.45294
"3956",106.29069,883.4664
"3957",103.885864,883.47955
"3958",101.6202,883.493
"3959",99.613335,883.50616
"3960",97.89212,883.5196
"3961",96.40284,883.5328
"3962",95.04051,883.5462
"3963",93.70016,883.5594
"3964",92.315865,883.5728
"3965",90.88762,883.586
"3966",89.461815,883.5994
"3967",88.111694,883.6126
"3968",86.89586,883.62604
"3969",85.83383,883.6392
"3970",84.9305,883.65265
"3971",84.15167,883.66583
"3972",83.46075,883.67926
"3973",82.791794,883.69244
"3974",82.07889,883.7059
"3975",81.27566,883.71906
"3976",80.343025,883.7325
"3977",79.28588,883.74567
"3978",78.12131,883.7591
"3979",76.88594,883.7723
"3980",75.61883,883.7857
"3981",74.36149,883.7989
"3982",73.14809,883.8123
"3983",72.007935,883.8255
"3984",70.960556,883.8389
"3985",70.02548,883.8521
"3986",69.207596,883.86554
"3987",68.51179,883.8787
"3988",67.94293,883.89215
"3989",67.49859,883.90533
"3990",67.17143,883.91876
"3991",66.94682,883.93195
"3992",66.810104,883.9454
"3993",66.739296,883.95856
"3994",66.71244,883.972
"3995",66.70756,883.98517
"3996",66.71488,883.9986
"3997",66.72465,884.0118
"3998",66.73441,884.0252
"3999",66.74174,884.0384
"4000",66.75151,884.0518
"4001",66.758835,884.065
"4002",66.76372,884.0784
"4003",66.75639,884.0916
"4004",66.736855,884.10504
"4005",66.69535,884.1182
"4006",66.6392,884.13165
"4007",66.563515,884.14484
"4008",66.48783,884.15826
"4009",66.48783,884.17145
"4010",66.7686,884.1849
"4011",67.73785,884.19806
"4012",69.96445,884.2115
"4013",73.92935,884.2247
"4014",79.71801,884.2381
"4015",86.8568,884.2513
"4016",94.39597,884.2647
"4017",101.18318,884.2779
"4018",106.249176,884.2913
"4019",109.13252,884.3045
"4020",109.94064,884.31793
"4021",109.13985,884.3311
"4022",107.299,884.34454
"4023",104.91371,884.3577
"4024",102.345314,884.37115
"4025",99.83551,884.38434
"4026",97.52346,884.39777
"4027",95.47021,884.41095
"4028",93.65377,884.4244
"4029",92.02045,884.43756
"4030",90.51896,884.451
"4031",89.12489,884.4642
"4032",87.850464,884.4776
"4033",86.74204,884.4908
"4034",85.83627,884.5042
"4035",85.13313,884.5174
"4036",84.613106,884.5308
"4037",84.21759,884.544
"4038",83.87091,884.55743
"4039",83.49981,884.5706
"4040",83.038376,884.58405
"4041",82.425575,884.5972
"4042",81.6321,884.61066
"4043",80.66529,884.62384
"4044",79.554436,884.63727
"4045",78.33372,884.65045
"4046",77.049515,884.6639
"4047",75.75311,884.67706
"4048",74.476234,884.6905
"4049",73.255516,884.7037
"4050",72.12024,884.7171
"4051",71.09972,884.7303
"4052",70.21103,884.7437
"4053",69.47372,884.7569
"4054",68.89754,884.7703
"4055",68.47028,884.7835
"4056",68.189514,884.79694
"4057",68.033264,884.8101
"4058",67.97711,884.82355
"4059",67.984436,884.83673
"4060",68.033264,884.85016
"4061",68.08942,884.86334
"4062",68.121155,884.8768
"4063",68.11139,884.88995
"4064",68.05524,884.9034
"4065",67.95514,884.91656
"4066",67.85016,884.93
"4067",67.879456,884.9432
"4068",68.32136,884.9566
"4069",69.6202,884.9698
"4070",72.22034,884.9832
"4071",76.351265,884.9964
"4072",81.81033,885.0098
"4073",87.955444,885.023
"4074",93.86862,885.03644
"4075",98.65385,885.0496
"4076",101.73495,885.06305
"4077",102.994736,885.07623
"4078",102.69932,885.08966
"4079",101.28817,885.10284
"4080",99.21538,885.1163
"4081",96.832535,885.12946
"4082",94.39109,885.1429
"4083",92.04242,885.15607
"4084",89.864655,885.1695
"4085",87.87732,885.1827
"4086",86.07797,885.1961
"4087",84.46662,885.2093
"4088",83.07744,885.2227
"4089",81.95682,885.2359
"4090",81.15602,885.2493
"4091",80.69703,885.2625
"4092",80.55543,885.27594
"4093",80.65064,885.2891
"4094",80.87038,885.30255
"4095",81.08766,885.31573
"4096",81.18288,885.32916
"4097",81.07301,885.34235
"4098",80.709236,885.3558
"4099",80.08423,885.36896
"4100",79.22972,885.3824
"4101",78.20187,885.39557
"4102",77.05928,885.409
"4103",75.862976,885.4222
"4104",74.66422,885.4356
"4105",73.51186,885.4488
"4106",72.44251,885.4622
"4107",71.48058,885.4754
"4108",70.64561,885.48883
"4109",69.94736,885.502
"4110",69.38094,885.51544
"4111",68.94148,885.5286
"4112",68.61433,885.54205
"4113",68.370186,885.55524
"4114",68.1944,885.56866
"4115",68.067444,885.58185
"4116",68.01373,885.5953
"4117",68.15045,885.60846
"4118",68.753494,885.6219
"4119",70.24277,885.6351
"4120",73.02113,885.6485
"4121",77.23018,885.6617
"4122",82.59159,885.6751
"4123",88.41444,885.6883
"4124",93.81491,885.7017
"4125",97.99954,885.7149
"4126",100.526436,885.72833
"4127",101.39559,885.7415
"4128",100.93172,885.75494
"4129",99.56939,885.7681
"4130",97.69924,885.78156
"4131",95.61181,885.79474
"4132",93.51461,885.80817
"4133",91.53704,885.82135
"4134",89.74258,885.8348
"4135",88.128784,885.84796
"4136",86.66392,885.8614
"4137",85.30404,885.8746
"4138",84.04181,885.888
"4139",82.90898,885.9012
"4140",81.96658,885.9146
"4141",81.26101,885.9278
"4142",80.814224,885.9412
"4143",80.604256,885.9544
"4144",80.552986,885.96783
"4145",80.56519,885.981
"4146",80.54322,885.99445
"4147",80.39918,886.0076
"4148",80.08179,886.02106
"4149",79.56664,886.03424
"4150",78.86351,886.04767
"4151",78.009,886.06085
"4152",77.04219,886.0743
"4153",76.00702,886.08746
"4154",74.94499,886.1009
"4155",73.89517,886.1141
"4156",72.89174,886.1275
"4157",71.95911,886.1407
"4158",71.11925,886.1541
"4159",70.381935,886.1673
"4160",69.752045,886.1807
"4161",69.224686,886.1939
"4162",68.80476,886.20734
"4163",68.53132,886.2205
"4164",68.56306,886.23395
"4165",69.2198,886.24713
"4166",70.92638,886.26056
"4167",73.99283,886.27374
"4168",78.37278,886.2872
"4169",83.61944,886.30035
"4170",88.9662,886.3138
"4171",93.58297,886.32697
"4172",96.85939,886.3404
"4173",98.583046,886.3536
"4174",98.92485,886.367
"4175",98.24368,886.3802
"4176",96.92531,886.3936
"4177",95.27001,886.4068
"4178",93.521935,886.4202
"4179",91.844666,886.4334
"4180",90.33585,886.44684
"4181",89.01015,886.46
"4182",87.8114,886.47345
"4183",86.65659,886.48663
"4184",85.48226,886.50006
"4185",84.26887,886.51324
"4186",83.06035,886.5267
"4187",81.93973,886.53986
"4188",80.98268,886.5533
"4189",80.235596,886.56647
"4190",79.69604,886.5799
"4191",79.327385,886.5931
"4192",79.06615,886.6065
"4193",78.84154,886.6197
"4194",78.5803,886.6331
"4195",78.22629,886.6463
"4196",77.75021,886.6597
"4197",77.14229,886.6729
"4198",76.41474,886.68634
"4199",75.596855,886.6995
"4200",74.71305,886.71295
"4201",73.79263,886.72614
"4202",72.87465,886.73956
"4203",71.98352,886.75275
"4204",71.14122,886.7662
"4205",70.37461,886.77936
"4206",69.691,886.7928
"4207",69.09529,886.80597
"4208",68.607,886.8194
"4209",68.30671,886.8326
"4210",68.41169,886.846
"4211",69.27352,886.8592
"4212",71.28283,886.8726
"4213",74.60319,886.8858
"4214",79.03441,886.89923
"4215",84.01251,886.9124
"4216",88.77333,886.92584
"4217",92.613716,886.939
"4218",95.113754,886.95245
"4219",96.23682,886.96564
"4220",96.2417,886.97906
"4221",95.47509,886.99225
"4222",94.25437,887.0057
"4223",92.83101,887.01886
"4224",91.393,887.0323
"4225",90.05997,887.0455
"4226",88.87343,887.0589
"4227",87.78699,887.0721
"4228",86.71519,887.0855
"4229",85.57015,887.0987
"4230",84.31281,887.1121
"4231",82.96513,887.1253
"4232",81.61257,887.13873
"4233",80.36256,887.1519
"4234",79.30297,887.16534
"4235",78.48997,887.1785
"4236",77.92111,887.19196
"4237",77.557335,887.20514
"4238",77.32296,887.21857
"4239",77.13008,887.23175
"4240",76.893265,887.2452
"4241",76.54902,887.25836
"4242",76.068054,887.2718
"4243",75.45037,887.285
"4244",74.7277,887.2984
"4245",73.93179,887.3116
"4246",73.10658,887.325
"4247",72.28626,887.3382
"4248",71.502556,887.3516
"4249",70.77745,887.3648
"4250",70.12802,887.37823
"4251",69.56405,887.3914
"4252",69.09285,887.40485
"4253",68.7071,887.418
"4254",68.39948,887.43146
"4255",68.14801,887.44464
"4256",67.94537,887.45807
"4257",67.79401,887.47125
"4258",67.79889,887.4847
"4259",68.21393,887.49786
"4260",69.42977,887.5113
"4261",71.81262,887.5245
"4262",75.44305,887.5379
"4263",80.0061,887.5511
"4264",84.874344,887.5645
"4265",89.288475,887.5777
"4266",92.62104,887.5911
"4267",94.58396,887.6043
"4268",95.26757,887.61774
"4269",94.99657,887.6309
"4270",94.117645,887.64435
"4271",92.92622,887.65753
"4272",91.646904,887.67096
"4273",90.43351,887.68414
"4274",89.356834,887.6976
"4275",88.40955,887.71075
"4276",87.51354,887.7242
"4277",86.56138,887.73737
"4278",85.46761,887.7508
"4279",84.210266,887.764
"4280",82.83818,887.7774
"4281",81.45144,887.7906
"4282",80.16968,887.804
"4283",79.09056,887.8172
"4284",78.2678,887.8306
"4285",77.70382,887.8438
"4286",77.35714,887.85724
"4287",77.14961,887.8704
"4288",76.98604,887.88385
"4289",76.78584,887.89703
"4290",76.47578,887.91046
"4291",76.02411,887.92365
"4292",75.43572,887.9371
"4293",74.73258,887.95026
"4294",73.94644,887.9637
"4295",73.11391,887.97687
"4296",72.2765,887.9903
"4297",71.465935,888.0035
"4298",70.70908,888.0169
"4299",70.030365,888.0301
"4300",69.44198,888.0435
"4301",68.95857,888.0567
"4302",68.58747,888.0701
"4303",68.33112,888.0833
"4304",68.189514,888.09674
"4305",68.157776,888.1099
"4306",68.21637,888.12335
"4307",68.336006,888.13654
"4308",68.49714,888.14996
"4309",68.66804,888.16315
"4310",68.82185,888.1766
"4311",68.9366,888.18976
"4312",68.99519,888.2032
"4313",68.98543,888.2164
"4314",68.90486,888.2298
"4315",68.770584,888.243
"4316",68.646065,888.2564
"4317",68.72175,888.2696
"4318",69.37118,888.283
"4319",71.07286,888.2962
"4320",74.15152,888.30963
"4321",78.54124,888.3228
"4322",83.7293,888.33624
"4323",88.91249,888.3494
"4324",93.260704,888.36285
"4325",96.200195,888.37604
"4326",97.60891,888.38947
"4327",97.74807,888.40265
"4328",97.040054,888.4161
"4329",95.86084,888.42926
"4330",94.49363,888.4427
"4331",93.14595,888.4559
"4332",91.935,888.4693
"4333",90.90471,888.4825
"4334",90.003815,888.4959
"4335",89.13954,888.5091
"4336",88.20203,888.5225
"4337",87.12535,888.5357
"4338",85.907074,888.54913
"4339",84.61799,888.5623
"4340",83.37774,888.57574
"4341",82.30839,888.5889
"4342",81.478294,888.60236
"4343",80.90456,888.61554
"4344",80.54566,888.62897
"4345",80.32105,888.64215
"4346",80.130615,888.6556
"4347",79.89868,888.66876
"4348",79.58373,888.6822
"4349",79.17845,888.6954
"4350",78.6804,888.7088
"4351",78.10666,888.722
"4352",77.469444,888.7354
"4353",76.790726,888.7486
"4354",76.085144,888.762
"4355",75.38201,888.7752
"4356",74.71305,888.78864
"4357",74.10025,888.8018
"4358",73.548485,888.81525
"4359",73.06752,888.8284
"4360",72.65247,888.84186
"4361",72.30579,888.85504
"4362",72.01526,888.86847
"4363",71.77356,888.88165
"4364",71.568474,888.8951
"4365",71.397575,888.90826
"4366",71.25109,888.9217
"4367",71.13878,888.9349
"4368",71.06554,888.9483
"4369",71.03136,888.9615
"4370",71.03136,888.9749
"4371",71.04845,888.9881
"4372",71.06065,889.0015
"4373",71.06065,889.0147
"4374",71.0338,889.02814
"4375",70.97276,889.0413
"4376",70.87511,889.05475
"4377",70.75304,889.06793
"4378",70.62119,889.08136
"4379",70.53086,889.09454
"4380",70.66758,889.108
"4381",71.397575,889.12115
"4382",73.179825,889.1346
"4383",76.3122,889.14777
"4384",80.69703,889.1612
"4385",85.80942,889.1744
"4386",90.851,889.1878
"4387",95.011215,889.201
"4388",97.75296,889.2144
"4389",98.97612,889.2276
"4390",98.968796,889.241
"4391",98.15335,889.2542
"4392",96.89357,889.26764
"4393",95.465324,889.2808
"4394",94.063934,889.29425
"4395",92.80904,889.30743
"4396",91.74212,889.32086
"4397",90.8217,889.33405
"4398",89.95743,889.3475
"4399",89.04677,889.36066
"4400",88.009155,889.3741
"4401",86.83482,889.38727
"4402",85.57992,889.4007
"4403",84.34699,889.4139
"4404",83.23125,889.4273
"4405",82.31327,889.4405
"4406",81.617455,889.4539
"4407",81.13161,889.4671
"4408",80.80446,889.4805
"4409",80.56031,889.4937
"4410",80.31617,889.50714
"4411",80.0061,889.5203
"4412",79.57641,889.53375
"4413",79.012436,889.54694
"4414",78.32639,889.56036
"4415",77.55489,889.57355
"4416",76.7248,889.587
"4417",75.880066,889.60016
"4418",75.054855,889.6136
"4419",74.268715,889.6268
"4420",73.5436,889.6402
"4421",72.901505,889.6534
"4422",72.35218,889.6668
"4423",71.89807,889.68
"4424",71.5465,889.6934
"4425",71.30236,889.7066
"4426",71.15587,889.72003
"4427",71.09972,889.7332
"4428",71.12413,889.74664
"4429",71.202255,889.7598
"4430",71.30724,889.77325
"4431",71.41955,889.78644
"4432",71.50988,889.79987
"4433",71.55871,889.81305
"4434",71.551384,889.8265
"4435",71.47814,889.83966
"4436",71.33898,889.8531
"4437",71.14122,889.8663
"4438",70.91661,889.8797
"4439",70.750595,889.8929
"4440",70.87755,889.9063
"4441",71.692986,889.9195
"4442",73.616844,889.9329
"4443",76.85664,889.9461
"4444",81.21217,889.95953
"4445",86.099945,889.9727
"4446",90.72648,889.98615
"4447",94.36668,889.9993
"4448",96.61524,890.01276
"4449",97.47707,890.02594
"4450",97.254906,890.03937
"4451",96.33692,890.05255
"4452",95.04295,890.066
"4453",93.61471,890.07916
"4454",92.225525,890.0926
"4455",90.9926,890.1058
"4456",89.94278,890.1192
"4457",89.04677,890.1324
"4458",88.20691,890.1458
"4459",87.327995,890.159
"4460",86.35142,890.1724
"4461",85.28451,890.1856
"4462",84.17609,890.19904
"4463",83.123825,890.2122
"4464",82.20828,890.22565
"4465",81.480736,890.23883
"4466",80.95094,890.25226
"4467",80.59205,890.26544
"4468",80.35035,890.2789
"4469",80.14282,890.29205
"4470",79.903564,890.3055
"4471",79.569084,890.31866
"4472",79.11253,890.3321
"4473",78.53391,890.3453
"4474",77.85031,890.3587
"4475",77.0959,890.3719
"4476",76.299995,890.3853
"4477",75.494316,890.3985
"4478",74.71305,890.4119
"4479",73.97818,890.4251
"4480",73.30923,890.43854
"4481",72.72083,890.4517
"4482",72.2301,890.46515
"4483",71.83215,890.47833
"4484",71.53185,890.49176
"4485",71.32189,890.50494
"4486",71.19005,890.5184
"4487",71.11925,890.53156
"4488",71.08751,890.545
"4489",71.07774,890.55817
"4490",71.07774,890.5716
"4491",71.080185,890.5848
"4492",71.080185,890.5982
"4493",71.0753,890.6114
"4494",71.07042,890.6248
"4495",71.05821,890.638
"4496",71.04112,890.6514
"4497",71.01671,890.6646
"4498",70.98253,890.67804
"4499",70.93614,890.6912
"4500",70.872665,890.70465
"4501",70.78722,890.71783
"4502",70.674904,890.73126
"4503",70.54307,890.74445
"4504",70.42832,890.7579
"4505",70.49912,890.77106
"4506",71.12169,890.7845
"4507",72.78432,890.79767
"4508",75.880066,890.8111
"4509",80.4065,890.8243
"4510",85.892426,890.8377
"4511",91.50286,890.8509
"4512",96.327156,890.8643
"4513",99.69634,890.8775
"4514",101.400475,890.8909
"4515",101.66903,890.9041
"4516",100.93172,890.91754
"4517",99.615776,890.9307
"4518",98.03372,890.94415
"4519",96.410164,890.95734
"4520",94.908676,890.97076
"4521",93.61227,890.98395
"4522",92.53559,890.9974
"4523",91.60784,891.01056
"4524",90.71427,891.024
"4525",89.75235,891.0372
"4526",88.66834,891.0506
"4527",87.481804,891.0638
"4528",86.27085,891.0772
"4529",85.13069,891.0904
"4530",84.14435,891.1038
"4531",83.35821,891.117
"4532",82.76982,891.13043
"4533",82.34257,891.1436
"4534",82.01785,891.15704
"4535",81.71999,891.1702
"4536",81.3782,891.18365
"4537",80.936295,891.19684
"4538",80.36988,891.21027
"4539",79.676506,891.22345
"4540",78.873276,891.2369
"4541",77.996796,891.25006
"4542",77.08858,891.2635
"4543",76.175476,891.2767
"4544",75.29656,891.2901
"4545",74.47379,891.3033
"4546",73.72915,891.3167
"4547",73.06996,891.3299
"4548",72.51331,891.3433
"4549",72.06409,891.3565
"4550",71.7174,891.36993
"4551",71.47082,891.3831
"4552",71.309685,891.39655
"4553",71.21202,891.4097
"4554",71.15343,891.42316
"4555",71.12169,891.43634
"4556",71.09972,891.44977
"4557",71.08507,891.46295
"4558",71.07042,891.4764
"4559",71.05089,891.48956
"4560",71.026474,891.503
"4561",70.98741,891.5162
"4562",70.92882,891.5296
"4563",70.85069,891.5428
