"","ppg","time"
"1",79.16136,77.883224
"2",78.958725,77.89656
"3",78.81468,77.9099
"4",78.74387,77.92323
"5",78.74387,77.93657
"6",78.79515,77.949905
"7",78.87816,77.96324
"8",78.96849,77.97658
"9",79.05394,77.989914
"10",79.12718,78.00325
"11",79.185776,78.01659
"12",79.234604,78.02992
"13",79.27856,78.04326
"14",79.3225,78.056595
"15",79.38598,78.06993
"16",79.48119,78.08327
"17",79.61791,78.0966
"18",79.801025,78.10994
"19",80.008545,78.123276
"20",80.2063,78.13661
"21",80.36256,78.14995
"22",80.45533,78.163284
"23",80.482185,78.17662
"24",80.448006,78.18996
"25",80.37965,78.20329
"26",80.28687,78.21663
"27",80.18677,78.229965
"28",80.093994,78.2433
"29",80.01587,78.25664
"30",79.957275,78.26997
"31",79.92798,78.28331
"32",79.92554,78.296646
"33",79.94751,78.30998
"34",79.98413,78.32332
"35",80.028076,78.336655
"36",80.0647,78.34999
"37",80.076904,78.36333
"38",80.04028,78.37666
"39",79.94507,78.39
"40",79.7937,78.403336
"41",79.59106,78.41667
"42",79.35912,78.43001
"43",79.11986,78.443344
"44",78.88548,78.45668
"45",78.66819,78.47002
"46",78.470436,78.48335
"47",78.2971,78.49669
"48",78.14816,78.510025
"49",78.01633,78.52336
"50",77.90402,78.5367
"51",77.80881,78.55003
"52",77.733116,78.56337
"53",77.68917,78.576706
"54",77.68429,78.59004
"55",77.71603,78.60338
"56",77.76486,78.616714
"57",77.82834,78.63005
"58",77.8967,78.64339
"59",77.96994,78.65672
"60",78.04562,78.67006
"61",78.12863,78.683395
"62",78.21896,78.69673
"63",78.30442,78.71007
"64",78.382545,78.723404
"65",78.45335,78.73674
"66",78.51682,78.75008
"67",78.5803,78.76341
"68",78.6511,78.77675
"69",78.73899,78.790085
"70",78.853745,78.80342
"71",79.0222,78.81676
"72",79.2517,78.83009
"73",79.54223,78.84343
"74",79.86694,78.856766
"75",80.19409,78.8701
"76",80.4773,78.88344
"77",80.68238,78.896774
"78",80.78981,78.91011
"79",80.8069,78.92345
"80",80.75563,78.93678
"81",80.66773,78.95012
"82",80.55787,78.963455
"83",80.45533,78.97679
"84",80.37232,78.99013
"85",80.31129,79.00346
"86",80.26978,79.0168
"87",80.24048,79.030136
"88",80.218506,79.04347
"89",80.201416,79.05681
"90",80.19653,79.070145
"91",80.19653,79.08348
"92",80.20874,79.09682
"93",80.22583,79.11015
"94",80.25269,79.12349
"95",80.289314,79.136826
"96",80.3357,79.15016
"97",80.394295,79.1635
"98",80.45533,79.176834
"99",80.50904,79.19017
"100",80.54566,79.20351
"101",80.56519,79.21684
"102",80.57252,79.23018
"103",80.5774,79.243515
"104",80.57984,79.25685
"105",80.58961,79.27019
"106",80.59937,79.28352
"107",80.60914,79.29686
"108",80.604256,79.310196
"109",80.587166,79.32353
"110",80.55543,79.33687
"111",80.5066,79.350204
"112",80.445564,79.36354
"113",80.38209,79.37688
"114",80.31129,79.39021
"115",80.218506,79.40355
"116",80.096436,79.416885
"117",79.937744,79.43022
"118",79.75464,79.44356
"119",79.56176,79.456894
"120",79.38598,79.47023
"121",79.24437,79.48357
"122",79.14427,79.4969
"123",79.097885,79.51024
"124",79.11742,79.523575
"125",79.21263,79.53691
"126",79.3933,79.55025
"127",79.64721,79.56358
"128",79.94507,79.57692
"129",80.24292,79.590256
"130",80.51148,79.60359
"131",80.71656,79.61693
"132",80.84352,79.630264
"133",80.90456,79.6436
"134",80.90944,79.65694
"135",80.87526,79.67027
"136",80.82643,79.68361
"137",80.77272,79.696945
"138",80.709236,79.71028
"139",80.62867,79.72362
"140",80.51881,79.73695
"141",80.36988,79.75029
"142",80.18921,79.763626
"143",80.0061,79.77696
"144",79.84253,79.7903
"145",79.72289,79.803635
"146",79.656975,79.81697
"147",79.64721,79.83031
"148",79.66674,79.84364
"149",79.70336,79.85698
"150",79.73998,79.870316
"151",79.766846,79.88365
"152",79.77905,79.89699
"153",79.781494,79.910324
"154",79.77905,79.92366
"155",79.77417,79.937
"156",79.77173,79.95033
"157",79.76929,79.96367
"158",79.76929,79.977005
"159",79.77661,79.99034
"160",79.7937,80.00368
"161",79.815674,80.01701
"162",79.852295,80.03035
"163",79.8938,80.043686
"164",79.937744,80.05702
"165",79.98169,80.07036
"166",80.02319,80.083694
"167",80.062256,80.09703
"168",80.09888,80.11037
"169",80.1355,80.1237
"170",80.17456,80.13704
"171",80.218506,80.150375
"172",80.26002,80.16371
"173",80.29664,80.17705
"174",80.325935,80.190384
"175",80.34791,80.20372
"176",80.36988,80.21706
"177",80.411385,80.23039
"178",80.49683,80.24373
"179",80.63355,80.257065
"180",80.816666,80.2704
"181",81.024185,80.28374
"182",81.234146,80.29707
"183",81.41238,80.31041
"184",81.53689,80.323746
"185",81.59548,80.33708
"186",81.58816,80.35042
"187",81.532005,80.363754
"188",81.44167,80.37709
"189",81.33425,80.39043
"190",81.22682,80.40376
"191",81.129166,80.4171
"192",81.0486,80.430435
"193",80.98024,80.44377
"194",80.919205,80.45711
"195",80.86549,80.47044
"196",80.816666,80.48378
"197",80.77272,80.497116
"198",80.74586,80.51045
"199",80.743416,80.52379
"200",80.765396,80.537125
"201",80.80934,80.55046
"202",80.87038,80.5638
"203",80.93385,80.57713
"204",80.99245,80.59047
"205",81.04372,80.603806
"206",81.08766,80.61714
"207",81.12184,80.63048
"208",81.15358,80.643814
"209",81.17799,80.65715
"210",81.19508,80.67049
"211",81.20485,80.68382
"212",81.20973,80.69716
"213",81.21217,80.710495
"214",81.21217,80.72383
"215",81.2195,80.73717
"216",81.231705,80.7505
"217",81.25124,80.76384
"218",81.27566,80.777176
"219",81.304955,80.79051
"220",81.33669,80.80385
"221",81.36599,80.817184
"222",81.3904,80.83052
"223",81.40505,80.84386
"224",81.41726,80.85719
"225",81.42458,80.87053
"226",81.427025,80.883865
"227",81.43435,80.8972
"228",81.45876,80.91054
"229",81.514915,80.923874
"230",81.62234,80.93721
"231",81.778595,80.95055
"232",81.971466,80.96388
"233",82.16678,80.97722
"234",82.31571,80.990555
"235",82.37919,81.00389
"236",82.340126,81.01723
"237",82.21561,81.03056
"238",82.03006,81.0439
"239",81.81766,81.057236
"240",81.61257,81.07057
"241",81.43435,81.08391
"242",81.29519,81.097244
"243",81.18776,81.11058
"244",81.09987,81.12392
"245",81.0193,81.13725
"246",80.938736,81.15059
"247",80.85573,81.163925
"248",80.77272,81.17726
"249",80.706795,81.1906
"250",80.66529,81.20393
"251",80.65064,81.21727
"252",80.65797,81.230606
"253",80.67994,81.24394
"254",80.69459,81.25728
"255",80.69703,81.270615
"256",80.67506,81.28395
"257",80.63355,81.29729
"258",80.57496,81.31062
"259",80.50416,81.32396
"260",80.42359,81.337296
"261",80.343025,81.35063
"262",80.2649,81.36397
"263",80.19165,81.377304
"264",80.128174,81.39064
"265",80.06958,81.40398
"266",80.02319,81.41731
"267",79.98657,81.43065
"268",79.96216,81.443985
"269",79.95239,81.45732
"270",79.954834,81.47066
"271",79.971924,81.48399
"272",79.98901,81.49733
"273",79.99878,81.510666
"274",80.00122,81.524
"275",79.9939,81.53734
"276",79.97925,81.550674
"277",79.9646,81.56401
"278",79.94751,81.57735
"279",79.94263,81.59068
"280",79.95972,81.60402
"281",80.02075,81.617355
"282",80.13306,81.63069
"283",80.2942,81.64403
"284",80.48951,81.657364
"285",80.689705,81.6707
"286",80.848404,81.68404
"287",80.938736,81.69737
"288",80.9485,81.71071
"289",80.885025,81.724045
"290",80.76784,81.73738
"291",80.62379,81.75072
"292",80.47242,81.76405
"293",80.3357,81.77739
"294",80.22095,81.790726
"295",80.130615,81.80406
"296",80.059814,81.8174
"297",80.00366,81.830734
"298",79.94995,81.84407
"299",79.888916,81.85741
"300",79.81323,81.87074
"301",79.7351,81.88408
"302",79.65453,81.897415
"303",79.586174,81.91075
"304",79.53246,81.92409
"305",79.4934,81.93742
"306",79.46166,81.95076
"307",79.43969,81.964096
"308",79.415276,81.97743
"309",79.38842,81.99077
"310",79.3518,82.004105
"311",79.30541,82.01744
"312",79.24925,82.03078
"313",79.183334,82.04411
"314",79.114975,82.05745
"315",79.046616,82.070786
"316",78.98314,82.08412
"317",78.92943,82.09746
"318",78.89281,82.110794
"319",78.86595,82.12413
"320",78.84642,82.13747
"321",78.82933,82.1508
"322",78.81712,82.16414
"323",78.80736,82.177475
"324",78.802475,82.19081
"325",78.802475,82.20415
"326",78.8098,82.21748
"327",78.81224,82.23082
"328",78.81468,82.244156
"329",78.81712,82.25749
"330",78.81712,82.27083
"331",78.81712,82.284164
"332",78.81712,82.2975
"333",78.82445,82.31084
"334",78.86107,82.32417
"335",78.95384,82.33751
"336",79.12474,82.350845
"337",79.364006,82.36418
"338",79.64477,82.37752
"339",79.923096,82.390854
"340",80.15015,82.40419
"341",80.29664,82.41753
"342",80.35279,82.43086
"343",80.3357,82.4442
"344",80.272224,82.457535
"345",80.184326,82.47087
"346",80.08667,82.48421
"347",80.0061,82.49754
"348",79.94751,82.51088
"349",79.91333,82.524216
"350",79.89624,82.53755
"351",79.886475,82.55089
"352",79.871826,82.564224
"353",79.84253,82.57756
"354",79.801025,82.5909
"355",79.75464,82.60423
"356",79.708244,82.61757
"357",79.674065,82.630905
"358",79.64965,82.64424
"359",79.639885,82.65758
"360",79.64477,82.67091
"361",79.656975,82.68425
"362",79.66186,82.697586
"363",79.6643,82.71092
"364",79.65942,82.72426
"365",79.64233,82.737595
"366",79.61303,82.75093
"367",79.58373,82.76427
"368",79.551994,82.7776
"369",79.520256,82.79094
"370",79.4934,82.804276
"371",79.47143,82.81761
"372",79.45922,82.83095
"373",79.4519,82.844284
"374",79.44457,82.85762
"375",79.43725,82.87096
"376",79.429924,82.88429
"377",79.42504,82.89763
"378",79.42748,82.910965
"379",79.42748,82.9243
"380",79.429924,82.93764
"381",79.43481,82.95097
"382",79.43481,82.96431
"383",79.429924,82.977646
"384",79.429924,82.99098
"385",79.432365,83.00432
"386",79.432365,83.017654
"387",79.429924,83.03099
"388",79.42748,83.04433
"389",79.415276,83.05766
"390",79.40063,83.071
"391",79.39086,83.084335
"392",79.398186,83.09767
"393",79.44457,83.11101
"394",79.551994,83.124344
"395",79.73266,83.13768
"396",79.97681,83.15102
"397",80.24536,83.16435
"398",80.50172,83.17769
"399",80.69947,83.191025
"400",80.80934,83.20436
"401",80.833755,83.2177
"402",80.79469,83.23103
"403",80.706795,83.24437
"404",80.604256,83.257706
"405",80.50904,83.27104
"406",80.428474,83.28438
"407",80.36988,83.297714
"408",80.33082,83.31105
"409",80.308846,83.32439
"410",80.28687,83.33772
"411",80.255135,83.35106
"412",80.21118,83.364395
"413",80.15259,83.37773
"414",80.08667,83.39107
"415",80.028076,83.4044
"416",79.98413,83.41774
"417",79.96216,83.431076
"418",79.95972,83.44441
"419",79.971924,83.45775
"420",79.97925,83.471085
"421",79.97925,83.48442
"422",79.96704,83.49776
"423",79.937744,83.51109
"424",79.89624,83.52443
"425",79.84741,83.537766
"426",79.7937,83.5511
"427",79.73998,83.56444
"428",79.68383,83.577774
"429",79.635,83.59111
"430",79.59594,83.60445
"431",79.569084,83.61778
"432",79.551994,83.63112
"433",79.534904,83.644455
"434",79.517815,83.65779
"435",79.500725,83.67113
"436",79.48608,83.68446
"437",79.46899,83.6978
"438",79.45678,83.711136
"439",79.447014,83.72447
"440",79.43725,83.73781
"441",79.42504,83.751144
"442",79.415276,83.76448
"443",79.40307,83.77782
"444",79.39086,83.79115
"445",79.36889,83.80449
"446",79.33715,83.817825
"447",79.29565,83.83116
"448",79.256584,83.8445
"449",79.22484,83.857834
"450",79.21019,83.87117
"451",79.21507,83.88451
"452",79.25414,83.89784
"453",79.33715,83.91118
"454",79.47875,83.924515
"455",79.674065,83.93785
"456",79.91333,83.95119
"457",80.164795,83.96452
"458",80.38697,83.97786
"459",80.54322,83.991196
"460",80.621346,84.00453
"461",80.62623,84.01787
"462",80.57252,84.031204
"463",80.48707,84.04454
"464",80.396736,84.05788
"465",80.31617,84.07121
"466",80.25025,84.08455
"467",80.201416,84.097885
"468",80.16724,84.11122
"469",80.13794,84.12456
"470",80.1062,84.13789
"471",80.06714,84.15123
"472",80.02319,84.164566
"473",79.97925,84.1779
"474",79.940186,84.19124
"475",79.91577,84.204575
"476",79.91089,84.21791
"477",79.923096,84.23125
"478",79.94507,84.24458
"479",79.971924,84.25792
"480",79.98901,84.271255
"481",79.98901,84.28459
"482",79.971924,84.29793
"483",79.940186,84.311264
"484",79.89624,84.3246
"485",79.84741,84.33794
"486",79.801025,84.35127
"487",79.75464,84.36461
"488",79.71557,84.377945
"489",79.67895,84.39128
"490",79.64721,84.40462
"491",79.62524,84.41795
"492",79.61303,84.43129
"493",79.61303,84.444626
"494",79.61547,84.45796
"495",79.61791,84.4713
"496",79.622795,84.484634
"497",79.62768,84.49797
"498",79.62768,84.51131
"499",79.62768,84.52464
"500",79.63012,84.53798
"501",79.635,84.551315
"502",79.635,84.56465
"503",79.62524,84.57799
"504",79.61547,84.591324
"505",79.603264,84.60466
"506",79.59106,84.618
"507",79.586174,84.63133
"508",79.605705,84.64467
"509",79.66186,84.658005
"510",79.77417,84.67134
"511",79.95239,84.68468
"512",80.181885,84.69801
"513",80.428474,84.71135
"514",80.655525,84.724686
"515",80.816666,84.73802
"516",80.89235,84.75136
"517",80.88258,84.764694
"518",80.8069,84.77803
"519",80.69459,84.79137
"520",80.567635,84.8047
"521",80.45045,84.81804
"522",80.35279,84.831375
"523",80.274666,84.84471
"524",80.216064,84.85805
"525",80.164795,84.87138
"526",80.113525,84.88472
"527",80.059814,84.898056
"528",79.99878,84.91139
"529",79.937744,84.92473
"530",79.886475,84.938065
"531",79.84985,84.9514
"532",79.82788,84.96474
"533",79.823,84.97807
"534",79.83032,84.99141
"535",79.83765,85.004745
"536",79.84009,85.01808
"537",79.83276,85.03142
"538",79.81079,85.044754
"539",79.77661,85.05809
"540",79.73266,85.07143
"541",79.68627,85.08476
"542",79.64233,85.0981
"543",79.603264,85.111435
"544",79.569084,85.12477
"545",79.53979,85.13811
"546",79.51293,85.15144
"547",79.49096,85.16478
"548",79.47875,85.178116
"549",79.47875,85.19145
"550",79.48608,85.20479
"551",79.49584,85.218124
"552",79.50805,85.23146
"553",79.51293,85.2448
"554",79.51537,85.25813
"555",79.520256,85.27147
"556",79.52514,85.284805
"557",79.534904,85.29814
"558",79.54711,85.31148
"559",79.55688,85.324814
"560",79.55932,85.33815
"561",79.56176,85.35149
"562",79.55932,85.36482
"563",79.56176,85.37816
"564",79.571526,85.391495
"565",79.60082,85.40483
"566",79.67162,85.41817
"567",79.801025,85.4315
"568",79.9939,85.44484
"569",80.24048,85.458176
"570",80.51148,85.47151
"571",80.75563,85.48485
"572",80.936295,85.498184
"573",81.02663,85.51152
"574",81.03151,85.52486
"575",80.96315,85.53819
"576",80.85573,85.55153
"577",80.73365,85.564865
"578",80.621346,85.5782
"579",80.52613,85.59154
"580",80.45533,85.60487
"581",80.413826,85.61821
"582",80.39185,85.631546
"583",80.377205,85.64488
"584",80.35767,85.65822
"585",80.33082,85.671555
"586",80.28199,85.68489
"587",80.22583,85.69823
"588",80.16724,85.71156
"589",80.12085,85.7249
"590",80.08911,85.738235
"591",80.08179,85.75157
"592",80.08911,85.76491
"593",80.10376,85.778244
"594",80.111084,85.79158
"595",80.10864,85.80492
"596",80.08911,85.81825
"597",80.05249,85.83159
"598",80.01099,85.844925
"599",79.9646,85.85826
"600",79.91821,85.8716
"601",79.87427,85.88493
"602",79.835205,85.89827
"603",79.79614,85.911606
"604",79.75952,85.92494
"605",79.727776,85.93828
"606",79.69848,85.951614
"607",79.67895,85.96495
"608",79.66674,85.97829
"609",79.65942,85.99162
"610",79.66186,86.00496
"611",79.6643,86.018295
"612",79.66674,86.03163
"613",79.67162,86.04497
"614",79.676506,86.058304
"615",79.68139,86.07164
"616",79.68383,86.08498
"617",79.68383,86.09831
"618",79.68383,86.11165
"619",79.68383,86.124985
"620",79.68383,86.13832
"621",79.68627,86.15166
"622",79.68871,86.16499
"623",79.68871,86.17833
"624",79.691154,86.191666
"625",79.708244,86.205
"626",79.76196,86.21834
"627",79.87671,86.231674
"628",80.06714,86.24501
"629",80.323494,86.25835
"630",80.6067,86.27168
"631",80.87282,86.28502
"632",81.06813,86.298355
"633",81.163345,86.31169
"634",81.16579,86.32503
"635",81.09743,86.33836
"636",80.99245,86.3517
"637",80.87282,86.365036
"638",80.765396,86.37837
"639",80.6775,86.39171
"640",80.618904,86.405045
"641",80.57984,86.41838
"642",80.552986,86.43172
"643",80.52613,86.44505
"644",80.49195,86.45839
"645",80.44312,86.471725
"646",80.37232,86.48506
"647",80.2942,86.4984
"648",80.216064,86.511734
"649",80.15259,86.52507
"650",80.10864,86.53841
"651",80.08423,86.55174
"652",80.079346,86.56508
"653",80.08667,86.578415
"654",80.093994,86.59175
"655",80.09155,86.60509
"656",80.08179,86.61842
"657",80.05737,86.63176
"658",80.02075,86.645096
"659",79.97925,86.65843
"660",79.93286,86.67177
"661",79.89136,86.685104
"662",79.84985,86.69844
"663",79.81079,86.71178
"664",79.77417,86.72511
"665",79.74731,86.73845
"666",79.727776,86.751785
"667",79.72045,86.76512
"668",79.71557,86.77846
"669",79.71557,86.791794
"670",79.71313,86.80513
"671",79.708244,86.81847
"672",79.70092,86.8318
"673",79.693596,86.84514
"674",79.68627,86.858475
"675",79.676506,86.87181
"676",79.67162,86.88515
"677",79.66918,86.89848
"678",79.66674,86.91182
"679",79.66186,86.925156
"680",79.66186,86.93849
"681",79.65942,86.95183
"682",79.656975,86.965164
"683",79.65453,86.9785
"684",79.64965,86.99184
"685",79.64233,87.00517
"686",79.63012,87.01851
"687",79.635,87.031845
"688",79.67895,87.04518
"689",79.783936,87.05852
"690",79.9646,87.07185
"691",80.201416,87.08519
"692",80.46754,87.098526
"693",80.71412,87.11186
"694",80.89235,87.1252
"695",80.9778,87.138535
"696",80.970474,87.15187
"697",80.89479,87.16521
"698",80.77516,87.17854
"699",80.638435,87.19188
"700",80.50904,87.205215
"701",80.40406,87.21855
"702",80.32105,87.23189
"703",80.26002,87.245224
"704",80.21362,87.25856
"705",80.177,87.2719
"706",80.130615,87.28523
"707",80.07446,87.29857
"708",80.00366,87.311905
"709",79.92798,87.32524
"710",79.85718,87.33858
"711",79.801025,87.35191
"712",79.764404,87.36525
"713",79.744865,87.378586
"714",79.7351,87.39192
"715",79.73266,87.40526
"716",79.73022,87.418594
"717",79.727776,87.43193
"718",79.71313,87.44527
"719",79.68871,87.4586
"720",79.65209,87.47194
"721",79.605705,87.485275
"722",79.55688,87.49861
"723",79.50805,87.51195
"724",79.4641,87.52528
"725",79.42748,87.53862
"726",79.395744,87.551956
"727",79.37133,87.56529
"728",79.35424,87.57863
"729",79.33959,87.591965
"730",79.33227,87.6053
"731",79.3225,87.61864
"732",79.32006,87.63197
"733",79.32006,87.64531
"734",79.3225,87.658646
"735",79.32983,87.67198
"736",79.33959,87.68532
"737",79.344475,87.698654
"738",79.34936,87.71199
"739",79.35668,87.72533
"740",79.361565,87.73866
"741",79.364006,87.752
"742",79.36889,87.765335
"743",79.37133,87.77867
"744",79.36889,87.79201
"745",79.364006,87.80534
"746",79.35668,87.81868
"747",79.34692,87.832016
"748",79.34203,87.84535
"749",79.3518,87.85869
"750",79.38842,87.872025
"751",79.47143,87.88536
"752",79.62035,87.8987
"753",79.83276,87.91203
"754",80.09888,87.92537
"755",80.36988,87.938705
"756",80.61402,87.95204
"757",80.78737,87.96538
"758",80.87038,87.978714
"759",80.87038,87.99205
"760",80.8069,88.00539
"761",80.709236,88.01872
"762",80.59449,88.03206
"763",80.48707,88.045395
"764",80.40162,88.05873
"765",80.34058,88.07207
"766",80.30396,88.0854
"767",80.28199,88.09874
"768",80.26246,88.112076
"769",80.24048,88.12541
"770",80.20874,88.13875
"771",80.16724,88.152084
"772",80.12573,88.16542
"773",80.08911,88.17876
"774",80.06714,88.19209
"775",80.062256,88.20543
"776",80.06958,88.218765
"777",80.08423,88.2321
"778",80.093994,88.24544
"779",80.09888,88.25877
"780",80.08911,88.27211
"781",80.0647,88.285446
"782",80.025635,88.29878
"783",79.98169,88.31212
"784",79.93286,88.325455
"785",79.886475,88.33879
"786",79.84497,88.35213
"787",79.81323,88.36546
"788",79.78638,88.3788
"789",79.75952,88.392136
"790",79.73754,88.40547
"791",79.72045,88.41881
"792",79.7058,88.432144
"793",79.69604,88.44548
"794",79.68871,88.45882
"795",79.68383,88.47215
"796",79.68383,88.48549
"797",79.68871,88.498825
"798",79.69848,88.51216
"799",79.7058,88.5255
"800",79.71313,88.53883
"801",79.71557,88.55217
"802",79.71557,88.565506
"803",79.710686,88.57884
"804",79.70092,88.59218
"805",79.691154,88.605515
"806",79.676506,88.61885
"807",79.65942,88.63219
"808",79.64721,88.64552
"809",79.64477,88.65886
"810",79.6643,88.672195
"811",79.72289,88.68553
"812",79.84497,88.69887
"813",80.03784,88.712204
"814",80.28443,88.72554
"815",80.5481,88.73888
"816",80.78493,88.75221
"817",80.95094,88.76555
"818",81.02907,88.778885
"819",81.024185,88.79222
"820",80.955826,88.80556
"821",80.850845,88.81889
"822",80.73365,88.83223
"823",80.61646,88.845566
"824",80.51392,88.8589
"825",80.430916,88.87224
"826",80.36744,88.885574
"827",80.32105,88.89891
"828",80.27955,88.91225
"829",80.24048,88.92558
"830",80.198975,88.93892
"831",80.15747,88.952255
"832",80.12329,88.96559
"833",80.1062,88.97893
"834",80.10864,88.99226
"835",80.13306,89.0056
"836",80.164795,89.018936
"837",80.198975,89.03227
"838",80.22095,89.04561
"839",80.22095,89.058945
"840",80.201416,89.07228
"841",80.15991,89.08562
"842",80.10376,89.09895
"843",80.04028,89.11229
"844",79.974365,89.125626
"845",79.91821,89.13896
"846",79.869385,89.1523
"847",79.82544,89.165634
"848",79.79126,89.17897
"849",79.75708,89.19231
"850",79.725334,89.20564
"851",79.70092,89.21898
"852",79.68627,89.232315
"853",79.68383,89.24565
"854",79.68871,89.25899
"855",79.69848,89.27232
"856",79.710686,89.28566
"857",79.72045,89.298996
"858",79.727776,89.31233
"859",79.727776,89.32567
"860",79.72289,89.339005
"861",79.708244,89.35234
"862",79.68871,89.36568
"863",79.66918,89.37901
"864",79.65453,89.39235
"865",79.65453,89.405685
"866",79.67895,89.41902
"867",79.74975,89.43236
"868",79.886475,89.445694
"869",80.08179,89.45903
"870",80.32105,89.47237
"871",80.567635,89.4857
"872",80.782486,89.49904
"873",80.92409,89.512375
"874",80.97536,89.52571
"875",80.94362,89.53905
"876",80.85329,89.55238
"877",80.72877,89.56572
"878",80.59205,89.579056
"879",80.465096,89.59239
"880",80.365,89.60573
"881",80.29908,89.619064
"882",80.25025,89.6324
"883",80.21362,89.64574
"884",80.177,89.65907
"885",80.14038,89.67241
"886",80.096436,89.685745
"887",80.05737,89.69908
"888",80.028076,89.71242
"889",80.01587,89.72575
"890",80.01587,89.73909
"891",80.03052,89.752426
"892",80.05005,89.76576
"893",80.06714,89.7791
"894",80.076904,89.792435
"895",80.07446,89.80577
"896",80.05249,89.81911
"897",80.01587,89.83244
"898",79.96704,89.84578
"899",79.91821,89.859116
"900",79.8645,89.87245
"901",79.81323,89.88579
"902",79.76929,89.899124
"903",79.73266,89.91246
"904",79.70092,89.9258
"905",79.68139,89.93913
"906",79.676506,89.95247
"907",79.676506,89.965805
"908",79.68139,89.97914
"909",79.68871,89.99248
"910",79.69604,90.00581
"911",79.69848,90.01915
"912",79.69604,90.032486
"913",79.693596,90.04582
"914",79.68627,90.05916
"915",79.674065,90.072495
"916",79.65942,90.08583
"917",79.64721,90.09917
"918",79.63256,90.1125
"919",79.62035,90.12584
"920",79.61547,90.139175
"921",79.63256,90.15251
"922",79.691154,90.16585
"923",79.818115,90.179184
"924",80.01587,90.19252
"925",80.26002,90.20586
"926",80.51881,90.21919
"927",80.743416,90.23253
"928",80.89479,90.245865
"929",80.95827,90.2592
"930",80.94606,90.27254
"931",80.87526,90.28587
"932",80.77272,90.29921
"933",80.66041,90.312546
"934",80.55543,90.32588
"935",80.465096,90.33922
"936",80.40406,90.352554
"937",80.36744,90.36589
"938",80.34791,90.37923
"939",80.32838,90.39256
"940",80.30396,90.4059
"941",80.26734,90.419235
"942",80.22095,90.43257
"943",80.16968,90.44591
"944",80.12573,90.45924
"945",80.093994,90.47258
"946",80.076904,90.485916
"947",80.07446,90.49925
"948",80.08423,90.51259
"949",80.096436,90.525925
"950",80.10376,90.53926
"951",80.10132,90.5526
"952",80.08667,90.56593
"953",80.059814,90.57927
"954",80.02075,90.592606
"955",79.97681,90.60594
"956",79.92798,90.61928
"957",79.88403,90.632614
"958",79.84253,90.64595
"959",79.80835,90.65929
"960",79.781494,90.67262
"961",79.764404,90.68596
"962",79.7522,90.699295
"963",79.74731,90.71263
"964",79.74731,90.72597
"965",79.74975,90.7393
"966",79.75464,90.75264
"967",79.75952,90.765976
"968",79.76196,90.77931
"969",79.76196,90.79265
"970",79.76196,90.805984
"971",79.764404,90.81932
"972",79.76196,90.83266
"973",79.75464,90.84599
"974",79.742424,90.85933
"975",79.725334,90.872665
"976",79.71557,90.886
"977",79.72289,90.89934
"978",79.764404,90.912674
"979",79.86206,90.92601
"980",80.025635,90.93935
"981",80.24536,90.95268
"982",80.49439,90.96602
"983",80.740974,90.979355
"984",80.94606,90.99269
"985",81.077896,91.00603
"986",81.12184,91.01936
"987",81.0901,91.0327
"988",81.007095,91.046036
"989",80.89967,91.05937
"990",80.782486,91.07271
"991",80.68238,91.086044
"992",80.6067,91.09938
"993",80.56275,91.11272
"994",80.53101,91.12605
"995",80.51392,91.13939
"996",80.49195,91.152725
"997",80.46021,91.16606
"998",80.40894,91.1794
"999",80.34791,91.19273
"1000",80.27955,91.20607
"1001",80.218506,91.219406
"1002",80.17212,91.23274
"1003",80.147705,91.24608
"1004",80.14038,91.259415
"1005",80.14526,91.27275
"1006",80.15503,91.28609
"1007",80.15991,91.29942
"1008",80.15259,91.31276
"1009",80.130615,91.326096
"1010",80.093994,91.33943
"1011",80.04761,91.35277
"1012",79.9939,91.366104
"1013",79.937744,91.37944
"1014",79.88159,91.39278
"1015",79.83765,91.40611
"1016",79.80347,91.41945
"1017",79.77661,91.432785
"1018",79.75952,91.44612
"1019",79.74731,91.45946
"1020",79.742424,91.47279
"1021",79.7351,91.48613
"1022",79.73022,91.499466
"1023",79.725334,91.5128
"1024",79.71801,91.52614
"1025",79.710686,91.539474
"1026",79.7058,91.55281
"1027",79.70092,91.56615
"1028",79.69848,91.57948
"1029",79.69604,91.59282
"1030",79.693596,91.606155
"1031",79.68871,91.61949
"1032",79.67895,91.63283
"1033",79.66674,91.646164
"1034",79.65453,91.6595
"1035",79.64965,91.67284
"1036",79.66674,91.68617
"1037",79.73266,91.69951
"1038",79.8645,91.712845
"1039",80.0647,91.72618
"1040",80.31373,91.73952
"1041",80.570076,91.75285
"1042",80.78493,91.76619
"1043",80.93385,91.779526
"1044",80.99733,91.79286
"1045",80.98512,91.8062
"1046",80.91188,91.819534
"1047",80.814224,91.83287
"1048",80.71168,91.84621
"1049",80.61646,91.85954
"1050",80.533455,91.87288
"1051",80.47486,91.886215
"1052",80.43336,91.89955
"1053",80.40406,91.91289
"1054",80.377205,91.92622
"1055",80.343025,91.93956
"1056",80.29664,91.952896
"1057",80.23804,91.96623
"1058",80.177,91.97957
"1059",80.12085,91.992905
"1060",80.079346,92.00624
"1061",80.05737,92.01958
"1062",80.05249,92.03291
"1063",80.05249,92.04625
"1064",80.05249,92.059586
"1065",80.045166,92.07292
"1066",80.025635,92.08626
"1067",79.99878,92.099594
"1068",79.95972,92.11293
"1069",79.91333,92.12627
"1070",79.869385,92.1396
"1071",79.82544,92.15294
"1072",79.77905,92.166275
"1073",79.7351,92.17961
"1074",79.693596,92.19295
"1075",79.656975,92.20628
"1076",79.62768,92.21962
"1077",79.60082,92.232956
"1078",79.586174,92.24629
"1079",79.57397,92.25963
"1080",79.5642,92.272964
"1081",79.55688,92.2863
"1082",79.54955,92.29964
"1083",79.53979,92.31297
"1084",79.534904,92.32631
"1085",79.53002,92.339645
"1086",79.52758,92.35298
"1087",79.52758,92.36632
"1088",79.52758,92.379654
"1089",79.52758,92.39299
"1090",79.53002,92.40633
"1091",79.53002,92.41966
"1092",79.5227,92.433
"1093",79.51049,92.446335
"1094",79.49828,92.45967
"1095",79.48608,92.47301
"1096",79.49584,92.48634
"1097",79.54467,92.49968
"1098",79.656975,92.513016
"1099",79.83765,92.52635
"1100",80.07446,92.53969
"1101",80.33326,92.553024
"1102",80.57496,92.56636
"1103",80.75563,92.5797
"1104",80.848404,92.59303
"1105",80.85329,92.60637
"1106",80.78737,92.619705
"1107",80.67994,92.63304
"1108",80.56275,92.64638
"1109",80.448006,92.65971
"1110",80.360115,92.67305
"1111",80.29664,92.686386
"1112",80.257576,92.69972
"1113",80.23071,92.71306
"1114",80.2063,92.726395
"1115",80.17456,92.73973
"1116",80.130615,92.75307
"1117",80.07202,92.7664
"1118",80.01343,92.77974
"1119",79.9646,92.793076
"1120",79.9353,92.80641
"1121",79.92554,92.81975
"1122",79.92798,92.833084
"1123",79.937744,92.84642
"1124",79.94507,92.85976
"1125",79.94263,92.87309
"1126",79.92798,92.88643
"1127",79.903564,92.899765
"1128",79.86694,92.9131
"1129",79.818115,92.92644
"1130",79.76929,92.93977
"1131",79.72045,92.95311
"1132",79.67162,92.966446
"1133",79.63256,92.97978
"1134",79.60082,92.99312
"1135",79.57885,93.006454
"1136",79.5642,93.01979
"1137",79.554436,93.03313
"1138",79.551994,93.04646
"1139",79.54955,93.0598
"1140",79.54955,93.073135
"1141",79.54955,93.08647
"1142",79.551994,93.09981
"1143",79.554436,93.113144
"1144",79.55688,93.12648
"1145",79.55932,93.13982
"1146",79.5642,93.15315
"1147",79.56664,93.16649
"1148",79.569084,93.179825
"1149",79.5642,93.19316
"1150",79.554436,93.2065
"1151",79.537346,93.21983
"1152",79.51537,93.23317
"1153",79.4934,93.246506
"1154",79.48119,93.25984
"1155",79.49096,93.27318
"1156",79.534904,93.286514
"1157",79.63256,93.29985
"1158",79.79614,93.31319
"1159",80.01343,93.32652
"1160",80.26246,93.33986
"1161",80.499275,93.353195
"1162",80.689705,93.36653
"1163",80.797134,93.37987
"1164",80.81911,93.3932
"1165",80.762955,93.40654
"1166",80.66041,93.419876
"1167",80.54322,93.43321
"1168",80.428474,93.44655
"1169",80.33082,93.459885
"1170",80.257576,93.47322
"1171",80.2063,93.48656
"1172",80.15991,93.49989
"1173",80.11597,93.51323
"1174",80.07202,93.526566
"1175",80.02319,93.5399
"1176",79.974365,93.55324
"1177",79.93286,93.566574
"1178",79.90845,93.57991
"1179",79.903564,93.59325
"1180",79.91089,93.60658
"1181",79.93042,93.61992
"1182",79.954834,93.633255
"1183",79.974365,93.64659
"1184",79.97681,93.65993
"1185",79.96216,93.67326
"1186",79.93286,93.6866
"1187",79.888916,93.699936
"1188",79.83765,93.71327
"1189",79.783936,93.72661
"1190",79.73266,93.739944
"1191",79.68627,93.75328
"1192",79.64965,93.76662
"1193",79.622795,93.77995
"1194",79.603264,93.79329
"1195",79.59106,93.806625
"1196",79.58373,93.81996
"1197",79.58129,93.8333
"1198",79.586174,93.846634
"1199",79.5935,93.85997
"1200",79.603264,93.87331
"1201",79.61059,93.88664
"1202",79.61547,93.89998
"1203",79.61547,93.913315
"1204",79.61303,93.92665
"1205",79.60815,93.93999
"1206",79.60082,93.95332
"1207",79.59106,93.96666
"1208",79.57885,93.979996
"1209",79.571526,93.99333
"1210",79.569084,94.00667
"1211",79.586174,94.020004
"1212",79.63744,94.03334
"1213",79.74731,94.04668
"1214",79.91577,94.06001
"1215",80.1355,94.07335
"1216",80.37965,94.086685
"1217",80.60914,94.10002
"1218",80.78493,94.11336
"1219",80.8777,94.12669
"1220",80.885025,94.14003
"1221",80.831314,94.153366
"1222",80.73365,94.1667
"1223",80.621346,94.18004
"1224",80.516365,94.193375
"1225",80.43336,94.20671
"1226",80.37476,94.22005
"1227",80.33326,94.23338
"1228",80.30396,94.24672
"1229",80.272224,94.260056
"1230",80.233154,94.27339
"1231",80.18921,94.28673
"1232",80.14282,94.300064
"1233",80.09888,94.3134
"1234",80.0647,94.32674
"1235",80.045166,94.34007
"1236",80.03784,94.35341
"1237",80.045166,94.366745
"1238",80.05005,94.38008
"1239",80.05493,94.39342
"1240",80.045166,94.40675
"1241",80.025635,94.42009
"1242",79.99634,94.433426
"1243",79.96216,94.44676
"1244",79.923096,94.4601
"1245",79.88159,94.473434
"1246",79.835205,94.48677
"1247",79.78882,94.50011
"1248",79.744865,94.51344
"1249",79.7058,94.52678
"1250",79.674065,94.540115
"1251",79.65209,94.55345
"1252",79.64233,94.56679
"1253",79.63744,94.580124
"1254",79.64233,94.59346
"1255",79.64721,94.6068
"1256",79.65453,94.62013
"1257",79.656975,94.63347
"1258",79.65942,94.646805
"1259",79.65453,94.66014
"1260",79.64721,94.67348
"1261",79.63744,94.68681
"1262",79.622795,94.70015
"1263",79.60082,94.713486
"1264",79.586174,94.72682
"1265",79.57641,94.74016
"1266",79.57641,94.753494
"1267",79.605705,94.76683
"1268",79.67895,94.78017
"1269",79.81079,94.7935
"1270",80.00122,94.80684
"1271",80.24048,94.820175
"1272",80.48951,94.83351
"1273",80.706795,94.84685
"1274",80.85573,94.86018
"1275",80.91676,94.87352
"1276",80.89967,94.886856
"1277",80.82887,94.90019
"1278",80.726326,94.91353
"1279",80.61646,94.926865
"1280",80.51881,94.9402
"1281",80.44068,94.95354
"1282",80.38941,94.96687
"1283",80.35523,94.98021
"1284",80.33082,94.993546
"1285",80.306404,95.00688
"1286",80.272224,95.02022
"1287",80.22095,95.033554
"1288",80.164795,95.04689
"1289",80.1062,95.06023
"1290",80.059814,95.07356
"1291",80.028076,95.0869
"1292",80.01831,95.100235
"1293",80.02075,95.11357
"1294",80.025635,95.12691
"1295",80.03296,95.14024
"1296",80.03296,95.15358
"1297",80.01587,95.166916
"1298",79.98901,95.18025
"1299",79.94995,95.19359
"1300",79.903564,95.206924
"1301",79.84985,95.22026
"1302",79.798584,95.2336
"1303",79.7522,95.24693
"1304",79.71313,95.26027
"1305",79.68139,95.273605
"1306",79.66186,95.28694
"1307",79.65209,95.30028
"1308",79.64965,95.313614
"1309",79.65453,95.32695
"1310",79.65942,95.34029
"1311",79.66674,95.35362
"1312",79.66918,95.36696
"1313",79.66674,95.380295
"1314",79.66186,95.39363
"1315",79.66186,95.40697
"1316",79.65942,95.4203
"1317",79.65942,95.43364
"1318",79.65942,95.446976
"1319",79.65453,95.46031
"1320",79.64233,95.47365
"1321",79.63012,95.486984
"1322",79.61547,95.50032
"1323",79.60815,95.51366
"1324",79.61791,95.52699
"1325",79.6643,95.54033
"1326",79.76929,95.553665
"1327",79.94751,95.567
"1328",80.18921,95.58034
"1329",80.45777,95.59367
"1330",80.71412,95.60701
"1331",80.90944,95.620346
"1332",81.01686,95.63368
"1333",81.03151,95.64702
"1334",80.9778,95.660355
"1335",80.88258,95.67369
"1336",80.77028,95.68703
"1337",80.66773,95.70036
"1338",80.584724,95.7137
"1339",80.53101,95.727036
"1340",80.5066,95.74037
"1341",80.49439,95.75371
"1342",80.48707,95.767044
"1343",80.46998,95.78038
"1344",80.43336,95.79372
"1345",80.37965,95.80705
"1346",80.31861,95.82039
"1347",80.257576,95.833725
"1348",80.21118,95.84706
"1349",80.181885,95.8604
"1350",80.17212,95.87373
"1351",80.16968,95.88707
"1352",80.16968,95.900406
"1353",80.164795,95.91374
"1354",80.147705,95.92708
"1355",80.11841,95.940414
"1356",80.08423,95.95375
"1357",80.045166,95.96709
"1358",80.00122,95.98042
"1359",79.957275,95.99376
"1360",79.91333,96.007095
"1361",79.87427,96.02043
"1362",79.835205,96.03377
"1363",79.801025,96.047104
"1364",79.77417,96.06044
"1365",79.7522,96.07378
"1366",79.73266,96.08711
"1367",79.72045,96.10045
"1368",79.71801,96.113785
"1369",79.72045,96.12712
"1370",79.72289,96.14046
"1371",79.727776,96.15379
"1372",79.725334,96.16713
"1373",79.72289,96.180466
"1374",79.71313,96.1938
"1375",79.7058,96.20714
"1376",79.69604,96.220474
"1377",79.68627,96.23381
"1378",79.674065,96.24715
"1379",79.6643,96.26048
"1380",79.656975,96.27382
"1381",79.656975,96.287155
"1382",79.66186,96.30049
"1383",79.68627,96.31383
"1384",79.74731,96.32716
"1385",79.85962,96.3405
"1386",80.03296,96.353836
"1387",80.26002,96.36717
"1388",80.50416,96.38051
"1389",80.72877,96.393845
"1390",80.88991,96.40718
"1391",80.96559,96.42052
"1392",80.96071,96.43385
"1393",80.88991,96.44719
"1394",80.780045,96.460526
"1395",80.66529,96.47386
"1396",80.56275,96.4872
"1397",80.479744,96.500534
"1398",80.42359,96.51387
"1399",80.394295,96.52721
"1400",80.37476,96.54054
"1401",80.35279,96.55388
"1402",80.323494,96.567215
"1403",80.274666,96.58055
"1404",80.216064,96.59389
"1405",80.15015,96.60722
"1406",80.093994,96.62056
"1407",80.05249,96.633896
"1408",80.028076,96.64723
"1409",80.02075,96.66057
"1410",80.02319,96.673904
"1411",80.01831,96.68724
"1412",80.0061,96.70058
"1413",79.97925,96.71391
"1414",79.937744,96.72725
"1415",79.886475,96.740585
"1416",79.835205,96.75392
"1417",79.783936,96.76726
"1418",79.7351,96.780594
"1419",79.693596,96.79393
"1420",79.65453,96.80727
"1421",79.61547,96.8206
"1422",79.58129,96.83394
"1423",79.554436,96.847275
"1424",79.537346,96.86061
"1425",79.53002,96.87395
"1426",79.52758,96.88728
"1427",79.52758,96.90062
"1428",79.52514,96.913956
"1429",79.520256,96.92729
"1430",79.51537,96.94063
"1431",79.517815,96.953964
"1432",79.517815,96.9673
"1433",79.520256,96.98064
"1434",79.52514,96.99397
"1435",79.52514,97.00731
"1436",79.520256,97.020645
"1437",79.51537,97.03398
"1438",79.50805,97.04732
"1439",79.4934,97.06065
"1440",79.47631,97.07399
"1441",79.4641,97.087326
"1442",79.45678,97.10066
"1443",79.45922,97.114
"1444",79.483635,97.127335
"1445",79.54955,97.14067
"1446",79.676506,97.15401
"1447",79.8645,97.16734
"1448",80.10376,97.18068
"1449",80.35767,97.194016
"1450",80.5774,97.20735
"1451",80.73121,97.22069
"1452",80.79469,97.234024
"1453",80.780045,97.24736
"1454",80.706795,97.2607
"1455",80.59937,97.27403
"1456",80.4773,97.28737
"1457",80.36744,97.300705
"1458",80.27955,97.31404
"1459",80.21362,97.32738
"1460",80.17456,97.34071
"1461",80.15503,97.35405
"1462",80.13794,97.367386
"1463",80.10864,97.38072
"1464",80.0647,97.39406
"1465",80.008545,97.407394
"1466",79.95239,97.42073
"1467",79.90845,97.43407
"1468",79.88403,97.4474
"1469",79.87915,97.46074
"1470",79.888916,97.474075
"1471",79.90112,97.48741
"1472",79.91089,97.50075
"1473",79.91333,97.514084
"1474",79.903564,97.52742
"1475",79.88403,97.54076
"1476",79.85474,97.55409
"1477",79.815674,97.56743
"1478",79.77173,97.580765
"1479",79.725334,97.5941
"1480",79.68139,97.60744
"1481",79.639885,97.62077
"1482",79.605705,97.63411
"1483",79.57885,97.647446
"1484",79.55932,97.66078
"1485",79.54955,97.67412
"1486",79.54955,97.687454
"1487",79.551994,97.70079
"1488",79.56176,97.71413
"1489",79.571526,97.72746
"1490",79.57641,97.7408
"1491",79.58129,97.754135
"1492",79.58129,97.76747
"1493",79.57641,97.78081
"1494",79.571526,97.79414
"1495",79.5642,97.80748
"1496",79.55932,97.820816
"1497",79.54955,97.83415
"1498",79.537346,97.84749
"1499",79.5227,97.860825
"1500",79.50561,97.87416
"1501",79.4934,97.8875
"1502",79.49584,97.90083
"1503",79.537346,97.91417
"1504",79.63256,97.927505
"1505",79.78882,97.94084
"1506",79.99634,97.95418
"1507",80.22827,97.967514
"1508",80.448006,97.98085
"1509",80.61646,97.99419
"1510",80.71168,98.00752
"1511",80.73121,98.02086
"1512",80.68482,98.034195
"1513",80.59205,98.04753
"1514",80.479744,98.06087
"1515",80.36744,98.0742
"1516",80.26734,98.08754
"1517",80.184326,98.100876
"1518",80.12573,98.11421
"1519",80.08179,98.12755
"1520",80.05005,98.140884
"1521",80.01831,98.15422
"1522",79.98657,98.16756
"1523",79.94751,98.18089
"1524",79.91089,98.19423
"1525",79.88159,98.207565
"1526",79.87427,98.2209
"1527",79.88403,98.23424
"1528",79.91089,98.247574
"1529",79.940186,98.26091
"1530",79.96704,98.27425
"1531",79.97925,98.28758
"1532",79.974365,98.30092
"1533",79.954834,98.314255
"1534",79.920654,98.32759
"1535",79.87671,98.34093
"1536",79.82788,98.35426
"1537",79.77661,98.3676
"1538",79.73022,98.380936
"1539",79.691154,98.39427
"1540",79.66674,98.40761
"1541",79.65209,98.420944
"1542",79.639885,98.43428
"1543",79.639885,98.44762
"1544",79.64477,98.46095
"1545",79.65453,98.47429
"1546",79.66186,98.487625
"1547",79.674065,98.50096
"1548",79.68383,98.5143
"1549",79.691154,98.52763
"1550",79.693596,98.54097
"1551",79.69604,98.554306
"1552",79.69604,98.56764
"1553",79.68871,98.58098
"1554",79.67895,98.594315
"1555",79.66918,98.60765
"1556",79.65453,98.62099
"1557",79.64233,98.63432
"1558",79.64721,98.64766
"1559",79.67895,98.660995
"1560",79.76196,98.67433
"1561",79.90845,98.68767
"1562",80.113525,98.701004
"1563",80.34547,98.71434
"1564",80.57496,98.72768
"1565",80.75563,98.74101
"1566",80.86305,98.75435
"1567",80.88991,98.767685
"1568",80.84596,98.78102
"1569",80.75319,98.79436
"1570",80.64088,98.80769
"1571",80.52613,98.82103
"1572",80.42603,98.834366
"1573",80.34547,98.8477
"1574",80.291756,98.86104
"1575",80.25025,98.874374
"1576",80.218506,98.88771
"1577",80.17944,98.90105
"1578",80.13306,98.91438
"1579",80.079346,98.92772
"1580",80.028076,98.941055
"1581",79.991455,98.95439
"1582",79.971924,98.96773
"1583",79.971924,98.981064
"1584",79.98413,98.9944
"1585",80.00122,99.00774
"1586",80.01343,99.02107
"1587",80.02075,99.03441
"1588",80.01587,99.047745
"1589",80.008545,99.06108
"1590",79.98901,99.07442
"1591",79.95239,99.08775
"1592",79.90112,99.10109
"1593",79.84741,99.114426
"1594",79.79614,99.12776
"1595",79.75464,99.1411
"1596",79.725334,99.154434
"1597",79.708244,99.16777
"1598",79.69604,99.18111
"1599",79.68383,99.19444
"1600",79.676506,99.20778
"1601",79.676506,99.221115
"1602",79.68383,99.23445
"1603",79.693596,99.24779
"1604",79.70336,99.26112
"1605",79.708244,99.27446
"1606",79.708244,99.287796
"1607",79.70336,99.30113
"1608",79.70092,99.31447
"1609",79.70092,99.327805
"1610",79.70092,99.34114
"1611",79.70092,99.35448
"1612",79.70336,99.36781
"1613",79.72045,99.38115
"1614",79.781494,99.394485
"1615",79.89868,99.40782
"1616",80.076904,99.42116
"1617",80.29908,99.434494
"1618",80.53101,99.44783
"1619",80.73121,99.46117
"1620",80.86549,99.4745
"1621",80.91432,99.48784
"1622",80.88991,99.501175
"1623",80.814224,99.51451
"1624",80.70435,99.52785
"1625",80.584724,99.54118
"1626",80.47486,99.55452
"1627",80.38209,99.567856
"1628",80.31373,99.58119
"1629",80.26734,99.59453
"1630",80.23071,99.607864
"1631",80.198975,99.6212
"1632",80.15747,99.63454
"1633",80.111084,99.64787
"1634",80.059814,99.66121
"1635",80.01587,99.674545
"1636",79.98657,99.68788
"1637",79.96948,99.70122
"1638",79.96216,99.714554
"1639",79.96704,99.72789
"1640",79.971924,99.74123
"1641",79.97681,99.75456
"1642",79.98169,99.7679
"1643",79.974365,99.781235
"1644",79.94995,99.79457
"1645",79.91577,99.80791
"1646",79.869385,99.82124
"1647",79.82056,99.83458
"1648",79.77173,99.847916
"1649",79.73266,99.86125
"1650",79.70092,99.87459
"1651",79.67895,99.887924
"1652",79.65942,99.90126
"1653",79.64477,99.9146
"1654",79.63256,99.92793
"1655",79.63012,99.94127
"1656",79.635,99.954605
"1657",79.64233,99.96794
"1658",79.656975,99.98128
"1659",79.67162,99.99461
"1660",79.68139,100.00795
"1661",79.68627,100.021286
"1662",79.68383,100.03462
"1663",79.67895,100.04796
"1664",79.66674,100.061295
"1665",79.65453,100.07463
"1666",79.65209,100.08797
"1667",79.68139,100.1013
"1668",79.75952,100.11464
"1669",79.90112,100.127975
"1670",80.10376,100.14131
"1671",80.343025,100.15465
"1672",80.5774,100.167984
"1673",80.765396,100.18132
"1674",80.8777,100.19466
"1675",80.907,100.20799
"1676",80.86549,100.22133
"1677",80.7776,100.234665
"1678",80.67017,100.248
"1679",80.56519,100.26134
"1680",80.4773,100.27467
"1681",80.40894,100.28801
"1682",80.36988,100.301346
"1683",80.34791,100.31468
"1684",80.33326,100.32802
"1685",80.308846,100.341354
"1686",80.26734,100.35469
"1687",80.20874,100.36803
"1688",80.14526,100.38136
"1689",80.08179,100.3947
"1690",80.03052,100.408035
"1691",79.99634,100.42137
"1692",79.98169,100.43471
"1693",79.98169,100.448044
"1694",79.98657,100.46138
"1695",79.991455,100.47472
"1696",79.98901,100.48805
"1697",79.97681,100.50139
"1698",79.954834,100.514725
"1699",79.91577,100.52806
"1700",79.869385,100.5414
"1701",79.82056,100.55473
"1702",79.77417,100.56807
"1703",79.73754,100.581406
"1704",79.710686,100.59474
"1705",79.69604,100.60808
"1706",79.68871,100.621414
"1707",79.68383,100.63475
"1708",79.676506,100.64809
"1709",79.66674,100.66142
"1710",79.656975,100.67476
"1711",79.65453,100.688095
"1712",79.65453,100.70143
"1713",79.66186,100.71477
"1714",79.66674,100.7281
"1715",79.66918,100.74144
"1716",79.66674,100.754776
"1717",79.65942,100.76811
"1718",79.64477,100.78145
"1719",79.63012,100.794785
"1720",79.61547,100.80812
"1721",79.605705,100.82146
"1722",79.61059,100.83479
"1723",79.65209,100.84813
"1724",79.75708,100.861465
"1725",79.92798,100.8748
"1726",80.16235,100.88814
"1727",80.42359,100.901474
"1728",80.66285,100.91481
"1729",80.84352,100.92815
"1730",80.936295,100.94148
"1731",80.94118,100.95482
"1732",80.88014,100.968155
"1733",80.782486,100.98149
"1734",80.672615,100.99483
"1735",80.567635,101.00816
"1736",80.48707,101.0215
"1737",80.4358,101.034836
"1738",80.411385,101.04817
"1739",80.40162,101.06151
"1740",80.394295,101.074844
"1741",80.37476,101.08818
"1742",80.33326,101.10152
"1743",80.272224,101.11485
"1744",80.201416,101.12819
"1745",80.1355,101.141525
"1746",80.08667,101.15486
"1747",80.05737,101.1682
"1748",80.042725,101.18153
"1749",80.03784,101.19487
"1750",80.03784,101.208206
"1751",80.03296,101.22154
"1752",80.028076,101.23488
"1753",80.01831,101.248215
"1754",79.9939,101.26155
"1755",79.95972,101.27489
"1756",79.91821,101.28822
"1757",79.86694,101.30156
"1758",79.815674,101.314896
"1759",79.77173,101.32823
"1760",79.73754,101.34157
"1761",79.710686,101.354904
"1762",79.693596,101.36824
"1763",79.68139,101.38158
"1764",79.66918,101.39491
"1765",79.6643,101.40825
"1766",79.66918,101.421585
"1767",79.676506,101.43492
"1768",79.68383,101.44826
"1769",79.69604,101.46159
"1770",79.708244,101.47493
"1771",79.71801,101.488266
"1772",79.72045,101.5016
"1773",79.72045,101.51494
"1774",79.71313,101.528275
"1775",79.7058,101.54161
"1776",79.693596,101.55495
"1777",79.67895,101.56828
"1778",79.66674,101.58162
"1779",79.656975,101.594955
"1780",79.65453,101.60829
"1781",79.68139,101.62163
"1782",79.75708,101.634964
"1783",79.90112,101.6483
"1784",80.113525,101.66164
"1785",80.36988,101.67497
"1786",80.62623,101.68831
"1787",80.8362,101.701645
"1788",80.96559,101.71498
"1789",81.00221,101.72832
"1790",80.96315,101.74165
"1791",80.87282,101.75499
"1792",80.75807,101.768326
"1793",80.64088,101.78166
"1794",80.54322,101.795
"1795",80.46998,101.808334
"1796",80.42359,101.82167
"1797",80.39918,101.83501
"1798",80.38697,101.84834
"1799",80.37232,101.86168
"1800",80.343025,101.875015
"1801",80.291756,101.88835
"1802",80.22827,101.90169
"1803",80.16235,101.91502
"1804",80.1062,101.92836
"1805",80.06958,101.941696
"1806",80.05005,101.95503
"1807",80.045166,101.96837
"1808",80.05005,101.981705
"1809",80.04761,101.99504
"1810",80.04028,102.00838
"1811",80.02075,102.02171
"1812",79.991455,102.03505
"1813",79.954834,102.048386
"1814",79.91577,102.06172
"1815",79.871826,102.07506
"1816",79.83032,102.088394
"1817",79.7937,102.10173
"1818",79.76196,102.11507
"1819",79.73754,102.1284
"1820",79.72045,102.14174
"1821",79.71313,102.155075
"1822",79.71313,102.16841
"1823",79.71313,102.18175
"1824",79.71313,102.19508
"1825",79.708244,102.20842
"1826",79.69848,102.221756
"1827",79.691154,102.23509
"1828",79.68383,102.24843
"1829",79.68139,102.261765
"1830",79.68139,102.2751
"1831",79.68383,102.28844
"1832",79.68139,102.30177
"1833",79.67895,102.31511
"1834",79.676506,102.328445
"1835",79.674065,102.34178
"1836",79.66674,102.35512
"1837",79.656975,102.368454
"1838",79.64721,102.38179
"1839",79.63256,102.39513
"1840",79.622795,102.40846
"1841",79.62035,102.4218
"1842",79.63256,102.435135
"1843",79.68139,102.44847
"1844",79.78882,102.46181
"1845",79.95972,102.47514
"1846",80.181885,102.48848
"1847",80.430916,102.501816
"1848",80.66773,102.51515
"1849",80.84108,102.52849
"1850",80.93385,102.541824
"1851",80.94606,102.55516
"1852",80.89479,102.5685
"1853",80.80202,102.58183
"1854",80.689705,102.59517
"1855",80.584724,102.608505
"1856",80.49439,102.62184
"1857",80.428474,102.63518
"1858",80.38209,102.64851
"1859",80.35279,102.66185
"1860",80.33082,102.675186
"1861",80.30152,102.68852
"1862",80.26002,102.70186
"1863",80.21118,102.715195
"1864",80.15747,102.72853
"1865",80.10864,102.74187
"1866",80.06958,102.7552
"1867",80.04761,102.76854
"1868",80.03296,102.781876
"1869",80.028076,102.79521
"1870",80.025635,102.80855
"1871",80.02075,102.821884
"1872",80.008545,102.83522
"1873",79.98413,102.84856
"1874",79.95239,102.86189
"1875",79.91089,102.87523
"1876",79.8645,102.888565
"1877",79.82056,102.9019
"1878",79.781494,102.91524
"1879",79.74731,102.92857
"1880",79.71557,102.94191
"1881",79.691154,102.955246
"1882",79.67162,102.96858
"1883",79.64965,102.98192
"1884",79.63012,102.995255
"1885",79.61059,103.00859
"1886",79.59838,103.02193
"1887",79.59106,103.03526
"1888",79.59106,103.0486
"1889",79.5935,103.061935
"1890",79.59594,103.07527
"1891",79.59838,103.08861
"1892",79.60082,103.101944
"1893",79.603264,103.11528
"1894",79.60082,103.12862
"1895",79.59838,103.14195
"1896",79.5935,103.15529
"1897",79.586174,103.168625
"1898",79.57885,103.18196
"1899",79.57397,103.1953
"1900",79.56176,103.20863
"1901",79.54711,103.22197
"1902",79.53246,103.235306
"1903",79.5227,103.24864
"1904",79.52514,103.26198
"1905",79.56176,103.275314
"1906",79.656975,103.28865
"1907",79.823,103.30199
"1908",80.04761,103.31532
"1909",80.30396,103.32866
"1910",80.55543,103.341995
"1911",80.743416,103.35533
"1912",80.848404,103.36867
"1913",80.86305,103.382
"1914",80.80446,103.39534
"1915",80.69703,103.408676
"1916",80.570076,103.42201
"1917",80.448006,103.43535
"1918",80.34058,103.448685
"1919",80.26002,103.46202
"1920",80.21118,103.47536
"1921",80.17944,103.48869
"1922",80.15259,103.50203
"1923",80.12329,103.515366
"1924",80.09155,103.5287
"1925",80.05005,103.54204
"1926",80.01099,103.555374
"1927",79.97681,103.56871
"1928",79.95239,103.58205
"1929",79.94263,103.59538
"1930",79.94263,103.60872
"1931",79.95239,103.622055
"1932",79.9646,103.63539
"1933",79.9646,103.64873
"1934",79.94995,103.66206
"1935",79.923096,103.6754
"1936",79.886475,103.688736
"1937",79.84741,103.70207
"1938",79.80835,103.71541
"1939",79.76929,103.728745
"1940",79.7351,103.74208
"1941",79.70336,103.75542
"1942",79.674065,103.76875
"1943",79.64721,103.78209
"1944",79.62768,103.795425
"1945",79.61059,103.80876
"1946",79.59594,103.8221
"1947",79.586174,103.835434
"1948",79.58373,103.84877
"1949",79.58373,103.86211
"1950",79.59106,103.87544
"1951",79.59838,103.88878
"1952",79.605705,103.902115
"1953",79.60815,103.91545
"1954",79.60815,103.92879
"1955",79.603264,103.94212
"1956",79.59106,103.95546
"1957",79.57641,103.968796
"1958",79.5642,103.98213
"1959",79.554436,103.99547
"1960",79.54711,104.008804
"1961",79.54467,104.02214
"1962",79.54467,104.03548
"1963",79.554436,104.04881
"1964",79.586174,104.06215
"1965",79.67162,104.075485
"1966",79.818115,104.08882
"1967",80.02319,104.10216
"1968",80.2649,104.11549
"1969",80.49683,104.12883
"1970",80.68482,104.142166
"1971",80.79469,104.1555
"1972",80.82155,104.16884
"1973",80.7776,104.182175
"1974",80.68726,104.19551
"1975",80.570076,104.20885
"1976",80.445564,104.22218
"1977",80.32838,104.23552
"1978",80.235596,104.248856
"1979",80.16235,104.26219
"1980",80.111084,104.27553
"1981",80.07202,104.288864
"1982",80.04028,104.3022
"1983",80.008545,104.31554
"1984",79.97681,104.32887
"1985",79.94751,104.34221
"1986",79.92798,104.355545
"1987",79.920654,104.36888
"1988",79.92798,104.38222
"1989",79.94507,104.39555
"1990",79.96948,104.40889
"1991",79.99634,104.422226
"1992",80.01343,104.43556
"1993",80.01099,104.4489
"1994",79.9939,104.462234
"1995",79.96216,104.47557
"1996",79.920654,104.48891
"1997",79.871826,104.50224
"1998",79.823,104.51558
"1999",79.77417,104.528915
"2000",79.73022,104.54225
"2001",79.68627,104.55559
"2002",79.65209,104.568924
"2003",79.63256,104.58226
"2004",79.622795,104.5956
"2005",79.62524,104.60893
"2006",79.635,104.62227
"2007",79.64965,104.635605
"2008",79.6643,104.64894
"2009",79.67895,104.66228
"2010",79.68627,104.67561
"2011",79.68871,104.68895
"2012",79.68383,104.702286
"2013",79.67162,104.71562
"2014",79.65453,104.72896
"2015",79.635,104.742294
"2016",79.622795,104.75563
"2017",79.61791,104.76897
"2018",79.62035,104.7823
"2019",79.64477,104.79564
"2020",79.710686,104.808975
"2021",79.83276,104.82231
"2022",80.01343,104.83565
"2023",80.24048,104.84898
"2024",80.479744,104.86232
"2025",80.69215,104.875656
"2026",80.83864,104.88899
"2027",80.902115,104.90233
"2028",80.885025,104.915665
"2029",80.814224,104.929
"2030",80.709236,104.94234
"2031",80.59449,104.95567
"2032",80.48707,104.96901
"2033",80.38941,104.982346
"2034",80.31617,104.99568
"2035",80.26734,105.00902
"2036",80.233154,105.022354
"2037",80.2063,105.03569
"2038",80.181885,105.04903
"2039",80.15015,105.06236
"2040",80.10864,105.0757
"2041",80.07202,105.089035
"2042",80.045166,105.10237
"2043",80.03052,105.11571
"2044",80.03296,105.12904
"2045",80.042725,105.14238
"2046",80.062256,105.155716
"2047",80.076904,105.16905
"2048",80.076904,105.18239
"2049",80.059814,105.195724
"2050",80.03052,105.20906
"2051",79.98901,105.2224
"2052",79.9353,105.23573
"2053",79.88403,105.24907
"2054",79.83765,105.262405
"2055",79.798584,105.27574
"2056",79.764404,105.28908
"2057",79.73998,105.302414
"2058",79.72289,105.31575
"2059",79.710686,105.32909
"2060",79.70092,105.34242
"2061",79.69604,105.35576
"2062",79.69848,105.369095
"2063",79.70336,105.38243
"2064",79.71313,105.39577
"2065",79.725334,105.4091
"2066",79.73266,105.42244
"2067",79.7351,105.435776
"2068",79.7351,105.44911
"2069",79.73022,105.46245
"2070",79.72045,105.475784
"2071",79.7058,105.48912
"2072",79.69604,105.50246
"2073",79.68871,105.51579
"2074",79.693596,105.52913
"2075",79.73266,105.542465
"2076",79.82788,105.5558
"2077",79.9939,105.56914
"2078",80.21362,105.58247
"2079",80.462654,105.59581
"2080",80.70435,105.609146
"2081",80.89235,105.62248
"2082",80.99733,105.63582
"2083",81.01686,105.649155
"2084",80.970474,105.66249
"2085",80.87526,105.67583
"2086",80.75807,105.68916
"2087",80.64332,105.7025
"2088",80.54566,105.715836
"2089",80.47242,105.72917
"2090",80.42603,105.74251
"2091",80.39918,105.755844
"2092",80.37476,105.76918
"2093",80.34791,105.78252
"2094",80.31129,105.79585
"2095",80.26734,105.80919
"2096",80.22339,105.822525
"2097",80.184326,105.83586
"2098",80.15259,105.8492
"2099",80.130615,105.86253
"2100",80.11841,105.87587
"2101",80.113525,105.889206
"2102",80.10376,105.90254
"2103",80.093994,105.91588
"2104",80.076904,105.929214
"2105",80.05249,105.94255
"2106",80.02319,105.95589
"2107",79.99634,105.96922
"2108",79.96216,105.98256
"2109",79.92798,105.995895
"2110",79.8938,106.00923
"2111",79.85962,106.02257
"2112",79.82544,106.035904
"2113",79.801025,106.04924
"2114",79.781494,106.06258
"2115",79.766846,106.07591
"2116",79.75464,106.08925
"2117",79.744865,106.102585
"2118",79.7351,106.11592
"2119",79.73022,106.12926
"2120",79.725334,106.14259
"2121",79.725334,106.15593
"2122",79.727776,106.169266
"2123",79.73266,106.1826
"2124",79.73022,106.19594
"2125",79.72045,106.209274
"2126",79.70336,106.22261
"2127",79.68139,106.23595
"2128",79.65942,106.24928
"2129",79.64721,106.26262
"2130",79.656975,106.275955
"2131",79.70092,106.28929
"2132",79.801025,106.30263
"2133",79.9646,106.31596
"2134",80.17944,106.3293
"2135",80.42115,106.342636
"2136",80.6482,106.35597
"2137",80.82155,106.36931
"2138",80.91432,106.382645
"2139",80.92897,106.39598
"2140",80.87526,106.40932
"2141",80.782486,106.42265
"2142",80.672615,106.43599
"2143",80.56519,106.449326
"2144",80.46998,106.46266
"2145",80.39185,106.476
"2146",80.3357,106.489334
"2147",80.29908,106.50267
"2148",80.26734,106.51601
"2149",80.233154,106.52934
"2150",80.19409,106.54268
"2151",80.14038,106.556015
"2152",80.076904,106.56935
"2153",80.01587,106.58269
"2154",79.96704,106.59602
"2155",79.93286,106.60936
"2156",79.91821,106.622696
"2157",79.91577,106.63603
"2158",79.91821,106.64937
"2159",79.91821,106.662704
"2160",79.91089,106.67604
"2161",79.8938,106.68938
"2162",79.86694,106.70271
"2163",79.82788,106.71605
"2164",79.78882,106.729385
"2165",79.744865,106.74272
"2166",79.708244,106.75606
"2167",79.66918,106.769394
"2168",79.63744,106.78273
"2169",79.60815,106.79607
"2170",79.59106,106.8094
"2171",79.58129,106.82274
"2172",79.58129,106.836075
"2173",79.58373,106.84941
"2174",79.588615,106.86275
"2175",79.59594,106.87608
"2176",79.60082,106.88942
"2177",79.605705,106.902756
"2178",79.61059,106.91609
"2179",79.61303,106.92943
"2180",79.60815,106.942764
"2181",79.59838,106.9561
"2182",79.586174,106.96944
"2183",79.571526,106.98277
"2184",79.56176,106.99611
"2185",79.55688,107.009445
"2186",79.551994,107.02278
"2187",79.551994,107.03612
"2188",79.56176,107.04945
"2189",79.5935,107.06279
"2190",79.66918,107.076126
"2191",79.80591,107.08946
"2192",80.00122,107.1028
"2193",80.24048,107.116135
"2194",80.48463,107.12947
"2195",80.69215,107.14281
"2196",80.82643,107.15614
"2197",80.87038,107.16948
"2198",80.83864,107.182816
"2199",80.75563,107.19615
"2200",80.64332,107.20949
"2201",80.52857,107.222824
"2202",80.428474,107.23616
"2203",80.35035,107.2495
"2204",80.29664,107.26283
"2205",80.26002,107.27617
"2206",80.235596,107.289505
"2207",80.20874,107.30284
"2208",80.16968,107.31618
"2209",80.12085,107.32951
"2210",80.0647,107.34285
"2211",80.01831,107.356186
"2212",79.98413,107.36952
"2213",79.971924,107.38286
"2214",79.98169,107.396194
"2215",79.99878,107.40953
"2216",80.01343,107.42287
"2217",80.02075,107.4362
"2218",80.01587,107.44954
"2219",79.991455,107.462875
"2220",79.954834,107.47621
"2221",79.906006,107.48955
"2222",79.85474,107.502884
"2223",79.80591,107.51622
"2224",79.76196,107.52956
"2225",79.727776,107.54289
"2226",79.69604,107.55623
"2227",79.67162,107.569565
"2228",79.64965,107.5829
"2229",79.63744,107.59624
"2230",79.62768,107.60957
"2231",79.63012,107.62291
"2232",79.635,107.636246
"2233",79.64233,107.64958
"2234",79.64233,107.66292
"2235",79.64233,107.676254
"2236",79.63744,107.68959
"2237",79.635,107.70293
"2238",79.63256,107.71626
"2239",79.62768,107.7296
"2240",79.62524,107.742935
"2241",79.62035,107.75627
"2242",79.61059,107.76961
"2243",79.5935,107.78294
"2244",79.57641,107.79628
"2245",79.55932,107.809616
"2246",79.554436,107.82295
"2247",79.571526,107.83629
"2248",79.63012,107.849625
"2249",79.74731,107.86296
"2250",79.92554,107.8763
"2251",80.15015,107.88963
"2252",80.39185,107.90297
"2253",80.60914,107.916306
"2254",80.765396,107.92964
"2255",80.83864,107.94298
"2256",80.82643,107.956314
"2257",80.75319,107.96965
"2258",80.65308,107.98299
"2259",80.54078,107.99632
"2260",80.44068,108.00966
"2261",80.360115,108.022995
"2262",80.29664,108.03633
"2263",80.2478,108.04967
"2264",80.20874,108.063
"2265",80.16968,108.07634
"2266",80.128174,108.089676
"2267",80.08423,108.10301
"2268",80.0354,108.11635
"2269",79.99878,108.129684
"2270",79.974365,108.14302
"2271",79.971924,108.15636
"2272",79.98657,108.16969
"2273",80.008545,108.18303
"2274",80.028076,108.196365
"2275",80.0354,108.2097
"2276",80.028076,108.22304
"2277",80.0061,108.236374
"2278",79.96704,108.24971
"2279",79.91821,108.26305
"2280",79.869385,108.27638
"2281",79.823,108.28972
"2282",79.77661,108.303055
"2283",79.73754,108.31639
"2284",79.70336,108.32973
"2285",79.676506,108.34306
"2286",79.66186,108.3564
"2287",79.65942,108.369736
"2288",79.66674,108.38307
"2289",79.67162,108.39641
"2290",79.67895,108.409744
"2291",79.68139,108.42308
"2292",79.68139,108.43642
"2293",79.68139,108.44975
"2294",79.68383,108.46309
"2295",79.68383,108.476425
"2296",79.68383,108.48976
"2297",79.68383,108.5031
"2298",79.68627,108.51643
"2299",79.691154,108.52977
"2300",79.691154,108.543106
"2301",79.68627,108.55644
"2302",79.676506,108.56978
"2303",79.66186,108.583115
"2304",79.64721,108.59645
"2305",79.64477,108.60979
"2306",79.66674,108.62312
"2307",79.73998,108.63646
"2308",79.87671,108.649796
"2309",80.08179,108.66313
"2310",80.3357,108.67647
"2311",80.59449,108.689804
"2312",80.80934,108.70314
"2313",80.9485,108.71648
"2314",80.99733,108.72981
"2315",80.96559,108.74315
"2316",80.88258,108.756485
"2317",80.77028,108.76982
"2318",80.6482,108.78316
"2319",80.5359,108.79649
"2320",80.45289,108.80983
"2321",80.40406,108.823166
"2322",80.37965,108.8365
"2323",80.36988,108.84984
"2324",80.35767,108.863174
"2325",80.32838,108.87651
"2326",80.28199,108.88985
"2327",80.22339,108.90318
"2328",80.16235,108.91652
"2329",80.111084,108.929855
"2330",80.07446,108.94319
"2331",80.05737,108.95653
"2332",80.05737,108.969864
"2333",80.062256,108.9832
"2334",80.06714,108.99654
"2335",80.06714,109.00987
"2336",80.05493,109.02321
"2337",80.03296,109.036545
"2338",79.9939,109.04988
"2339",79.94995,109.06322
"2340",79.90112,109.07655
"2341",79.852295,109.08989
"2342",79.81079,109.103226
"2343",79.77661,109.11656
"2344",79.7522,109.1299
"2345",79.7351,109.143234
"2346",79.72289,109.15657
"2347",79.710686,109.16991
"2348",79.7058,109.18324
"2349",79.7058,109.19658
"2350",79.708244,109.209915
"2351",79.710686,109.22325
"2352",79.71313,109.23659
"2353",79.71313,109.24992
"2354",79.7058,109.26326
"2355",79.70092,109.276596
"2356",79.69848,109.28993
"2357",79.69848,109.30327
"2358",79.69848,109.316605
"2359",79.69604,109.32994
"2360",79.693596,109.34328
"2361",79.691154,109.35661
"2362",79.68871,109.36995
"2363",79.68383,109.383286
"2364",79.68139,109.39662
"2365",79.67895,109.40996
"2366",79.68871,109.423294
"2367",79.73266,109.43663
"2368",79.835205,109.44997
"2369",80.00122,109.4633
"2370",80.22583,109.47664
"2371",80.482185,109.489975
"2372",80.72877,109.50331
"2373",80.919205,109.51665
"2374",81.024185,109.52998
"2375",81.041275,109.54332
"2376",80.98268,109.556656
"2377",80.8777,109.56999
"2378",80.75807,109.58333
"2379",80.64576,109.596664
"2380",80.55787,109.61
"2381",80.49195,109.62334
"2382",80.45289,109.63667
"2383",80.428474,109.65001
"2384",80.411385,109.663345
"2385",80.38697,109.67668
"2386",80.35035,109.69002
"2387",80.29908,109.703354
"2388",80.23804,109.71669
"2389",80.177,109.73003
"2390",80.12573,109.74336
"2391",80.08667,109.7567
"2392",80.0647,109.770035
"2393",80.05249,109.78337
"2394",80.045166,109.79671
"2395",80.0354,109.81004
"2396",80.02319,109.82338
"2397",80.00122,109.836716
"2398",79.971924,109.85005
"2399",79.937744,109.86339
"2400",79.89624,109.876724
"2401",79.852295,109.89006
"2402",79.80835,109.9034
"2403",79.766846,109.91673
"2404",79.73266,109.93007
"2405",79.7058,109.943405
"2406",79.67895,109.95674
"2407",79.66186,109.97008
"2408",79.64965,109.98341
"2409",79.63744,109.99675
"2410",79.63012,110.010086
"2411",79.62768,110.02342
"2412",79.622795,110.03676
"2413",79.62035,110.050095
"2414",79.61303,110.06343
"2415",79.603264,110.07677
"2416",79.5935,110.0901
"2417",79.58373,110.10344
"2418",79.57641,110.116776
"2419",79.571526,110.13011
"2420",79.569084,110.14345
"2421",79.5642,110.156784
"2422",79.56176,110.17012
"2423",79.55932,110.18346
"2424",79.554436,110.19679
"2425",79.54711,110.21013
"2426",79.53246,110.223465
"2427",79.517815,110.2368
"2428",79.51049,110.25014
"2429",79.5227,110.26347
"2430",79.57885,110.27681
"2431",79.69604,110.290146
"2432",79.88159,110.30348
"2433",80.12329,110.31682
"2434",80.38453,110.330154
"2435",80.62379,110.34349
"2436",80.799576,110.35683
"2437",80.88747,110.37016
"2438",80.88991,110.3835
"2439",80.82399,110.396835
"2440",80.71656,110.41017
"2441",80.59205,110.42351
"2442",80.4773,110.436844
"2443",80.38453,110.45018
"2444",80.31617,110.46352
"2445",80.27711,110.47685
"2446",80.257576,110.49019
"2447",80.24292,110.503525
"2448",80.218506,110.51686
"2449",80.177,110.5302
"2450",80.12085,110.54353
"2451",80.05249,110.55687
"2452",79.991455,110.570206
"2453",79.94507,110.58354
"2454",79.920654,110.59688
"2455",79.91333,110.610214
"2456",79.920654,110.62355
"2457",79.92798,110.63689
"2458",79.92798,110.65022
"2459",79.920654,110.66356
"2460",79.90845,110.676895
"2461",79.888916,110.69023
"2462",79.85962,110.70357
"2463",79.82056,110.7169
"2464",79.77417,110.73024
"2465",79.72289,110.743576
"2466",79.676506,110.75691
"2467",79.63744,110.77025
"2468",79.60815,110.783585
"2469",79.588615,110.79692
"2470",79.58129,110.81026
"2471",79.57641,110.82359
"2472",79.57397,110.83693
"2473",79.57641,110.850266
"2474",79.58129,110.8636
"2475",79.588615,110.87694
"2476",79.5935,110.890274
"2477",79.59594,110.90361
"2478",79.59838,110.91695
"2479",79.59838,110.93028
"2480",79.59838,110.94362
"2481",79.59594,110.956955
"2482",79.59106,110.97029
"2483",79.586174,110.98363
"2484",79.57885,110.99696
"2485",79.57397,111.0103
"2486",79.5642,111.023636
"2487",79.554436,111.03697
"2488",79.537346,111.05031
"2489",79.52514,111.063644
"2490",79.517815,111.07698
"2491",79.5227,111.09032
"2492",79.55688,111.10365
"2493",79.64233,111.11699
"2494",79.7937,111.130325
"2495",80.0061,111.14366
"2496",80.257576,111.157
"2497",80.50416,111.170334
"2498",80.70435,111.18367
"2499",80.82399,111.19701
"2500",80.85573,111.21034
"2501",80.81178,111.22368
"2502",80.719,111.237015
"2503",80.601814,111.25035
"2504",80.479744,111.26369
"2505",80.36988,111.27702
"2506",80.27955,111.29036
"2507",80.216064,111.303696
"2508",80.17212,111.31703
"2509",80.13794,111.33037
"2510",80.10376,111.343704
"2511",80.0647,111.35704
"2512",80.02319,111.37038
"2513",79.97925,111.38371
"2514",79.95239,111.39705
"2515",79.9353,111.410385
"2516",79.9353,111.42372
"2517",79.94507,111.43706
"2518",79.96216,111.45039
"2519",79.974365,111.46373
"2520",79.98413,111.477066
"2521",79.98901,111.4904
"2522",79.97925,111.50374
"2523",79.95239,111.517075
"2524",79.91577,111.53041
"2525",79.86694,111.54375
"2526",79.81079,111.55708
"2527",79.75708,111.57042
"2528",79.708244,111.583755
"2529",79.66918,111.59709
"2530",79.63744,111.61043
"2531",79.61303,111.623764
"2532",79.60082,111.6371
"2533",79.59594,111.65044
"2534",79.5935,111.66377
"2535",79.59106,111.67711
"2536",79.5935,111.690445
"2537",79.59838,111.70378
"2538",79.60815,111.71712
"2539",79.61791,111.73045
"2540",79.63256,111.74379
"2541",79.64477,111.757126
"2542",79.65209,111.77046
"2543",79.64965,111.7838
"2544",79.64477,111.797134
"2545",79.63012,111.81047
"2546",79.61303,111.82381
"2547",79.59594,111.83714
"2548",79.57641,111.85048
"2549",79.5642,111.863815
"2550",79.569084,111.87715
"2551",79.61547,111.89049
"2552",79.71557,111.903824
"2553",79.88159,111.91716
"2554",80.1062,111.9305
"2555",80.35523,111.94383
"2556",80.59205,111.95717
"2557",80.77028,111.970505
"2558",80.87038,111.98384
"2559",80.885025,111.99718
"2560",80.831314,112.01051
"2561",80.73121,112.02385
"2562",80.61402,112.037186
"2563",80.49683,112.05052
"2564",80.396736,112.06386
"2565",80.31617,112.077194
"2566",80.26002,112.09053
"2567",80.22095,112.10387
"2568",80.18921,112.1172
"2569",80.16235,112.13054
"2570",80.13306,112.143875
"2571",80.09888,112.15721
"2572",80.06714,112.17055
"2573",80.04028,112.18388
"2574",80.02319,112.19722
"2575",80.01587,112.210556
"2576",80.01831,112.22389
"2577",80.025635,112.23723
"2578",80.03296,112.250565
"2579",80.042725,112.2639
"2580",80.04028,112.27724
"2581",80.03296,112.29057
"2582",80.01343,112.30391
"2583",79.98169,112.317245
"2584",79.94263,112.33058
"2585",79.89136,112.34392
"2586",79.84009,112.357254
"2587",79.79126,112.37059
"2588",79.74731,112.38393
"2589",79.72045,112.39726
"2590",79.70092,112.4106
"2591",79.691154,112.423935
"2592",79.68871,112.43727
"2593",79.69604,112.45061
"2594",79.708244,112.46394
"2595",79.72289,112.47728
"2596",79.73266,112.490616
"2597",79.744865,112.50395
"2598",79.74731,112.51729
"2599",79.744865,112.530624
"2600",79.742424,112.54396
"2601",79.74731,112.5573
"2602",79.744865,112.57063
"2603",79.73998,112.58397
"2604",79.73266,112.597305
"2605",79.73022,112.61064
"2606",79.72045,112.62398
"2607",79.71313,112.637314
"2608",79.7058,112.65065
"2609",79.70092,112.66399
"2610",79.71557,112.67732
"2611",79.77661,112.69066
"2612",79.90112,112.703995
"2613",80.093994,112.71733
"2614",80.34058,112.73067
"2615",80.604256,112.744
"2616",80.84596,112.75734
"2617",81.0193,112.770676
"2618",81.109634,112.78401
"2619",81.11696,112.79735
"2620",81.05592,112.810684
"2621",80.955826,112.82402
"2622",80.8362,112.83736
"2623",80.719,112.85069
"2624",80.62379,112.86403
"2625",80.552986,112.877365
"2626",80.50904,112.8907
"2627",80.48707,112.90404
"2628",80.47242,112.91737
"2629",80.45045,112.93071
"2630",80.41627,112.944046
"2631",80.36744,112.95738
"2632",80.30396,112.97072
"2633",80.24048,112.984055
"2634",80.18921,112.99739
"2635",80.15259,113.01073
"2636",80.130615,113.02406
"2637",80.12085,113.0374
"2638",80.11841,113.050735
"2639",80.11841,113.06407
"2640",80.111084,113.07741
"2641",80.093994,113.090744
"2642",80.06714,113.10408
"2643",80.028076,113.11742
"2644",79.98169,113.13075
"2645",79.93042,113.14409
"2646",79.88403,113.157425
"2647",79.84253,113.17076
"2648",79.81079,113.1841
"2649",79.78638,113.19743
"2650",79.76196,113.21077
"2651",79.742424,113.224106
"2652",79.73022,113.23744
"2653",79.725334,113.25078
"2654",79.727776,113.264114
"2655",79.73266,113.27745
"2656",79.73998,113.29079
"2657",79.744865,113.30412
"2658",79.744865,113.31746
"2659",79.744865,113.330795
"2660",79.74731,113.34413
"2661",79.74731,113.35747
"2662",79.73998,113.370804
"2663",79.727776,113.38414
"2664",79.710686,113.39748
"2665",79.691154,113.41081
"2666",79.674065,113.42415
"2667",79.66186,113.437485
"2668",79.656975,113.45082
"2669",79.66918,113.46416
"2670",79.72045,113.47749
"2671",79.82544,113.49083
"2672",80.00122,113.504166
"2673",80.22583,113.5175
"2674",80.4773,113.53084
"2675",80.71656,113.544174
"2676",80.89479,113.55751
"2677",80.990005,113.57085
"2678",80.99977,113.58418
"2679",80.94118,113.59752
"2680",80.83864,113.610855
"2681",80.719,113.62419
"2682",80.59693,113.63753
"2683",80.49683,113.65086
"2684",80.42115,113.6642
"2685",80.37232,113.677536
"2686",80.343025,113.69087
"2687",80.32838,113.70421
"2688",80.31373,113.717545
"2689",80.28687,113.73088
"2690",80.24536,113.74422
"2691",80.19653,113.75755
"2692",80.14526,113.77089
"2693",80.10132,113.784225
"2694",80.07446,113.79756
"2695",80.059814,113.8109
"2696",80.05249,113.824234
"2697",80.05005,113.83757
"2698",80.042725,113.85091
"2699",80.028076,113.86424
"2700",80.0061,113.87758
"2701",79.97925,113.890915
"2702",79.94507,113.90425
"2703",79.906006,113.91759
"2704",79.8645,113.93092
"2705",79.823,113.94426
"2706",79.781494,113.957596
"2707",79.744865,113.97093
"2708",79.71313,113.98427
"2709",79.691154,113.997604
"2710",79.674065,114.01094
"2711",79.66186,114.02428
"2712",79.64965,114.03761
"2713",79.64233,114.05095
"2714",79.63256,114.064285
"2715",79.62768,114.07762
"2716",79.622795,114.09096
"2717",79.622795,114.104294
"2718",79.622795,114.11763
"2719",79.62035,114.13097
"2720",79.62035,114.1443
"2721",79.622795,114.15764
"2722",79.62524,114.170975
"2723",79.62524,114.18431
"2724",79.62035,114.19765
"2725",79.603264,114.21098
"2726",79.586174,114.22432
"2727",79.571526,114.237656
"2728",79.55688,114.25099
"2729",79.54955,114.26433
"2730",79.55688,114.277664
"2731",79.586174,114.291
"2732",79.66186,114.30434
"2733",79.798584,114.31767
"2734",80.00122,114.33101
"2735",80.24292,114.344345
"2736",80.48463,114.35768
"2737",80.69459,114.37102
"2738",80.831314,114.38435
"2739",80.885025,114.39769
"2740",80.86061,114.411026
"2741",80.782486,114.42436
"2742",80.67017,114.4377
"2743",80.552986,114.451035
"2744",80.445564,114.46437
"2745",80.35767,114.47771
"2746",80.29664,114.49104
"2747",80.26002,114.50438
"2748",80.23071,114.517715
"2749",80.2063,114.53105
"2750",80.17944,114.54439
"2751",80.14038,114.557724
"2752",80.09888,114.57106
"2753",80.05249,114.5844
"2754",80.01587,114.59773
"2755",79.98901,114.61107
"2756",79.97925,114.624405
"2757",79.97681,114.63774
"2758",79.97925,114.65108
"2759",79.97925,114.66441
"2760",79.974365,114.67775
"2761",79.954834,114.691086
"2762",79.92798,114.70442
"2763",79.888916,114.71776
"2764",79.84741,114.731094
"2765",79.801025,114.74443
"2766",79.75464,114.75777
"2767",79.710686,114.7711
"2768",79.6643,114.78444
"2769",79.62768,114.797775
"2770",79.59838,114.81111
"2771",79.58373,114.82445
"2772",79.58129,114.83778
"2773",79.58373,114.85112
"2774",79.586174,114.864456
"2775",79.588615,114.87779
"2776",79.586174,114.89113
"2777",79.586174,114.904465
"2778",79.59106,114.9178
"2779",79.59838,114.93114
"2780",79.603264,114.94447
"2781",79.603264,114.95781
"2782",79.59594,114.971146
"2783",79.586174,114.98448
"2784",79.57641,114.99782
"2785",79.569084,115.011154
"2786",79.5642,115.02449
"2787",79.55932,115.03783
"2788",79.554436,115.05116
"2789",79.54955,115.0645
"2790",79.55688,115.077835
"2791",79.59594,115.09117
"2792",79.68627,115.10451
"2793",79.84497,115.11784
"2794",80.059814,115.13118
"2795",80.30396,115.144516
"2796",80.53834,115.15784
"2797",80.719,115.17117
"2798",80.81911,115.18451
"2799",80.8362,115.197845
"2800",80.782486,115.21118
"2801",80.68482,115.22452
"2802",80.56519,115.237854
"2803",80.45045,115.25119
"2804",80.34791,115.26453
"2805",80.2649,115.27786
"2806",80.198975,115.2912
"2807",80.15259,115.304535
"2808",80.111084,115.31787
"2809",80.07202,115.33121
"2810",80.04028,115.34454
"2811",80.0061,115.35788
"2812",79.97925,115.371216
"2813",79.95972,115.38455
"2814",79.957275,115.39789
"2815",79.9646,115.411224
"2816",79.98413,115.42456
"2817",80.0061,115.4379
"2818",80.02319,115.45123
"2819",80.025635,115.46457
"2820",80.008545,115.477905
"2821",79.97925,115.49124
"2822",79.9353,115.50458
"2823",79.886475,115.517914
"2824",79.835205,115.53125
"2825",79.783936,115.544586
"2826",79.73754,115.55792
"2827",79.69848,115.57126
"2828",79.66674,115.584595
"2829",79.64233,115.59793
"2830",79.62768,115.61127
"2831",79.61791,115.6246
"2832",79.61303,115.63794
"2833",79.61059,115.651276
"2834",79.61059,115.66461
"2835",79.61059,115.67795
"2836",79.61059,115.691284
"2837",79.61547,115.70462
"2838",79.62524,115.71796
"2839",79.63256,115.73129
"2840",79.639885,115.74463
"2841",79.639885,115.757965
"2842",79.63256,115.7713
"2843",79.61547,115.78464
"2844",79.60082,115.79797
"2845",79.588615,115.81131
"2846",79.588615,115.824646
"2847",79.62035,115.83798
"2848",79.7058,115.85132
"2849",79.85718,115.864655
"2850",80.0647,115.87799
"2851",80.31373,115.89133
"2852",80.55543,115.90466
"2853",80.7483,115.918
"2854",80.86061,115.931335
"2855",80.885025,115.94467
"2856",80.8362,115.95801
"2857",80.73609,115.971344
"2858",80.61402,115.98468
"2859",80.49683,115.99802
"2860",80.394295,116.01135
"2861",80.31861,116.02469
"2862",80.2649,116.038025
"2863",80.22827,116.05136
"2864",80.198975,116.0647
"2865",80.16968,116.07803
"2866",80.1355,116.09137
"2867",80.096436,116.104706
"2868",80.062256,116.11804
"2869",80.03296,116.13138
"2870",80.01587,116.144714
"2871",80.01343,116.15805
"2872",80.01831,116.17139
"2873",80.025635,116.18472
"2874",80.03052,116.19806
"2875",80.03052,116.211395
"2876",80.01587,116.22473
"2877",79.991455,116.23807
"2878",79.95972,116.2514
"2879",79.923096,116.26474
"2880",79.87915,116.278076
"2881",79.835205,116.29141
"2882",79.798584,116.30475
"2883",79.766846,116.318085
"2884",79.73998,116.33142
"2885",79.71801,116.34476
"2886",79.70336,116.35809
"2887",79.691154,116.37143
"2888",79.68383,116.384766
"2889",79.68383,116.3981
"2890",79.68627,116.41144
"2891",79.68871,116.424774
"2892",79.693596,116.43811
"2893",79.69848,116.45145
"2894",79.70092,116.46478
"2895",79.70336,116.47812
"2896",79.7058,116.491455
"2897",79.7058,116.50479
"2898",79.70092,116.51813
"2899",79.68871,116.53146
"2900",79.676506,116.5448
"2901",79.6643,116.558136
"2902",79.656975,116.57147
"2903",79.66186,116.58481
"2904",79.69848,116.598145
"2905",79.78638,116.61148
"2906",79.940186,116.62482
"2907",80.15503,116.63815
"2908",80.40162,116.65149
"2909",80.6482,116.664825
"2910",80.850845,116.67816
"2911",80.98268,116.6915
"2912",81.03151,116.704834
"2913",81.007095,116.71817
"2914",80.92653,116.73151
"2915",80.82155,116.74484
"2916",80.709236,116.75818
"2917",80.60914,116.771515
"2918",80.52857,116.78485
"2919",80.46998,116.79819
"2920",80.430916,116.81152
"2921",80.40406,116.82486
"2922",80.38209,116.838196
"2923",80.35523,116.85153
"2924",80.32105,116.86487
"2925",80.272224,116.878204
"2926",80.21362,116.89154
"2927",80.15991,116.90488
"2928",80.12329,116.91821
"2929",80.10376,116.93155
"2930",80.096436,116.944885
"2931",80.10132,116.95822
"2932",80.10376,116.97156
"2933",80.093994,116.98489
"2934",80.07446,116.99823
"2935",80.045166,117.011566
"2936",80.01099,117.0249
"2937",79.971924,117.03824
"2938",79.93042,117.051575
"2939",79.888916,117.06491
"2940",79.84741,117.07825
"2941",79.81079,117.09158
"2942",79.781494,117.10492
"2943",79.75464,117.118256
"2944",79.73754,117.13159
"2945",79.72289,117.14493
"2946",79.71313,117.158264
"2947",79.708244,117.1716
"2948",79.7058,117.18494
"2949",79.708244,117.19827
"2950",79.71313,117.21161
"2951",79.72045,117.224945
"2952",79.727776,117.23828
"2953",79.73266,117.25162
"2954",79.73754,117.26495
"2955",79.7351,117.27829
"2956",79.725334,117.291626
"2957",79.71557,117.30496
"2958",79.70092,117.3183
"2959",79.68871,117.331635
"2960",79.674065,117.34497
"2961",79.66186,117.35831
"2962",79.65453,117.37164
"2963",79.656975,117.38498
"2964",79.691154,117.398315
"2965",79.77173,117.41165
"2966",79.920654,117.42499
"2967",80.1355,117.438324
"2968",80.39185,117.45166
"2969",80.6482,117.465
"2970",80.85817,117.47833
"2971",80.987564,117.49167
"2972",81.02907,117.505005
"2973",80.99245,117.51834
"2974",80.89723,117.53168
"2975",80.77272,117.54501
"2976",80.6482,117.55835
"2977",80.53834,117.571686
"2978",80.45045,117.58502
"2979",80.39185,117.59836
"2980",80.36256,117.611694
"2981",80.34791,117.62503
"2982",80.32838,117.63837
"2983",80.30152,117.6517
"2984",80.257576,117.66504
"2985",80.201416,117.678375
"2986",80.14282,117.69171
"2987",80.10376,117.70505
"2988",80.07446,117.71838
"2989",80.062256,117.73172
"2990",80.05493,117.745056
"2991",80.05005,117.75839
"2992",80.0354,117.77173
"2993",80.02075,117.785065
"2994",79.99634,117.7984
"2995",79.96948,117.81174
"2996",79.9353,117.82507
"2997",79.8938,117.83841
"2998",79.84497,117.851746
"2999",79.79614,117.86508
"3000",79.7522,117.87842
"3001",79.71801,117.891754
"3002",79.68871,117.90509
"3003",79.66674,117.91843
"3004",79.65209,117.93176
"3005",79.635,117.9451
"3006",79.622795,117.958435
"3007",79.61303,117.97177
"3008",79.605705,117.98511
"3009",79.603264,117.99844
"3010",79.60815,118.01178
"3011",79.61303,118.025116
"3012",79.61547,118.03845
"3013",79.61547,118.05179
"3014",79.61303,118.065125
"3015",79.603264,118.07846
"3016",79.59594,118.0918
"3017",79.586174,118.10513
"3018",79.57641,118.11847
"3019",79.56176,118.131805
"3020",79.54711,118.14514
"3021",79.53002,118.15848
"3022",79.51537,118.171814
"3023",79.50561,118.18515
"3024",79.50317,118.19849
"3025",79.52514,118.21182
"3026",79.59106,118.22516
"3027",79.71801,118.238495
"3028",79.91333,118.25183
"3029",80.16235,118.26517
"3030",80.428474,118.2785
"3031",80.66529,118.29184
"3032",80.833755,118.305176
"3033",80.90944,118.31851
"3034",80.89723,118.33185
"3035",80.81911,118.345184
"3036",80.69703,118.35852
"3037",80.56519,118.37186
"3038",80.44312,118.38519
"3039",80.343025,118.39853
"3040",80.26978,118.411865
"3041",80.22827,118.4252
"3042",80.20386,118.43854
"3043",80.181885,118.45187
"3044",80.15747,118.46521
"3045",80.12085,118.478546
"3046",80.07202,118.49188
"3047",80.02075,118.50522
"3048",79.97681,118.518555
"3049",79.94507,118.53189
"3050",79.937744,118.54523
"3051",79.94507,118.55856
"3052",79.95972,118.5719
"3053",79.971924,118.585236
"3054",79.97925,118.59857
"3055",79.974365,118.61191
"3056",79.94995,118.625244
"3057",79.91577,118.63858
"3058",79.871826,118.65192
"3059",79.82056,118.66525
"3060",79.76929,118.67859
"3061",79.72045,118.691925
"3062",79.674065,118.70526
"3063",79.639885,118.7186
"3064",79.62035,118.73193
"3065",79.61059,118.74527
"3066",79.60815,118.758606
"3067",79.60815,118.77194
"3068",79.61059,118.78528
"3069",79.61059,118.798615
"3070",79.61059,118.81195
"3071",79.61059,118.82529
"3072",79.61059,118.83862
"3073",79.61303,118.85196
"3074",79.61547,118.865295
"3075",79.61791,118.87863
"3076",79.61791,118.89197
"3077",79.605705,118.905304
"3078",79.59106,118.91864
"3079",79.571526,118.93198
"3080",79.551994,118.94531
"3081",79.53979,118.95865
"3082",79.537346,118.971985
"3083",79.54711,118.98532
"3084",79.58129,118.99866
"3085",79.65209,119.01199
"3086",79.77661,119.02533
"3087",79.96216,119.038666
"3088",80.19165,119.052
"3089",80.42603,119.06534
"3090",80.63111,119.078674
"3091",80.77028,119.09201
"3092",80.82887,119.10535
"3093",80.814224,119.11868
"3094",80.74586,119.13202
"3095",80.64332,119.145355
"3096",80.53101,119.15869
"3097",80.41871,119.17203
"3098",80.32105,119.18536
"3099",80.24292,119.1987
"3100",80.184326,119.212036
"3101",80.1355,119.22537
"3102",80.096436,119.23871
"3103",80.05493,119.252045
"3104",80.01831,119.26538
"3105",79.98169,119.27872
"3106",79.96216,119.29205
"3107",79.954834,119.30539
"3108",79.9646,119.318726
"3109",79.98169,119.33206
"3110",80.0061,119.3454
"3111",80.028076,119.358734
"3112",80.04028,119.37207
"3113",80.03296,119.38541
"3114",80.01343,119.39874
"3115",79.97681,119.41208
"3116",79.92798,119.425415
"3117",79.871826,119.43875
"3118",79.815674,119.45209
"3119",79.76196,119.46542
"3120",79.71801,119.47876
"3121",79.68383,119.492096
"3122",79.656975,119.50543
"3123",79.63744,119.51877
"3124",79.62524,119.532104
"3125",79.61547,119.54544
"3126",79.60815,119.55878
"3127",79.61059,119.57211
"3128",79.61791,119.58545
"3129",79.63012,119.598785
"3130",79.64477,119.61212
"3131",79.65942,119.62546
"3132",79.66918,119.638794
"3133",79.676506,119.65213
"3134",79.67895,119.66547
"3135",79.676506,119.6788
"3136",79.67162,119.69214
"3137",79.656975,119.705475
"3138",79.639885,119.71881
"3139",79.622795,119.73215
"3140",79.62035,119.74548
"3141",79.64721,119.75882
"3142",79.73754,119.772156
"3143",79.89136,119.78549
"3144",80.10864,119.79883
"3145",80.35279,119.812164
"3146",80.59693,119.8255
"3147",80.79225,119.83884
"3148",80.91676,119.85217
"3149",80.95827,119.86551
"3150",80.92653,119.878845
"3151",80.83864,119.89218
"3152",80.72144,119.90552
"3153",80.59693,119.91885
"3154",80.48707,119.93219
"3155",80.39918,119.945526
"3156",80.34058,119.95886
"3157",80.30152,119.9722
"3158",80.272224,119.985535
"3159",80.24292,119.99887
"3160",80.21118,120.01221
"3161",80.17456,120.02554
"3162",80.13306,120.03888
"3163",80.10132,120.052216
"3164",80.079346,120.06555
"3165",80.06958,120.07889
"3166",80.06714,120.092224
"3167",80.07202,120.10556
"3168",80.076904,120.1189
"3169",80.079346,120.13223
"3170",80.076904,120.14557
"3171",80.0647,120.158905
"3172",80.04028,120.17224
"3173",79.99878,120.18558
"3174",79.94263,120.19891
"3175",79.88403,120.21225
"3176",79.83276,120.225586
"3177",79.79126,120.23892
"3178",79.76196,120.25226
"3179",79.74731,120.265594
"3180",79.73998,120.27893
"3181",79.73022,120.29227
"3182",79.72289,120.3056
"3183",79.72289,120.31894
"3184",79.725334,120.332275
"3185",79.725334,120.34561
"3186",79.727776,120.35895
"3187",79.725334,120.372284
"3188",79.725334,120.38562
"3189",79.72289,120.39896
"3190",79.725334,120.41229
"3191",79.727776,120.42563
"3192",79.727776,120.438965
"3193",79.71557,120.4523
"3194",79.69848,120.46564
"3195",79.676506,120.47897
"3196",79.65453,120.49231
"3197",79.64233,120.505646
"3198",79.65942,120.51898
"3199",79.72045,120.53232
"3200",79.84985,120.545654
"3201",80.045166,120.55899
"3202",80.291756,120.57233
"3203",80.552986,120.58566
"3204",80.78737,120.599
"3205",80.953384,120.612335
"3206",81.03395,120.62567
"3207",81.03395,120.63901
"3208",80.972916,120.65234
"3209",80.88014,120.66568
"3210",80.77516,120.679016
"3211",80.672615,120.69235
"3212",80.584724,120.70569
"3213",80.51881,120.719025
"3214",80.47242,120.73236
"3215",80.448006,120.7457
"3216",80.4358,120.75903
"3217",80.42115,120.77237
"3218",80.38697,120.785706
"3219",80.34058,120.79904
"3220",80.27955,120.81238
"3221",80.21362,120.825714
"3222",80.15747,120.83905
"3223",80.12085,120.85239
"3224",80.10132,120.86572
"3225",80.096436,120.87906
"3226",80.096436,120.892395
"3227",80.096436,120.90573
"3228",80.093994,120.91907
"3229",80.08179,120.9324
"3230",80.062256,120.94574
"3231",80.028076,120.959076
"3232",79.98657,120.97241
"3233",79.940186,120.98575
"3234",79.89624,120.999084
"3235",79.85474,121.01242
"3236",79.823,121.02576
"3237",79.798584,121.03909
"3238",79.781494,121.05243
"3239",79.76929,121.065765
"3240",79.75708,121.0791
"3241",79.75708,121.09244
"3242",79.75952,121.105774
"3243",79.764404,121.11911
"3244",79.766846,121.13245
"3245",79.76929,121.14578
"3246",79.76929,121.15912
"3247",79.766846,121.172455
"3248",79.76196,121.18579
"3249",79.75464,121.19913
"3250",79.74975,121.21246
"3251",79.742424,121.2258
"3252",79.73266,121.239136
"3253",79.72289,121.25247
"3254",79.710686,121.26581
"3255",79.69848,121.279144
"3256",79.68627,121.29248
"3257",79.68383,121.30582
"3258",79.70336,121.31915
"3259",79.76929,121.33249
"3260",79.8938,121.345825
"3261",80.08179,121.35916
"3262",80.31373,121.3725
"3263",80.56031,121.38583
"3264",80.7776,121.39917
"3265",80.93141,121.412506
"3266",81.00221,121.42584
"3267",80.99489,121.43918
"3268",80.92653,121.452515
"3269",80.82155,121.46585
"3270",80.70191,121.47919
"3271",80.59449,121.49252
"3272",80.50904,121.50586
"3273",80.45289,121.519196
"3274",80.41871,121.53253
"3275",80.39918,121.54587
"3276",80.38209,121.559204
"3277",80.35767,121.57254
"3278",80.31129,121.58588
"3279",80.25269,121.59921
"3280",80.18677,121.61255
"3281",80.12329,121.625885
"3282",80.06958,121.63922
"3283",80.0354,121.65256
"3284",80.01831,121.66589
"3285",80.008545,121.67923
"3286",80.00366,121.692566
"3287",79.991455,121.7059
"3288",79.974365,121.71924
"3289",79.95239,121.732574
"3290",79.91577,121.74591
"3291",79.869385,121.75925
"3292",79.82056,121.77258
"3293",79.77661,121.78592
"3294",79.73754,121.799255
"3295",79.7058,121.81259
"3296",79.68383,121.82593
"3297",79.66674,121.839264
"3298",79.64721,121.8526
"3299",79.622795,121.86594
"3300",79.60082,121.87927
"3301",79.58373,121.89261
"3302",79.569084,121.905945
"3303",79.56176,121.91928
"3304",79.55688,121.93262
"3305",79.55688,121.94595
"3306",79.55688,121.95929
"3307",79.554436,121.972626
"3308",79.54955,121.98596
"3309",79.54223,121.9993
"3310",79.53246,122.012634
"3311",79.520256,122.02597
"3312",79.51049,122.03931
"3313",79.500725,122.05264
"3314",79.48852,122.06598
"3315",79.47143,122.079315
"3316",79.45678,122.09265
"3317",79.43969,122.10599
"3318",79.429924,122.11932
"3319",79.44457,122.13266
"3320",79.50317,122.145996
"3321",79.62524,122.15933
"3322",79.815674,122.17267
"3323",80.059814,122.186005
"3324",80.323494,122.19934
"3325",80.56519,122.21268
"3326",80.740974,122.22601
"3327",80.831314,122.23935
"3328",80.84108,122.252686
"3329",80.782486,122.26602
"3330",80.68482,122.27936
"3331",80.57496,122.292694
"3332",80.46998,122.30603
"3333",80.37965,122.31937
"3334",80.31617,122.3327
"3335",80.274666,122.34604
"3336",80.2478,122.359375
"3337",80.22827,122.37271
"3338",80.20386,122.38605
"3339",80.164795,122.39938
"3340",80.10864,122.41272
"3341",80.05005,122.426056
"3342",79.9939,122.43939
"3343",79.957275,122.45273
"3344",79.94507,122.466064
"3345",79.94995,122.4794
"3346",79.95972,122.49274
"3347",79.974365,122.50607
"3348",79.98169,122.51941
"3349",79.97925,122.532745
"3350",79.96704,122.54608
"3351",79.940186,122.55942
"3352",79.90112,122.572754
"3353",79.84985,122.58609
"3354",79.79614,122.59943
"3355",79.74731,122.61276
"3356",79.70092,122.6261
"3357",79.66674,122.639435
"3358",79.639885,122.65277
"3359",79.622795,122.66611
"3360",79.605705,122.67944
"3361",79.59838,122.69278
"3362",79.59838,122.706116
"3363",79.60082,122.71945
"3364",79.605705,122.73279
"3365",79.61059,122.746124
"3366",79.61547,122.75946
"3367",79.62035,122.7728
"3368",79.622795,122.78613
"3369",79.62035,122.79947
"3370",79.61059,122.812805
"3371",79.60082,122.82614
"3372",79.586174,122.83948
"3373",79.571526,122.85281
"3374",79.554436,122.86615
"3375",79.54711,122.879486
"3376",79.54223,122.89282
"3377",79.53979,122.90616
"3378",79.551994,122.919495
"3379",79.59838,122.93283
"3380",79.69848,122.94617
"3381",79.85962,122.9595
"3382",80.07446,122.97284
"3383",80.31617,122.986176
"3384",80.54322,122.99951
"3385",80.719,123.01285
"3386",80.81911,123.026184
"3387",80.83864,123.03952
"3388",80.79469,123.05286
"3389",80.70435,123.06619
"3390",80.59449,123.07953
"3391",80.49195,123.092865
"3392",80.4065,123.1062
"3393",80.34058,123.11954
"3394",80.29664,123.13287
"3395",80.26246,123.14621
"3396",80.22827,123.159546
"3397",80.18677,123.17288
"3398",80.13794,123.18622
"3399",80.09155,123.199554
"3400",80.04761,123.21289
"3401",80.01343,123.22623
"3402",80.00122,123.23956
"3403",80.008545,123.2529
"3404",80.025635,123.266235
"3405",80.045166,123.27957
"3406",80.062256,123.29291
"3407",80.062256,123.306244
"3408",80.045166,123.31958
"3409",80.01343,123.33292
"3410",79.96948,123.34625
"3411",79.923096,123.35959
"3412",79.87427,123.372925
"3413",79.82544,123.38626
"3414",79.78638,123.3996
"3415",79.74731,123.41293
"3416",79.71801,123.42627
"3417",79.691154,123.439606
"3418",79.66918,123.45294
"3419",79.64965,123.46628
"3420",79.639885,123.479614
"3421",79.63744,123.49295
"3422",79.64477,123.50629
"3423",79.656975,123.51962
"3424",79.67162,123.53296
"3425",79.68383,123.546295
"3426",79.693596,123.55963
"3427",79.70092,123.57297
"3428",79.70336,123.5863
"3429",79.69848,123.59964
"3430",79.68871,123.612976
"3431",79.676506,123.62631
"3432",79.66186,123.63965
"3433",79.64721,123.652985
"3434",79.64233,123.66632
"3435",79.65453,123.67966
"3436",79.708244,123.69299
"3437",79.818115,123.70633
"3438",79.99634,123.719666
"3439",80.22339,123.733
"3440",80.47242,123.74634
"3441",80.69947,123.759674
"3442",80.86305,123.77301
"3443",80.9485,123.78635
"3444",80.95827,123.79968
"3445",80.89967,123.81302
"3446",80.797134,123.826355
"3447",80.672615,123.83969
"3448",80.550545,123.85303
"3449",80.445564,123.86636
"3450",80.365,123.8797
"3451",80.31373,123.893036
"3452",80.27955,123.90637
"3453",80.24536,123.91971
"3454",80.2063,123.933044
"3455",80.15747,123.94638
"3456",80.10376,123.95972
"3457",80.05493,123.97305
"3458",80.01831,123.98639
"3459",79.99878,123.999725
"3460",79.9939,124.01306
"3461",79.99878,124.0264
"3462",80.008545,124.039734
"3463",80.01587,124.05307
"3464",80.01587,124.06641
"3465",80.00366,124.07974
"3466",79.98169,124.09308
"3467",79.94507,124.106415
"3468",79.89868,124.11975
"3469",79.84497,124.13309
"3470",79.79126,124.14642
"3471",79.73754,124.15976
"3472",79.691154,124.173096
"3473",79.65209,124.18643
"3474",79.61791,124.19977
"3475",79.59594,124.213104
"3476",79.58129,124.22644
"3477",79.57885,124.23978
"3478",79.57885,124.25311
"3479",79.586174,124.26645
"3480",79.5935,124.279785
"3481",79.59838,124.29312
"3482",79.59838,124.30646
"3483",79.59594,124.31979
"3484",79.588615,124.33313
"3485",79.58373,124.346466
"3486",79.57641,124.3598
"3487",79.569084,124.37314
"3488",79.56176,124.386475
"3489",79.554436,124.39981
"3490",79.55688,124.41315
"3491",79.571526,124.42648
"3492",79.61303,124.43982
"3493",79.708244,124.453156
"3494",79.871826,124.46649
"3495",80.09155,124.47983
"3496",80.34058,124.493164
"3497",80.587166,124.5065
"3498",80.78737,124.51984
"3499",80.907,124.53317
"3500",80.94118,124.54651
"3501",80.90456,124.559845
"3502",80.81911,124.57318
"3503",80.71168,124.58652
"3504",80.601814,124.59985
"3505",80.5066,124.61319
"3506",80.43824,124.626526
"3507",80.38941,124.63986
"3508",80.35767,124.6532
"3509",80.33082,124.666534
"3510",80.306404,124.67987
"3511",80.26978,124.69321
"3512",80.22583,124.70654
"3513",80.17456,124.71988
"3514",80.12573,124.733215
"3515",80.079346,124.74655
"3516",80.05005,124.75989
"3517",80.03296,124.773224
"3518",80.025635,124.78656
"3519",80.02075,124.7999
"3520",80.01343,124.81323
"3521",80.00122,124.82657
"3522",79.98169,124.839905
"3523",79.954834,124.85324
"3524",79.923096,124.86658
"3525",79.87915,124.87991
"3526",79.83032,124.89325
"3527",79.78638,124.906586
"3528",79.742424,124.91992
"3529",79.708244,124.93326
"3530",79.68139,124.946594
"3531",79.66186,124.95993
"3532",79.64721,124.97327
"3533",79.635,124.9866
"3534",79.62768,124.99994
"3535",79.62035,125.013275
"3536",79.61303,125.02661
"3537",79.60815,125.03995
"3538",79.605705,125.05328
"3539",79.605705,125.06662
"3540",79.61059,125.079956
"3541",79.61303,125.09329
"3542",79.61059,125.10663
"3543",79.60082,125.119965
"3544",79.586174,125.1333
"3545",79.569084,125.14664
"3546",79.55688,125.15997
"3547",79.54711,125.17331
"3548",79.55688,125.186646
"3549",79.60082,125.19998
"3550",79.70092,125.21332
"3551",79.869385,125.226654
"3552",80.096436,125.23999
"3553",80.35523,125.25333
"3554",80.604256,125.26666
"3555",80.79469,125.28
"3556",80.90456,125.293335
"3557",80.93141,125.30667
"3558",80.89235,125.32001
"3559",80.80934,125.33334
"3560",80.706795,125.34668
"3561",80.6067,125.360016
"3562",80.52125,125.37335
"3563",80.45289,125.38669
"3564",80.40894,125.400024
"3565",80.38209,125.41336
"3566",80.365,125.4267
"3567",80.34791,125.44003
"3568",80.32105,125.45337
"3569",80.27955,125.466705
"3570",80.22583,125.48004
"3571",80.16724,125.49338
"3572",80.111084,125.506714
"3573",80.07202,125.52005
"3574",80.05005,125.53339
"3575",80.04028,125.54672
"3576",80.042725,125.56006
"3577",80.045166,125.573395
"3578",80.042725,125.58673
"3579",80.03052,125.60007
"3580",80.0061,125.6134
"3581",79.96704,125.62674
"3582",79.923096,125.640076
"3583",79.87671,125.65341
"3584",79.82788,125.66675
"3585",79.78638,125.680084
"3586",79.74731,125.69342
"3587",79.72289,125.70676
"3588",79.70336,125.72009
"3589",79.693596,125.73343
"3590",79.68627,125.746765
"3591",79.68383,125.7601
"3592",79.67895,125.77344
"3593",79.67162,125.78677
"3594",79.6643,125.80011
"3595",79.6643,125.813446
"3596",79.66186,125.82678
"3597",79.66186,125.84012
"3598",79.66186,125.853455
"3599",79.66186,125.86679
"3600",79.65453,125.88013
"3601",79.64477,125.89346
"3602",79.62768,125.9068
"3603",79.61059,125.920135
"3604",79.5935,125.93347
"3605",79.58129,125.94681
"3606",79.57885,125.960144
"3607",79.60082,125.97348
"3608",79.65942,125.98682
"3609",79.77905,126.00015
"3610",79.96704,126.01349
"3611",80.20386,126.026825
"3612",80.462654,126.04016
"3613",80.69703,126.0535
"3614",80.867935,126.06683
"3615",80.953384,126.08017
"3616",80.95827,126.093506
"3617",80.89723,126.10684
"3618",80.799576,126.12018
"3619",80.68726,126.133514
"3620",80.57984,126.14685
"3621",80.49439,126.16019
"3622",80.43336,126.17352
"3623",80.39918,126.18686
"3624",80.37965,126.200195
"3625",80.360115,126.21353
"3626",80.33082,126.22687
"3627",80.28687,126.240204
"3628",80.23071,126.25354
"3629",80.16968,126.26688
"3630",80.113525,126.28021
"3631",80.06958,126.29355
"3632",80.042725,126.306885
"3633",80.03296,126.32022
"3634",80.03296,126.33356
"3635",80.03052,126.34689
"3636",80.028076,126.36023
"3637",80.01587,126.373566
"3638",79.98657,126.3869
"3639",79.94995,126.40024
"3640",79.906006,126.413574
"3641",79.86206,126.42691
"3642",79.82056,126.44025
"3643",79.77905,126.45358
"3644",79.744865,126.46692
"3645",79.71557,126.480255
"3646",79.68871,126.49359
"3647",79.6643,126.50693
"3648",79.64233,126.52026
"3649",79.62768,126.5336
"3650",79.61547,126.546936
"3651",79.60815,126.56027
"3652",79.603264,126.57361
"3653",79.603264,126.586945
"3654",79.603264,126.60028
"3655",79.603264,126.61362
"3656",79.603264,126.62695
"3657",79.60082,126.64029
"3658",79.59594,126.653625
"3659",79.588615,126.66696
"3660",79.58373,126.6803
"3661",79.571526,126.693634
"3662",79.55932,126.70697
"3663",79.54955,126.72031
"3664",79.54711,126.73364
"3665",79.55932,126.74698
"3666",79.605705,126.760315
"3667",79.708244,126.77365
"3668",79.87915,126.78699
"3669",80.1062,126.80032
"3670",80.360115,126.81366
"3671",80.6067,126.826996
"3672",80.797134,126.84033
"3673",80.902115,126.85367
"3674",80.919205,126.867004
"3675",80.86549,126.88034
"3676",80.765396,126.89368
"3677",80.64332,126.90701
"3678",80.52613,126.92035
"3679",80.42603,126.933685
"3680",80.35279,126.94702
"3681",80.30152,126.96036
"3682",80.274666,126.973694
"3683",80.255135,126.98703
"3684",80.22827,127.00037
"3685",80.18677,127.0137
"3686",80.1355,127.02704
"3687",80.079346,127.040375
"3688",80.025635,127.05371
"3689",79.98413,127.06705
"3690",79.96216,127.08038
"3691",79.94995,127.09372
"3692",79.94751,127.107056
"3693",79.94507,127.12039
"3694",79.940186,127.13373
"3695",79.92798,127.147064
"3696",79.90845,127.1604
"3697",79.87671,127.17374
"3698",79.83765,127.18707
"3699",79.7937,127.20041
"3700",79.74975,127.213745
"3701",79.708244,127.22708
"3702",79.66674,127.24042
"3703",79.635,127.25375
"3704",79.60815,127.26709
"3705",79.586174,127.280426
"3706",79.56664,127.29376
"3707",79.551994,127.3071
"3708",79.53979,127.320435
"3709",79.53246,127.33377
"3710",79.52758,127.34711
"3711",79.53002,127.36044
"3712",79.534904,127.37378
"3713",79.54223,127.387115
"3714",79.54467,127.40045
"3715",79.54223,127.41379
"3716",79.53979,127.427124
"3717",79.534904,127.44046
"3718",79.52758,127.4538
"3719",79.5227,127.46713
"3720",79.517815,127.48047
"3721",79.51049,127.493805
"3722",79.50317,127.50714
"3723",79.4934,127.52048
"3724",79.48608,127.53381
"3725",79.49828,127.54715
"3726",79.54467,127.560486
"3727",79.64965,127.57382
"3728",79.82056,127.58716
"3729",80.045166,127.600494
"3730",80.29664,127.61383
"3731",80.533455,127.62717
"3732",80.709236,127.6405
"3733",80.80446,127.65384
"3734",80.814224,127.667175
"3735",80.75807,127.68051
"3736",80.65797,127.69385
"3737",80.54322,127.707184
"3738",80.43336,127.72052
"3739",80.3357,127.73386
"3740",80.255135,127.74719
"3741",80.19165,127.76053
"3742",80.14526,127.773865
"3743",80.10864,127.7872
"3744",80.076904,127.80054
"3745",80.045166,127.81387
"3746",80.01587,127.82721
"3747",79.98657,127.840546
"3748",79.96216,127.85388
"3749",79.94995,127.86722
"3750",79.95239,127.880554
"3751",79.96216,127.89389
"3752",79.974365,127.90723
"3753",79.97925,127.92056
"3754",79.97681,127.9339
"3755",79.96704,127.947235
"3756",79.94263,127.96057
"3757",79.91089,127.97391
"3758",79.871826,127.98724
"3759",79.82788,128.00058
"3760",79.77905,128.01392
"3761",79.73266,128.02725
"3762",79.691154,128.04059
"3763",79.656975,128.05392
"3764",79.62768,128.06726
"3765",79.605705,128.0806
"3766",79.59106,128.09393
"3767",79.58129,128.10727
"3768",79.58129,128.1206
"3769",79.588615,128.13394
"3770",79.60082,128.14728
"3771",79.61547,128.16061
"3772",79.63012,128.17395
"3773",79.639885,128.18729
"3774",79.639885,128.20062
"3775",79.63012,128.21396
"3776",79.61791,128.2273
"3777",79.60082,128.24063
"3778",79.588615,128.25397
"3779",79.57885,128.2673
"3780",79.57397,128.28064
"3781",79.571526,128.29398
"3782",79.58373,128.30731
"3783",79.622795,128.32065
"3784",79.71557,128.33398
"3785",79.871826,128.34732
"3786",80.08667,128.36066
"3787",80.33326,128.374
"3788",80.56275,128.38733
"3789",80.73609,128.40067
"3790",80.82887,128.414
"3791",80.833755,128.42734
"3792",80.77272,128.44067
"3793",80.67017,128.45401
"3794",80.550545,128.46735
"3795",80.43336,128.48068
"3796",80.33326,128.49402
"3797",80.24536,128.50735
"3798",80.17944,128.52069
"3799",80.12573,128.53403
"3800",80.079346,128.54736
"3801",80.03784,128.5607
"3802",80.00122,128.57404
"3803",79.96704,128.58737
"3804",79.94263,128.60071
"3805",79.9353,128.61404
"3806",79.940186,128.62738
"3807",79.95972,128.64072
"3808",79.98169,128.65405
"3809",80.00122,128.66739
"3810",80.01099,128.68073
"3811",80.008545,128.69406
"3812",79.991455,128.7074
"3813",79.96216,128.72073
"3814",79.92554,128.73407
"3815",79.88403,128.7474
"3816",79.84009,128.76074
"3817",79.79614,128.77408
"3818",79.75464,128.78741
"3819",79.71801,128.80075
"3820",79.68627,128.81409
"3821",79.6643,128.82742
"3822",79.65209,128.84076
"3823",79.64477,128.8541
"3824",79.64233,128.86743
"3825",79.639885,128.88077
"3826",79.639885,128.8941
"3827",79.64233,128.90744
"3828",79.64233,128.92078
"3829",79.64721,128.93411
"3830",79.64965,128.94745
"3831",79.65209,128.96078
"3832",79.64721,128.97412
"3833",79.64477,128.98746
"3834",79.635,129.0008
"3835",79.63012,129.01413
"3836",79.63012,129.02747
"3837",79.64965,129.0408
"3838",79.71557,129.05414
"3839",79.84009,129.06747
"3840",80.03052,129.08081
"3841",80.2649,129.09415
"3842",80.516365,129.10748
"3843",80.73365,129.12082
"3844",80.885025,129.13416
"3845",80.9485,129.14749
"3846",80.938736,129.16083
"3847",80.87038,129.17416
"3848",80.76784,129.1875
"3849",80.65308,129.20084
"3850",80.54566,129.21417
"3851",80.45289,129.22751
"3852",80.38209,129.24084
"3853",80.33326,129.25418
"3854",80.30152,129.26752
"3855",80.272224,129.28085
"3856",80.24292,129.29419
"3857",80.198975,129.30753
"3858",80.15015,129.32086
"3859",80.10132,129.3342
"3860",80.06714,129.34753
"3861",80.05005,129.36087
"3862",80.05005,129.3742
"3863",80.062256,129.38754
"3864",80.076904,129.40088
"3865",80.08667,129.41422
"3866",80.08423,129.42755
"3867",80.06958,129.44089
"3868",80.045166,129.45422
"3869",80.008545,129.46756
"3870",79.96704,129.4809
"3871",79.920654,129.49423
"3872",79.871826,129.50757
"3873",79.823,129.5209
"3874",79.77661,129.53424
"3875",79.73998,129.54758
"3876",79.71801,129.56091
"3877",79.70336,129.57425
"3878",79.69848,129.58759
"3879",79.69848,129.60092
"3880",79.69848,129.61426
"3881",79.69604,129.6276
"3882",79.691154,129.64093
"3883",79.693596,129.65427
"3884",79.69604,129.6676
"3885",79.70092,129.68094
"3886",79.70092,129.69427
"3887",79.70092,129.70761
"3888",79.693596,129.72095
"3889",79.68139,129.73428
"3890",79.6643,129.74762
"3891",79.65942,129.76096
"3892",79.67895,129.77429
"3893",79.74975,129.78763
"3894",79.886475,129.80096
"3895",80.08667,129.8143
"3896",80.32838,129.82764
"3897",80.5774,129.84097
"3898",80.78493,129.85431
"3899",80.92409,129.86765
"3900",80.9778,129.88098
"3901",80.95827,129.89432
"3902",80.88014,129.90765
"3903",80.77028,129.92099
"3904",80.655525,129.93433
"3905",80.54322,129.94766
"3906",80.45289,129.961
"3907",80.38941,129.97433
"3908",80.34791,129.98767
"3909",80.323494,130.001
"3910",80.30152,130.01434
"3911",80.26978,130.02768
"3912",80.22339,130.04102
"3913",80.17456,130.05435
"3914",80.11841,130.06769
"3915",80.07202,130.08102
"3916",80.04028,130.09436
"3917",80.028076,130.1077
"3918",80.03052,130.12103
"3919",80.042725,130.13437
"3920",80.05493,130.1477
"3921",80.05737,130.16104
"3922",80.045166,130.17438
"3923",80.01099,130.18771
"3924",79.9646,130.20105
"3925",79.91089,130.21439
"3926",79.86206,130.22772
"3927",79.81079,130.24106
"3928",79.77173,130.2544
"3929",79.73998,130.26773
"3930",79.71313,130.28107
"3931",79.68871,130.2944
"3932",79.66918,130.30774
"3933",79.65209,130.32108
"3934",79.63744,130.33441
"3935",79.63012,130.34775
"3936",79.63012,130.36108
"3937",79.63256,130.37442
"3938",79.639885,130.38776
"3939",79.64721,130.4011
"3940",79.64965,130.41443
"3941",79.65209,130.42776
"3942",79.64721,130.4411
"3943",79.639885,130.45444
"3944",79.62768,130.46777
"3945",79.61303,130.48111
"3946",79.5935,130.49445
"3947",79.57397,130.50778
"3948",79.5642,130.52112
"3949",79.569084,130.53445
"3950",79.61303,130.54779
"3951",79.710686,130.56113
"3952",79.869385,130.57446
"3953",80.08667,130.5878
"3954",80.33326,130.60114
"3955",80.57496,130.61447
"3956",80.76784,130.6278
"3957",80.88991,130.64114
"3958",80.92409,130.65448
"3959",80.885025,130.66782
"3960",80.797134,130.68115
"3961",80.68238,130.69449
"3962",80.56519,130.70782
"3963",80.465096,130.72116
"3964",80.39185,130.7345
"3965",80.343025,130.74783
"3966",80.308846,130.76117
"3967",80.28199,130.7745
"3968",80.257576,130.78784
"3969",80.22095,130.80118
"3970",80.16968,130.81451
"3971",80.11597,130.82785
"3972",80.06714,130.84119
"3973",80.03296,130.85452
"3974",80.01587,130.86786
"3975",80.01587,130.8812
"3976",80.025635,130.89453
"3977",80.04028,130.90787
"3978",80.045166,130.9212
"3979",80.0354,130.93454
"3980",80.01343,130.94788
"3981",79.974365,130.96121
"3982",79.93042,130.97455
"3983",79.87915,130.98788
"3984",79.82788,131.00122
"3985",79.781494,131.01456
"3986",79.71313,131.04123
"3987",79.68871,131.05457
"3988",79.6643,131.0679
"3989",79.64477,131.08124
"3990",79.63256,131.09457
"3991",79.62768,131.10791
"3992",79.62768,131.12125
"3993",79.64233,131.13458
"3994",79.66186,131.14792
"3995",79.68139,131.16125
"3996",79.693596,131.17459
"3997",79.69848,131.18793
"3998",79.693596,131.20126
"3999",79.67895,131.2146
"4000",79.65453,131.22794
"4001",79.62768,131.24127
"4002",79.60815,131.25461
"4003",79.59594,131.26794
"4004",79.59838,131.28128
"4005",79.63256,131.29462
"4006",79.72045,131.30795
"4007",79.86694,131.32129
"4008",80.0647,131.33463
"4009",80.30152,131.34796
"4010",80.53101,131.3613
"4011",80.71168,131.37463
"4012",80.816666,131.38797
"4013",80.84108,131.4013
"4014",80.797134,131.41464
"4015",80.70191,131.42798
"4016",80.59205,131.44131
"4017",80.48707,131.45465
"4018",80.394295,131.46799
"4019",80.31617,131.48132
"4020",80.26246,131.49466
"4021",80.22095,131.508
"4022",80.18921,131.52133
"4023",80.15747,131.53467
"4024",80.12085,131.548
"4025",80.076904,131.56134
"4026",80.0354,131.57468
"4027",80.00122,131.58801
"4028",79.98413,131.60135
"4029",79.98657,131.61469
"4030",80.00366,131.62802
"4031",80.028076,131.64136
"4032",80.045166,131.6547
"4033",80.04761,131.66803
"4034",80.03784,131.68137
"4035",80.01343,131.6947
"4036",79.97681,131.70804
"4037",79.93042,131.72137
"4038",79.87915,131.73471
"4039",79.82788,131.74805
"4040",79.77661,131.76138
"4041",79.7351,131.77472
"4042",79.70336,131.78806
"4043",79.68383,131.80139
"4044",79.66918,131.81473
"4045",79.65942,131.82806
"4046",79.656975,131.8414
"4047",79.656975,131.85474
"4048",79.65942,131.86807
"4049",79.66918,131.88141
"4050",79.67895,131.89474
"4051",79.68383,131.90808
"4052",79.68383,131.92142
"4053",79.67895,131.93475
"4054",79.66918,131.94809
"4055",79.65453,131.96143
"4056",79.63744,131.97476
"4057",79.61791,131.9881
"4058",79.61059,132.00143
"4059",79.63012,132.01477
"4060",79.69604,132.0281
"4061",79.83032,132.04144
"4062",80.025635,132.05478
"4063",80.26246,132.06812
"4064",80.49683,132.08145
"4065",80.69703,132.09479
"4066",80.82643,132.10812
"4067",80.88014,132.12146
"4068",80.86305,132.1348
"4069",80.797134,132.14813
"4070",80.69947,132.16147
"4071",80.59205,132.1748
"4072",80.48951,132.18814
"4073",80.40162,132.20148
"4074",80.33814,132.21481
"4075",80.29664,132.22815
"4076",80.2649,132.24149
"4077",80.23804,132.25482
"4078",80.21118,132.26816
"4079",80.17456,132.2815
"4080",80.1355,132.29483
"4081",80.09888,132.30817
"4082",80.07202,132.3215
"4083",80.05249,132.33484
"4084",80.045166,132.34818
"4085",80.05005,132.36151
"4086",80.062256,132.37485
"4087",80.06714,132.38818
"4088",80.059814,132.40152
"4089",80.03784,132.41486
"4090",79.99878,132.42819
"4091",79.94507,132.44153
"4092",79.886475,132.45486
"4093",79.82788,132.4682
"4094",79.77417,132.48154
"4095",79.73266,132.49487
"4096",79.70092,132.50821
"4097",79.674065,132.52155
"4098",79.65942,132.53488
"4099",79.64721,132.54822
"4100",79.63744,132.56155
"4101",79.635,132.57489
"4102",79.63744,132.58823
"4103",79.639885,132.60156
"4104",79.64721,132.6149
"4105",79.65453,132.62823
"4106",79.6643,132.64157
"4107",79.67162,132.6549
"4108",79.67895,132.66824
"4109",79.68383,132.68158
"4110",79.68383,132.69492
"4111",79.67895,132.70825
"4112",79.674065,132.72159
"4113",79.68383,132.73492
"4114",79.7351,132.74826
"4115",79.84497,132.7616
"4116",80.02075,132.77493
"4117",80.2478,132.78827
"4118",80.49439,132.8016
"4119",80.71656,132.81494
"4120",80.87282,132.82828
"4121",80.94606,132.84161
"4122",80.94118,132.85495
"4123",80.87526,132.86829
"4124",80.77272,132.88162
"4125",80.66041,132.89496
"4126",80.55543,132.9083
"4127",80.46998,132.92163
"4128",80.4065,132.93497
"4129",80.365,132.9483
"4130",80.33082,132.96164
"4131",80.29908,132.97498
"4132",80.26246,132.98831
"4133",80.218506,133.00165
"4134",80.164795,133.01498
"4135",80.11597,133.02832
"4136",80.079346,133.04166
"4137",80.05493,133.055
"4138",80.042725,133.06833
"4139",80.042725,133.08167
"4140",80.05005,133.095
"4141",80.05493,133.10834
"4142",80.05493,133.12167
"4143",80.05005,133.13501
"4144",80.03296,133.14835
"4145",80.0061,133.16168
"4146",79.9646,133.17502
"4147",79.91577,133.18835
"4148",79.86206,133.20169
"4149",79.81079,133.21503
"4150",79.76196,133.22836
"4151",79.725334,133.2417
"4152",79.69848,133.25504
"4153",79.68383,133.26837
"4154",79.67895,133.28171
"4155",79.68627,133.29504
"4156",79.69848,133.30838
"4157",79.71557,133.32172
"4158",79.7351,133.33505
"4159",79.75952,133.34839
"4160",79.781494,133.36172
"4161",79.801025,133.37506
"4162",79.81079,133.3884
"4163",79.81323,133.40173
"4164",79.80591,133.41507
"4165",79.79614,133.4284
"4166",79.79126,133.44174
"4167",79.798584,133.45508
"4168",79.835205,133.46841
"4169",79.92554,133.48175
"4170",80.076904,133.49509
"4171",80.28443,133.50842
"4172",80.52857,133.52176
"4173",80.762955,133.5351
"4174",80.94606,133.54843
"4175",81.05592,133.56177
"4176",81.0901,133.5751
"4177",81.05592,133.58844
"4178",80.97536,133.60178
"4179",80.87282,133.61511
"4180",80.76051,133.62845
"4181",80.66285,133.64178
"4182",80.584724,133.65512
"4183",80.533455,133.66846
"4184",80.50172,133.6818
"4185",80.482185,133.69513
"4186",80.45533,133.70847
"4187",80.42115,133.7218
"4188",80.36744,133.73514
"4189",80.306404,133.74847
"4190",80.2478,133.76181
"4191",80.198975,133.77515
"4192",80.164795,133.78848
"4193",80.15015,133.80182
"4194",80.15259,133.81516
"4195",80.164795,133.82849
"4196",80.17944,133.84183
"4197",80.18921,133.85516
"4198",80.18921,133.8685
"4199",80.16968,133.88184
"4200",80.128174,133.89517
"4201",80.076904,133.90851
"4202",80.01587,133.92184
"4203",79.95239,133.93518
"4204",79.8938,133.94852
"4205",79.84741,133.96185
"4206",79.80835,133.97519
"4207",79.77905,133.98853
"4208",79.75464,134.00186
"4209",79.725334,134.0152
"4210",79.693596,134.02853
"4211",79.6643,134.04187
"4212",79.64233,134.0552
"4213",79.62524,134.06854
"4214",79.622795,134.08188
"4215",79.62768,134.09521
"4216",79.635,134.10855
"4217",79.635,134.12189
"4218",79.63256,134.13522
"4219",79.62524,134.14856
"4220",79.61303,134.1619
"4221",79.59594,134.17523
"4222",79.58373,134.18857
"4223",79.59106,134.2019
"4224",79.64477,134.21524
"4225",79.76196,134.22858
"4226",79.94263,134.24191
"4227",80.16724,134.25525
"4228",80.396736,134.26859
"4229",80.587166,134.28192
"4230",80.71168,134.29526
"4231",80.75807,134.3086
"4232",80.73609,134.32193
"4233",80.67017,134.33527
"4234",80.584724,134.3486
"4235",80.49439,134.36194
"4236",80.41871,134.37527
"4237",80.36744,134.38861
"4238",80.3357,134.40195
"4239",80.32105,134.41528
"4240",80.30396,134.42862
"4241",80.27955,134.44196
"4242",80.24048,134.45529
"4243",80.19653,134.46863
"4244",80.15259,134.48196
"4245",80.11597,134.4953
"4246",80.093994,134.50864
"4247",80.09888,134.52197
"4248",80.12573,134.53531
"4249",80.16235,134.54865
"4250",80.2063,134.56198
"4251",80.24048,134.57532
"4252",80.25269,134.58865
"4253",80.22827,134.60199
"4254",80.17456,134.61533
"4255",80.09888,134.62866
"4256",80.01831,134.642
"4257",79.937744,134.65533
"4258",79.87915,134.66867
"4259",79.84009,134.682
"4260",79.818115,134.69534
"4261",79.80835,134.70868
"4262",79.80591,134.72202
"4263",79.80591,134.73535
"4264",79.80835,134.74869
"4265",79.815674,134.76202
"4266",79.818115,134.77536
"4267",79.82056,134.7887
"4268",79.815674,134.80203
"4269",79.815674,134.81537
"4270",79.823,134.8287
"4271",79.83276,134.84204
"4272",79.84497,134.85538
"4273",79.84985,134.86871
"4274",79.84009,134.88205
"4275",79.82056,134.89539
"4276",79.801025,134.90872
"4277",79.78882,134.92206
"4278",79.79126,134.9354
"4279",79.81079,134.94873
"4280",79.85962,134.96207
"4281",79.94263,134.9754
"4282",80.079346,134.98874
"4283",80.26002,135.00208
"4284",80.46021,135.01541
"4285",80.64576,135.02875
"4286",80.78981,135.04208
"4287",80.87038,135.05542
"4288",80.88258,135.06876
"4289",80.84352,135.08209
"4290",80.77272,135.09543
"4291",80.689705,135.10876
"4292",80.60914,135.1221
"4293",80.52369,135.13544
"4294",80.44312,135.14877
"4295",80.36744,135.16211
"4296",80.2942,135.17545
"4297",80.21362,135.18878
"4298",80.12573,135.20212
"4299",80.03052,135.21545
"4300",79.923096,135.22879
"4301",79.81323,135.24213
"4302",79.71313,135.25546
"4303",79.63744,135.2688
"4304",79.60082,135.28214
"4305",79.59106,135.29547
"4306",79.59594,135.3088
"4307",79.59838,135.32214
"4308",79.588615,135.33548
"4309",79.55932,135.34882
"4310",79.50561,135.36215
"4311",79.43481,135.37549
"4312",79.34692,135.38882
"4313",79.24925,135.40216
"4314",79.149155,135.4155
"4315",79.04173,135.42883
"4316",78.93187,135.44217
"4317",78.82445,135.4555
"4318",78.7219,135.46884
"4319",78.62913,135.48218
"4320",78.553444,135.49551
"4321",78.49241,135.50885
"4322",78.44846,135.52219
"4323",78.41428,135.53552
"4324",78.38499,135.54886
"4325",78.36057,135.5622
"4326",78.345924,135.57553
"4327",78.3386,135.58887
"4328",78.34104,135.6022
"4329",78.348366,135.61554
"4330",78.35813,135.62888
"4331",78.37034,135.64221
"4332",78.38499,135.65555
"4333",78.40696,135.66888
"4334",78.44602,135.68222
"4335",78.521706,135.69556
"4336",78.64866,135.7089
"4337",78.83177,135.72223
"4338",79.07103,135.73557
"4339",79.33959,135.7489
"4340",79.603264,135.76224
"4341",79.823,135.77557
"4342",79.97681,135.78891
"4343",80.045166,135.80225
"4344",80.04028,135.81558
"4345",79.98169,135.82892
"4346",79.88403,135.84225
"4347",79.76929,135.85559
"4348",79.64965,135.86893
"4349",79.537346,135.88226
"4350",79.44213,135.8956
"4351",79.36645,135.90894
"4352",79.30053,135.92227
"4353",79.23949,135.93561
"4354",79.18089,135.94894
"4355",79.12718,135.96228
"4356",79.09544,135.97562
"4357",79.093,135.98895
"4358",79.13451,136.00229
"4359",79.217514,136.01562
"4360",79.33715,136.02896
"4361",79.46899,136.0423
"4362",79.59106,136.05563
"4363",79.68139,136.06897
"4364",79.73022,136.0823
"4365",79.7351,136.09564
"4366",79.70336,136.10898
"4367",79.656975,136.12231
"4368",79.61303,136.13565
"4369",79.58129,136.14899
"4370",79.56664,136.16232
"4371",79.55932,136.17566
"4372",79.5642,136.189
"4373",79.56664,136.20233
"4374",79.571526,136.21567
"4375",79.569084,136.229
"4376",79.569084,136.24234
"4377",79.5642,136.25568
"4378",79.5642,136.26901
"4379",79.5642,136.28235
"4380",79.56176,136.29568
"4381",79.554436,136.30902
"4382",79.53979,136.32236
"4383",79.51049,136.3357
"4384",79.47387,136.34903
"4385",79.42016,136.36237
"4386",79.364006,136.3757
"4387",79.30785,136.38904
"4388",79.259026,136.40237
"4389",79.2224,136.41571
"4390",79.219955,136.42905
"4391",79.276115,136.44238
"4392",79.40307,136.45572
"4393",79.60815,136.46906
"4394",79.871826,136.48239
"4395",80.15991,136.49573
"4396",80.42115,136.50906
"4397",80.61646,136.5224
"4398",80.73121,136.53574
"4399",80.77028,136.54907
"4400",80.743416,136.56241
"4401",80.68238,136.57574
"4402",80.6067,136.58908
"4403",80.533455,136.60242
"4404",80.465096,136.61575
"4405",80.40894,136.62909
"4406",80.360115,136.64243
"4407",80.31861,136.65576
"4408",80.274666,136.6691
"4409",80.23804,136.68243
"4410",80.20386,136.69577
"4411",80.17212,136.7091
"4412",80.14526,136.72244
"4413",80.12085,136.73578
"4414",80.1062,136.74911
"4415",80.09888,136.76245
"4416",80.1062,136.77579
"4417",80.12329,136.78912
"4418",80.14526,136.80246
"4419",80.16968,136.8158
"4420",80.18921,136.82913
"4421",80.198975,136.84247
"4422",80.19409,136.8558
"4423",80.181885,136.86914
"4424",80.15747,136.88248
"4425",80.128174,136.89581
"4426",80.10132,136.90915
"4427",80.076904,136.92249
"4428",80.05737,136.93582
"4429",80.042725,136.94916
"4430",80.028076,136.9625
"4431",80.01831,136.97583
"4432",80.00366,136.98917
"4433",79.9939,137.0025
"4434",79.98657,137.01584
"4435",79.98657,137.02917
"4436",79.97925,137.04251
"4437",79.96704,137.05585
"4438",79.94751,137.06918
"4439",79.923096,137.08252
"4440",79.89624,137.09586
"4441",79.871826,137.10919
"4442",79.85474,137.12253
"4443",79.84741,137.13586
"4444",79.8645,137.1492
"4445",79.923096,137.16254
"4446",80.042725,137.17587
"4447",80.22583,137.18921
"4448",80.45533,137.20255
"4449",80.69947,137.21588
"4450",80.91432,137.22922
"4451",81.06081,137.24255
"4452",81.1194,137.25589
"4453",81.10719,137.26923
"4454",81.03639,137.28256
"4455",80.93141,137.2959
"4456",80.816666,137.30923
"4457",80.71168,137.32257
"4458",80.621346,137.3359
"4459",80.552986,137.34924
"4460",80.50416,137.36258
"4461",80.46998,137.37592
"4462",80.445564,137.38925
"4463",80.41871,137.40259
"4464",80.377205,137.41592
"4465",80.32838,137.42926
"4466",80.27955,137.4426
"4467",80.235596,137.45593
"4468",80.201416,137.46927
"4469",80.184326,137.4826
"4470",80.18677,137.49594
"4471",80.19653,137.50928
"4472",80.21118,137.52261
"4473",80.218506,137.53595
"4474",80.216064,137.54929
"4475",80.198975,137.56262
"4476",80.16968,137.57596
"4477",80.128174,137.5893
"4478",80.08179,137.60263
"4479",80.03052,137.61597
"4480",79.97925,137.6293
"4481",79.93042,137.64264
"4482",79.888916,137.65598
"4483",79.85718,137.66931
"4484",79.835205,137.68265
"4485",79.823,137.69598
"4486",79.815674,137.70932
"4487",79.81323,137.72266
"4488",79.80591,137.736
"4489",79.80591,137.74933
"4490",79.801025,137.76266
"4491",79.79614,137.776
"4492",79.783936,137.78934
"4493",79.77417,137.80267
"4494",79.766846,137.81601
"4495",79.766846,137.82935
"4496",79.783936,137.84268
"4497",79.835205,137.85602
"4498",79.9353,137.86935
"4499",80.08911,137.88269
"4500",80.291756,137.89603
"4501",80.52369,137.90936
"4502",80.740974,137.9227
"4503",80.90456,137.93604
