"","ppg","time"
"1",81.2781,581.8129
"2",80.907,581.82623
"3",80.57496,581.83954
"4",80.30396,581.85284
"5",80.10376,581.86615
"6",79.98169,581.87946
"7",79.92798,581.89276
"8",79.93042,581.90607
"9",79.96948,581.9194
"10",80.02075,581.9327
"11",80.0647,581.946
"12",80.08423,581.9593
"13",80.06958,581.9726
"14",80.01587,581.9859
"15",79.92798,581.9992
"16",79.81323,582.0125
"17",79.67895,582.0258
"18",79.53002,582.0391
"19",79.37377,582.0524
"20",79.217514,582.06573
"21",79.06615,582.07904
"22",78.92699,582.09235
"23",78.80003,582.10565
"24",78.6804,582.11896
"25",78.56809,582.13226
"26",78.46311,582.14557
"27",78.36057,582.1589
"28",78.27268,582.1722
"29",78.19699,582.1855
"30",78.1384,582.1988
"31",78.09445,582.2121
"32",78.05783,582.2254
"33",78.02365,582.2387
"34",77.99924,582.252
"35",77.97482,582.2653
"36",77.95285,582.2786
"37",77.92844,582.29193
"38",77.89914,582.30524
"39",77.8674,582.31854
"40",77.83322,582.33185
"41",77.81857,582.34515
"42",77.855194,582.35846
"43",77.98947,582.37177
"44",78.2678,582.3851
"45",78.71458,582.3984
"46",79.32494,582.4117
"47",80.05005,582.425
"48",80.814224,582.4383
"49",81.514915,582.4516
"50",82.08133,582.4649
"51",82.4622,582.4782
"52",82.6453,582.4915
"53",82.64042,582.5048
"54",82.48661,582.5181
"55",82.22781,582.53143
"56",81.91287,582.54474
"57",81.57839,582.55804
"58",81.26101,582.57135
"59",80.972916,582.58466
"60",80.72144,582.59796
"61",80.50172,582.61127
"62",80.31373,582.6246
"63",80.15991,582.6379
"64",80.045166,582.6512
"65",79.974365,582.6645
"66",79.954834,582.6778
"67",79.98169,582.6911
"68",80.03784,582.7044
"69",80.113525,582.7177
"70",80.18921,582.731
"71",80.25025,582.7443
"72",80.274666,582.7576
"73",80.25269,582.77094
"74",80.18921,582.78424
"75",80.08179,582.79755
"76",79.94751,582.81085
"77",79.801025,582.82416
"78",79.64965,582.83746
"79",79.50317,582.85077
"80",79.36645,582.8641
"81",79.24437,582.8774
"82",79.12962,582.8907
"83",79.03441,582.904
"84",78.9514,582.9173
"85",78.8806,582.9306
"86",78.819565,582.9439
"87",78.77562,582.9572
"88",78.73655,582.9705
"89",78.70481,582.9838
"90",78.67307,582.99713
"91",78.643776,583.01044
"92",78.61448,583.02374
"93",78.590065,583.03705
"94",78.56809,583.05035
"95",78.553444,583.06366
"96",78.54368,583.07697
"97",78.53391,583.0903
"98",78.521706,583.1036
"99",78.51682,583.1169
"100",78.51438,583.1302
"101",78.51682,583.1435
"102",78.521706,583.1568
"103",78.52659,583.1701
"104",78.53147,583.1834
"105",78.53391,583.1967
"106",78.53147,583.21
"107",78.519264,583.2233
"108",78.502174,583.23663
"109",78.4802,583.24994
"110",78.4802,583.26324
"111",78.538795,583.27655
"112",78.72434,583.28986
"113",79.080795,583.30316
"114",79.62768,583.31647
"115",80.33814,583.3298
"116",81.146255,583.3431
"117",81.94461,583.3564
"118",82.63554,583.3697
"119",83.14824,583.383
"120",83.44854,583.3963
"121",83.529106,583.4096
"122",83.41924,583.4229
"123",83.16533,583.4362
"124",82.81865,583.4495
"125",82.43534,583.4628
"126",82.056915,583.47614
"127",81.71267,583.48944
"128",81.40505,583.50275
"129",81.13893,583.51605
"130",80.90456,583.52936
"131",80.706795,583.54266
"132",80.54322,583.55597
"133",80.42603,583.5693
"134",80.35767,583.5826
"135",80.34547,583.5959
"136",80.377205,583.6092
"137",80.44312,583.6225
"138",80.52369,583.6358
"139",80.59205,583.6491
"140",80.63111,583.6624
"141",80.62867,583.6757
"142",80.58228,583.689
"143",80.49195,583.70233
"144",80.36256,583.71564
"145",80.198975,583.72894
"146",80.02075,583.74225
"147",79.83765,583.75555
"148",79.65942,583.76886
"149",79.49828,583.78217
"150",79.35668,583.7955
"151",79.22972,583.8088
"152",79.11742,583.8221
"153",79.01976,583.8354
"154",78.94408,583.8487
"155",78.88548,583.862
"156",78.84642,583.8753
"157",78.8098,583.8886
"158",78.78294,583.9019
"159",78.751205,583.9152
"160",78.71946,583.9285
"161",78.68528,583.94183
"162",78.6511,583.95514
"163",78.6218,583.96844
"164",78.590065,583.98175
"165",78.55833,583.99506
"166",78.53391,584.00836
"167",78.51194,584.02167
"168",78.48997,584.035
"169",78.467995,584.0483
"170",78.44846,584.0616
"171",78.42893,584.0749
"172",78.41428,584.0882
"173",78.40208,584.1015
"174",78.39475,584.1148
"175",78.399635,584.1281
"176",78.399635,584.1414
"177",78.397194,584.1547
"178",78.382545,584.168
"179",78.365456,584.18134
"180",78.34104,584.19464
"181",78.32639,584.20795
"182",78.35569,584.22125
"183",78.470436,584.23456
"184",78.71946,584.24786
"185",79.14183,584.26117
"186",79.73266,584.2745
"187",80.445564,584.2878
"188",81.19997,584.3011
"189",81.898224,584.3144
"190",82.45487,584.3277
"191",82.81621,584.341
"192",82.97002,584.3543
"193",82.930954,584.3676
"194",82.73075,584.3809
"195",82.41337,584.3942
"196",82.03006,584.40753
"197",81.62966,584.42084
"198",81.24391,584.43414
"199",80.89723,584.44745
"200",80.59693,584.46075
"201",80.343025,584.47406
"202",80.14038,584.48737
"203",79.98901,584.5007
"204",79.89136,584.514
"205",79.852295,584.5273
"206",79.869385,584.5406
"207",79.93286,584.5539
"208",80.028076,584.5672
"209",80.14038,584.5805
"210",80.25269,584.5938
"211",80.33814,584.6071
"212",80.38209,584.6204
"213",80.377205,584.6337
"214",80.32105,584.64703
"215",80.218506,584.66034
"216",80.07446,584.67365
"217",79.906006,584.68695
"218",79.72289,584.70026
"219",79.52758,584.71356
"220",79.344475,584.72687
"221",79.18822,584.7402
"222",79.063705,584.7535
"223",78.96849,584.7668
"224",78.90257,584.7801
"225",78.85863,584.7934
"226",78.82689,584.8067
"227",78.80003,584.82
"228",78.78294,584.8333
"229",78.77562,584.8466
"230",78.765854,584.8599
"231",78.75853,584.8732
"232",78.74876,584.88654
"233",78.73411,584.89984
"234",78.71458,584.91315
"235",78.69749,584.92645
"236",78.6804,584.93976
"237",78.66819,584.95306
"238",78.658424,584.9664
"239",78.64866,584.9797
"240",78.643776,584.993
"241",78.63889,585.0063
"242",78.63889,585.0196
"243",78.63645,585.0329
"244",78.63157,585.0462
"245",78.6218,585.0595
"246",78.607155,585.0728
"247",78.58518,585.0861
"248",78.57053,585.0994
"249",78.58762,585.11273
"250",78.67063,585.12604
"251",78.870834,585.13934
"252",79.22972,585.15265
"253",79.75464,585.16595
"254",80.40894,585.17926
"255",81.12184,585.19257
"256",81.80057,585.2059
"257",82.357216,585.2192
"258",82.72831,585.2325
"259",82.9041,585.2458
"260",82.88701,585.2591
"261",82.71366,585.2724
"262",82.425575,585.2857
"263",82.074005,585.299
"264",81.70046,585.3123
"265",81.34402,585.3256
"266",81.0193,585.3389
"267",80.73609,585.35223
"268",80.49683,585.36554
"269",80.29664,585.37885
"270",80.13794,585.39215
"271",80.03052,585.40546
"272",79.974365,585.41876
"273",79.97925,585.43207
"274",80.03296,585.4454
"275",80.12573,585.4587
"276",80.24536,585.472
"277",80.365,585.4853
"278",80.465096,585.4986
"279",80.53101,585.5119
"280",80.550545,585.5252
"281",80.516365,585.5385
"282",80.4358,585.5518
"283",80.31373,585.5651
"284",80.16724,585.5784
"285",80.0061,585.59174
"286",79.84253,585.60504
"287",79.68383,585.61835
"288",79.534904,585.63165
"289",79.40307,585.64496
"290",79.290764,585.65826
"291",79.21019,585.6716
"292",79.151596,585.6849
"293",79.11253,585.6982
"294",79.09056,585.7115
"295",79.08568,585.7248
"296",79.080795,585.7381
"297",79.078354,585.7514
"298",79.07591,585.7647
"299",79.07103,585.778
"300",79.05638,585.7913
"301",79.03197,585.8046
"302",79.00267,585.81793
"303",78.97826,585.83124
"304",78.958725,585.84454
"305",78.94652,585.85785
"306",78.94408,585.87115
"307",78.93919,585.88446
"308",78.92943,585.89777
"309",78.90257,585.9111
"310",78.870834,585.9244
"311",78.84642,585.9377
"312",78.873276,585.951
"313",78.99779,585.9643
"314",79.26391,585.9776
"315",79.68871,585.9909
"316",80.26002,586.0042
"317",80.919205,586.0175
"318",81.583275,586.0308
"319",82.17166,586.0441
"320",82.616005,586.05743
"321",82.87724,586.07074
"322",82.9456,586.08405
"323",82.84062,586.09735
"324",82.6038,586.11066
"325",82.27665,586.12396
"326",81.91531,586.13727
"327",81.55642,586.1506
"328",81.22194,586.1639
"329",80.92409,586.1772
"330",80.66529,586.1905
"331",80.445564,586.2038
"332",80.26002,586.2171
"333",80.113525,586.2304
"334",80.008545,586.2437
"335",79.95972,586.257
"336",79.9646,586.2703
"337",80.01587,586.2836
"338",80.10376,586.29694
"339",80.21118,586.31024
"340",80.31617,586.32355
"341",80.40162,586.33685
"342",80.448006,586.35016
"343",80.445564,586.36346
"344",80.38697,586.3768
"345",80.27955,586.3901
"346",80.13794,586.4034
"347",79.97681,586.4167
"348",79.81323,586.43
"349",79.66674,586.4433
"350",79.534904,586.4566
"351",79.4226,586.4699
"352",79.32494,586.4832
"353",79.24681,586.4965
"354",79.185776,586.5098
"355",79.14183,586.52313
"356",79.11253,586.53644
"357",79.09544,586.54974
"358",79.08568,586.56305
"359",79.080795,586.57635
"360",79.07103,586.58966
"361",79.061264,586.60297
"362",79.04906,586.6163
"363",79.03441,586.6296
"364",79.01732,586.6429
"365",78.99779,586.6562
"366",78.98314,586.6695
"367",78.96849,586.6828
"368",78.95384,586.6961
"369",78.941635,586.7094
"370",78.922104,586.7227
"371",78.905014,586.736
"372",78.890366,586.7493
"373",78.89525,586.76263
"374",78.94896,586.77594
"375",79.10765,586.78925
"376",79.40551,586.80255
"377",79.86694,586.81586
"378",80.465096,586.82916
"379",81.14137,586.84247
"380",81.80545,586.8558
"381",82.36698,586.8691
"382",82.76494,586.8824
"383",82.97002,586.8957
"384",82.98955,586.909
"385",82.85039,586.9223
"386",82.59647,586.9356
"387",82.27421,586.9489
"388",81.92752,586.9622
"389",81.58572,586.9755
"390",81.270775,586.98883
"391",80.990005,587.00214
"392",80.74586,587.01544
"393",80.53834,587.02875
"394",80.360115,587.04205
"395",80.218506,587.05536
"396",80.11841,587.06866
"397",80.0647,587.082
"398",80.05493,587.0953
"399",80.093994,587.1086
"400",80.164795,587.1219
"401",80.25269,587.1352
"402",80.33814,587.1485
"403",80.396736,587.1618
"404",80.41871,587.1751
"405",80.396736,587.1884
"406",80.325935,587.2017
"407",80.216064,587.215
"408",80.079346,587.22833
"409",79.92798,587.24164
"410",79.77173,587.25494
"411",79.61791,587.26825
"412",79.47875,587.28156
"413",79.35912,587.29486
"414",79.26391,587.30817
"415",79.185776,587.3215
"416",79.12962,587.3348
"417",79.09056,587.3481
"418",79.05638,587.3614
"419",79.029526,587.3747
"420",79.009995,587.388
"421",78.992905,587.4013
"422",78.9807,587.4146
"423",78.96849,587.4279
"424",78.9514,587.4412
"425",78.93431,587.4545
"426",78.9099,587.46783
"427",78.88548,587.48114
"428",78.86351,587.49445
"429",78.84642,587.50775
"430",78.836655,587.52106
"431",78.82689,587.53436
"432",78.81224,587.54767
"433",78.79759,587.561
"434",78.79027,587.5743
"435",78.819565,587.5876
"436",78.92943,587.6009
"437",79.17113,587.6142
"438",79.56664,587.6275
"439",80.111084,587.6408
"440",80.75075,587.6541
"441",81.41238,587.6674
"442",82.00809,587.6807
"443",82.46464,587.69403
"444",82.7454,587.70734
"445",82.83818,587.72064
"446",82.76982,587.73395
"447",82.56962,587.74725
"448",82.28153,587.76056
"449",81.95438,587.77386
"450",81.62478,587.7872
"451",81.31716,587.8005
"452",81.041275,587.8138
"453",80.797134,587.8271
"454",80.5774,587.8404
"455",80.38941,587.8537
"456",80.22827,587.867
"457",80.10376,587.8803
"458",80.02319,587.8936
"459",79.98901,587.9069
"460",79.99878,587.9202
"461",80.045166,587.93353
"462",80.113525,587.94684
"463",80.19409,587.96014
"464",80.26246,587.97345
"465",80.308846,587.98676
"466",80.31373,588.00006
"467",80.272224,588.01337
"468",80.184326,588.0267
"469",80.062256,588.04
"470",79.91577,588.0533
"471",79.75708,588.0666
"472",79.603264,588.0799
"473",79.46166,588.0932
"474",79.33959,588.1065
"475",79.237045,588.1198
"476",79.151596,588.1331
"477",79.08812,588.1464
"478",79.046616,588.1597
"479",79.01976,588.17303
"480",79.00755,588.18634
"481",79.00023,588.19965
"482",78.995346,588.21295
"483",78.98314,588.22626
"484",78.96361,588.23956
"485",78.941635,588.25287
"486",78.922104,588.2662
"487",78.90257,588.2795
"488",78.88304,588.2928
"489",78.86595,588.3061
"490",78.853745,588.3194
"491",78.84398,588.3327
"492",78.84154,588.346
"493",78.84154,588.3593
"494",78.839096,588.3726
"495",78.83177,588.3859
"496",78.81712,588.39923
"497",78.802475,588.41254
"498",78.79271,588.42584
"499",78.819565,588.43915
"500",78.93675,588.45245
"501",79.183334,588.46576
"502",79.59594,588.47906
"503",80.15747,588.4924
"504",80.82155,588.5057
"505",81.497826,588.519
"506",82.09842,588.5323
"507",82.547646,588.5456
"508",82.81377,588.5589
"509",82.88945,588.5722
"510",82.79912,588.5855
"511",82.581825,588.5988
"512",82.28397,588.6121
"513",81.95438,588.6254
"514",81.62966,588.63873
"515",81.33181,588.65204
"516",81.07057,588.66534
"517",80.84352,588.67865
"518",80.64332,588.69196
"519",80.46021,588.70526
"520",80.2942,588.71857
"521",80.15747,588.7319
"522",80.062256,588.7452
"523",80.01587,588.7585
"524",80.02075,588.7718
"525",80.07202,588.7851
"526",80.147705,588.7984
"527",80.233154,588.8117
"528",80.306404,588.825
"529",80.35279,588.8383
"530",80.35767,588.8516
"531",80.31373,588.8649
"532",80.22339,588.87823
"533",80.09888,588.89154
"534",79.95239,588.90485
"535",79.801025,588.91815
"536",79.65209,588.93146
"537",79.517815,588.94476
"538",79.395744,588.95807
"539",79.290764,588.9714
"540",79.21019,588.9847
"541",79.14671,588.998
"542",79.10277,589.0113
"543",79.07347,589.0246
"544",79.05882,589.0379
"545",79.04906,589.0512
"546",79.03929,589.0645
"547",79.027084,589.0778
"548",79.01488,589.0911
"549",78.99779,589.10443
"550",78.9807,589.11774
"551",78.96117,589.13104
"552",78.94408,589.14435
"553",78.924545,589.15765
"554",78.907455,589.17096
"555",78.887924,589.18427
"556",78.873276,589.1976
"557",78.86351,589.2109
"558",78.856186,589.2242
"559",78.8513,589.2375
"560",78.84642,589.2508
"561",78.84154,589.2641
"562",78.836655,589.2774
"563",78.82933,589.2907
"564",78.82689,589.304
"565",78.82933,589.3173
"566",78.83421,589.3306
"567",78.83421,589.34393
"568",78.83177,589.35724
"569",78.82933,589.37054
"570",78.8513,589.38385
"571",78.94896,589.39716
"572",79.185776,589.41046
"573",79.588615,589.42377
"574",80.16235,589.4371
"575",80.850845,589.4504
"576",81.57595,589.4637
"577",82.22781,589.477
"578",82.72831,589.4903
"579",83.03105,589.5036
"580",83.13603,589.5169
"581",83.06279,589.5302
"582",82.85039,589.5435
"583",82.547646,589.5568
"584",82.2034,589.5701
"585",81.849396,589.58344
"586",81.52468,589.59674
"587",81.24147,589.61005
"588",81.007095,589.62335
"589",80.816666,589.63666
"590",80.66041,589.64996
"591",80.52369,589.66327
"592",80.40406,589.6766
"593",80.308846,589.6899
"594",80.24292,589.7032
"595",80.21118,589.7165
"596",80.216064,589.7298
"597",80.25269,589.7431
"598",80.31129,589.7564
"599",80.37232,589.7697
"600",80.41627,589.783
"601",80.43336,589.7963
"602",80.4065,589.80963
"603",80.3357,589.82294
"604",80.22095,589.83624
"605",80.076904,589.84955
"606",79.91821,589.86285
"607",79.75708,589.87616
"608",79.603264,589.88947
"609",79.46899,589.9028
"610",79.35912,589.9161
"611",79.27123,589.9294
"612",79.21019,589.9427
"613",79.166245,589.956
"614",79.13451,589.9693
"615",79.11009,589.9826
"616",79.09056,589.9959
"617",79.07103,590.0092
"618",79.05638,590.0225
"619",79.03929,590.0358
"620",79.02464,590.04913
"621",79.00511,590.06244
"622",78.98314,590.07574
"623",78.95628,590.08905
"624",78.92943,590.10236
"625",78.91234,590.11566
"626",78.90257,590.12897
"627",78.89769,590.1423
"628",78.89525,590.1556
"629",78.89769,590.1689
"630",78.90257,590.1822
"631",78.91234,590.1955
"632",78.91722,590.2088
"633",78.91966,590.2221
"634",78.91478,590.2354
"635",78.90013,590.2487
"636",78.87816,590.262
"637",78.85863,590.2753
"638",78.84642,590.28864
"639",78.839096,590.30194
"640",78.83421,590.31525
"641",78.83177,590.32855
"642",78.82689,590.34186
"643",78.819565,590.35516
"644",78.81468,590.36847
"645",78.83421,590.3818
"646",78.91722,590.3951
"647",79.12962,590.4084
"648",79.50805,590.4217
"649",80.059814,590.435
"650",80.73609,590.4483
"651",81.461205,590.4616
"652",82.1326,590.4749
"653",82.667274,590.4882
"654",83.00908,590.5015
"655",83.15312,590.51483
"656",83.11162,590.52814
"657",82.91875,590.54144
"658",82.62089,590.55475
"659",82.27665,590.56805
"660",81.92264,590.58136
"661",81.58816,590.59467
"662",81.29519,590.608
"663",81.04616,590.6213
"664",80.8362,590.6346
"665",80.655525,590.6479
"666",80.50172,590.6612
"667",80.37232,590.6745
"668",80.27711,590.6878
"669",80.216064,590.7011
"670",80.19165,590.7144
"671",80.20386,590.7277
"672",80.23804,590.741
"673",80.289314,590.75433
"674",80.34547,590.76764
"675",80.396736,590.78094
"676",80.42359,590.79425
"677",80.411385,590.80756
"678",80.35523,590.82086
"679",80.255135,590.83417
"680",80.12085,590.8475
"681",79.974365,590.8608
"682",79.823,590.8741
"683",79.68139,590.8874
"684",79.554436,590.9007
"685",79.44457,590.914
"686",79.3518,590.9273
"687",79.281,590.9406
"688",79.22484,590.9539
"689",79.183334,590.9672
"690",79.151596,590.9805
"691",79.12962,590.99384
"692",79.114975,591.00714
"693",79.10521,591.02045
"694",79.10033,591.03375
"695",79.09056,591.04706
"696",79.078354,591.06036
"697",79.05882,591.07367
"698",79.03197,591.087
"699",79.00023,591.1003
"700",78.975815,591.1136
"701",78.95628,591.1269
"702",78.94652,591.1402
"703",78.93919,591.1535
"704",78.941635,591.1668
"705",78.94652,591.1801
"706",78.95628,591.1934
"707",78.96117,591.2067
"708",78.958725,591.22003
"709",78.9514,591.23334
"710",78.93431,591.24664
"711",78.91722,591.25995
"712",78.905014,591.27325
"713",78.90257,591.28656
"714",78.907455,591.29987
"715",78.91722,591.3132
"716",78.92699,591.3265
"717",78.93187,591.3398
"718",78.92943,591.3531
"719",78.91966,591.3664
"720",78.907455,591.3797
"721",78.91966,591.393
"722",79.00023,591.4063
"723",79.20531,591.4196
"724",79.57641,591.4329
"725",80.113525,591.4462
"726",80.77272,591.45953
"727",81.480736,591.47284
"728",82.13992,591.48615
"729",82.66239,591.49945
"730",83.001755,591.51276
"731",83.1458,591.52606
"732",83.11162,591.53937
"733",82.930954,591.5527
"734",82.652626,591.566
"735",82.31815,591.5793
"736",81.969025,591.5926
"737",81.63943,591.6059
"738",81.34402,591.6192
"739",81.08766,591.6325
"740",80.87282,591.6458
"741",80.69215,591.6591
"742",80.54322,591.6724
"743",80.42359,591.6857
"744",80.33326,591.69904
"745",80.27711,591.71234
"746",80.257576,591.72565
"747",80.26734,591.73895
"748",80.306404,591.75226
"749",80.365,591.76556
"750",80.42603,591.7789
"751",80.47486,591.7922
"752",80.49683,591.8055
"753",80.479744,591.8188
"754",80.42359,591.8321
"755",80.33326,591.8454
"756",80.216064,591.8587
"757",80.076904,591.872
"758",79.93286,591.8853
"759",79.78882,591.8986
"760",79.65209,591.9119
"761",79.53246,591.92523
"762",79.432365,591.93854
"763",79.35424,591.95184
"764",79.29809,591.96515
"765",79.259026,591.97845
"766",79.23216,591.99176
"767",79.21263,592.00507
"768",79.19798,592.0184
"769",79.183334,592.0317
"770",79.166245,592.045
"771",79.151596,592.0583
"772",79.132065,592.0716
"773",79.10521,592.0849
"774",79.078354,592.0982
"775",79.04906,592.1115
"776",79.02464,592.1248
"777",79.009995,592.1381
"778",79.00267,592.1514
"779",79.00023,592.16473
"780",79.00511,592.17804
"781",79.01488,592.19135
"782",79.02464,592.20465
"783",79.029526,592.21796
"784",79.029526,592.23126
"785",79.027084,592.24457
"786",79.01732,592.2579
"787",79.00755,592.2712
"788",79.00023,592.2845
"789",78.992905,592.2978
"790",78.98802,592.3111
"791",78.9807,592.3244
"792",78.97093,592.3377
"793",78.958725,592.351
"794",78.95384,592.3643
"795",78.9807,592.3776
"796",79.08568,592.3909
"797",79.3225,592.40424
"798",79.71801,592.41754
"799",80.26978,592.43085
"800",80.93385,592.44415
"801",81.62478,592.45746
"802",82.2449,592.47076
"803",82.72343,592.4841
"804",83.018845,592.4974
"805",83.12627,592.5107
"806",83.06523,592.524
"807",82.86992,592.5373
"808",82.58671,592.5506
"809",82.24979,592.5639
"810",81.90311,592.5772
"811",81.57839,592.5905
"812",81.30007,592.6038
"813",81.07057,592.6171
"814",80.88014,592.63043
"815",80.71656,592.64374
"816",80.567635,592.65704
"817",80.44068,592.67035
"818",80.34058,592.68365
"819",80.26978,592.69696
"820",80.24536,592.71027
"821",80.2649,592.7236
"822",80.31373,592.7369
"823",80.377205,592.7502
"824",80.44068,592.7635
"825",80.48707,592.7768
"826",80.49439,592.7901
"827",80.465096,592.8034
"828",80.39918,592.8167
"829",80.29908,592.83
"830",80.177,592.8433
"831",80.042725,592.8566
"832",79.90112,592.86993
"833",79.76196,592.88324
"834",79.63256,592.89655
"835",79.51537,592.90985
"836",79.4226,592.92316
"837",79.34692,592.93646
"838",79.293205,592.94977
"839",79.256584,592.9631
"840",79.234604,592.9764
"841",79.219955,592.9897
"842",79.20531,593.003
"843",79.18822,593.0163
"844",79.17113,593.0296
"845",79.151596,593.0429
"846",79.12474,593.0562
"847",79.097885,593.0695
"848",79.07103,593.0828
"849",79.046616,593.0961
"850",79.027084,593.10944
"851",79.009995,593.12274
"852",78.99779,593.13605
"853",78.99046,593.14935
"854",78.98314,593.16266
"855",78.98314,593.17596
"856",78.98558,593.1893
"857",78.98802,593.2026
"858",78.98802,593.2159
"859",78.98802,593.2292
"860",78.98314,593.2425
"861",78.975815,593.2558
"862",78.97093,593.2691
"863",78.97093,593.2824
"864",78.97093,593.2957
"865",78.97093,593.309
"866",78.97093,593.3223
"867",78.96605,593.33563
"868",78.95628,593.34894
"869",78.9514,593.36224
"870",78.97093,593.37555
"871",79.05394,593.38885
"872",79.2517,593.40216
"873",79.61303,593.41547
"874",80.14282,593.4288
"875",80.799576,593.4421
"876",81.512474,593.4554
"877",82.18875,593.4687
"878",82.73319,593.482
"879",83.09209,593.4953
"880",83.250786,593.5086
"881",83.226364,593.5219
"882",83.04814,593.5352
"883",82.76982,593.5485
"884",82.43534,593.5618
"885",82.091095,593.57513
"886",81.76883,593.58844
"887",81.48806,593.60175
"888",81.253685,593.61505
"889",81.06569,593.62836
"890",80.90456,593.64166
"891",80.765396,593.65497
"892",80.63355,593.6683
"893",80.51881,593.6816
"894",80.42359,593.6949
"895",80.360115,593.7082
"896",80.32838,593.7215
"897",80.325935,593.7348
"898",80.34058,593.7481
"899",80.36256,593.7614
"900",80.38209,593.7747
"901",80.38697,593.788
"902",80.36988,593.80133
"903",80.32105,593.81464
"904",80.23804,593.82794
"905",80.12329,593.84125
"906",79.991455,593.85455
"907",79.84985,593.86786
"908",79.710686,593.88116
"909",79.58129,593.8945
"910",79.47143,593.9078
"911",79.37133,593.9211
"912",79.28832,593.9344
"913",79.2224,593.9477
"914",79.17113,593.961
"915",79.12962,593.9743
"916",79.10033,593.9876
"917",79.078354,594.0009
"918",79.061264,594.0142
"919",79.04173,594.0275
"920",79.0222,594.04083
"921",79.00023,594.05414
"922",78.9807,594.06744
"923",78.958725,594.08075
"924",78.941635,594.09406
"925",78.924545,594.10736
"926",78.9099,594.12067
"927",78.89281,594.134
"928",78.873276,594.1473
"929",78.853745,594.1606
"930",78.839096,594.1739
"931",78.82933,594.1872
"932",78.82445,594.2005
"933",78.82445,594.2138
"934",78.82445,594.2271
"935",78.82201,594.2404
"936",78.81712,594.2537
"937",78.81224,594.267
"938",78.8098,594.28033
"939",78.8098,594.29364
"940",78.8098,594.30695
"941",78.8098,594.32025
"942",78.81224,594.33356
"943",78.819565,594.34686
"944",78.82933,594.36017
"945",78.839096,594.3735
"946",78.84398,594.3868
"947",78.839096,594.4001
"948",78.83177,594.4134
"949",78.83421,594.4267
"950",78.87572,594.44
"951",79.00755,594.4533
"952",79.28588,594.4666
"953",79.7351,594.4799
"954",80.34058,594.4932
"955",81.041275,594.50653
"956",81.75662,594.51984
"957",82.37919,594.53314
"958",82.84306,594.54645
"959",83.11162,594.55975
"960",83.18486,594.57306
"961",83.08476,594.58636
"962",82.85771,594.5997
"963",82.54276,594.613
"964",82.18875,594.6263
"965",81.83719,594.6396
"966",81.5198,594.6529
"967",81.25124,594.6662
"968",81.03639,594.6795
"969",80.86549,594.6928
"970",80.72144,594.7061
"971",80.59937,594.7194
"972",80.48707,594.7327
"973",80.394295,594.74603
"974",80.323494,594.75934
"975",80.28687,594.77264
"976",80.27955,594.78595
"977",80.29908,594.79926
"978",80.33082,594.81256
"979",80.35767,594.82587
"980",80.37476,594.8392
"981",80.36988,594.8525
"982",80.3357,594.8658
"983",80.274666,594.8791
"984",80.18677,594.8924
"985",80.08179,594.9057
"986",79.95972,594.919
"987",79.83032,594.9323
"988",79.7058,594.9456
"989",79.58373,594.9589
"990",79.46899,594.9722
"991",79.364006,594.98553
"992",79.276115,594.99884
"993",79.21019,595.01215
"994",79.1638,595.02545
"995",79.13451,595.03876
"996",79.11742,595.05206
"997",79.10765,595.06537
"998",79.10033,595.0787
"999",79.08568,595.092
"1000",79.07103,595.1053
"1001",79.0515,595.1186
"1002",79.027084,595.1319
"1003",79.00511,595.1452
"1004",78.99046,595.1585
"1005",78.9807,595.1718
"1006",78.975815,595.1851
"1007",78.97337,595.1984
"1008",78.96849,595.21173
"1009",78.96117,595.22504
"1010",78.95384,595.23834
"1011",78.94408,595.25165
"1012",78.93431,595.26495
"1013",78.924545,595.27826
"1014",78.922104,595.29156
"1015",78.924545,595.3049
"1016",78.92699,595.3182
"1017",78.93187,595.3315
"1018",78.93919,595.3448
"1019",78.94652,595.3581
"1020",78.94896,595.3714
"1021",78.95384,595.3847
"1022",78.95628,595.398
"1023",78.96117,595.4113
"1024",78.96849,595.4246
"1025",78.97337,595.4379
"1026",78.975815,595.45123
"1027",78.975815,595.46454
"1028",78.97093,595.47784
"1029",78.96605,595.49115
"1030",78.97826,595.50446
"1031",79.03929,595.51776
"1032",79.20531,595.53107
"1033",79.52758,595.5444
"1034",80.025635,595.5577
"1035",80.672615,595.571
"1036",81.40017,595.5843
"1037",82.11307,595.5976
"1038",82.71122,595.6109
"1039",83.12871,595.6242
"1040",83.346,595.6375
"1041",83.3753,595.6508
"1042",83.23857,595.6641
"1043",82.98955,595.6774
"1044",82.66483,595.69073
"1045",82.30595,595.70404
"1046",81.94705,595.71735
"1047",81.61501,595.73065
"1048",81.324486,595.74396
"1049",81.08522,595.75726
"1050",80.89479,595.77057
"1051",80.73609,595.7839
"1052",80.60914,595.7972
"1053",80.50416,595.8105
"1054",80.42115,595.8238
"1055",80.37232,595.8371
"1056",80.35523,595.8504
"1057",80.37232,595.8637
"1058",80.413826,595.877
"1059",80.46998,595.8903
"1060",80.52125,595.9036
"1061",80.55543,595.91693
"1062",80.55787,595.93024
"1063",80.52125,595.94354
"1064",80.45045,595.95685
"1065",80.35035,595.97015
"1066",80.23071,595.98346
"1067",80.10132,595.99677
"1068",79.971924,596.0101
"1069",79.84253,596.0234
"1070",79.72289,596.0367
"1071",79.61547,596.05
"1072",79.51537,596.0633
"1073",79.43481,596.0766
"1074",79.37133,596.0899
"1075",79.327385,596.1032
"1076",79.29565,596.1165
"1077",79.273674,596.1298
"1078",79.256584,596.1431
"1079",79.237045,596.15643
"1080",79.217514,596.16974
"1081",79.200424,596.18304
"1082",79.183334,596.19635
"1083",79.168686,596.20966
"1084",79.15404,596.22296
"1085",79.13939,596.23627
"1086",79.12474,596.2496
"1087",79.11009,596.2629
"1088",79.097885,596.2762
"1089",79.08324,596.2895
"1090",79.07347,596.3028
"1091",79.063705,596.3161
"1092",79.05638,596.3294
"1093",79.046616,596.3427
"1094",79.03685,596.356
"1095",79.03197,596.3693
"1096",79.02464,596.3826
"1097",79.01976,596.39594
"1098",79.0222,596.40924
"1099",79.027084,596.42255
"1100",79.03197,596.43585
"1101",79.03441,596.44916
"1102",79.03685,596.46246
"1103",79.03929,596.47577
"1104",79.044174,596.4891
"1105",79.05394,596.5024
"1106",79.05882,596.5157
"1107",79.05882,596.529
"1108",79.04906,596.5423
"1109",79.027084,596.5556
"1110",79.00755,596.5689
"1111",79.01976,596.5822
"1112",79.10765,596.5955
"1113",79.31762,596.6088
"1114",79.693596,596.62213
"1115",80.235596,596.63544
"1116",80.902115,596.64874
"1117",81.61501,596.66205
"1118",82.286415,596.67535
"1119",82.83086,596.68866
"1120",83.192184,596.70197
"1121",83.35821,596.7153
"1122",83.34844,596.7286
"1123",83.1873,596.7419
"1124",82.916306,596.7552
"1125",82.579384,596.7685
"1126",82.21805,596.7818
"1127",81.8616,596.7951
"1128",81.532005,596.8084
"1129",81.24391,596.8217
"1130",81.007095,596.835
"1131",80.81178,596.8483
"1132",80.655525,596.86163
"1133",80.5359,596.87494
"1134",80.45045,596.88824
"1135",80.39918,596.90155
"1136",80.38453,596.91486
"1137",80.4065,596.92816
"1138",80.45777,596.94147
"1139",80.52613,596.9548
"1140",80.59693,596.9681
"1141",80.66041,596.9814
"1142",80.69215,596.9947
"1143",80.68726,597.008
"1144",80.638435,597.0213
"1145",80.550545,597.0346
"1146",80.428474,597.0479
"1147",80.28443,597.0612
"1148",80.13306,597.0745
"1149",79.98413,597.0878
"1150",79.84497,597.10114
"1151",79.71557,597.11444
"1152",79.60082,597.12775
"1153",79.50317,597.14105
"1154",79.42748,597.15436
"1155",79.37133,597.16766
"1156",79.33227,597.18097
"1157",79.30541,597.1943
"1158",79.27856,597.2076
"1159",79.259026,597.2209
"1160",79.234604,597.2342
"1161",79.21263,597.2475
"1162",79.19066,597.2608
"1163",79.17113,597.2741
"1164",79.151596,597.2874
"1165",79.132065,597.3007
"1166",79.114975,597.314
"1167",79.10033,597.32733
"1168",79.08812,597.34064
"1169",79.07347,597.35394
"1170",79.063705,597.36725
"1171",79.0515,597.38055
"1172",79.04173,597.39386
"1173",79.03929,597.40717
"1174",79.04173,597.4205
"1175",79.04173,597.4338
"1176",79.04173,597.4471
"1177",79.04173,597.4604
"1178",79.03685,597.4737
"1179",79.027084,597.487
"1180",79.01976,597.5003
"1181",79.012436,597.5136
"1182",79.009995,597.5269
"1183",79.009995,597.5402
"1184",79.012436,597.5535
"1185",79.0222,597.56683
"1186",79.027084,597.58014
"1187",79.029526,597.59344
"1188",79.01732,597.60675
"1189",79.00023,597.62006
"1190",78.99046,597.63336
"1191",79.01976,597.64667
"1192",79.13451,597.66
"1193",79.39086,597.6733
"1194",79.815674,597.6866
"1195",80.396736,597.6999
"1196",81.08522,597.7132
"1197",81.79324,597.7265
"1198",82.43046,597.7398
"1199",82.92119,597.7531
"1200",83.22392,597.7664
"1201",83.33379,597.7797
"1202",83.27276,597.793
"1203",83.07744,597.80634
"1204",82.791794,597.81964
"1205",82.45243,597.83295
"1206",82.09842,597.84625
"1207",81.75174,597.85956
"1208",81.42947,597.87286
"1209",81.143814,597.88617
"1210",80.89723,597.8995
"1211",80.69703,597.9128
"1212",80.53834,597.9261
"1213",80.42603,597.9394
"1214",80.360115,597.9527
"1215",80.34058,597.966
"1216",80.36988,597.9793
"1217",80.44068,597.9926
"1218",80.5359,598.0059
"1219",80.638435,598.0192
"1220",80.726326,598.03253
"1221",80.782486,598.04584
"1222",80.797134,598.05914
"1223",80.76784,598.07245
"1224",80.69459,598.08575
"1225",80.584724,598.09906
"1226",80.448006,598.11237
"1227",80.2942,598.1257
"1228",80.130615,598.139
"1229",79.974365,598.1523
"1230",79.83765,598.1656
"1231",79.71313,598.1789
"1232",79.603264,598.1922
"1233",79.51293,598.2055
"1234",79.44213,598.2188
"1235",79.38354,598.2321
"1236",79.34203,598.2454
"1237",79.31274,598.2587
"1238",79.29809,598.27203
"1239",79.28832,598.28534
"1240",79.281,598.29865
"1241",79.27123,598.31195
"1242",79.26147,598.32526
"1243",79.24193,598.33856
"1244",79.217514,598.35187
"1245",79.19066,598.3652
"1246",79.1638,598.3785
"1247",79.13695,598.3918
"1248",79.11009,598.4051
"1249",79.08812,598.4184
"1250",79.07103,598.4317
"1251",79.05882,598.445
"1252",79.05394,598.4583
"1253",79.0515,598.4716
"1254",79.04906,598.4849
"1255",79.046616,598.4982
"1256",79.04173,598.51154
"1257",79.01976,598.53815
"1258",79.00267,598.55145
"1259",78.9807,598.56476
"1260",78.96361,598.57806
"1261",78.96849,598.5914
"1262",79.02464,598.6047
"1263",79.17601,598.618
"1264",79.4641,598.6313
"1265",79.8938,598.6446
"1266",80.43824,598.6579
"1267",81.03883,598.6712
"1268",81.60769,598.6845
"1269",82.07156,598.6978
"1270",82.374306,598.7111
"1271",82.5037,598.7244
"1272",82.46952,598.73773
"1273",82.303505,598.75104
"1274",82.04227,598.76434
"1275",81.71999,598.77765
"1276",81.375755,598.79095
"1277",81.03639,598.80426
"1278",80.71168,598.81757
"1279",80.413826,598.8309
"1280",80.15747,598.8442
"1281",79.94995,598.8575
"1282",79.79614,598.8708
"1283",79.69848,598.8841
"1284",79.6643,598.8974
"1285",79.693596,598.9107
"1286",79.77173,598.924
"1287",79.8938,598.9373
"1288",80.045166,598.9506
"1289",80.201416,598.9639
"1290",80.3357,598.97723
"1291",80.42603,598.99054
"1292",80.465096,599.00385
"1293",80.445564,599.01715
"1294",80.37232,599.03046
"1295",80.26002,599.04376
"1296",80.12085,599.05707
"1297",79.9646,599.0704
"1298",79.80591,599.0837
"1299",79.64477,599.097
"1300",79.500725,599.1103
"1301",79.37377,599.1236
"1302",79.27123,599.1369
"1303",79.1931,599.1502
"1304",79.13939,599.1635
"1305",79.10765,599.1768
"1306",79.09056,599.1901
"1307",79.08568,599.2034
"1308",79.09056,599.21674
"1309",79.097885,599.23004
"1310",79.10765,599.24335
"1311",79.11009,599.25665
"1312",79.11009,599.26996
"1313",79.10277,599.28326
"1314",79.09056,599.2966
"1315",79.07103,599.3099
"1316",79.0515,599.3232
"1317",79.03441,599.3365
"1318",79.01976,599.3498
"1319",79.00511,599.3631
"1320",78.99779,599.3764
"1321",79.00023,599.3897
"1322",79.00267,599.403
"1323",79.00023,599.4163
"1324",78.99779,599.4296
"1325",78.99046,599.44293
"1326",78.98558,599.45624
"1327",79.01732,599.46954
"1328",79.12474,599.48285
"1329",79.34692,599.49615
"1330",79.70336,599.50946
"1331",80.18921,599.52277
"1332",80.75075,599.5361
"1333",81.3196,599.5494
"1334",81.8201,599.5627
"1335",82.18875,599.576
"1336",82.39384,599.5893
"1337",82.4329,599.6026
"1338",82.3328,599.6159
"1339",82.12039,599.6292
"1340",81.83475,599.6425
"1341",81.50759,599.6558
"1342",81.17799,599.6691
"1343",80.86061,599.68243
"1344",80.567635,599.69574
"1345",80.31129,599.70905
"1346",80.093994,599.72235
"1347",79.91333,599.73566
"1348",79.78638,599.74896
"1349",79.71313,599.76227
"1350",79.70336,599.7756
"1351",79.75464,599.7889
"1352",79.85718,599.8022
"1353",79.99634,599.8155
"1354",80.15015,599.8288
"1355",80.29664,599.8421
"1356",80.40894,599.8554
"1357",80.47486,599.8687
"1358",80.482185,599.882
"1359",80.43824,599.8953
"1360",80.34791,599.9086
"1361",80.22583,599.92194
"1362",80.08179,599.93524
"1363",79.93286,599.94855
"1364",79.78638,599.96185
"1365",79.65453,599.97516
"1366",79.54467,599.98846
"1367",79.45434,600.0018
"1368",79.39086,600.0151
"1369",79.344475,600.0284
"1370",79.31518,600.0417
"1371",79.29809,600.055
"1372",79.29565,600.0683
"1373",79.29809,600.0816
"1374",79.30541,600.0949
"1375",79.310295,600.1082
"1376",79.30785,600.1215
"1377",79.29809,600.1348
"1378",79.281,600.14813
"1379",79.256584,600.16144
"1380",79.23216,600.17474
"1381",79.200424,600.18805
"1382",79.17113,600.20135
"1383",79.13695,600.21466
"1384",79.11009,600.22797
"1385",79.11742,600.2413
"1386",79.19798,600.2546
"1387",79.39086,600.2679
"1388",79.71801,600.2812
"1389",80.17456,600.2945
"1390",80.709236,600.3078
"1391",81.25613,600.3211
"1392",81.73464,600.3344
"1393",82.08377,600.3477
"1394",82.27177,600.361
"1395",82.303505,600.3743
"1396",82.20096,600.38763
"1397",81.99832,600.40094
"1398",81.7322,600.41425
"1399",81.43679,600.42755
"1400",81.13161,600.44086
"1401",80.84108,600.45416
"1402",80.570076,600.46747
"1403",80.32838,600.4808
"1404",80.11841,600.4941
"1405",79.94263,600.5074
"1406",79.81079,600.5207
"1407",79.725334,600.534
"1408",79.69848,600.5473
"1409",79.727776,600.5606
"1410",79.81323,600.5739
"1411",79.940186,600.5872
"1412",80.08179,600.6005
"1413",80.218506,600.61383
"1414",80.325935,600.62714
"1415",80.38453,600.64044
"1416",80.38697,600.65375
"1417",80.3357,600.66705
"1418",80.24048,600.68036
"1419",80.113525,600.69366
"1420",79.971924,600.707
"1421",79.823,600.7203
"1422",79.67895,600.7336
"1423",79.54955,600.7469
"1424",79.43725,600.7602
"1425",79.34203,600.7735
"1426",79.27123,600.7868
"1427",79.2224,600.8001
"1428",79.19554,600.8134
"1429",79.185776,600.8267
"1430",79.18822,600.84
"1431",79.1931,600.85333
"1432",79.19798,600.86664
"1433",79.19798,600.87994
"1434",79.185776,600.89325
"1435",79.1638,600.90656
"1436",79.13451,600.91986
"1437",79.093,600.93317
"1438",79.05394,600.9465
"1439",79.0222,600.9598
"1440",79.009995,600.9731
"1441",79.044174,600.9864
"1442",79.15892,600.9997
"1443",79.3933,601.013
"1444",79.764404,601.0263
"1445",80.26246,601.0396
"1446",80.83864,601.0529
"1447",81.42458,601.0662
"1448",81.92752,601.0795
"1449",82.29618,601.09283
"1450",82.48905,601.10614
"1451",82.51591,601.11945
"1452",82.40116,601.13275
"1453",82.18631,601.14606
"1454",81.900665,601.15936
"1455",81.58816,601.17267
"1456",81.28298,601.186
"1457",80.99977,601.1993
"1458",80.75075,601.2126
"1459",80.533455,601.2259
"1460",80.34791,601.2392
"1461",80.18921,601.2525
"1462",80.05737,601.2658
"1463",79.96216,601.2791
"1464",79.91089,601.2924
"1465",79.90845,601.3057
"1466",79.95239,601.31903
"1467",80.028076,601.33234
"1468",80.11841,601.34564
"1469",80.198975,601.35895
"1470",80.255135,601.37225
"1471",80.26978,601.38556
"1472",80.2478,601.39886
"1473",80.18921,601.4122
"1474",80.093994,601.4255
"1475",79.97681,601.4388
"1476",79.84253,601.4521
"1477",79.7058,601.4654
"1478",79.571526,601.4787
"1479",79.449455,601.492
"1480",79.34203,601.5053
"1481",79.2517,601.5186
"1482",79.185776,601.5319
"1483",79.14183,601.5452
"1484",79.11986,601.55853
"1485",79.11009,601.57184
"1486",79.114975,601.58514
"1487",79.11742,601.59845
"1488",79.114975,601.61176
"1489",79.10521,601.62506
"1490",79.08812,601.63837
"1491",79.06615,601.6517
"1492",79.03929,601.665
"1493",79.009995,601.6783
"1494",78.98802,601.6916
"1495",78.96849,601.7049
"1496",78.9514,601.7182
"1497",78.93431,601.7315
"1498",78.91966,601.7448
"1499",78.907455,601.7581
"1500",78.924545,601.7714
"1501",79.009995,601.7847
"1502",79.21019,601.79803
"1503",79.55932,601.81134
"1504",80.05493,601.82465
"1505",80.65308,601.83795
"1506",81.28542,601.85126
"1507",81.8616,601.86456
"1508",82.31083,601.87787
"1509",82.58427,601.8912
"1510",82.67948,601.9045
"1511",82.616005,601.9178
"1512",82.425575,601.9311
"1513",82.15457,601.9444
"1514",81.849396,601.9577
"1515",81.54421,601.971
"1516",81.26101,601.9843
"1517",81.01198,601.9976
"1518",80.799576,602.0109
"1519",80.618904,602.02423
"1520",80.45533,602.03754
"1521",80.308846,602.05084
"1522",80.184326,602.06415
"1523",80.09155,602.07745
"1524",80.03296,602.09076
"1525",80.01587,602.10406
"1526",80.045166,602.1174
"1527",80.10376,602.1307
"1528",80.17456,602.144
"1529",80.24048,602.1573
"1530",80.28199,602.1706
"1531",80.28199,602.1839
"1532",80.233154,602.1972
"1533",80.14282,602.2105
"1534",80.02319,602.2238
"1535",79.88159,602.2371
"1536",79.7351,602.2504
"1537",79.59106,602.26373
"1538",79.45922,602.27704
"1539",79.344475,602.29034
"1540",79.24925,602.30365
"1541",79.168686,602.31696
"1542",79.11009,602.33026
"1543",79.06615,602.34357
"1544",79.03929,602.3569
"1545",79.0222,602.3702
"1546",79.00755,602.3835
"1547",78.99779,602.3968
"1548",78.992905,602.4101
"1549",78.98558,602.4234
"1550",78.975815,602.4367
"1551",78.96361,602.45
"1552",78.9514,602.4633
"1553",78.93431,602.4766
"1554",78.91722,602.4899
"1555",78.89769,602.50323
"1556",78.8806,602.51654
"1557",78.86595,602.52985
"1558",78.853745,602.54315
"1559",78.84154,602.55646
"1560",78.83421,602.56976
"1561",78.83177,602.58307
"1562",78.83421,602.5964
"1563",78.84154,602.6097
"1564",78.84642,602.623
"1565",78.84642,602.6363
"1566",78.83421,602.6496
"1567",78.81468,602.6629
"1568",78.79759,602.6762
"1569",78.81712,602.6895
"1570",78.91966,602.7028
"1571",79.15892,602.7161
"1572",79.56176,602.72943
"1573",80.12085,602.74274
"1574",80.79225,602.75604
"1575",81.4905,602.76935
"1576",82.11551,602.78265
"1577",82.598915,602.79596
"1578",82.896774,602.80927
"1579",83.00664,602.8226
"1580",82.950485,602.8359
"1581",82.76738,602.8492
"1582",82.50126,602.8625
"1583",82.20096,602.8758
"1584",81.898224,602.8891
"1585",81.62234,602.9024
"1586",81.38308,602.9157
"1587",81.18288,602.929
"1588",81.00954,602.9423
"1589",80.85329,602.9556
"1590",80.706795,602.96893
"1591",80.57252,602.98224
"1592",80.46021,602.99554
"1593",80.37965,603.00885
"1594",80.3357,603.02216
"1595",80.33082,603.03546
"1596",80.35523,603.04877
"1597",80.39185,603.0621
"1598",80.43336,603.0754
"1599",80.462654,603.0887
"1600",80.465096,603.102
"1601",80.43336,603.1153
"1602",80.36744,603.1286
"1603",80.26734,603.1419
"1604",80.14526,603.1552
"1605",80.00122,603.1685
"1606",79.852295,603.1818
"1607",79.708244,603.1951
"1608",79.57397,603.20844
"1609",79.45434,603.22174
"1610",79.35668,603.23505
"1611",79.276115,603.24835
"1612",79.21263,603.26166
"1613",79.1638,603.27496
"1614",79.12718,603.28827
"1615",79.10765,603.3016
"1616",79.093,603.3149
"1617",79.080795,603.3282
"1618",79.061264,603.3415
"1619",79.03929,603.3548
"1620",79.012436,603.3681
"1621",78.975815,603.3814
"1622",78.94408,603.3947
"1623",78.91966,603.408
"1624",78.90013,603.4213
"1625",78.8806,603.43463
"1626",78.86351,603.44794
"1627",78.84886,603.46124
"1628",78.83177,603.47455
"1629",78.81712,603.48785
"1630",78.81224,603.50116
"1631",78.80736,603.51447
"1632",78.80492,603.5278
"1633",78.802475,603.5411
"1634",78.80003,603.5544
"1635",78.79271,603.5677
"1636",78.78783,603.581
"1637",78.785385,603.5943
"1638",78.78294,603.6076
"1639",78.785385,603.6209
"1640",78.785385,603.6342
"1641",78.78294,603.6475
"1642",78.7805,603.6608
"1643",78.77318,603.68744
"1644",78.77318,603.70074
"1645",78.77074,603.71405
"1646",78.77806,603.72736
"1647",78.78783,603.74066
"1648",78.79759,603.75397
"1649",78.81224,603.7673
"1650",78.82689,603.7806
"1651",78.84154,603.7939
"1652",78.856186,603.8072
"1653",78.86595,603.8205
"1654",78.88304,603.8338
"1655",78.92699,603.8471
"1656",79.046616,603.8604
"1657",79.30053,603.8737
"1658",79.73266,603.887
"1659",80.34058,603.9003
"1660",81.08034,603.91364
"1661",81.8616,603.92694
"1662",82.579384,603.94025
"1663",83.15312,603.95355
"1664",83.53399,603.96686
"1665",83.71221,603.98016
"1666",83.702446,603.99347
"1667",83.54131,604.0068
"1668",83.27032,604.0201
"1669",82.93584,604.0334
"1670",82.579384,604.0467
"1671",82.23514,604.06
"1672",81.92996,604.0733
"1673",81.67361,604.0866
"1674",81.45876,604.0999
"1675",81.28298,604.1132
"1676",81.13405,604.1265
"1677",81.00954,604.13983
"1678",80.902115,604.15314
"1679",80.816666,604.16644
"1680",80.762955,604.17975
"1681",80.73853,604.19305
"1682",80.743416,604.20636
"1683",80.77028,604.21967
"1684",80.8069,604.233
"1685",80.8362,604.2463
"1686",80.84352,604.2596
"1687",80.81911,604.2729
"1688",80.75563,604.2862
"1689",80.65064,604.2995
"1690",80.51881,604.3128
"1691",80.36256,604.3261
"1692",80.19409,604.3394
"1693",80.01831,604.3527
"1694",79.852295,604.366
"1695",79.70092,604.37933
"1696",79.571526,604.39264
"1697",79.466545,604.40594
"1698",79.38598,604.41925
"1699",79.32006,604.43256
"1700",79.26391,604.44586
"1701",79.219955,604.45917
"1702",79.18089,604.4725
"1703",79.14427,604.4858
"1704",79.11742,604.4991
"1705",79.09056,604.5124
"1706",79.05638,604.5257
"1707",79.01976,604.539
"1708",78.98802,604.5523
"1709",78.95628,604.5656
"1710",78.92943,604.5789
"1711",78.9099,604.5922
"1712",78.89769,604.6055
"1713",78.88548,604.61884
"1714",78.870834,604.63214
"1715",78.856186,604.64545
"1716",78.839096,604.65875
"1717",78.82201,604.67206
"1718",78.80492,604.68536
"1719",78.79027,604.69867
"1720",78.7805,604.712
"1721",78.77074,604.7253
"1722",78.76341,604.7386
"1723",78.76097,604.7519
"1724",78.75609,604.7652
"1725",78.74876,604.7785
"1726",78.74387,604.7918
"1727",78.73899,604.8051
"1728",78.73655,604.8184
"1729",78.73655,604.8317
"1730",78.74143,604.84503
"1731",78.746315,604.85834
"1732",78.74387,604.87164
"1733",78.73655,604.88495
"1734",78.74876,604.89825
"1735",78.81224,604.91156
"1736",78.98558,604.92487
"1737",79.32006,604.9382
"1738",79.835205,604.9515
"1739",80.49683,604.9648
"1740",81.23903,604.9781
"1741",81.96414,604.9914
"1742",82.5745,605.0047
"1743",83.01152,605.018
"1744",83.25567,605.0313
"1745",83.31426,605.0446
"1746",83.209274,605.0579
"1747",82.98222,605.0712
"1748",82.67704,605.08453
"1749",82.3328,605.09784
"1750",81.99588,605.11115
"1751",81.6907,605.12445
"1752",81.43191,605.13776
"1753",81.21706,605.15106
"1754",81.03639,605.16437
"1755",80.885025,605.1777
"1756",80.75319,605.191
"1757",80.638435,605.2043
"1758",80.5481,605.2176
"1759",80.48463,605.2309
"1760",80.45289,605.2442
"1761",80.45045,605.2575
"1762",80.47242,605.2708
"1763",80.51148,605.2841
"1764",80.55543,605.2974
"1765",80.584724,605.3107
"1766",80.584724,605.32404
"1767",80.5481,605.33734
"1768",80.46998,605.35065
"1769",80.35523,605.36395
"1770",80.21118,605.37726
"1771",80.05249,605.39056
"1772",79.89868,605.4039
"1773",79.7522,605.4172
"1774",79.62035,605.4305
"1775",79.51049,605.4438
"1776",79.41772,605.4571
"1777",79.33959,605.4704
"1778",79.26879,605.4837
"1779",79.21019,605.497
"1780",79.15892,605.5103
"1781",79.11742,605.5236
"1782",79.08568,605.5369
"1783",79.05638,605.55023
"1784",79.03441,605.56354
"1785",79.012436,605.57684
"1786",78.98558,605.59015
"1787",78.96361,605.60345
"1788",78.94896,605.61676
"1789",78.93187,605.63007
"1790",78.91722,605.6434
"1791",78.90257,605.6567
"1792",78.890366,605.67
"1793",78.87816,605.6833
"1794",78.86839,605.6966
"1795",78.86351,605.7099
"1796",78.853745,605.7232
"1797",78.84398,605.7365
"1798",78.83421,605.7498
"1799",78.819565,605.7631
"1800",78.80492,605.7764
"1801",78.79271,605.78973
"1802",78.785385,605.80304
"1803",78.77806,605.81635
"1804",78.7805,605.82965
"1805",78.78294,605.84296
"1806",78.785385,605.85626
"1807",78.77806,605.86957
"1808",78.76097,605.8829
"1809",78.73899,605.8962
"1810",78.71946,605.9095
"1811",78.72434,605.9228
"1812",78.79515,605.9361
"1813",78.97826,605.9494
"1814",79.31518,605.9627
"1815",79.82056,605.976
"1816",80.46754,605.9893
"1817",81.197525,606.0026
"1818",81.9202,606.0159
"1819",82.545204,606.02924
"1820",83.01396,606.04254
"1821",83.29473,606.05585
"1822",83.387505,606.06915
"1823",83.3167,606.08246
"1824",83.11162,606.09576
"1825",82.82109,606.1091
"1826",82.48661,606.1224
"1827",82.14969,606.1357
"1828",81.83963,606.149
"1829",81.57107,606.1623
"1830",81.34646,606.1756
"1831",81.160904,606.1889
"1832",80.99977,606.2022
"1833",80.85817,606.2155
"1834",80.73853,606.2288
"1835",80.6482,606.2421
"1836",80.59205,606.25543
"1837",80.57252,606.26874
"1838",80.58961,606.28204
"1839",80.62623,606.29535
"1840",80.67994,606.30865
"1841",80.73365,606.32196
"1842",80.77028,606.33527
"1843",80.76784,606.3486
"1844",80.723885,606.3619
"1845",80.635994,606.3752
"1846",80.50904,606.3885
"1847",80.35523,606.4018
"1848",80.19653,606.4151
"1849",80.03784,606.4284
"1850",79.886475,606.4417
"1851",79.742424,606.455
"1852",79.61547,606.4683
"1853",79.500725,606.4816
"1854",79.40551,606.49493
"1855",79.327385,606.50824
"1856",79.26635,606.52155
"1857",79.217514,606.53485
"1858",79.18089,606.54816
"1859",79.15648,606.56146
"1860",79.13695,606.57477
"1861",79.11986,606.5881
"1862",79.10033,606.6014
"1863",79.080795,606.6147
"1864",79.05394,606.628
"1865",79.02464,606.6413
"1866",78.995346,606.6546
"1867",78.96605,606.6679
"1868",78.93919,606.6812
"1869",78.91722,606.6945
"1870",78.89525,606.7078
"1871",78.87816,606.7211
"1872",78.86107,606.73444
"1873",78.84642,606.74774
"1874",78.83177,606.76105
"1875",78.82201,606.77435
"1876",78.81468,606.78766
"1877",78.80736,606.80096
"1878",78.802475,606.8143
"1879",78.79515,606.8276
"1880",78.78783,606.8409
"1881",78.78783,606.8542
"1882",78.79027,606.8675
"1883",78.79515,606.8808
"1884",78.79271,606.8941
"1885",78.78783,606.9074
"1886",78.77562,606.9207
"1887",78.75853,606.934
"1888",78.74143,606.9473
"1889",78.729225,606.96063
"1890",78.74143,606.97394
"1891",78.81712,606.98724
"1892",79.012436,607.00055
"1893",79.36889,607.01385
"1894",79.90112,607.02716
"1895",80.57984,607.04047
"1896",81.34402,607.0538
"1897",82.10086,607.0671
"1898",82.76494,607.0804
"1899",83.27032,607.0937
"1900",83.59014,607.107
"1901",83.719536,607.1203
"1902",83.67315,607.1336
"1903",83.4876,607.1469
"1904",83.211716,607.1602
"1905",82.88701,607.1735
"1906",82.55253,607.1868
"1907",82.2449,607.20013
"1908",81.971466,607.21344
"1909",81.73708,607.22675
"1910",81.53689,607.24005
"1911",81.36355,607.25336
"1912",81.20241,607.26666
"1913",81.06325,607.27997
"1914",80.95094,607.2933
"1915",80.8777,607.3066
"1916",80.84352,607.3199
"1917",80.84596,607.3332
"1918",80.87526,607.3465
"1919",80.91676,607.3598
"1920",80.9485,607.3731
"1921",80.96071,607.3864
"1922",80.94118,607.3997
"1923",80.88747,607.413
"1924",80.79225,607.42633
"1925",80.66041,607.43964
"1926",80.50172,607.45294
"1927",80.325935,607.46625
"1928",80.147705,607.47955
"1929",79.97681,607.49286
"1930",79.823,607.50616
"1931",79.68383,607.5195
"1932",79.56176,607.5328
"1933",79.4519,607.5461
"1934",79.3518,607.5594
"1935",79.26635,607.5727
"1936",79.19798,607.586
"1937",79.14427,607.5993
"1938",79.10033,607.6126
"1939",79.061264,607.6259
"1940",79.027084,607.6392
"1941",78.99046,607.6525
"1942",78.9514,607.66583
"1943",78.91234,607.67914
"1944",78.873276,607.69244
"1945",78.83421,607.70575
"1946",78.802475,607.71906
"1947",78.77318,607.73236
"1948",78.746315,607.74567
"1949",78.71946,607.759
"1950",78.692604,607.7723
"1951",78.66331,607.7856
"1952",78.641335,607.7989
"1953",78.624245,607.8122
"1954",78.607155,607.8255
"1955",78.59739,607.8388
"1956",78.58762,607.8521
"1957",78.57542,607.8654
"1958",78.56321,607.8787
"1959",78.555885,607.892
"1960",78.54612,607.90533
"1961",78.536354,607.91864
"1962",78.52659,607.93195
"1963",78.51682,607.94525
"1964",78.51194,607.95856
"1965",78.504616,607.97186
"1966",78.49973,607.98517
"1967",78.48997,607.9985
"1968",78.47776,608.0118
"1969",78.46067,608.0251
"1970",78.44358,608.0384
"1971",78.45823,608.0517
"1972",78.553444,608.065
"1973",78.77806,608.0783
"1974",79.18089,608.0916
"1975",79.76929,608.1049
"1976",80.50904,608.1182
"1977",81.322044,608.13153
"1978",82.11063,608.14484
"1979",82.78203,608.15814
"1980",83.27764,608.17145
"1981",83.56817,608.18475
"1982",83.65118,608.19806
"1983",83.5584,608.21136
"1984",83.336235,608.2247
"1985",83.02861,608.238
"1986",82.684364,608.2513
"1987",82.34257,608.2646
"1988",82.02762,608.2779
"1989",81.75174,608.2912
"1990",81.512474,608.3045
"1991",81.307396,608.3178
"1992",81.126724,608.3311
"1993",80.96803,608.3444
"1994",80.82399,608.3577
"1995",80.709236,608.37103
"1996",80.62379,608.38434
"1997",80.57252,608.39764
"1998",80.55787,608.41095
"1999",80.57252,608.42426
"2000",80.601814,608.43756
"2001",80.62867,608.45087
"2002",80.638435,608.4642
"2003",80.61646,608.4775
"2004",80.55543,608.4908
"2005",80.45777,608.5041
"2006",80.32838,608.5174
"2007",80.177,608.5307
"2008",80.01099,608.544
"2009",79.84009,608.5573
"2010",79.67162,608.5706
"2011",79.51293,608.5839
"2012",79.36889,608.5972
"2013",79.24193,608.61053
"2014",79.13451,608.62384
"2015",79.046616,608.63715
"2016",78.975815,608.65045
"2017",78.91966,608.66376
"2018",78.87816,608.67706
"2019",78.84642,608.69037
"2020",78.82201,608.7037
"2021",78.79759,608.717
"2022",78.77318,608.7303
"2023",78.74387,608.7436
"2024",78.712135,608.7569
"2025",78.68284,608.7702
"2026",78.65598,608.7835
"2027",78.62913,608.7968
"2028",78.60471,608.8101
"2029",78.57786,608.8234
"2030",78.55833,608.83673
"2031",78.536354,608.85004
"2032",78.521706,608.86334
"2033",78.5095,608.87665
"2034",78.49729,608.88995
"2035",78.4802,608.90326
"2036",78.46555,608.91656
"2037",78.450905,608.9299
"2038",78.43626,608.9432
"2039",78.42649,608.9565
"2040",78.42161,608.9698
"2041",78.41917,608.9831
"2042",78.416725,608.9964
"2043",78.41917,609.0097
"2044",78.416725,609.023
"2045",78.416725,609.0363
"2046",78.41917,609.0496
"2047",78.42649,609.0629
"2048",78.433815,609.07623
"2049",78.43626,609.08954
"2050",78.42893,609.10284
"2051",78.416725,609.11615
"2052",78.40208,609.12946
"2053",78.40208,609.14276
"2054",78.44602,609.15607
"2055",78.58518,609.1694
"2056",78.873276,609.1827
"2057",79.33959,609.196
"2058",79.971924,609.2093
"2059",80.72877,609.2226
"2060",81.529564,609.2359
"2061",82.26444,609.2492
"2062",82.85283,609.2625
"2063",83.250786,609.2758
"2064",83.4461,609.2891
"2065",83.45098,609.3024
"2066",83.299614,609.31573
"2067",83.035934,609.32904
"2068",82.70634,609.34235
"2069",82.34989,609.35565
"2070",82.003204,609.36896
"2071",81.6907,609.38226
"2072",81.41726,609.39557
"2073",81.18288,609.4089
"2074",80.98268,609.4222
"2075",80.80934,609.4355
"2076",80.66529,609.4488
"2077",80.5481,609.4621
"2078",80.46998,609.4754
"2079",80.43336,609.4887
"2080",80.43824,609.502
"2081",80.46754,609.5153
"2082",80.51392,609.5286
"2083",80.56031,609.54193
"2084",80.59693,609.55524
"2085",80.61158,609.56854
"2086",80.59205,609.58185
"2087",80.53834,609.59515
"2088",80.45045,609.60846
"2089",80.32838,609.62177
"2090",80.17456,609.6351
"2091",80.008545,609.6484
"2092",79.84009,609.6617
"2093",79.67895,609.675
"2094",79.534904,609.6883
"2095",79.40795,609.7016
"2096",79.30297,609.7149
"2097",79.21507,609.7282
"2098",79.14427,609.7415
"2099",79.08812,609.7548
"2100",79.046616,609.7681
"2101",79.01732,609.78143
"2102",78.98802,609.79474
"2103",78.95628,609.80804
"2104",78.924545,609.82135
"2105",78.89525,609.83466
"2106",78.870834,609.84796
"2107",78.853745,609.86127
"2108",78.836655,609.8746
"2109",78.82201,609.8879
"2110",78.80736,609.9012
"2111",78.79515,609.9145
"2112",78.77806,609.9278
"2113",78.768295,609.9411
"2114",78.76341,609.9544
"2115",78.76341,609.9677
"2116",78.75853,609.981
"2117",78.751205,609.9943
"2118",78.74143,610.0076
"2119",78.73167,610.02094
"2120",78.71946,610.03424
"2121",78.71458,610.04755
"2122",78.709694,610.06085
"2123",78.71458,610.07416
"2124",78.712135,610.08746
"2125",78.712135,610.10077
"2126",78.70725,610.1141
"2127",78.70725,610.1274
"2128",78.69993,610.1407
"2129",78.695045,610.154
"2130",78.692604,610.1673
"2131",78.69016,610.1806
"2132",78.69016,610.1939
"2133",78.692604,610.2072
"2134",78.695045,610.2205
"2135",78.68772,610.2338
"2136",78.677956,610.24713
"2137",78.67307,610.26044
"2138",78.695045,610.27374
"2139",78.79027,610.28705
"2140",79.01488,610.30035
"2141",79.412834,610.31366
"2142",79.98169,610.32697
"2143",80.689705,610.3403
"2144",81.45876,610.3536
"2145",82.18875,610.3669
"2146",82.79668,610.3802
"2147",83.23125,610.3935
"2148",83.47051,610.4068
"2149",83.5169,610.4201
"2150",83.39727,610.4334
"2151",83.15312,610.4467
"2152",82.82353,610.46
"2153",82.45487,610.4733
"2154",82.08621,610.48663
"2155",81.74441,610.49994
"2156",81.43923,610.51324
"2157",81.16823,610.52655
"2158",80.938736,610.53986
"2159",80.7483,610.55316
"2160",80.59693,610.56647
"2161",80.48463,610.5798
"2162",80.41871,610.5931
"2163",80.396736,610.6064
"2164",80.41627,610.6197
"2165",80.46754,610.633
"2166",80.54322,610.6463
"2167",80.62379,610.6596
"2168",80.69215,610.6729
"2169",80.73121,610.6862
"2170",80.73121,610.6995
"2171",80.68238,610.7128
"2172",80.587166,610.72614
"2173",80.45289,610.73944
"2174",80.29664,610.75275
"2175",80.12573,610.76605
"2176",79.954834,610.77936
"2177",79.79614,610.79266
"2178",79.65453,610.80597
"2179",79.534904,610.8193
"2180",79.432365,610.8326
"2181",79.34936,610.8459
"2182",79.28344,610.8592
"2183",79.234604,610.8725
"2184",79.1931,610.8858
"2185",79.1638,610.8991
"2186",79.13939,610.9124
"2187",79.11986,610.9257
"2188",79.10033,610.939
"2189",79.07591,610.95233
"2190",79.0515,610.96564
"2191",79.02464,610.97894
"2192",79.00023,610.99225
"2193",78.975815,611.00555
"2194",78.95628,611.01886
"2195",78.94408,611.03217
"2196",78.93431,611.0455
"2197",78.92943,611.0588
"2198",78.924545,611.0721
"2199",78.91966,611.0854
"2200",78.91478,611.0987
"2201",78.907455,611.112
"2202",78.90013,611.1253
"2203",78.89769,611.1386
"2204",78.89281,611.1519
"2205",78.887924,611.1652
"2206",78.88548,611.1785
"2207",78.8806,611.19183
"2208",78.873276,611.20514
"2209",78.870834,611.21844
"2210",78.86839,611.23175
"2211",78.86839,611.24506
"2212",78.86595,611.25836
"2213",78.86595,611.27167
"2214",78.86839,611.285
"2215",78.87816,611.2983
"2216",78.890366,611.3116
"2217",78.905014,611.3249
"2218",78.91722,611.3382
"2219",78.91722,611.3515
"2220",78.905014,611.3648
"2221",78.887924,611.3781
"2222",78.88304,611.3914
"2223",78.92943,611.4047
"2224",79.08568,611.418
"2225",79.40063,611.43134
"2226",79.89136,611.44464
"2227",80.54322,611.45795
"2228",81.29763,611.47125
"2229",82.06424,611.48456
"2230",82.74784,611.49786
"2231",83.27764,611.51117
"2232",83.60967,611.5245
"2233",83.74639,611.5378
"2234",83.69756,611.5511
"2235",83.49981,611.5644
"2236",83.19707,611.5777
"2237",82.82597,611.591
"2238",82.42069,611.6043
"2239",82.02518,611.6176
"2240",81.6614,611.6309
"2241",81.339134,611.6442
"2242",81.06813,611.65753
"2243",80.84596,611.67084
"2244",80.672615,611.68414
"2245",80.54322,611.69745
"2246",80.46021,611.71075
"2247",80.42603,611.72406
"2248",80.44068,611.73737
"2249",80.49439,611.7507
"2250",80.57496,611.764
"2251",80.66529,611.7773
"2252",80.75075,611.7906
"2253",80.814224,611.8039
"2254",80.84352,611.8172
"2255",80.82643,611.8305
"2256",80.76051,611.8438
"2257",80.66041,611.8571
"2258",80.52369,611.8704
"2259",80.36744,611.8837
"2260",80.201416,611.89703
"2261",80.0354,611.91034
"2262",79.87671,611.92365
"2263",79.725334,611.93695
"2264",79.5935,611.95026
"2265",79.47875,611.96356
"2266",79.38842,611.97687
"2267",79.32494,611.9902
"2268",79.27856,612.0035
"2269",79.24437,612.0168
"2270",79.217514,612.0301
"2271",79.19066,612.0434
"2272",79.15648,612.0567
"2273",79.12474,612.07
"2274",79.093,612.0833
"2275",79.063705,612.0966
"2276",79.03441,612.1099
"2277",79.012436,612.1232
"2278",78.99779,612.13654
"2279",78.98802,612.14984
"2280",78.97826,612.16315
"2281",78.97093,612.17645
"2282",78.96117,612.18976
"2283",78.94896,612.20306
"2284",78.93919,612.2164
"2285",78.92943,612.2297
"2286",78.924545,612.243
"2287",78.91722,612.2563
"2288",78.9099,612.2696
"2289",78.90257,612.2829
"2290",78.90013,612.2962
"2291",78.89769,612.3095
"2292",78.89769,612.3228
"2293",78.90013,612.3361
"2294",78.90013,612.3494
"2295",78.89769,612.36273
"2296",78.89525,612.37604
"2297",78.89525,612.38934
"2298",78.89769,612.40265
"2299",78.89769,612.41595
"2300",78.89769,612.42926
"2301",78.89281,612.44257
"2302",78.88304,612.4559
"2303",78.87572,612.4692
"2304",78.90257,612.4825
"2305",79.00267,612.4958
"2306",79.237045,612.5091
"2307",79.639885,612.5224
"2308",80.22095,612.5357
"2309",80.936295,612.549
"2310",81.71267,612.5623
"2311",82.45243,612.5756
"2312",83.075,612.5889
"2313",83.51934,612.60223
"2314",83.773254,612.61554
"2315",83.84161,612.62885
"2316",83.74395,612.64215
"2317",83.51202,612.65546
"2318",83.1873,612.66876
"2319",82.80888,612.68207
"2320",82.41337,612.6954
"2321",82.0325,612.7087
"2322",81.685814,612.722
"2323",81.38308,612.7353
"2324",81.12184,612.7486
"2325",80.907,612.7619
"2326",80.740974,612.7752
"2327",80.63111,612.7885
"2328",80.58228,612.8018
"2329",80.59205,612.8151
"2330",80.65308,612.8284
"2331",80.75319,612.84174
"2332",80.87282,612.85504
"2333",80.990005,612.86835
"2334",81.08278,612.88165
"2335",81.13649,612.89496
"2336",81.14137,612.90826
"2337",81.094986,612.9216
"2338",80.99733,612.9349
"2339",80.86061,612.9482
"2340",80.69459,612.9615
"2341",80.50904,612.9748
"2342",80.31617,612.9881
"2343",80.1355,613.0014
"2344",79.974365,613.0147
"2345",79.83276,613.028
"2346",79.71801,613.0413
"2347",79.62768,613.0546
"2348",79.54955,613.06793
"2349",79.48608,613.08124
"2350",79.432365,613.09454
"2351",79.38354,613.10785
"2352",79.34203,613.12115
"2353",79.30785,613.13446
"2354",79.281,613.14777
"2355",79.256584,613.1611
"2356",79.23216,613.1744
"2357",79.20775,613.1877
"2358",79.183334,613.201
"2359",79.16136,613.2143
"2360",79.14427,613.2276
"2361",79.132065,613.2409
"2362",79.12474,613.2542
"2363",79.11986,613.2675
"2364",79.11742,613.2808
"2365",79.11009,613.2941
"2366",79.10277,613.30743
"2367",79.09544,613.32074
"2368",79.080795,613.33405
"2369",79.06859,613.34735
"2370",79.05882,613.36066
"2371",79.04906,613.37396
"2372",79.03929,613.38727
"2373",79.03685,613.4006
"2374",79.03197,613.4139
"2375",79.027084,613.4272
"2376",79.0222,613.4405
"2377",79.009995,613.4538
"2378",78.98802,613.4671
"2379",78.95628,613.4804
"2380",78.922104,613.4937
"2381",78.9099,613.507
"2382",78.96117,613.5203
"2383",79.132065,613.5336
"2384",79.466545,613.54694
"2385",79.97681,613.56024
"2386",80.635994,613.57355
"2387",81.38064,613.58685
"2388",82.12039,613.60016
"2389",82.76494,613.61346
"2390",83.25811,613.6268
"2391",83.560844,613.6401
"2392",83.67315,613.6534
"2393",83.60723,613.6667
"2394",83.39727,613.68
"2395",83.08476,613.6933
"2396",82.718544,613.7066
"2397",82.33036,613.7199
"2398",81.951935,613.7332
"2399",81.59792,613.7465
"2400",81.2781,613.7598
"2401",80.99489,613.77313
"2402",80.76051,613.78644
"2403",80.584724,613.79974
"2404",80.47242,613.81305
"2405",80.430916,613.82635
"2406",80.45777,613.83966
"2407",80.5359,613.85297
"2408",80.65308,613.8663
"2409",80.78737,613.8796
"2410",80.91676,613.8929
"2411",81.01686,613.9062
"2412",81.07301,613.9195
"2413",81.07301,613.9328
"2414",81.01686,613.9461
"2415",80.907,613.9594
"2416",80.75563,613.9727
"2417",80.570076,613.986
"2418",80.36988,613.9993
"2419",80.16235,614.01263
"2420",79.96216,614.02594
"2421",79.77905,614.03925
"2422",79.622795,614.05255
"2423",79.48608,614.06586
"2424",79.37377,614.07916
"2425",79.28344,614.09247
"2426",79.21507,614.1058
"2427",79.1638,614.1191
"2428",79.12962,614.1324
"2429",79.10765,614.1457
"2430",79.09056,614.159
"2431",79.07347,614.1723
"2432",79.05394,614.1856
"2433",79.029526,614.1989
"2434",79.00023,614.2122
"2435",78.96849,614.2255
"2436",78.93675,614.23883
"2437",78.905014,614.25214
"2438",78.873276,614.26544
"2439",78.84154,614.27875
"2440",78.81712,614.29205
"2441",78.79271,614.30536
"2442",78.77562,614.31866
"2443",78.75609,614.332
"2444",78.73899,614.3453
"2445",78.71458,614.3586
"2446",78.68284,614.3719
"2447",78.64622,614.3852
"2448",78.6218,614.3985
"2449",78.62913,614.4118
"2450",78.709694,614.4251
"2451",78.91234,614.4384
"2452",79.26147,614.4517
"2453",79.7522,614.465
"2454",80.35035,614.47833
"2455",80.987564,614.49164
"2456",81.58083,614.50494
"2457",82.06424,614.51825
"2458",82.388954,614.53156
"2459",82.55009,614.54486
"2460",82.54276,614.55817
"2461",82.39628,614.5715
"2462",82.13748,614.5848
"2463",81.812775,614.5981
"2464",81.45144,614.6114
"2465",81.0901,614.6247
"2466",80.740974,614.638
"2467",80.41871,614.6513
"2468",80.13794,614.6646
"2469",79.903564,614.6779
"2470",79.73022,614.6912
"2471",79.622795,614.7045
"2472",79.59106,614.71783
"2473",79.62524,614.73114
"2474",79.71801,614.74445
"2475",79.85474,614.75775
"2476",80.02075,614.77106
"2477",80.18677,614.78436
"2478",80.33082,614.79767
"2479",80.428474,614.811
"2480",80.46998,614.8243
"2481",80.445564,614.8376
"2482",80.360115,614.8509
"2483",80.22827,614.8642
"2484",80.059814,614.8775
"2485",79.871826,614.8908
"2486",79.68383,614.9041
"2487",79.51049,614.9174
"2488",79.35424,614.9307
"2489",79.2224,614.94403
"2490",79.11986,614.95734
"2491",79.04173,614.97064
"2492",78.98802,614.98395
"2493",78.9514,614.99725
"2494",78.93187,615.01056
"2495",78.92699,615.02386
"2496",78.924545,615.0372
"2497",78.924545,615.0505
"2498",78.924545,615.0638
"2499",78.91966,615.0771
"2500",78.9099,615.0904
"2501",78.89525,615.1037
"2502",78.88548,615.117
"2503",78.873276,615.1303
"2504",78.85863,615.1436
"2505",78.839096,615.1569
"2506",78.8098,615.1702
"2507",78.77074,615.18353
"2508",78.73411,615.19684
"2509",78.71458,615.21014
"2510",78.751205,615.22345
"2511",78.88548,615.23676
"2512",79.15648,615.25006
"2513",79.569084,615.26337
"2514",80.111084,615.2767
"2515",80.726326,615.29
"2516",81.339134,615.3033
"2517",81.87137,615.3166
"2518",82.266884,615.3299
"2519",82.49882,615.3432
"2520",82.55741,615.3565
"2521",82.459755,615.3698
"2522",82.247345,615.3831
"2523",81.95438,615.3964
"2524",81.62234,615.4097
"2525",81.28054,615.42303
"2526",80.955826,615.43634
"2527",80.65308,615.44965
"2528",80.37232,615.46295
"2529",80.12573,615.47626
"2530",79.923096,615.48956
"2531",79.77905,615.50287
"2532",79.7058,615.5162
"2533",79.710686,615.5295
"2534",79.78638,615.5428
"2535",79.91821,615.5561
"2536",80.079346,615.5694
"2537",80.24048,615.5827
"2538",80.377205,615.596
"2539",80.46754,615.6093
"2540",80.50416,615.6226
"2541",80.479744,615.6359
"2542",80.39918,615.64923
"2543",80.26978,615.66254
"2544",80.111084,615.67584
"2545",79.93042,615.68915
"2546",79.744865,615.70245
"2547",79.571526,615.71576
"2548",79.41039,615.72906
"2549",79.27123,615.7424
"2550",79.15648,615.7557
"2551",79.07103,615.769
"2552",79.01488,615.7823
"2553",78.98558,615.7956
"2554",78.9807,615.8089
"2555",78.98802,615.8222
"2556",78.99779,615.8355
"2557",79.00267,615.8488
"2558",78.995346,615.8621
"2559",78.975815,615.8754
"2560",78.94408,615.88873
"2561",78.89769,615.90204
"2562",78.84398,615.91534
"2563",78.79271,615.92865
"2564",78.75365,615.94196
"2565",78.75365,615.95526
"2566",78.839096,615.96857
"2567",79.046616,615.9819
"2568",79.40307,615.9952
"2569",79.89868,616.0085
"2570",80.50172,616.0218
"2571",81.13649,616.0351
"2572",81.7322,616.0484
"2573",82.21561,616.0617
"2574",82.547646,616.075
"2575",82.703896,616.0883
"2576",82.69413,616.1016
"2577",82.54032,616.1149
"2578",82.2913,616.12823
"2579",81.991,616.14154
"2580",81.67361,616.15485
"2581",81.36843,616.16815
"2582",81.08034,616.18146
"2583",80.814224,616.19476
"2584",80.570076,616.20807
"2585",80.35035,616.2214
"2586",80.164795,616.2347
"2587",80.03296,616.248
"2588",79.96216,616.2613
"2589",79.95239,616.2746
"2590",80.0061,616.2879
"2591",80.10376,616.3012
"2592",80.22095,616.3145
"2593",80.33814,616.3278
"2594",80.43336,616.3411
"2595",80.48463,616.35443
"2596",80.4773,616.36774
"2597",80.41627,616.38104
"2598",80.306404,616.39435
"2599",80.15747,616.40765
"2600",79.98413,616.42096
"2601",79.80347,616.43427
"2602",79.62524,616.4476
"2603",79.45678,616.4609
"2604",79.30785,616.4742
"2605",79.18089,616.4875
"2606",79.078354,616.5008
"2607",79.00023,616.5141
"2608",78.93919,616.5274
"2609",78.90013,616.5407
"2610",78.873276,616.554
"2611",78.853745,616.5673
"2612",78.839096,616.5806
"2613",78.82445,616.59393
"2614",78.802475,616.60724
"2615",78.77806,616.62054
"2616",78.75365,616.63385
"2617",78.729225,616.64716
"2618",78.70237,616.66046
"2619",78.677956,616.67377
"2620",78.64866,616.6871
"2621",78.61204,616.7004
"2622",78.57786,616.7137
"2623",78.57053,616.727
"2624",78.624245,616.7403
"2625",78.785385,616.7536
"2626",79.09056,616.7669
"2627",79.56176,616.7802
"2628",80.16724,616.7935
"2629",80.84596,616.8068
"2630",81.52224,616.8201
"2631",82.108185,616.83344
"2632",82.54032,616.84674
"2633",82.78935,616.86005
"2634",82.85283,616.87335
"2635",82.757614,616.88666
"2636",82.547646,616.89996
"2637",82.269325,616.91327
"2638",81.9617,616.9266
"2639",81.66384,616.9399
"2640",81.39773,616.9532
"2641",81.160904,616.9665
"2642",80.9485,616.9798
"2643",80.75319,616.9931
"2644",80.570076,617.0064
"2645",80.40162,617.0197
"2646",80.257576,617.033
"2647",80.15503,617.0463
"2648",80.10132,617.05963
"2649",80.09155,617.07294
"2650",80.12329,617.08624
"2651",80.17456,617.09955
"2652",80.22095,617.11285
"2653",80.25025,617.12616
"2654",80.24536,617.13947
"2655",80.198975,617.1528
"2656",80.11597,617.1661
"2657",79.9939,617.1794
"2658",79.84497,617.1927
"2659",79.67895,617.206
"2660",79.50805,617.2193
"2661",79.33959,617.2326
"2662",79.17845,617.2459
"2663",79.03929,617.2592
"2664",78.922104,617.2725
"2665",78.83177,617.2858
"2666",78.765854,617.29913
"2667",78.71702,617.31244
"2668",78.68528,617.32574
"2669",78.658424,617.33905
"2670",78.63401,617.35236
"2671",78.6096,617.36566
"2672",78.58762,617.37897
"2673",78.56565,617.3923
"2674",78.54612,617.4056
"2675",78.52659,617.4189
"2676",78.5095,617.4322
"2677",78.49241,617.4455
"2678",78.47288,617.4588
"2679",78.45579,617.4721
"2680",78.433815,617.4854
"2681",78.41428,617.4987
"2682",78.399635,617.512
"2683",78.397194,617.5253
"2684",78.397194,617.53864
"2685",78.40452,617.55194
"2686",78.40696,617.56525
"2687",78.40452,617.57855
"2688",78.397194,617.59186
"2689",78.382545,617.60516
"2690",78.37034,617.61847
"2691",78.365456,617.6318
"2692",78.365456,617.6451
"2693",78.3679,617.6584
"2694",78.37522,617.6717
"2695",78.380104,617.685
"2696",78.38499,617.6983
"2697",78.38499,617.7116
"2698",78.380104,617.7249
"2699",78.3679,617.7382
"2700",78.365456,617.7515
"2701",78.399635,617.76483
"2702",78.52903,617.77814
"2703",78.80492,617.79144
"2704",79.26635,617.80475
"2705",79.903564,617.81805
"2706",80.66773,617.83136
"2707",81.47341,617.84467
"2708",82.213165,617.858
"2709",82.80888,617.8713
"2710",83.20683,617.8846
"2711",83.39727,617.8979
"2712",83.39483,617.9112
"2713",83.24101,617.9245
"2714",82.97978,617.9378
"2715",82.669716,617.9511
"2716",82.357216,617.9644
"2717",82.07156,617.9777
"2718",81.82498,617.991
"2719",81.62234,618.00433
"2720",81.446556,618.01764
"2721",81.28298,618.03094
"2722",81.11696,618.04425
"2723",80.95827,618.05756
"2724",80.81178,618.07086
"2725",80.69459,618.08417
"2726",80.621346,618.0975
"2727",80.59449,618.1108
"2728",80.6067,618.1241
"2729",80.638435,618.1374
"2730",80.672615,618.1507
"2731",80.68726,618.164
"2732",80.67017,618.1773
"2733",80.61402,618.1906
"2734",80.51881,618.2039
"2735",80.38697,618.2172
"2736",80.233154,618.2305
"2737",80.06958,618.24384
"2738",79.90112,618.25714
"2739",79.73266,618.27045
"2740",79.569084,618.28375
"2741",79.4226,618.29706
"2742",79.293205,618.31036
"2743",79.19066,618.32367
"2744",79.114975,618.337
"2745",79.063705,618.3503
"2746",79.0222,618.3636
"2747",78.98314,618.3769
"2748",78.94652,618.3902
"2749",78.91478,618.4035
"2750",78.887924,618.4168
"2751",78.86351,618.4301
"2752",78.84154,618.4434
"2753",78.82201,618.4567
"2754",78.79759,618.47003
"2755",78.77318,618.48334
"2756",78.74876,618.49664
"2757",78.729225,618.50995
"2758",78.712135,618.52325
"2759",78.69749,618.53656
"2760",78.68528,618.54987
"2761",78.67307,618.5632
"2762",78.658424,618.5765
"2763",78.643776,618.5898
"2764",78.626686,618.6031
"2765",78.61448,618.6164
"2766",78.60471,618.6297
"2767",78.59983,618.643
"2768",78.59739,618.6563
"2769",78.59251,618.6696
"2770",78.58274,618.6829
"2771",78.57053,618.6962
"2772",78.56321,618.70953
"2773",78.55833,618.72284
"2774",78.555885,618.73615
"2775",78.55833,618.74945
"2776",78.555885,618.76276
"2777",78.555885,618.77606
"2778",78.555885,618.78937
"2779",78.56809,618.8027
"2780",78.58274,618.816
"2781",78.60227,618.8293
"2782",78.61936,618.8426
"2783",78.626686,618.8559
"2784",78.624245,618.8692
"2785",78.641335,618.8825
"2786",78.709694,618.8958
"2787",78.89281,618.9091
"2788",79.237045,618.9224
"2789",79.76929,618.9357
"2790",80.465096,618.94904
"2791",81.25613,618.96234
"2792",82.04715,618.97565
"2793",82.74296,618.98895
"2794",83.265434,619.00226
"2795",83.58526,619.01556
"2796",83.700005,619.0289
"2797",83.63409,619.0422
"2798",83.43633,619.0555
"2799",83.15068,619.0688
"2800",82.82597,619.0821
"2801",82.50126,619.0954
"2802",82.213165,619.1087
"2803",81.969025,619.122
"2804",81.76395,619.1353
"2805",81.58816,619.1486
"2806",81.42947,619.1619
"2807",81.27566,619.17523
"2808",81.126724,619.18854
"2809",80.99977,619.20184
"2810",80.902115,619.21515
"2811",80.848404,619.22845
"2812",80.831314,619.24176
"2813",80.84596,619.25507
"2814",80.8777,619.2684
"2815",80.907,619.2817
"2816",80.91188,619.295
"2817",80.88747,619.3083
"2818",80.82155,619.3216
"2819",80.719,619.3349
"2820",80.58228,619.3482
"2821",80.42115,619.3615
"2822",80.25269,619.3748
"2823",80.076904,619.3881
"2824",79.903564,619.4014
"2825",79.73754,619.41473
"2826",79.59106,619.42804
"2827",79.4641,619.44135
"2828",79.36645,619.45465
"2829",79.293205,619.46796
"2830",79.24193,619.48126
"2831",79.200424,619.49457
"2832",79.16136,619.5079
"2833",79.1223,619.5212
"2834",79.08324,619.5345
"2835",79.046616,619.5478
"2836",79.009995,619.5611
"2837",78.9807,619.5744
"2838",78.95384,619.5877
"2839",78.92943,619.601
"2840",78.907455,619.6143
"2841",78.887924,619.6276
"2842",78.86595,619.6409
"2843",78.84886,619.65424
"2844",78.82933,619.66754
"2845",78.81712,619.68085
"2846",78.8098,619.69415
"2847",78.80736,619.70746
"2848",78.80736,619.72076
"2849",78.80492,619.7341
"2850",78.80003,619.7474
"2851",78.79027,619.7607
"2852",78.77562,619.774
"2853",78.76341,619.7873
"2854",78.75609,619.8006
"2855",78.75365,619.8139
"2856",78.75365,619.8272
"2857",78.75853,619.8405
"2858",78.76341,619.8538
"2859",78.76341,619.8671
"2860",78.75853,619.88043
"2861",78.74876,619.89374
"2862",78.73167,619.90704
"2863",78.709694,619.92035
"2864",78.69993,619.93365
"2865",78.73411,619.94696
"2866",78.853745,619.96027
"2867",79.11009,619.9736
"2868",79.54467,619.9869
"2869",80.147705,620.0002
"2870",80.8777,620.0135
"2871",81.6614,620.0268
"2872",82.40116,620.0401
"2873",83.018845,620.0534
"2874",83.458305,620.0667
"2875",83.700005,620.08
"2876",83.74395,620.0933
"2877",83.62676,620.1066
"2878",83.389946,620.11993
"2879",83.07988,620.13324
"2880",82.74052,620.14655
"2881",82.41337,620.15985
"2882",82.11795,620.17316
"2883",81.864044,620.18646
"2884",81.64919,620.19977
"2885",81.463646,620.2131
"2886",81.30007,620.2264
"2887",81.15846,620.2397
"2888",81.03639,620.253
"2889",80.94118,620.2663
"2890",80.88014,620.2796
"2891",80.85329,620.2929
"2892",80.85817,620.3062
"2893",80.885025,620.3195
"2894",80.921646,620.3328
"2895",80.9485,620.3461
"2896",80.953384,620.35944
"2897",80.92409,620.37274
"2898",80.85329,620.38605
"2899",80.73853,620.39935
"2900",80.59205,620.41266
"2901",80.41627,620.42596
"2902",80.23071,620.4393
"2903",80.042725,620.4526
"2904",79.8645,620.4659
"2905",79.70336,620.4792
"2906",79.56664,620.4925
"2907",79.449455,620.5058
"2908",79.35912,620.5191
"2909",79.290764,620.5324
"2910",79.234604,620.5457
"2911",79.185776,620.559
"2912",79.14427,620.5723
"2913",79.10033,620.58563
"2914",79.05394,620.59894
"2915",79.009995,620.61224
"2916",78.96849,620.62555
"2917",78.92943,620.63885
"2918",78.89525,620.65216
"2919",78.86839,620.66547
"2920",78.8513,620.6788
"2921",78.83421,620.6921
"2922",78.819565,620.7054
"2923",78.80492,620.7187
"2924",78.79515,620.732
"2925",78.78294,620.7453
"2926",78.768295,620.7586
"2927",78.751205,620.7719
"2928",78.73655,620.7852
"2929",78.71946,620.7985
"2930",78.695045,620.8118
"2931",78.675514,620.82513
"2932",78.658424,620.83844
"2933",78.64622,620.85175
"2934",78.63645,620.86505
"2935",78.624245,620.87836
"2936",78.6096,620.89166
"2937",78.59739,620.90497
"2938",78.590065,620.9183
"2939",78.58762,620.9316
"2940",78.59251,620.9449
"2941",78.60227,620.9582
"2942",78.61204,620.9715
"2943",78.61204,620.9848
"2944",78.60227,620.9981
"2945",78.590065,621.0114
"2946",78.57786,621.0247
"2947",78.58762,621.038
"2948",78.65354,621.05133
"2949",78.83421,621.06464
"2950",79.185776,621.07794
"2951",79.725334,621.09125
"2952",80.43824,621.10455
"2953",81.25857,621.11786
"2954",82.09842,621.13116
"2955",82.85527,621.1445
"2956",83.455864,621.1578
"2957",83.85138,621.1711
"2958",84.04181,621.1844
"2959",84.03937,621.1977
"2960",83.88068,621.211
"2961",83.60479,621.2243
"2962",83.267876,621.2376
"2963",82.91142,621.2509
"2964",82.56962,621.2642
"2965",82.262,621.2775
"2966",82.00076,621.29083
"2967",81.778595,621.30414
"2968",81.58572,621.31744
"2969",81.409935,621.33075
"2970",81.26101,621.34406
"2971",81.13649,621.35736
"2972",81.04372,621.37067
"2973",80.99489,621.384
"2974",80.987564,621.3973
"2975",81.01686,621.4106
"2976",81.06569,621.4239
"2977",81.11696,621.4372
"2978",81.15602,621.4505
"2979",81.15602,621.4638
"2980",81.109634,621.4771
"2981",81.01442,621.4904
"2982",80.87526,621.5037
"2983",80.706795,621.517
"2984",80.51881,621.53033
"2985",80.31617,621.54364
"2986",80.11597,621.55695
"2987",79.92554,621.57025
"2988",79.74731,621.58356
"2989",79.588615,621.59686
"2990",79.45434,621.61017
"2991",79.344475,621.6235
"2992",79.259026,621.6368
"2993",79.1931,621.6501
"2994",79.13939,621.6634
"2995",79.097885,621.6767
"2996",79.061264,621.69
"2997",79.01732,621.7033
"2998",78.96849,621.7166
"2999",78.922104,621.7299
"3000",78.873276,621.7432
"3001",78.83421,621.75653
"3002",78.80003,621.76984
"3003",78.77074,621.78314
"3004",78.746315,621.79645
"3005",78.72434,621.80975
"3006",78.70725,621.82306
"3007",78.695045,621.83636
"3008",78.6804,621.8497
"3009",78.66331,621.863
"3010",78.641335,621.8763
"3011",78.61936,621.8896
"3012",78.59739,621.9029
"3013",78.57786,621.9162
"3014",78.56321,621.9295
"3015",78.54856,621.9428
"3016",78.53391,621.9561
"3017",78.51682,621.9694
"3018",78.502174,621.9827
"3019",78.49241,621.99603
"3020",78.48997,622.00934
"3021",78.487526,622.02264
"3022",78.485085,622.03595
"3023",78.485085,622.04926
"3024",78.4802,622.06256
"3025",78.47288,622.07587
"3026",78.45823,622.0892
"3027",78.44114,622.1025
"3028",78.43137,622.1158
"3029",78.45335,622.1291
"3030",78.553444,622.1424
"3031",78.79027,622.1557
"3032",79.217514,622.169
"3033",79.84497,622.1823
"3034",80.64332,622.1956
"3035",81.53689,622.2089
"3036",82.42069,622.2222
"3037",83.19951,622.23553
"3038",83.80255,622.24884
"3039",84.190735,622.26215
"3040",84.36164,622.27545
"3041",84.332344,622.28876
"3042",84.14923,622.30206
"3043",83.8587,622.31537
"3044",83.51202,622.3287
"3045",83.15312,622.342
"3046",82.81621,622.3553
"3047",82.511024,622.3686
"3048",82.24979,622.3819
"3049",82.022736,622.3952
"3050",81.815216,622.4085
"3051",81.62966,622.4218
"3052",81.46853,622.4351
"3053",81.32937,622.4484
"3054",81.22194,622.46173
"3055",81.15602,622.47504
"3056",81.126724,622.48834
"3057",81.12428,622.50165
"3058",81.13405,622.51495
"3059",81.15114,622.52826
"3060",81.15358,622.54156
"3061",81.129166,622.5549
"3062",81.06813,622.5682
"3063",80.96315,622.5815
"3064",80.816666,622.5948
"3065",80.63355,622.6081
"3066",80.42359,622.6214
"3067",80.21118,622.6347
"3068",80.00122,622.648
"3069",79.80347,622.6613
"3070",79.62524,622.6746
"3071",79.4641,622.6879
"3072",79.31762,622.70123
"3073",79.19066,622.71454
"3074",79.080795,622.72784
"3075",78.992905,622.74115
"3076",78.922104,622.75446
"3077",78.86351,622.76776
"3078",78.8098,622.78107
"3079",78.765854,622.7944
"3080",78.71702,622.8077
"3081",78.67307,622.821
"3082",78.626686,622.8343
"3083",78.58518,622.8476
"3084",78.551,622.8609
"3085",78.519264,622.8742
"3086",78.48997,622.8875
"3087",78.46311,622.9008
"3088",78.4387,622.9141
"3089",78.41428,622.9274
"3090",78.38743,622.94073
"3091",78.363014,622.95404
"3092",78.34348,622.96735
"3093",78.32639,622.98065
"3094",78.311745,622.99396
"3095",78.28733,623.00726
"3096",78.26292,623.02057
"3097",78.23605,623.0339
"3098",78.21164,623.0472
"3099",78.19211,623.0605
"3100",78.187225,623.0738
"3101",78.18967,623.0871
"3102",78.19455,623.1004
"3103",78.19943,623.1137
"3104",78.204315,623.127
"3105",78.2092,623.1403
"3106",78.21652,623.1536
"3107",78.221405,623.16693
"3108",78.22385,623.18024
"3109",78.21896,623.19354
"3110",78.204315,623.20685
"3111",78.187225,623.22015
"3112",78.187225,623.23346
"3113",78.23605,623.24677
"3114",78.39231,623.2601
"3115",78.71702,623.2734
"3116",79.24681,623.2867
"3117",79.98413,623.3
"3118",80.8777,623.3133
"3119",81.84451,623.3266
"3120",82.777145,623.3399
"3121",83.58282,623.3532
"3122",84.19562,623.3665
"3123",84.58381,623.3798
"3124",84.749825,623.3931
"3125",84.715645,623.40643
"3126",84.525215,623.41974
"3127",84.2298,623.43304
"3128",83.878235,623.44635
"3129",83.51446,623.45966
"3130",83.16533,623.47296
"3131",82.85283,623.48627
"3132",82.58427,623.4996
"3133",82.34989,623.5129
"3134",82.13992,623.5262
"3135",81.94949,623.5395
"3136",81.78348,623.5528
"3137",81.64675,623.5661
"3138",81.549095,623.5794
"3139",81.495384,623.5927
"3140",81.478294,623.606
"3141",81.48562,623.6193
"3142",81.50759,623.6326
"3143",81.529564,623.64594
"3144",81.53445,623.65924
"3145",81.512474,623.67255
"3146",81.446556,623.68585
"3147",81.33669,623.69916
"3148",81.180435,623.71246
"3149",80.987564,623.72577
"3150",80.77028,623.7391
"3151",80.54078,623.7524
"3152",80.306404,623.7657
"3153",80.076904,623.779
"3154",79.85474,623.7923
"3155",79.64965,623.8056
"3156",79.46899,623.8189
"3157",79.310295,623.8322
"3158",79.17845,623.8455
"3159",79.07103,623.8588
"3160",78.9807,623.87213
"3161",78.90013,623.88544
"3162",78.82933,623.89874
"3163",78.76341,623.91205
"3164",78.69749,623.92535
"3165",78.62913,623.93866
"3166",78.56809,623.95197
"3167",78.50706,623.9653
"3168",78.450905,623.9786
"3169",78.40208,623.9919
"3170",78.36057,624.0052
"3171",78.32151,624.0185
"3172",78.28489,624.0318
"3173",78.25071,624.0451
"3174",78.21652,624.0584
"3175",78.18234,624.0717
"3176",78.14572,624.085
"3177",78.11398,624.0983
"3178",78.08957,624.11163
"3179",78.07004,624.12494
"3180",78.05295,624.13824
"3181",78.04074,624.15155
"3182",78.02609,624.16486
"3183",78.00656,624.17816
"3184",77.98215,624.19147
"3185",77.95773,624.2048
"3186",77.93332,624.2181
"3187",77.91379,624.2314
"3188",77.89914,624.2447
"3189",77.89426,624.258
"3190",77.89426,624.2713
"3191",77.89426,624.2846
"3192",77.89426,624.2979
"3193",77.88937,624.3112
"3194",77.88205,624.3245
"3195",77.872284,624.3378
"3196",77.86496,624.35114
"3197",77.86496,624.36444
"3198",77.89426,624.37775
"3199",77.99924,624.39105
"3200",78.24582,624.40436
"3201",78.68528,624.41766
"3202",79.344475,624.43097
"3203",80.19409,624.4443
"3204",81.16579,624.4576
"3205",82.13992,624.4709
"3206",83.00908,624.4842
"3207",83.69756,624.4975
"3208",84.159,624.5108
"3209",84.38361,624.5241
"3210",84.403145,624.5374
"3211",84.25178,624.5507
"3212",83.97345,624.564
"3213",83.61944,624.57733
"3214",83.22392,624.59064
"3215",82.828415,624.60394
"3216",82.45731,624.61725
"3217",82.12283,624.63055
"3218",81.83475,624.64386
"3219",81.59304,624.65717
"3220",81.38552,624.6705
"3221",81.214615,624.6838
"3222",81.075455,624.6971
"3223",80.98024,624.7104
"3224",80.92897,624.7237
"3225",80.91676,624.737
"3226",80.938736,624.7503
"3227",80.98512,624.7636
"3228",81.03151,624.7769
"3229",81.06325,624.7902
"3230",81.06325,624.8035
"3231",81.01686,624.81683
"3232",80.919205,624.83014
"3233",80.77272,624.84344
"3234",80.587166,624.85675
"3235",80.37965,624.87006
"3236",80.15503,624.88336
"3237",79.93286,624.89667
"3238",79.71557,624.91
"3239",79.50805,624.9233
"3240",79.31518,624.9366
"3241",79.13939,624.9499
"3242",78.98558,624.9632
"3243",78.853745,624.9765
"3244",78.746315,624.9898
"3245",78.66575,625.0031
"3246",78.60471,625.0164
"3247",78.553444,625.0297
"3248",78.51194,625.043
"3249",78.47288,625.05634
"3250",78.433815,625.06964
"3251",78.397194,625.08295
"3252",78.3679,625.09625
"3253",78.34104,625.10956
"3254",78.31663,625.12286
"3255",78.2971,625.13617
"3256",78.28001,625.1495
"3257",78.26292,625.1628
"3258",78.24094,625.1761
"3259",78.21652,625.1894
"3260",78.18967,625.2027
"3261",78.16525,625.216
"3262",78.14328,625.2293
"3263",78.12863,625.2426
"3264",78.12131,625.2559
"3265",78.116425,625.2692
"3266",78.11154,625.28253
"3267",78.10666,625.29584
"3268",78.10422,625.30914
"3269",78.09445,625.32245
"3270",78.082245,625.33575
"3271",78.07736,625.34906
"3272",78.07248,625.36237
"3273",78.07736,625.3757
"3274",78.08957,625.389
"3275",78.10422,625.4023
"3276",78.116425,625.4156
"3277",78.12131,625.4289
"3278",78.116425,625.4422
"3279",78.1091,625.4555
"3280",78.118866,625.4688
"3281",78.187225,625.4821
"3282",78.380104,625.4954
"3283",78.75365,625.5087
"3284",79.33715,625.52203
"3285",80.10864,625.53534
"3286",81.01198,625.54865
"3287",81.94705,625.56195
"3288",82.80888,625.57526
"3289",83.50469,625.58856
"3290",83.98566,625.60187
"3291",84.23712,625.6152
"3292",84.26887,625.6285
"3293",84.11749,625.6418
"3294",83.83673,625.6551
"3295",83.47295,625.6684
"3296",83.06523,625.6817
"3297",82.65751,625.695
"3298",82.269325,625.7083
"3299",81.9202,625.7216
"3300",81.60769,625.7349
"3301",81.34402,625.7482
"3302",81.12428,625.76154
"3303",80.955826,625.77484
"3304",80.8362,625.78815
"3305",80.7776,625.80145
"3306",80.7776,625.81476
"3307",80.82887,625.82806
"3308",80.91188,625.8414
"3309",81.004654,625.8547
"3310",81.08522,625.868
"3311",81.13649,625.8813
"3312",81.143814,625.8946
"3313",81.10231,625.9079
"3314",81.01198,625.9212
"3315",80.87526,625.9345
"3316",80.69947,625.9478
"3317",80.49439,625.9611
"3318",80.274666,625.9744
"3319",80.059814,625.98773
"3320",79.852295,626.00104
"3321",79.66674,626.01434
"3322",79.50317,626.02765
"3323",79.361565,626.04095
"3324",79.237045,626.05426
"3325",79.12962,626.06757
"3326",79.03441,626.0809
"3327",78.95384,626.0942
"3328",78.88548,626.1075
"3329",78.82445,626.1208
"3330",78.77074,626.1341
"3331",78.71946,626.1474
"3332",78.67063,626.1607
"3333",78.62913,626.174
"3334",78.59495,626.1873
"3335",78.56321,626.2006
"3336",78.54124,626.2139
"3337",78.521706,626.22723
"3338",78.502174,626.24054
"3339",78.48997,626.25385
"3340",78.47288,626.26715
"3341",78.45823,626.28046
"3342",78.44114,626.29376
"3343",78.42649,626.30707
"3344",78.41184,626.3204
"3345",78.399635,626.3337
"3346",78.38499,626.347
"3347",78.37522,626.3603
"3348",78.365456,626.3736
"3349",78.35569,626.3869
"3350",78.345924,626.4002
"3351",78.34104,626.4135
"3352",78.33616,626.4268
"3353",78.331276,626.4401
"3354",78.32639,626.4534
"3355",78.31907,626.46674
"3356",78.3093,626.48004
"3357",78.29221,626.49335
"3358",78.277565,626.50665
"3359",78.28489,626.51996
"3360",78.35569,626.53326
"3361",78.54612,626.5466
"3362",78.91234,626.5599
"3363",79.48119,626.5732
"3364",80.23804,626.5865
"3365",81.12184,626.5998
"3366",82.03494,626.6131
"3367",82.87236,626.6264
"3368",83.54864,626.6397
"3369",84.01495,626.653
"3370",84.25422,626.6663
"3371",84.28596,626.6796
"3372",84.13458,626.69293
"3373",83.8465,626.70624
"3374",83.47051,626.71954
"3375",83.05058,626.73285
"3376",82.62333,626.74615
"3377",82.21561,626.75946
"3378",81.83963,626.77277
"3379",81.51003,626.7861
"3380",81.22438,626.7994
"3381",80.99489,626.8127
"3382",80.82155,626.826
"3383",80.71412,626.8393
"3384",80.67017,626.8526
"3385",80.69215,626.8659
"3386",80.75807,626.8792
"3387",80.85573,626.8925
"3388",80.96559,626.9058
"3389",81.06569,626.9191
"3390",81.129166,626.93243
"3391",81.1487,626.94574
"3392",81.109634,626.95905
"3393",81.01686,626.97235
"3394",80.87038,626.98566
"3395",80.68482,626.99896
"3396",80.47242,627.01227
"3397",80.25269,627.0256
"3398",80.03296,627.0389
"3399",79.823,627.0522
"3400",79.63256,627.0655
"3401",79.46166,627.0788
"3402",79.31274,627.0921
"3403",79.183334,627.1054
"3404",79.07103,627.1187
"3405",78.9807,627.132
"3406",78.907455,627.1453
"3407",78.84642,627.1586
"3408",78.80003,627.17194
"3409",78.75853,627.18524
"3410",78.71702,627.19855
"3411",78.67063,627.21185
"3412",78.624245,627.22516
"3413",78.57542,627.23846
"3414",78.53391,627.2518
"3415",78.49485,627.2651
"3416",78.470436,627.2784
"3417",78.44846,627.2917
"3418",78.43137,627.305
"3419",78.41428,627.3183
"3420",78.397194,627.3316
"3421",78.382545,627.3449
"3422",78.37034,627.3582
"3423",78.36057,627.3715
"3424",78.35813,627.3848
"3425",78.35569,627.39813
"3426",78.35081,627.41144
"3427",78.34348,627.42474
"3428",78.32151,627.43805
"3429",78.28977,627.45135
"3430",78.260475,627.46466
"3431",78.24338,627.47797
"3432",78.2678,627.4913
"3433",78.38499,627.5046
"3434",78.64866,627.5179
"3435",79.09056,627.5312
"3436",79.710686,627.5445
"3437",80.465096,627.5578
"3438",81.2781,627.5711
"3439",82.05203,627.5844
"3440",82.69901,627.5977
"3441",83.16289,627.611
"3442",83.421684,627.6243
"3443",83.47051,627.63763
"3444",83.34112,627.65094
"3445",83.06767,627.66425
"3446",82.69901,627.67755
"3447",82.28153,627.69086
"3448",81.85428,627.70416
"3449",81.44167,627.71747
"3450",81.06325,627.7308
"3451",80.726326,627.7441
"3452",80.445564,627.7574
"3453",80.22339,627.7707
"3454",80.07446,627.784
"3455",80.0061,627.7973
"3456",80.01831,627.8106
"3457",80.10376,627.8239
"3458",80.23804,627.8372
"3459",80.40406,627.8505
"3460",80.57496,627.86383
"3461",80.723885,627.87714
"3462",80.82887,627.89044
"3463",80.87526,627.90375
"3464",80.85573,627.91705
"3465",80.77516,627.93036
"3466",80.638435,627.94366
"3467",80.45533,627.957
"3468",80.24048,627.9703
"3469",80.01099,627.9836
"3470",79.77905,627.9969
"3471",79.56176,628.0102
"3472",79.36889,628.0235
"3473",79.21019,628.0368
"3474",79.08324,628.0501
"3475",78.9807,628.0634
"3476",78.89769,628.0767
"3477",78.83421,628.09
"3478",78.785385,628.10333
"3479",78.74876,628.11664
"3480",78.72434,628.12994
"3481",78.70237,628.14325
"3482",78.68284,628.15656
"3483",78.660866,628.16986
"3484",78.63889,628.18317
"3485",78.61204,628.1965
"3486",78.590065,628.2098
"3487",78.57053,628.2231
"3488",78.56077,628.2364
"3489",78.55833,628.2497
"3490",78.555885,628.263
"3491",78.555885,628.2763
"3492",78.551,628.2896
"3493",78.538795,628.3029
"3494",78.51682,628.3162
"3495",78.49485,628.3295
"3496",78.48997,628.34283
"3497",78.53391,628.35614
"3498",78.675514,628.36945
"3499",78.96117,628.38275
"3500",79.41772,628.39606
"3501",80.028076,628.40936
"3502",80.73853,628.42267
"3503",81.47341,628.436
"3504",82.142365,628.4493
"3505",82.67216,628.4626
"3506",83.021286,628.4759
"3507",83.17265,628.4892
"3508",83.14336,628.5025
"3509",82.95293,628.5158
"3510",82.64774,628.5291
"3511",82.27665,628.5424
"3512",81.881134,628.5557
"3513",81.48806,628.56903
"3514",81.11452,628.58234
"3515",80.76784,628.59564
"3516",80.465096,628.60895
"3517",80.20874,628.62225
"3518",80.0061,628.63556
"3519",79.87915,628.64886
"3520",79.83276,628.6622
"3521",79.869385,628.6755
"3522",79.971924,628.6888
"3523",80.130615,628.7021
"3524",80.31373,628.7154
"3525",80.49439,628.7287
"3526",80.64088,628.742
"3527",80.72877,628.7553
"3528",80.7483,628.7686
"3529",80.689705,628.7819
"3530",80.56519,628.7952
"3531",80.38453,628.80853
"3532",80.17212,628.82184
"3533",79.94751,628.83514
"3534",79.727776,628.84845
"3535",79.517815,628.86176
"3536",79.33715,628.87506
"3537",79.18089,628.88837
"3538",79.05882,628.9017
"3539",78.96117,628.915
"3540",78.890366,628.9283
"3541",78.83421,628.9416
"3542",78.79271,628.9549
"3543",78.75609,628.9682
"3544",78.72678,628.9815
"3545",78.69993,628.9948
"3546",78.67307,629.0081
"3547",78.643776,629.0214
"3548",78.6096,629.0347
"3549",78.56809,629.04803
"3550",78.52903,629.06134
"3551",78.49973,629.07465
"3552",78.51438,629.08795
"3553",78.6218,629.10126
"3554",78.86351,629.11456
"3555",79.26879,629.12787
"3556",79.823,629.1412
"3557",80.482185,629.1545
"3558",81.163345,629.1678
"3559",81.78592,629.1811
"3560",82.27177,629.1944
"3561",82.58427,629.2077
"3562",82.71366,629.221
"3563",82.669716,629.2343
"3564",82.48661,629.2476
"3565",82.2034,629.2609
"3566",81.8616,629.27423
"3567",81.4905,629.28754
"3568",81.1194,629.30084
"3569",80.75563,629.31415
"3570",80.413826,629.32745
"3571",80.10132,629.34076
"3572",79.83765,629.35406
"3573",79.63012,629.3674
"3574",79.49584,629.3807
"3575",79.44213,629.394
"3576",79.47143,629.4073
"3577",79.56664,629.4206
"3578",79.71313,629.4339
"3579",79.88159,629.4472
"3580",80.05005,629.4605
"3581",80.17944,629.4738
"3582",80.25025,629.4871
"3583",80.25025,629.5004
"3584",80.184326,629.51373
"3585",80.05737,629.52704
"3586",79.89624,629.54034
"3587",79.7058,629.55365
"3588",79.50805,629.56696
"3589",79.31274,629.58026
"3590",79.13451,629.59357
"3591",78.975815,629.6069
"3592",78.84398,629.6202
"3593",78.74387,629.6335
"3594",78.66819,629.6468
"3595",78.61448,629.6601
"3596",78.5803,629.6734
"3597",78.55833,629.6867
"3598",78.538795,629.7
"3599",78.51438,629.7133
"3600",78.47776,629.7266
"3601",78.42649,629.7399
"3602",78.37278,629.75323
"3603",78.31907,629.76654
"3604",78.29221,629.77985
"3605",78.328835,629.79315
"3606",78.47532,629.80646
"3607",78.77074,629.81976
"3608",79.2224,629.83307
"3609",79.815674,629.8464
"3610",80.48463,629.8597
"3611",81.14137,629.873
"3612",81.70046,629.8863
"3613",82.1033,629.8996
"3614",82.32548,629.9129
"3615",82.36698,629.9262
"3616",82.252235,629.9395
"3617",82.02518,629.9528
"3618",81.7322,629.9661
"3619",81.409935,629.97943
"3620",81.08278,629.99274
"3621",80.77028,630.00604
"3622",80.479744,630.01935
"3623",80.21118,630.03265
"3624",79.96948,630.04596
"3625",79.76929,630.05927
"3626",79.62524,630.0726
"3627",79.53979,630.0859
"3628",79.5227,630.0992
"3629",79.569084,630.1125
"3630",79.66186,630.1258
"3631",79.78638,630.1391
"3632",79.91821,630.1524
"3633",80.03784,630.1657
"3634",80.12085,630.179
"3635",80.14526,630.1923
"3636",80.1062,630.2056
"3637",80.00366,630.21893
"3638",79.84741,630.23224
"3639",79.66186,630.24554
"3640",79.466545,630.25885
"3641",79.273674,630.27216
"3642",79.09544,630.28546
"3643",78.93919,630.29877
"3644",78.8098,630.3121
"3645",78.70725,630.3254
"3646",78.63401,630.3387
"3647",78.58518,630.352
"3648",78.555885,630.3653
"3649",78.536354,630.3786
"3650",78.52903,630.3919
"3651",78.52903,630.4052
"3652",78.53391,630.4185
"3653",78.53391,630.4318
"3654",78.52659,630.4451
"3655",78.51194,630.45844
"3656",78.487526,630.47174
"3657",78.46555,630.48505
"3658",78.46555,630.49835
"3659",78.53147,630.51166
"3660",78.70481,630.52496
"3661",79.02464,630.53827
"3662",79.50317,630.5516
"3663",80.1062,630.5649
"3664",80.77028,630.5782
"3665",81.40749,630.5915
"3666",81.934845,630.6048
"3667",82.29862,630.6181
"3668",82.48173,630.6314
"3669",82.48905,630.6447
"3670",82.35233,630.658
"3671",82.11551,630.6713
"3672",81.8201,630.68463
"3673",81.50759,630.69794
"3674",81.19997,630.71124
"3675",80.91676,630.72455
"3676",80.66041,630.73785
"3677",80.430916,630.75116
"3678",80.22339,630.76447
"3679",80.045166,630.7778
"3680",79.903564,630.7911
"3681",79.80591,630.8044
"3682",79.764404,630.8177
"3683",79.77905,630.831
"3684",79.84253,630.8443
"3685",79.937744,630.8576
"3686",80.04028,630.8709
"3687",80.128174,630.8842
"3688",80.177,630.8975
"3689",80.17944,630.9108
"3690",80.128174,630.92413
"3691",80.0354,630.93744
"3692",79.903564,630.95074
"3693",79.74731,630.96405
"3694",79.58129,630.97736
"3695",79.412834,630.99066
"3696",79.25414,631.00397
"3697",79.10765,631.0173
"3698",78.98558,631.0306
"3699",78.88548,631.0439
"3700",78.8098,631.0572
"3701",78.76097,631.0705
"3702",78.73655,631.0838
"3703",78.72678,631.0971
"3704",78.72434,631.1104
"3705",78.729225,631.1237
"3706",78.73167,631.137
"3707",78.729225,631.1503
"3708",78.7219,631.16364
"3709",78.71458,631.17694
"3710",78.70237,631.19025
"3711",78.692604,631.20355
"3712",78.68284,631.21686
"3713",78.66575,631.23016
"3714",78.6511,631.24347
"3715",78.62913,631.2568
"3716",78.607155,631.2701
"3717",78.59983,631.2834
"3718",78.63157,631.2967
"3719",78.746315,631.31
"3720",78.98802,631.3233
"3721",79.38598,631.3366
"3722",79.9353,631.3499
"3723",80.601814,631.3632
"3724",81.30007,631.3765
"3725",81.92996,631.38983
"3726",82.41337,631.40314
"3727",82.70878,631.41644
"3728",82.811325,631.42975
"3729",82.74052,631.44305
"3730",82.545204,631.45636
"3731",82.27421,631.46967
"3732",81.971466,631.483
"3733",81.67605,631.4963
"3734",81.40261,631.5096
"3735",81.160904,631.5229
"3736",80.94606,631.5362
"3737",80.75319,631.5495
"3738",80.57252,631.5628
"3739",80.40162,631.5761
"3740",80.26002,631.5894
"3741",80.15503,631.6027
"3742",80.09155,631.616
"3743",80.07202,631.62933
"3744",80.096436,631.64264
"3745",80.15015,631.65594
"3746",80.21362,631.66925
"3747",80.26734,631.68256
"3748",80.2942,631.69586
"3749",80.28199,631.70917
"3750",80.216064,631.7225
"3751",80.10864,631.7358
"3752",79.971924,631.7491
"3753",79.815674,631.7624
"3754",79.65942,631.7757
"3755",79.50805,631.789
"3756",79.37133,631.8023
"3757",79.2517,631.8156
"3758",79.15404,631.8289
"3759",79.07591,631.8422
"3760",79.01976,631.8555
"3761",78.9807,631.86884
"3762",78.96361,631.88214
"3763",78.95628,631.89545
"3764",78.958725,631.90875
"3765",78.95628,631.92206
"3766",78.94652,631.93536
"3767",78.93431,631.94867
"3768",78.922104,631.962
"3769",78.90257,631.9753
"3770",78.8806,631.9886
"3771",78.853745,632.0019
"3772",78.82445,632.0152
"3773",78.80492,632.0285
"3774",78.79759,632.0418
"3775",78.79759,632.0551
"3776",78.8098,632.0684
"3777",78.82689,632.0817
"3778",78.83421,632.09503
"3779",78.836655,632.10834
"3780",78.839096,632.12164
"3781",78.836655,632.13495
"3782",78.83421,632.14825
"3783",78.83177,632.16156
"3784",78.82933,632.17487
"3785",78.82445,632.1882
"3786",78.819565,632.2015
"3787",78.81224,632.2148
"3788",78.802475,632.2281
"3789",78.79271,632.2414
"3790",78.785385,632.2547
"3791",78.802475,632.268
"3792",78.87816,632.2813
"3793",79.06859,632.2946
"3794",79.42504,632.3079
"3795",79.957275,632.3212
"3796",80.63111,632.33453
"3797",81.375755,632.34784
"3798",82.09354,632.36115
"3799",82.684364,632.37445
"3800",83.089645,632.38776
"3801",83.28985,632.40106
"3802",83.29717,632.41437
"3803",83.1458,632.4277
"3804",82.879684,632.441
"3805",82.55497,632.4543
"3806",82.22049,632.4676
"3807",81.90311,632.4809
"3808",81.62722,632.4942
"3809",81.3904,632.5075
"3810",81.1902,632.5208
"3811",81.01198,632.5341
"3812",80.84596,632.5474
"3813",80.689705,632.5607
"3814",80.55787,632.57404
"3815",80.45777,632.58734
"3816",80.39918,632.60065
"3817",80.38453,632.61395
"3818",80.4065,632.62726
"3819",80.45289,632.64056
"3820",80.50416,632.6539
"3821",80.550545,632.6672
"3822",80.57252,632.6805
"3823",80.56031,632.6938
"3824",80.5066,632.7071
"3825",80.413826,632.7204
"3826",80.28443,632.7337
"3827",80.128174,632.747
"3828",79.96216,632.7603
"3829",79.801025,632.7736
"3830",79.64965,632.7869
"3831",79.517815,632.80023
"3832",79.41039,632.81354
"3833",79.327385,632.82684
"3834",79.27123,632.84015
"3835",79.22972,632.85345
"3836",79.202866,632.86676
"3837",79.185776,632.88007
"3838",79.17601,632.8934
"3839",79.1638,632.9067
"3840",79.15404,632.92
"3841",79.14427,632.9333
"3842",79.12718,632.9466
"3843",79.10521,632.9599
"3844",79.080795,632.9732
"3845",79.05638,632.9865
"3846",79.03197,632.9998
"3847",79.01488,633.0131
"3848",78.995346,633.0264
"3849",78.9807,633.03973
"3850",78.97337,633.05304
"3851",78.97093,633.06635
"3852",78.96849,633.07965
"3853",78.97093,633.09296
"3854",78.96849,633.10626
"3855",78.96117,633.11957
"3856",78.94896,633.1329
"3857",78.93919,633.1462
"3858",78.92943,633.1595
"3859",78.92699,633.1728
"3860",78.924545,633.1861
"3861",78.924545,633.1994
"3862",78.924545,633.2127
"3863",78.924545,633.226
"3864",78.92699,633.2393
"3865",78.92943,633.2526
"3866",78.93187,633.2659
"3867",78.93431,633.27924
"3868",78.92943,633.29254
"3869",78.92699,633.30585
"3870",78.924545,633.31915
"3871",78.94652,633.33246
"3872",79.03197,633.34576
"3873",79.237045,633.3591
"3874",79.605705,633.3724
"3875",80.147705,633.3857
"3876",80.82887,633.399
"3877",81.57839,633.4123
"3878",82.2913,633.4256
"3879",82.87236,633.4389
"3880",83.267876,633.4522
"3881",83.455864,633.4655
"3882",83.44366,633.4788
"3883",83.2752,633.4921
"3884",82.99443,633.50543
"3885",82.650185,633.51874
"3886",82.2913,633.53204
"3887",81.95438,633.54535
"3888",81.6614,633.55865
"3889",81.4197,633.57196
"3890",81.22926,633.58527
"3891",81.07301,633.5986
"3892",80.93141,633.6119
"3893",80.80202,633.6252
"3894",80.68482,633.6385
"3895",80.58961,633.6518
"3896",80.52613,633.6651
"3897",80.50172,633.6784
"3898",80.50904,633.6917
"3899",80.54566,633.705
"3900",80.59205,633.7183
"3901",80.63111,633.7316
"3902",80.6482,633.74493
"3903",80.62867,633.75824
"3904",80.57252,633.77155
"3905",80.4773,633.78485
"3906",80.35279,633.79816
"3907",80.20874,633.81146
"3908",80.05493,633.82477
"3909",79.903564,633.8381
"3910",79.76196,633.8514
"3911",79.63256,633.8647
"3912",79.5227,633.878
"3913",79.43481,633.8913
"3914",79.37133,633.9046
"3915",79.32494,633.9179
"3916",79.293205,633.9312
"3917",79.276115,633.9445
"3918",79.26879,633.9578
"3919",79.2517,633.9711
"3920",79.23216,633.98444
"3921",79.20775,633.99774
"3922",79.185776,634.01105
"3923",79.16136,634.02435
"3924",79.14671,634.03766
"3925",79.13939,634.05096
"3926",79.13695,634.0643
"3927",79.13451,634.0776
"3928",79.12718,634.0909
"3929",79.114975,634.1042
"3930",79.10033,634.1175
"3931",79.09056,634.1308
"3932",79.080795,634.1441
"3933",79.07591,634.1574
"3934",79.07347,634.1707
"3935",79.07347,634.184
"3936",79.06859,634.1973
"3937",79.061264,634.21063
"3938",79.05882,634.22394
"3939",79.05394,634.23724
"3940",79.044174,634.25055
"3941",79.03197,634.26385
"3942",79.01488,634.27716
"3943",78.992905,634.29047
"3944",78.97093,634.3038
"3945",78.96117,634.3171
"3946",78.99779,634.3304
"3947",79.12962,634.3437
"3948",79.40307,634.357
"3949",79.84741,634.3703
"3950",80.44312,634.3836
"3951",81.129166,634.3969
"3952",81.82498,634.4102
"3953",82.4329,634.4235
"3954",82.88701,634.4368
"3955",83.15068,634.45013
"3956",83.22392,634.46344
"3957",83.12871,634.47675
"3958",82.90166,634.49005
"3959",82.59159,634.50336
"3960",82.2449,634.51666
"3961",81.91043,634.52997
"3962",81.602806,634.5433
"3963",81.341576,634.5566
"3964",81.1194,634.5699
"3965",80.92653,634.5832
"3966",80.75807,634.5965
"3967",80.61402,634.6098
"3968",80.49439,634.6231
"3969",80.4065,634.6364
"3970",80.360115,634.6497
"3971",80.35523,634.663
"3972",80.38209,634.67633
"3973",80.43336,634.68964
"3974",80.499275,634.70294
"3975",80.55543,634.71625
"3976",80.58961,634.72955
"3977",80.59205,634.74286
"3978",80.550545,634.75616
"3979",80.465096,634.7695
"3980",80.34791,634.7828
"3981",80.20874,634.7961
"3982",80.05737,634.8094
"3983",79.90845,634.8227
"3984",79.766846,634.836
"3985",79.635,634.8493
"3986",79.5227,634.8626
"3987",79.429924,634.8759
"3988",79.35912,634.8892
"3989",79.31518,634.9025
"3990",79.28588,634.91583
"3991",79.27123,634.92914
"3992",79.26391,634.94244
"3993",79.2517,634.95575
"3994",79.237045,634.96906
"3995",79.2224,634.98236
"3996",79.200424,634.99567
"3997",79.18089,635.009
"3998",79.15892,635.0223
"3999",79.13939,635.0356
"4000",79.11742,635.0489
"4001",79.09544,635.0622
"4002",79.08324,635.0755
"4003",79.07591,635.0888
"4004",79.07103,635.1021
"4005",79.07103,635.1154
"4006",79.07347,635.1287
"4007",79.07103,635.142
"4008",79.06859,635.15533
"4009",79.063705,635.16864
"4010",79.05394,635.18195
"4011",79.044174,635.19525
"4012",79.03441,635.20856
"4013",79.02464,635.22186
"4014",79.012436,635.23517
"4015",79.00755,635.2485
"4016",79.00023,635.2618
"4017",78.992905,635.2751
"4018",78.9807,635.2884
"4019",78.96605,635.3017
"4020",78.95628,635.315
"4021",78.97337,635.3283
"4022",79.05394,635.3416
"4023",79.25414,635.3549
"4024",79.61059,635.3682
"4025",80.130615,635.38153
"4026",80.782486,635.39484
"4027",81.49294,635.40814
"4028",82.176544,635.42145
"4029",82.7454,635.43475
"4030",83.14824,635.44806
"4031",83.35821,635.46136
"4032",83.387505,635.4747
"4033",83.25811,635.488
"4034",83.01152,635.5013
"4035",82.69413,635.5146
"4036",82.34989,635.5279
"4037",82.01785,635.5412
"4038",81.71267,635.5545
"4039",81.44167,635.5678
"4040",81.20973,635.5811
"4041",81.007095,635.5944
"4042",80.8362,635.6077
"4043",80.689705,635.62103
"4044",80.57984,635.63434
"4045",80.50904,635.64764
"4046",80.47242,635.66095
"4047",80.47242,635.67426
"4048",80.50904,635.68756
"4049",80.567635,635.70087
"4050",80.635994,635.7142
"4051",80.69703,635.7275
"4052",80.73121,635.7408
"4053",80.72877,635.7541
"4054",80.67994,635.7674
"4055",80.59449,635.7807
"4056",80.47242,635.794
"4057",80.32838,635.8073
"4058",80.17212,635.8206
"4059",80.01343,635.8339
"4060",79.85474,635.8472
"4061",79.710686,635.86053
"4062",79.586174,635.87384
"4063",79.47875,635.88715
"4064",79.3933,635.90045
"4065",79.32983,635.91376
"4066",79.28344,635.92706
"4067",79.24925,635.94037
"4068",79.22484,635.9537
"4069",79.202866,635.967
"4070",79.18089,635.9803
"4071",79.15892,635.9936
"4072",79.132065,636.0069
"4073",79.11009,636.0202
"4074",79.08812,636.0335
"4075",79.06859,636.0468
"4076",79.046616,636.0601
"4077",79.027084,636.0734
"4078",79.009995,636.08673
"4079",78.995346,636.10004
"4080",78.98558,636.11334
"4081",78.9807,636.12665
"4082",78.975815,636.13995
"4083",78.96605,636.15326
"4084",78.95628,636.16656
"4085",78.94652,636.1799
"4086",78.93675,636.1932
"4087",78.924545,636.2065
"4088",78.91234,636.2198
"4089",78.90013,636.2331
"4090",78.88304,636.2464
"4091",78.870834,636.2597
"4092",78.86107,636.273
"4093",78.856186,636.2863
"4094",78.84642,636.2996
"4095",78.839096,636.3129
"4096",78.82689,636.32623
"4097",78.81468,636.33954
"4098",78.80492,636.35284
"4099",78.82201,636.36615
"4100",78.907455,636.37946
"4101",79.11742,636.39276
"4102",79.48852,636.40607
"4103",80.03052,636.4194
"4104",80.719,636.4327
"4105",81.47341,636.446
"4106",82.196075,636.4593
"4107",82.80156,636.4726
"4108",83.22392,636.4859
"4109",83.44366,636.4992
"4110",83.46807,636.5125
"4111",83.32403,636.5258
"4112",83.05791,636.5391
"4113",82.7161,636.5524
"4114",82.34989,636.56573
"4115",81.988556,636.57904
"4116",81.654076,636.59235
"4117",81.36355,636.60565
"4118",81.11696,636.61896
"4119",80.902115,636.63226
"4120",80.719,636.64557
"4121",80.567635,636.6589
"4122",80.45777,636.6722
"4123",80.38697,636.6855
"4124",80.360115,636.6988
"4125",80.377205,636.7121
"4126",80.42603,636.7254
"4127",80.49195,636.7387
"4128",80.56519,636.752
"4129",80.62867,636.7653
"4130",80.67017,636.7786
"4131",80.672615,636.79193
"4132",80.63111,636.80524
"4133",80.54078,636.81854
"4134",80.40894,636.83185
"4135",80.2478,636.84515
"4136",80.07446,636.85846
"4137",79.90112,636.87177
"4138",79.73998,636.8851
"4139",79.59106,636.8984
"4140",79.45922,636.9117
"4141",79.34692,636.925
"4142",79.25414,636.9383
"4143",79.185776,636.9516
"4144",79.132065,636.9649
"4145",79.093,636.9782
"4146",79.06615,636.9915
"4147",79.044174,637.0048
"4148",79.0222,637.0181
"4149",79.00267,637.03143
"4150",78.9807,637.04474
"4151",78.95384,637.05804
"4152",78.92699,637.07135
"4153",78.905014,637.08466
"4154",78.887924,637.09796
"4155",78.87572,637.11127
"4156",78.86839,637.1246
"4157",78.86351,637.1379
"4158",78.8513,637.1512
"4159",78.836655,637.1645
"4160",78.82201,637.1778
"4161",78.8098,637.1911
"4162",78.79759,637.2044
"4163",78.79027,637.2177
"4164",78.7805,637.231
"4165",78.768295,637.2443
"4166",78.751205,637.2576
"4167",78.729225,637.27094
"4168",78.70725,637.28424
"4169",78.69016,637.29755
"4170",78.68284,637.31085
"4171",78.6804,637.32416
"4172",78.6804,637.33746
"4173",78.6804,637.35077
"4174",78.6804,637.3641
"4175",78.677956,637.3774
"4176",78.70237,637.3907
"4177",78.79027,637.404
"4178",78.99779,637.4173
"4179",79.37621,637.4306
"4180",79.94263,637.4439
"4181",80.66285,637.4572
"4182",81.45632,637.4705
"4183",82.22049,637.4838
"4184",82.85039,637.49713
"4185",83.29229,637.51044
"4186",83.526665,637.52374
"4187",83.57061,637.53705
"4188",83.44854,637.55035
"4189",83.20439,637.56366
"4190",82.882126,637.57697
"4191",82.52079,637.5903
"4192",82.15457,637.6036
"4193",81.81033,637.6169
"4194",81.50759,637.6302
"4195",81.248795,637.6435
"4196",81.02663,637.6568
"4197",80.83864,637.6701
"4198",80.689705,637.6834
"4199",80.57496,637.6967
"4200",80.499275,637.71
"4201",80.46021,637.7233
"4202",80.45777,637.73663
"4203",80.48951,637.74994
"4204",80.54566,637.76324
"4205",80.61158,637.77655
"4206",80.6775,637.78986
"4207",80.723885,637.80316
"4208",80.72877,637.81647
"4209",80.689705,637.8298
"4210",80.601814,637.8431
"4211",80.47242,637.8564
"4212",80.31617,637.8697
"4213",80.14038,637.883
"4214",79.96216,637.8963
"4215",79.78638,637.9096
"4216",79.62524,637.9229
"4217",79.48119,637.9362
"4218",79.35668,637.9495
"4219",79.2517,637.9628
"4220",79.17113,637.97614
"4221",79.10765,637.98944
"4222",79.05882,638.00275
"4223",79.02464,638.01605
"4224",79.00267,638.02936
"4225",78.97826,638.04266
"4226",78.95628,638.05597
"4227",78.93431,638.0693
"4228",78.907455,638.0826
"4229",78.8806,638.0959
"4230",78.86107,638.1092
"4231",78.84642,638.1225
"4232",78.84154,638.1358
"4233",78.839096,638.1491
"4234",78.836655,638.1624
"4235",78.82933,638.1757
"4236",78.81712,638.189
"4237",78.80492,638.20233
"4238",78.79759,638.21564
"4239",78.79271,638.22894
"4240",78.79271,638.24225
"4241",78.79027,638.25555
"4242",78.785385,638.26886
"4243",78.77562,638.28217
"4244",78.77074,638.2955
"4245",78.765854,638.3088
"4246",78.76097,638.3221
"4247",78.75365,638.3354
"4248",78.74876,638.3487
"4249",78.74387,638.362
"4250",78.74143,638.3753
"4251",78.74143,638.3886
"4252",78.73655,638.4019
"4253",78.72678,638.4152
"4254",78.712135,638.4285
"4255",78.69993,638.44183
"4256",78.69993,638.45514
"4257",78.75609,638.46844
"4258",78.922104,638.48175
"4259",79.259026,638.49506
"4260",79.78882,638.50836
"4261",80.499275,638.52167
"4262",81.322044,638.535
"4263",82.16434,638.5483
"4264",82.91875,638.5616
"4265",83.50469,638.5749
"4266",83.897766,638.5882
"4267",84.08331,638.6015
"4268",84.07843,638.6148
"4269",83.9173,638.6281
"4270",83.64141,638.6414
"4271",83.28741,638.6547
"4272",82.90654,638.668
"4273",82.530556,638.68134
"4274",82.18875,638.69464
"4275",81.88846,638.70795
"4276",81.6321,638.72125
"4277",81.41238,638.73456
"4278",81.22682,638.74786
"4279",81.07057,638.76117
"4280",80.9485,638.7745
"4281",80.86549,638.7878
"4282",80.82399,638.8011
"4283",80.82155,638.8144
"4284",80.85817,638.8277
"4285",80.919205,638.841
"4286",80.990005,638.8543
"4287",81.05348,638.8676
"4288",81.08766,638.8809
"4289",81.075455,638.8942
"4290",81.01198,638.90753
"4291",80.89967,638.92084
"4292",80.743416,638.93414
"4293",80.56275,638.94745
"4294",80.377205,638.96075
"4295",80.19165,638.97406
"4296",80.01343,638.98737
"4297",79.84497,639.0007
"4298",79.691154,639.014
"4299",79.554436,639.0273
"4300",79.432365,639.0406
"4301",79.33471,639.0539
"4302",79.25414,639.0672
"4303",79.18822,639.0805
"4304",79.12718,639.0938
"4305",79.078354,639.1071
"4306",79.03929,639.1204
"4307",79.00267,639.1337
"4308",78.96849,639.14703
"4309",78.93431,639.16034
"4310",78.90013,639.17365
"4311",78.86595,639.18695
"4312",78.83421,639.20026
"4313",78.80736,639.21356
"4314",78.78294,639.22687
"4315",78.75365,639.2402
"4316",78.72434,639.2535
"4317",78.69749,639.2668
"4318",78.677956,639.2801
"4319",78.66575,639.2934
"4320",78.658424,639.3067
"4321",78.6511,639.32
"4322",78.643776,639.3333
"4323",78.63157,639.3466
"4324",78.61448,639.3599
"4325",78.59739,639.3732
"4326",78.57786,639.38654
"4327",78.553444,639.39984
"4328",78.52903,639.41315
"4329",78.50706,639.42645
"4330",78.48997,639.43976
"4331",78.4802,639.45306
"4332",78.48264,639.4664
"4333",78.485085,639.4797
"4334",78.48264,639.493
"4335",78.47288,639.5063
"4336",78.45579,639.5196
"4337",78.44602,639.5329
"4338",78.48264,639.5462
"4339",78.624245,639.5595
"4340",78.93675,639.5728
"4341",79.4519,639.5861
"4342",80.164795,639.5994
"4343",81.0193,639.61273
"4344",81.91287,639.62604
"4345",82.74784,639.63934
"4346",83.43633,639.65265
"4347",83.931946,639.66595
"4348",84.21271,639.67926
"4349",84.298164,639.69257
"4350",84.207825,639.7059
"4351",83.980774,639.7192
"4352",83.66094,639.7325
"4353",83.29473,639.7458
"4354",82.91875,639.7591
"4355",82.55253,639.7724
"4356",82.21805,639.7857
"4357",81.90799,639.799
"4358",81.6321,639.8123
"4359",81.38796,639.8256
"4360",81.18776,639.8389
"4361",81.03639,639.85223
"4362",80.94362,639.86554
"4363",80.90944,639.87885
"4364",80.92653,639.89215
"4365",80.98024,639.90546
"4366",81.058365,639.91876
"4367",81.14137,639.93207
"4368",81.21217,639.9454
"4369",81.25857,639.9587
"4370",81.26345,639.972
"4371",81.21706,639.9853
"4372",81.11452,639.9986
"4373",80.96803,640.0119
"4374",80.78493,640.0252
"4375",80.584724,640.0385
"4376",80.37965,640.0518
"4377",80.17456,640.0651
"4378",79.97925,640.0784
"4379",79.7937,640.09174
"4380",79.62524,640.10504
"4381",79.47387,640.11835
"4382",79.34936,640.13165
"4383",79.24681,640.14496
"4384",79.15892,640.15826
"4385",79.08812,640.1716
"4386",79.027084,640.1849
"4387",78.97093,640.1982
"4388",78.91722,640.2115
"4389",78.870834,640.2248
"4390",78.82933,640.2381
"4391",78.78783,640.2514
"4392",78.74143,640.2647
"4393",78.69749,640.278
"4394",78.65354,640.2913
"4395",78.61204,640.3046
"4396",78.57786,640.31793
"4397",78.553444,640.33124
"4398",78.538795,640.34454
"4399",78.52659,640.35785
"4400",78.51682,640.37115
"4401",78.50706,640.38446
"4402",78.49485,640.39777
"4403",78.4802,640.4111
"4404",78.467995,640.4244
"4405",78.45823,640.4377
"4406",78.44846,640.451
"4407",78.44114,640.4643
"4408",78.433815,640.4776
"4409",78.42649,640.4909
"4410",78.41428,640.5042
"4411",78.40208,640.5175
"4412",78.38743,640.5308
"4413",78.37766,640.5441
"4414",78.365456,640.55743
"4415",78.35813,640.57074
"4416",78.348366,640.58405
"4417",78.33616,640.59735
"4418",78.32151,640.61066
"4419",78.311745,640.62396
"4420",78.34104,640.63727
"4421",78.46067,640.6506
"4422",78.73411,640.6639
"4423",79.20775,640.6772
"4424",79.89624,640.6905
"4425",80.76051,640.7038
"4426",81.71755,640.7171
"4427",82.65751,640.7304
"4428",83.48272,640.7437
"4429",84.11749,640.757
"4430",84.52766,640.7703
"4431",84.70832,640.7836
"4432",84.681465,640.79694
"4433",84.48371,640.81024
"4434",84.16876,640.82355
"4435",83.78058,640.83685
"4436",83.370415,640.85016
"4437",82.96513,640.86346
"4438",82.581825,640.8768
"4439",82.22781,640.8901
"4440",81.90311,640.9034
"4441",81.617455,640.9167
"4442",81.373314,640.93
"4443",81.18288,640.9433
"4444",81.0486,640.9566
"4445",80.98024,640.9699
"4446",80.98024,640.9832
"4447",81.02907,640.9965
"4448",81.11696,641.0098
"4449",81.22194,641.02313
"4450",81.31716,641.03644
"4451",81.3782,641.04974
"4452",81.3904,641.06305
"4453",81.34646,641.07635
"4454",81.23903,641.08966
"4455",81.08522,641.10297
"4456",80.89235,641.1163
"4457",80.672615,641.1296
"4458",80.44068,641.1429
"4459",80.2063,641.1562
"4460",79.97681,641.1695
"4461",79.764404,641.1828
"4462",79.571526,641.1961
"4463",79.40307,641.2094
"4464",79.259026,641.2227
"4465",79.13939,641.236
"4466",79.03685,641.2493
"4467",78.94896,641.26263
"4468",78.870834,641.27594
"4469",78.802475,641.28925
"4470",78.73655,641.30255
"4471",78.675514,641.31586
"4472",78.61936,641.32916
"4473",78.56565,641.34247
"4474",78.5095,641.3558
"4475",78.450905,641.3691
"4476",78.39475,641.3824
"4477",78.3386,641.3957
"4478",78.29221,641.409
"4479",78.25559,641.4223
"4480",78.22873,641.4356
"4481",78.21164,641.4489
"4482",78.20187,641.4622
"4483",78.19699,641.4755
"4484",78.19211,641.48883
"4485",78.184784,641.50214
"4486",78.17502,641.51544
"4487",78.16037,641.52875
"4488",78.14572,641.54205
"4489",78.135956,641.55536
"4490",78.13107,641.56866
"4491",78.12375,641.582
"4492",78.118866,641.5953
"4493",78.1091,641.6086
"4494",78.08469,641.6219
"4495",78.05051,641.6352
"4496",78.02121,641.6485
"4497",78.02121,641.6618
"4498",78.09201,641.6751
"4499",78.294655,641.6884
"4500",78.6804,641.7017
"4501",79.273674,641.715
"4502",80.05249,641.72833
"4503",80.953384,641.74164
"4504",81.86893,641.75494
"4505",82.701454,641.76825
"4506",83.36553,641.78156
"4507",83.81232,641.79486
"4508",84.02716,641.80817
"4509",84.0296,641.8215
"4510",83.85626,641.8348
"4511",83.546196,641.8481
"4512",83.14824,641.8614
"4513",82.7161,641.8747
"4514",82.27177,641.888
"4515",81.83963,641.9013
"4516",81.43923,641.9146
"4517",81.08034,641.9279
"4518",80.765396,641.9412
"4519",80.50904,641.9545
"4520",80.325935,641.96783
"4521",80.218506,641.98114
"4522",80.181885,641.99445
"4523",80.20874,642.00775
"4524",80.289314,642.02106
"4525",80.40406,642.03436
"4526",80.53101,642.04767
"4527",80.64576,642.061
"4528",80.72877,642.0743
"4529",80.75807,642.0876
"4530",80.726326,642.1009
"4531",80.63355,642.1142
"4532",80.48463,642.1275
"4533",80.291756,642.1408
"4534",80.076904,642.1541
"4535",79.84741,642.1674
"4536",79.61547,642.1807
"4537",79.398186,642.19403
"4538",79.200424,642.20734
"4539",79.027084,642.22064
"4540",78.87816,642.23395
"4541",78.751205,642.24725
"4542",78.643776,642.26056
"4543",78.553444,642.27386
"4544",78.47288,642.2872
"4545",78.40696,642.3005
"4546",78.348366,642.3138
"4547",78.2971,642.3271
"4548",78.25315,642.3404
"4549",78.21164,642.3537
"4550",78.17502,642.367
"4551",78.14328,642.3803
"4552",78.116425,642.3936
"4553",78.09445,642.4069
"4554",78.0798,642.4202
"4555",78.0676,642.43353
"4556",78.0676,642.44684
"4557",78.07004,642.46014
"4558",78.07736,642.47345
"4559",78.08469,642.48676
"4560",78.08957,642.50006
"4561",78.0798,642.51337
"4562",78.06271,642.5267
"4563",78.03586,642.54
"4564",78.00412,642.5533
"4565",77.98459,642.5666
"4566",78.01633,642.5799
"4567",78.14816,642.5932
"4568",78.43626,642.6065
"4569",78.9099,642.6198
"4570",79.5642,642.6331
"4571",80.35279,642.6464
"4572",81.18532,642.6597
"4573",81.971466,642.67303
