"","ppg","time"
"1",78.82689,26.915703
"2",80.689705,26.929035
"3",82.899216,26.942368
"4",85.20882,26.955704
"5",87.34997,26.969036
"6",89.129776,26.982368
"7",90.43839,26.995705
"8",91.24895,27.009037
"9",91.561455,27.02237
"10",91.41985,27.035702
"11",90.88762,27.049034
"12",90.05264,27.06237
"13",89.01015,27.075703
"14",87.85535,27.089035
"15",86.68345,27.102371
"16",85.56039,27.115704
"17",84.53742,27.129036
"18",83.64141,27.142368
"19",82.88701,27.1557
"20",82.286415,27.169037
"21",81.85184,27.18237
"22",81.58572,27.195702
"23",81.495384,27.209038
"24",81.56374,27.22237
"25",81.74685,27.235703
"26",81.991,27.249035
"27",82.24002,27.262367
"28",82.44511,27.275703
"29",82.55985,27.289036
"30",82.55497,27.302368
"31",82.425575,27.315704
"32",82.1741,27.329037
"33",81.812775,27.34237
"34",81.36599,27.355701
"35",80.85817,27.369034
"36",80.31373,27.38237
"37",79.7522,27.395702
"38",79.200424,27.409035
"39",78.68284,27.42237
"40",78.21652,27.435703
"41",77.81369,27.449036
"42",77.47921,27.462368
"43",77.208206,27.4757
"44",76.998245,27.489037
"45",76.839554,27.502369
"46",76.72724,27.515701
"47",76.64423,27.529037
"48",76.58808,27.54237
"49",76.54902,27.555702
"50",76.52949,27.569035
"51",76.51972,27.582367
"52",76.52949,27.595703
"53",76.544136,27.609035
"54",76.561226,27.622368
"55",76.5832,27.635704
"56",76.610054,27.649036
"57",76.63691,27.662369
"58",76.66621,27.675701
"59",76.697945,27.689034
"60",76.717476,27.70237
"61",76.717476,27.715702
"62",76.68574,27.729034
"63",76.6247,27.74237
"64",76.53193,27.755703
"65",76.41474,27.769035
"66",76.28535,27.782368
"67",76.155945,27.7957
"68",76.02899,27.809036
"69",75.911804,27.822369
"70",75.809265,27.835701
"71",75.72381,27.849037
"72",75.648125,27.86237
"73",75.58221,27.875702
"74",75.52117,27.889034
"75",75.457695,27.902367
"76",75.3991,27.915703
"77",75.34295,27.929035
"78",75.29656,27.942368
"79",75.2575,27.955704
"80",75.23064,27.969036
"81",75.211105,27.982368
"82",75.1989,27.9957
"83",75.194016,28.009033
"84",75.191574,28.02237
"85",75.176926,28.035702
"86",75.142746,28.049034
"87",75.0988,28.06237
"88",75.07439,28.075703
"89",75.16716,28.089035
"90",75.560234,28.102367
"91",76.46113,28.1157
"92",77.98215,28.129036
"93",80.09155,28.142368
"94",82.60868,28.1557
"95",85.24544,28.169037
"96",87.68688,28.18237
"97",89.686424,28.195702
"98",91.12688,28.209034
"99",91.99603,28.222366
"100",92.32319,28.235703
"101",92.157166,28.249035
"102",91.5761,28.262367
"103",90.67277,28.275703
"104",89.55215,28.289036
"105",88.307014,28.302368
"106",87.0399,28.3157
"107",85.82651,28.329033
"108",84.7132,28.34237
"109",83.734184,28.355701
"110",82.91142,28.369034
"111",82.269325,28.38237
"112",81.82742,28.395702
"113",81.600365,28.409035
"114",81.583275,28.422367
"115",81.75174,28.4357
"116",82.04471,28.449036
"117",82.40116,28.462368
"118",82.75517,28.4757
"119",83.053024,28.489037
"120",83.25323,28.502369
"121",83.32647,28.515701
"122",83.26055,28.529034
"123",83.05058,28.542366
"124",82.703896,28.555702
"125",82.23514,28.569035
"126",81.67849,28.582367
"127",81.06081,28.595703
"128",80.41627,28.609035
"129",79.77417,28.622368
"130",79.166245,28.6357
"131",78.6096,28.649033
"132",78.11398,28.662369
"133",77.68917,28.675701
"134",77.34249,28.689034
"135",77.066605,28.70237
"136",76.85664,28.715702
"137",76.70527,28.729034
"138",76.59785,28.742367
"139",76.52705,28.7557
"140",76.490425,28.769035
"141",76.48554,28.782368
"142",76.507515,28.7957
"143",76.5539,28.809036
"144",76.61494,28.822369
"145",76.6833,28.835701
"146",76.75899,28.849033
"147",76.83467,28.862366
"148",76.91524,28.875702
"149",76.98848,28.889034
"150",77.049515,28.902367
"151",77.083694,28.915703
"152",77.09102,28.929035
"153",77.069046,28.942368
"154",77.02022,28.9557
"155",76.944534,28.969032
"156",76.84444,28.982368
"157",76.717476,28.9957
"158",76.57343,29.009033
"159",76.422066,29.02237
"160",76.27558,29.035702
"161",76.1413,29.049034
"162",76.02167,29.062366
"163",75.91669,29.075699
"164",75.81903,29.089035
"165",75.72381,29.102367
"166",75.62615,29.1157
"167",75.51629,29.129036
"168",75.389336,29.142368
"169",75.25506,29.1557
"170",75.13054,29.169033
"171",75.089035,29.182365
"172",75.29168,29.195702
"173",75.9411,29.209034
"174",77.196,29.222366
"175",79.078354,29.235703
"176",81.45144,29.249035
"177",84.054016,29.262367
"178",86.571144,29.2757
"179",88.71961,29.289032
"180",90.338295,29.302368
"181",91.37591,29.3157
"182",91.85199,29.329033
"183",91.8056,29.34237
"184",91.30511,29.355701
"185",90.44572,29.369034
"186",89.33486,29.382366
"187",88.0824,29.395699
"188",86.78111,29.409035
"189",85.52621,29.422367
"190",84.36652,29.4357
"191",83.34112,29.449036
"192",82.46952,29.462368
"193",81.77615,29.4757
"194",81.270775,29.489037
"195",80.97536,29.502369
"196",80.89235,29.515701
"197",81.01198,29.529037
"198",81.290306,29.542374
"199",81.66628,29.555706
"200",82.074005,29.569038
"201",82.442665,29.582375
"202",82.720985,29.59571
"203",82.86015,29.609043
"204",82.845505,29.622375
"205",82.667274,29.635712
"206",82.34745,29.649048
"207",81.90555,29.66238
"208",81.375755,29.675713
"209",80.782486,29.689049
"210",80.15991,29.702385
"211",79.53002,29.715717
"212",78.92699,29.72905
"213",78.37034,29.742386
"214",77.87961,29.755722
"215",77.46212,29.769054
"216",77.12276,29.782387
"217",76.85176,29.795723
"218",76.64179,29.80906
"219",76.4831,29.822392
"220",76.368355,29.835724
"221",76.29023,29.84906
"222",76.23895,29.862396
"223",76.2121,29.875729
"224",76.207214,29.889061
"225",76.2121,29.902397
"226",76.226746,29.915733
"227",76.241394,29.929066
"228",76.25361,29.942398
"229",76.265816,29.955734
"230",76.27558,29.96907
"231",76.28535,29.982403
"232",76.297554,29.995735
"233",76.314644,30.009071
"234",76.32197,30.022408
"235",76.31953,30.03574
"236",76.299995,30.049072
"237",76.25605,30.062408
"238",76.18524,30.075745
"239",76.09491,30.089077
"240",75.99481,30.10241
"241",75.89227,30.115746
"242",75.79462,30.129082
"243",75.70428,30.142414
"244",75.61883,30.155746
"245",75.53094,30.169083
"246",75.43328,30.182419
"247",75.31609,30.195751
"248",75.17937,30.209084
"249",75.020676,30.22242
"250",74.84978,30.235756
"251",74.71793,30.249088
"252",74.74723,30.26242
"253",75.13542,30.275757
"254",76.050964,30.289093
"255",77.56954,30.302425
"256",79.622795,30.315758
"257",82.01785,30.329094
"258",84.471504,30.34243
"259",86.70298,30.355762
"260",88.50965,30.369095
"261",89.80362,30.382431
"262",90.56779,30.395767
"263",90.81926,30.4091
"264",90.60441,30.422432
"265",90.006256,30.435768
"266",89.127335,30.449104
"267",88.07263,30.462437
"268",86.939804,30.475769
"269",85.82651,30.489105
"270",84.79866,30.502441
"271",83.88556,30.515774
"272",83.10918,30.529106
"273",82.46952,30.542442
"274",81.97635,30.555779
"275",81.63943,30.56911
"276",81.461205,30.582443
"277",81.44167,30.59578
"278",81.5613,30.609116
"279",81.77615,30.622448
"280",82.03494,30.63578
"281",82.28886,30.649117
"282",82.48661,30.662453
"283",82.58915,30.675785
"284",82.56962,30.689117
"285",82.41825,30.702454
"286",82.13992,30.71579
"287",81.74929,30.729122
"288",81.26589,30.742455
"289",80.72144,30.75579
"290",80.14526,30.769127
"291",79.5642,30.78246
"292",79.00511,30.795792
"293",78.49241,30.809128
"294",78.0383,30.822464
"295",77.659874,30.835796
"296",77.3547,30.849129
"297",77.1252,30.862465
"298",76.964066,30.875801
"299",76.86397,30.889133
"300",76.807816,30.902466
"301",76.788284,30.915802
"302",76.79317,30.929138
"303",76.822464,30.94247
"304",76.86885,30.955803
"305",76.927444,30.96914
"306",76.99336,30.982475
"307",77.066605,30.995808
"308",77.137405,31.00914
"309",77.208206,31.022476
"310",77.27413,31.035812
"311",77.332726,31.049145
"312",77.38155,31.062477
"313",77.418175,31.075813
"314",77.44259,31.08915
"315",77.45724,31.102482
"316",77.46212,31.115814
"317",77.452354,31.12915
"318",77.43038,31.142487
"319",77.38888,31.155819
"320",77.3254,31.169151
"321",77.239944,31.182487
"322",77.13008,31.195824
"323",76.98848,31.209156
"324",76.82735,31.222488
"325",76.63935,31.235825
"326",76.4416,31.24916
"327",76.265816,31.262493
"328",76.18524,31.275826
"329",76.33173,31.289162
"330",76.87129,31.302498
"331",77.92111,31.31583
"332",79.500725,31.329163
"333",81.51003,31.342499
"334",83.74151,31.355835
"335",85.94125,31.369167
"336",87.869995,31.3825
"337",89.3666,31.395836
"338",90.355385,31.409172
"339",90.8217,31.422504
"340",90.79973,31.435837
"341",90.35783,31.449173
"342",89.59853,31.46251
"343",88.62684,31.475842
"344",87.552605,31.489174
"345",86.46372,31.50251
"346",85.42855,31.515846
"347",84.491035,31.529179
"348",83.67315,31.542511
"349",82.98955,31.555847
"350",82.442665,31.569183
"351",82.03494,31.582516
"352",81.77127,31.595848
"353",81.64187,31.609184
"354",81.6321,31.62252
"355",81.71511,31.635853
"356",81.85428,31.649185
"357",82.003204,31.662521
"358",82.11795,31.675858
"359",82.161896,31.68919
"360",82.11063,31.702522
"361",81.94949,31.715858
"362",81.68093,31.729195
"363",81.31716,31.742527
"364",80.8777,31.75586
"365",80.377205,31.769196
"366",79.84985,31.782532
"367",79.31762,31.795864
"368",78.80736,31.809196
"369",78.33616,31.822533
"370",77.91867,31.835869
"371",77.55489,31.849201
"372",77.24971,31.862534
"373",76.99336,31.87587
"374",76.78096,31.889206
"375",76.60517,31.902538
"376",76.45869,31.91587
"377",76.33173,31.929207
"378",76.21942,31.942543
"379",76.11932,31.955875
"380",76.02655,31.969208
"381",75.948425,31.982544
"382",75.88739,31.99588
"383",75.83856,32.009212
"384",75.7995,32.022545
"385",75.7702,32.03588
"386",75.74334,32.049217
"387",75.71404,32.06255
"388",75.68719,32.075882
"389",75.65545,32.08922
"390",75.61883,32.102554
"391",75.57,32.115887
"392",75.50408,32.12922
"393",75.41619,32.142555
"394",75.31121,32.15589
"395",75.18425,32.169224
"396",75.04509,32.182556
"397",74.90105,32.195892
"398",74.76677,32.20923
"399",74.64713,32.22256
"400",74.54459,32.235893
"401",74.4567,32.24923
"402",74.38346,32.262566
"403",74.322426,32.275898
"404",74.28092,32.28923
"405",74.26383,32.302567
"406",74.27604,32.315903
"407",74.3151,32.329235
"408",74.38346,32.342567
"409",74.48112,32.355904
"410",74.598305,32.36924
"411",74.73014,32.382572
"412",74.85954,32.395905
"413",74.969406,32.40924
"414",75.04265,32.422577
"415",75.08171,32.43591
"416",75.08171,32.44924
"417",75.07683,32.462578
"418",75.140305,32.475914
"419",75.44549,32.489246
"420",76.19745,32.50258
"421",77.55245,32.515915
"422",79.520256,32.52925
"423",81.951935,32.542583
"424",84.559395,32.555916
"425",87.00816,32.569252
"426",89.01747,32.58259
"427",90.43839,32.59592
"428",91.24162,32.609253
"429",91.47112,32.62259
"430",91.192795,32.635925
"431",90.50187,32.649258
"432",89.50576,32.66259
"433",88.31922,32.675926
"434",87.05455,32.689262
"435",85.80209,32.702595
"436",84.630196,32.715927
"437",83.5877,32.729263
"438",82.69901,32.7426
"439",81.97391,32.75593
"440",81.42458,32.769264
"441",81.05348,32.7826
"442",80.85817,32.795937
"443",80.8362,32.80927
"444",80.96071,32.8226
"445",81.19997,32.835938
"446",81.495384,32.849274
"447",81.79324,32.862606
"448",82.039825,32.87594
"449",82.196075,32.889275
"450",82.22537,32.90261
"451",82.13016,32.915943
"452",81.91287,32.929276
"453",81.58816,32.94261
"454",81.180435,32.955948
"455",80.71412,32.96928
"456",80.218506,32.982613
"457",79.71557,32.99595
"458",79.22484,33.009285
"459",78.765854,33.022617
"460",78.35813,33.03595
"461",78.00656,33.049286
"462",77.71114,33.062622
"463",77.469444,33.075954
"464",77.279015,33.089287
"465",77.137405,33.102623
"466",77.032425,33.11596
"467",76.95918,33.12929
"468",76.91768,33.142624
"469",76.89815,33.15596
"470",76.90547,33.169296
"471",76.93233,33.18263
"472",76.97627,33.19596
"473",77.02998,33.209297
"474",77.086136,33.222633
"475",77.134964,33.235966
"476",77.17647,33.2493
"477",77.20332,33.262634
"478",77.22041,33.27597
"479",77.22041,33.289303
"480",77.21065,33.302635
"481",77.18623,33.31597
"482",77.152054,33.329308
"483",77.10567,33.34264
"484",77.051956,33.355972
"485",76.99092,33.36931
"486",76.91768,33.382645
"487",76.83711,33.395977
"488",76.74677,33.40931
"489",76.64423,33.422646
"490",76.524605,33.43598
"491",76.39033,33.449314
"492",76.243835,33.462646
"493",76.085144,33.475983
"494",75.945984,33.48932
"495",75.88739,33.50265
"496",76.04608,33.515984
"497",76.57343,33.52932
"498",77.58419,33.542656
"499",79.080795,33.55599
"500",80.953384,33.56932
"501",82.97978,33.582657
"502",84.9012,33.595993
"503",86.49058,33.609325
"504",87.61608,33.622658
"505",88.23865,33.635994
"506",88.377815,33.64933
"507",88.09949,33.662663
"508",87.48913,33.675995
"509",86.65171,33.68933
"510",85.68978,33.702667
"511",84.68879,33.716
"512",83.72442,33.729332
"513",82.84306,33.74267
"514",82.06668,33.756004
"515",81.41238,33.769337
"516",80.88258,33.78267
"517",80.479744,33.796005
"518",80.218506,33.80934
"519",80.10376,33.822674
"520",80.1355,33.836006
"521",80.289314,33.849342
"522",80.5359,33.86268
"523",80.82155,33.87601
"524",81.092545,33.889343
"525",81.304955,33.90268
"526",81.43435,33.916016
"527",81.45144,33.929348
"528",81.35378,33.94268
"529",81.1487,33.956017
"530",80.86061,33.969353
"531",80.5066,33.982685
"532",80.11597,33.996017
"533",79.71801,34.009354
"534",79.32494,34.02269
"535",78.95628,34.036022
"536",78.61692,34.049355
"537",78.31663,34.06269
"538",78.06027,34.076027
"539",77.85275,34.08936
"540",77.69161,34.10269
"541",77.5671,34.116028
"542",77.47921,34.129364
"543",77.42306,34.142696
"544",77.39132,34.15603
"545",77.37911,34.169365
"546",77.38888,34.1827
"547",77.41085,34.196033
"548",77.44259,34.209366
"549",77.48409,34.222702
"550",77.53048,34.23604
"551",77.58175,34.24937
"552",77.63546,34.262703
"553",77.69161,34.27604
"554",77.74044,34.289375
"555",77.77219,34.302708
"556",77.79416,34.31604
"557",77.79904,34.329376
"558",77.78439,34.342712
"559",77.752655,34.356045
"560",77.70382,34.369377
"561",77.64034,34.382713
"562",77.557335,34.39605
"563",77.45724,34.40938
"564",77.349815,34.422714
"565",77.2375,34.43605
"566",77.12764,34.449387
"567",77.02754,34.46272
"568",76.93965,34.47605
"569",76.86641,34.489388
"570",76.807816,34.502724
"571",76.76143,34.516056
"572",76.72236,34.52939
"573",76.68574,34.542725
"574",76.654,34.55606
"575",76.61738,34.569393
"576",76.578316,34.582726
"577",76.5539,34.59606
"578",76.610054,34.609398
"579",76.88106,34.62273
"580",77.5378,34.636063
"581",78.68772,34.6494
"582",80.31373,34.662735
"583",82.269325,34.676067
"584",84.32014,34.6894
"585",86.19028,34.702736
"586",87.66247,34.716072
"587",88.62928,34.729404
"588",89.08095,34.742737
"589",89.06142,34.756073
"590",88.62928,34.76941
"591",87.869995,34.78274
"592",86.87633,34.796074
"593",85.750824,34.80941
"594",84.58381,34.822746
"595",83.47051,34.83608
"596",82.47929,34.84941
"597",81.668724,34.862747
"598",81.0486,34.876083
"599",80.62379,34.889416
"600",80.377205,34.90275
"601",80.30152,34.916084
"602",80.38209,34.92942
"603",80.6067,34.942753
"604",80.9485,34.956085
"605",81.36111,34.96942
"606",81.78836,34.982758
"607",82.1741,34.99609
"608",82.47196,35.009422
"609",82.652626,35.02276
"610",82.70878,35.036095
"611",82.63065,35.049427
"612",82.4329,35.06276
"613",82.13992,35.076096
"614",81.778595,35.08943
"615",81.375755,35.102764
"616",80.96071,35.116096
"617",80.56031,35.129433
"618",80.18921,35.14277
"619",79.84985,35.1561
"620",79.55688,35.169434
"621",79.310295,35.18277
"622",79.10521,35.196106
"623",78.93431,35.20944
"624",78.802475,35.22277
"625",78.69749,35.236107
"626",78.61692,35.249443
"627",78.56321,35.262775
"628",78.53147,35.276108
"629",78.521706,35.289444
"630",78.52903,35.30278
"631",78.54612,35.316113
"632",78.555885,35.329445
"633",78.56077,35.34278
"634",78.553444,35.356117
"635",78.536354,35.36945
"636",78.50706,35.382782
"637",78.47532,35.39612
"638",78.44358,35.409454
"639",78.40696,35.422787
"640",78.363014,35.43612
"641",78.314186,35.449455
"642",78.25315,35.46279
"643",78.17502,35.476124
"644",78.082245,35.489456
"645",77.98459,35.502792
"646",77.88449,35.51613
"647",77.79172,35.52946
"648",77.70626,35.542793
"649",77.63058,35.55613
"650",77.56222,35.569466
"651",77.488976,35.582798
"652",77.40841,35.59613
"653",77.33517,35.609467
"654",77.31808,35.622803
"655",77.46456,35.636135
"656",77.908905,35.649467
"657",78.76341,35.662804
"658",80.045166,35.67614
"659",81.6614,35.689472
"660",83.424126,35.702805
"661",85.09163,35.71614
"662",86.4564,35.729477
"663",87.38903,35.74281
"664",87.86267,35.75614
"665",87.89929,35.769478
"666",87.569695,35.782814
"667",86.96178,35.796146
"668",86.17319,35.80948
"669",85.28939,35.822815
"670",84.39094,35.83615
"671",83.54131,35.849483
"672",82.777145,35.862816
"673",82.108185,35.876152
"674",81.54177,35.88949
"675",81.077896,35.90282
"676",80.72144,35.916153
"677",80.4773,35.92949
"678",80.36256,35.942825
"679",80.377205,35.956158
"680",80.49683,35.96949
"681",80.69459,35.982826
"682",80.92897,35.996162
"683",81.15358,36.009495
"684",81.32937,36.022827
"685",81.43435,36.036163
"686",81.446556,36.0495
"687",81.35378,36.06283
"688",81.163345,36.076164
"689",80.88747,36.0895
"690",80.53834,36.102837
"691",80.15015,36.11617
"692",79.744865,36.1295
"693",79.344475,36.142838
"694",78.96361,36.156174
"695",78.624245,36.169506
"696",78.32151,36.18284
"697",78.06027,36.196175
"698",77.83322,36.20951
"699",77.65011,36.222843
"700",77.503624,36.236176
"701",77.39132,36.24951
"702",77.31075,36.262848
"703",77.2546,36.27618
"704",77.21797,36.289513
"705",77.19844,36.30285
"706",77.196,36.316185
"707",77.21065,36.329517
"708",77.23262,36.34285
"709",77.261925,36.356186
"710",77.29122,36.369522
"711",77.313194,36.382854
"712",77.32784,36.396187
"713",77.33761,36.409523
"714",77.347374,36.42286
"715",77.35226,36.43619
"716",77.35958,36.449524
"717",77.37423,36.46286
"718",77.38888,36.476196
"719",77.40841,36.48953
"720",77.43038,36.50286
"721",77.452354,36.516197
"722",77.469444,36.529533
"723",77.488976,36.542866
"724",77.506065,36.5562
"725",77.51827,36.569534
"726",77.5256,36.58287
"727",77.52071,36.596203
"728",77.50118,36.609535
"729",77.46212,36.62287
"730",77.401085,36.636208
"731",77.3254,36.64954
"732",77.24483,36.662872
"733",77.21553,36.67621
"734",77.34493,36.689545
"735",77.77707,36.702877
"736",78.6218,36.71621
"737",79.906006,36.729546
"738",81.53689,36.74288
"739",83.32159,36.756214
"740",85.013504,36.769547
"741",86.3856,36.782883
"742",87.308464,36.79622
"743",87.745476,36.80955
"744",87.728386,36.822884
"745",87.325554,36.83622
"746",86.63706,36.849556
"747",85.753265,36.86289
"748",84.771805,36.87622
"749",83.773254,36.889557
"750",82.828415,36.902893
"751",81.97879,36.916225
"752",81.25613,36.929558
"753",80.66529,36.942894
"754",80.22583,36.95623
"755",79.94507,36.969563
"756",79.83276,36.982895
"757",79.89136,36.99623
"758",80.113525,37.009567
"759",80.45777,37.0229
"760",80.87282,37.036232
"761",81.28298,37.04957
"762",81.6321,37.062904
"763",81.866486,37.076237
"764",81.9617,37.08957
"765",81.91287,37.102905
"766",81.73464,37.11624
"767",81.45144,37.129574
"768",81.10231,37.142906
"769",80.71412,37.156242
"770",80.31373,37.16958
"771",79.92554,37.18291
"772",79.56664,37.196243
"773",79.2517,37.20958
"774",78.98558,37.222916
"775",78.77562,37.236248
"776",78.61448,37.24958
"777",78.49973,37.262917
"778",78.42161,37.276253
"779",78.37766,37.289585
"780",78.36057,37.302917
"781",78.3679,37.316254
"782",78.39475,37.32959
"783",78.43626,37.342922
"784",78.47776,37.356255
"785",78.51194,37.36959
"786",78.538795,37.382927
"787",78.56321,37.39626
"788",78.59251,37.40959
"789",78.63401,37.422928
"790",78.69016,37.436264
"791",78.751205,37.449596
"792",78.81468,37.46293
"793",78.86595,37.476265
"794",78.890366,37.4896
"795",78.88548,37.502934
"796",78.84886,37.516266
"797",78.77562,37.529602
"798",78.6804,37.54294
"799",78.56565,37.55627
"800",78.43626,37.569603
"801",78.294655,37.58294
"802",78.14328,37.596275
"803",77.977264,37.609608
"804",77.79904,37.62294
"805",77.61349,37.636276
"806",77.437706,37.649612
"807",77.298546,37.662945
"808",77.24971,37.676277
"809",77.38155,37.689613
"810",77.81613,37.70295
"811",78.63889,37.71628
"812",79.871826,37.729614
"813",81.42947,37.74295
"814",83.140915,37.756287
"815",84.78401,37.76962
"816",86.14389,37.78295
"817",87.081406,37.796288
"818",87.552605,37.809624
"819",87.572136,37.822956
"820",87.21568,37.83629
"821",86.58091,37.849625
"822",85.767914,37.86296
"823",84.874344,37.876293
"824",83.97345,37.889626
"825",83.13115,37.90296
"826",82.38651,37.916298
"827",81.761505,37.92963
"828",81.25613,37.942963
"829",80.867935,37.9563
"830",80.58228,37.969635
"831",80.39185,37.982967
"832",80.291756,37.9963
"833",80.27955,38.009636
"834",80.34058,38.022972
"835",80.462654,38.036304
"836",80.61402,38.049637
"837",80.765396,38.062973
"838",80.88258,38.07631
"839",80.94118,38.08964
"840",80.92897,38.102974
"841",80.84108,38.11631
"842",80.67994,38.129646
"843",80.45777,38.14298
"844",80.19165,38.15631
"845",79.8938,38.169647
"846",79.58373,38.182983
"847",79.281,38.196316
"848",78.995346,38.20965
"849",78.74143,38.222984
"850",78.519264,38.23632
"851",78.331276,38.249653
"852",78.17258,38.262985
"853",78.04562,38.27632
"854",77.94064,38.289658
"855",77.855194,38.30299
"856",77.79172,38.316322
"857",77.74532,38.32966
"858",77.713585,38.342995
"859",77.69405,38.356327
"860",77.68429,38.36966
"861",77.68673,38.382996
"862",77.696495,38.39633
"863",77.71114,38.409664
"864",77.72823,38.422997
"865",77.747765,38.436333
"866",77.7551,38.44967
"867",77.7551,38.463
"868",77.74044,38.476334
"869",77.713585,38.48967
"870",77.67452,38.503006
"871",77.63546,38.51634
"872",77.60616,38.52967
"873",77.5964,38.543007
"874",77.60616,38.556343
"875",77.6379,38.569675
"876",77.68185,38.583008
"877",77.72335,38.596344
"878",77.75021,38.60968
"879",77.752655,38.623013
"880",77.72579,38.636345
"881",77.66476,38.64968
"882",77.576866,38.663017
"883",77.47677,38.67635
"884",77.37911,38.689682
"885",77.30343,38.70302
"886",77.281456,38.716354
"887",77.3962,38.729687
"888",77.747765,38.74302
"889",78.42893,38.756355
"890",79.46899,38.76969
"891",80.816666,38.783024
"892",82.3328,38.796356
"893",83.81964,38.809692
"894",85.06966,38.82303
"895",85.943695,38.83636
"896",86.38804,38.849693
"897",86.41245,38.86303
"898",86.09262,38.876366
"899",85.51888,38.889698
"900",84.791336,38.90303
"901",84.000305,38.916367
"902",83.2166,38.929703
"903",82.493935,38.943035
"904",81.87625,38.956367
"905",81.392845,38.969704
"906",81.05592,38.98304
"907",80.850845,38.996372
"908",80.75075,39.009705
"909",80.73121,39.02304
"910",80.76784,39.036377
"911",80.84596,39.04971
"912",80.9485,39.06304
"913",81.06081,39.076378
"914",81.160904,39.089714
"915",81.22926,39.103046
"916",81.24635,39.11638
"917",81.20485,39.129715
"918",81.09987,39.14305
"919",80.94362,39.156384
"920",80.7483,39.169716
"921",80.52857,39.183052
"922",80.29908,39.19639
"923",80.05737,39.20972
"924",79.81323,39.223053
"925",79.56664,39.23639
"926",79.3225,39.249725
"927",79.080795,39.263058
"928",78.84886,39.27639
"929",78.63889,39.289726
"930",78.450905,39.303062
"931",78.28001,39.316395
"932",78.13107,39.329727
"933",78.00656,39.343063
"934",77.90402,39.3564
"935",77.82834,39.36973
"936",77.77707,39.383064
"937",77.7551,39.3964
"938",77.752655,39.409737
"939",77.75998,39.42307
"940",77.769745,39.4364
"941",77.78195,39.449738
"942",77.789276,39.463074
"943",77.789276,39.476406
"944",77.786835,39.48974
"945",77.77707,39.503075
"946",77.75754,39.51641
"947",77.730675,39.529743
"948",77.70382,39.543076
"949",77.679405,39.55641
"950",77.66476,39.569748
"951",77.65499,39.58308
"952",77.65743,39.596413
"953",77.66476,39.60975
"954",77.679405,39.623085
"955",77.696495,39.636417
"956",77.713585,39.64975
"957",77.730675,39.663086
"958",77.74532,39.676422
"959",77.75021,39.689754
"960",77.747765,39.703087
"961",77.74288,39.716423
"962",77.730675,39.72976
"963",77.7087,39.74309
"964",77.67452,39.756424
"965",77.63058,39.76976
"966",77.57931,39.783096
"967",77.55001,39.79643
"968",77.60372,39.80976
"969",77.840546,39.823097
"970",78.3679,39.836433
"971",79.23949,39.849766
"972",80.43336,39.8631
"973",81.83963,39.876434
"974",83.2752,39.88977
"975",84.53986,39.903103
"976",85.47738,39.916435
"977",86.012054,39.92977
"978",86.136566,39.943108
"979",85.90219,39.95644
"980",85.39193,39.969772
"981",84.70344,39.98311
"982",83.92218,39.996445
"983",83.13115,40.009777
"984",82.39872,40.02311
"985",81.761505,40.036446
"986",81.23659,40.04978
"987",80.831314,40.063114
"988",80.53101,40.076447
"989",80.32838,40.089783
"990",80.22095,40.10312
"991",80.2063,40.11645
"992",80.28443,40.129784
"993",80.445564,40.14312
"994",80.65308,40.156456
"995",80.8777,40.16979
"996",81.08034,40.18312
"997",81.234146,40.196457
"998",81.31716,40.209793
"999",81.322044,40.223125
"1000",81.24391,40.236458
"1001",81.08766,40.249794
"1002",80.86305,40.26313
"1003",80.58961,40.276463
"1004",80.289314,40.289795
"1005",79.974365,40.30313
"1006",79.66918,40.316467
"1007",79.38842,40.3298
"1008",79.132065,40.343132
"1009",78.907455,40.35647
"1010",78.71702,40.369804
"1011",78.56077,40.383137
"1012",78.433815,40.39647
"1013",78.3386,40.409805
"1014",78.27268,40.42314
"1015",78.23117,40.436474
"1016",78.2092,40.449806
"1017",78.204315,40.463142
"1018",78.20676,40.47648
"1019",78.21896,40.48981
"1020",78.24094,40.503143
"1021",78.2678,40.51648
"1022",78.30686,40.529816
"1023",78.348366,40.543148
"1024",78.39475,40.55648
"1025",78.4387,40.569817
"1026",78.4802,40.583153
"1027",78.51438,40.596485
"1028",78.54612,40.609818
"1029",78.56809,40.623154
"1030",78.5803,40.63649
"1031",78.58274,40.649822
"1032",78.57542,40.663155
"1033",78.555885,40.67649
"1034",78.53147,40.689827
"1035",78.502174,40.70316
"1036",78.46067,40.71649
"1037",78.40696,40.729828
"1038",78.33372,40.743164
"1039",78.24582,40.756496
"1040",78.14328,40.76983
"1041",78.0383,40.783165
"1042",77.94064,40.7965
"1043",77.88937,40.809834
"1044",77.960175,40.823166
"1045",78.25071,40.836502
"1046",78.84642,40.84984
"1047",79.77905,40.86317
"1048",80.99245,40.876503
"1049",82.35966,40.88984
"1050",83.69268,40.903175
"1051",84.81087,40.916508
"1052",85.592125,40.92984
"1053",85.98276,40.943176
"1054",85.994965,40.956512
"1055",85.68246,40.969845
"1056",85.13313,40.983177
"1057",84.43488,40.996513
"1058",83.67071,41.00985
"1059",82.91142,41.023182
"1060",82.210724,41.036514
"1061",81.60525,41.04985
"1062",81.10475,41.063187
"1063",80.71168,41.07652
"1064",80.42359,41.08985
"1065",80.235596,41.103188
"1066",80.14038,41.116524
"1067",80.14282,41.129856
"1068",80.235596,41.14319
"1069",80.40894,41.156525
"1070",80.63111,41.16986
"1071",80.86549,41.183193
"1072",81.07301,41.196526
"1073",81.22194,41.20986
"1074",81.290306,41.223198
"1075",81.270775,41.23653
"1076",81.160904,41.249863
"1077",80.9778,41.2632
"1078",80.73853,41.276535
"1079",80.462654,41.289867
"1080",80.164795,41.3032
"1081",79.871826,41.316536
"1082",79.59594,41.329872
"1083",79.3518,41.343204
"1084",79.14183,41.356537
"1085",78.97337,41.369873
"1086",78.84154,41.38321
"1087",78.74143,41.39654
"1088",78.66819,41.409874
"1089",78.61936,41.42321
"1090",78.590065,41.436546
"1091",78.572975,41.44988
"1092",78.56565,41.46321
"1093",78.56809,41.476547
"1094",78.57542,41.489883
"1095",78.58274,41.503216
"1096",78.59495,41.51655
"1097",78.607155,41.529884
"1098",78.61936,41.54322
"1099",78.63401,41.556553
"1100",78.64866,41.569885
"1101",78.658424,41.58322
"1102",78.66575,41.596558
"1103",78.66575,41.60989
"1104",78.65354,41.623222
"1105",78.63157,41.63656
"1106",78.60227,41.649895
"1107",78.56565,41.663227
"1108",78.52415,41.67656
"1109",78.47532,41.689896
"1110",78.42405,41.70323
"1111",78.37522,41.716564
"1112",78.331276,41.729897
"1113",78.294655,41.743233
"1114",78.2678,41.75657
"1115",78.24094,41.7699
"1116",78.21164,41.783234
"1117",78.1799,41.79657
"1118",78.14328,41.809906
"1119",78.10666,41.82324
"1120",78.06271,41.83657
"1121",78.013885,41.849907
"1122",77.95773,41.863243
"1123",77.90646,41.876575
"1124",77.89914,41.889908
"1125",78.030975,41.903244
"1126",78.42649,41.91658
"1127",79.18089,41.929913
"1128",80.32105,41.943245
"1129",81.76639,41.95658
"1130",83.353325,41.969917
"1131",84.86458,41.98325
"1132",86.10239,41.996582
"1133",86.93004,42.00992
"1134",87.308464,42.023254
"1135",87.26696,42.036587
"1136",86.86656,42.04992
"1137",86.1976,42.063255
"1138",85.36019,42.07659
"1139",84.45197,42.089924
"1140",83.53887,42.103256
"1141",82.684364,42.116592
"1142",81.934845,42.12993
"1143",81.30984,42.14326
"1144",80.816666,42.156593
"1145",80.45045,42.16993
"1146",80.21118,42.183266
"1147",80.09888,42.196598
"1148",80.10132,42.20993
"1149",80.218506,42.223267
"1150",80.42359,42.236603
"1151",80.68726,42.249935
"1152",80.95827,42.263268
"1153",81.20241,42.276604
"1154",81.375755,42.28994
"1155",81.46609,42.303272
"1156",81.45388,42.316605
"1157",81.34646,42.32994
"1158",81.15358,42.343277
"1159",80.89479,42.35661
"1160",80.58961,42.36994
"1161",80.26002,42.383278
"1162",79.93042,42.396614
"1163",79.61547,42.409946
"1164",79.32494,42.42328
"1165",79.06615,42.436615
"1166",78.84642,42.44995
"1167",78.66331,42.463284
"1168",78.51194,42.476616
"1169",78.39475,42.489952
"1170",78.30686,42.50329
"1171",78.24338,42.51662
"1172",78.204315,42.529953
"1173",78.18234,42.54329
"1174",78.16525,42.556625
"1175",78.153046,42.569958
"1176",78.1384,42.58329
"1177",78.12863,42.596626
"1178",78.12375,42.609962
"1179",78.12863,42.623295
"1180",78.14084,42.636627
"1181",78.153046,42.649963
"1182",78.16525,42.6633
"1183",78.17258,42.676632
"1184",78.17746,42.689964
"1185",78.1799,42.7033
"1186",78.17502,42.716637
"1187",78.16281,42.72997
"1188",78.14328,42.7433
"1189",78.116425,42.756638
"1190",78.08469,42.769974
"1191",78.05295,42.783306
"1192",78.01877,42.79664
"1193",77.98947,42.809975
"1194",77.95529,42.82331
"1195",77.91867,42.836643
"1196",77.87717,42.849976
"1197",77.83078,42.86331
"1198",77.77463,42.876648
"1199",77.70626,42.88998
"1200",77.63058,42.903313
"1201",77.540245,42.91665
"1202",77.44991,42.929985
"1203",77.38155,42.943317
"1204",77.41329,42.95665
"1205",77.66964,42.969986
"1206",78.28245,42.983322
"1207",79.30541,42.996655
"1208",80.69703,43.009987
"1209",82.31327,43.023323
"1210",83.931946,43.03666
"1211",85.32113,43.04999
"1212",86.31968,43.063324
"1213",86.86168,43.07666
"1214",86.96178,43.089996
"1215",86.678566,43.10333
"1216",86.09506,43.11666
"1217",85.3016,43.129997
"1218",84.38361,43.143333
"1219",83.4168,43.156666
"1220",82.46708,43.17
"1221",81.57839,43.183334
"1222",80.797134,43.19667
"1223",80.14526,43.210003
"1224",79.64233,43.223335
"1225",79.30297,43.23667
"1226",79.14427,43.250008
"1227",79.1638,43.26334
"1228",79.361565,43.276672
"1229",79.70336,43.29001
"1230",80.14282,43.303345
"1231",80.61402,43.316677
"1232",81.05592,43.33001
"1233",81.409935,43.343346
"1234",81.636986,43.35668
"1235",81.71999,43.370014
"1236",81.6614,43.383347
"1237",81.478294,43.396683
"1238",81.20241,43.41002
"1239",80.86061,43.42335
"1240",80.479744,43.436684
"1241",80.08667,43.45002
"1242",79.70092,43.463356
"1243",79.33959,43.47669
"1244",79.01976,43.49002
"1245",78.74876,43.503357
"1246",78.53147,43.516693
"1247",78.3679,43.530025
"1248",78.26292,43.543358
"1249",78.2092,43.556694
"1250",78.20187,43.57003
"1251",78.238495,43.583363
"1252",78.30198,43.596695
"1253",78.37522,43.61003
"1254",78.45335,43.623367
"1255",78.52415,43.6367
"1256",78.590065,43.650032
"1257",78.64866,43.66337
"1258",78.69993,43.676704
"1259",78.73167,43.690037
"1260",78.751205,43.70337
"1261",78.75853,43.716705
"1262",78.75853,43.73004
"1263",78.75365,43.743374
"1264",78.746315,43.756706
"1265",78.73167,43.770042
"1266",78.70237,43.78338
"1267",78.660866,43.79671
"1268",78.60227,43.810043
"1269",78.52903,43.82338
"1270",78.44602,43.836716
"1271",78.35325,43.850048
"1272",78.25071,43.86338
"1273",78.14816,43.876717
"1274",78.07736,43.890053
"1275",78.101776,43.903385
"1276",78.33372,43.916718
"1277",78.88304,43.930054
"1278",79.798584,43.94339
"1279",81.041275,43.956722
"1280",82.48173,43.970055
"1281",83.92218,43.98339
"1282",85.16243,43.996727
"1283",86.06088,44.01006
"1284",86.554054,44.02339
"1285",86.64927,44.036728
"1286",86.39536,44.050064
"1287",85.86557,44.063396
"1288",85.138016,44.07673
"1289",84.2884,44.090065
"1290",83.389946,44.1034
"1291",82.50126,44.116734
"1292",81.65896,44.130066
"1293",80.89967,44.143402
"1294",80.25269,44.15674
"1295",79.74731,44.17007
"1296",79.40795,44.183403
"1297",79.259026,44.19674
"1298",79.31518,44.210075
"1299",79.56664,44.223408
"1300",79.971924,44.23674
"1301",80.465096,44.250076
"1302",80.98024,44.263412
"1303",81.43679,44.276745
"1304",81.78348,44.290077
"1305",81.986115,44.303413
"1306",82.039825,44.31675
"1307",81.94949,44.330082
"1308",81.73708,44.343414
"1309",81.43435,44.35675
"1310",81.06569,44.370087
"1311",80.66529,44.38342
"1312",80.25269,44.39675
"1313",79.852295,44.410088
"1314",79.47875,44.423424
"1315",79.14671,44.436756
"1316",78.86839,44.45009
"1317",78.64866,44.463425
"1318",78.485085,44.47676
"1319",78.37766,44.490093
"1320",78.314186,44.503426
"1321",78.28489,44.51676
"1322",78.277565,44.530098
"1323",78.28489,44.54343
"1324",78.30198,44.556763
"1325",78.32395,44.5701
"1326",78.35325,44.583435
"1327",78.382545,44.596767
"1328",78.41184,44.6101
"1329",78.42893,44.623436
"1330",78.44114,44.636772
"1331",78.44846,44.650105
"1332",78.450905,44.663437
"1333",78.450905,44.676773
"1334",78.450905,44.69011
"1335",78.44602,44.70344
"1336",78.4387,44.716774
"1337",78.42649,44.73011
"1338",78.40696,44.743446
"1339",78.382545,44.75678
"1340",78.3386,44.77011
"1341",78.28001,44.783447
"1342",78.19943,44.796783
"1343",78.10422,44.810116
"1344",78.011444,44.82345
"1345",77.98703,44.836784
"1346",78.135956,44.85012
"1347",78.6096,44.863453
"1348",79.51293,44.876785
"1349",80.850845,44.89012
"1350",82.51835,44.903458
"1351",84.317696,44.91679
"1352",86.00717,44.930122
"1353",87.37682,44.94346
"1354",88.307014,44.956795
"1355",88.77577,44.970127
"1356",88.80995,44.98346
"1357",88.47303,44.996796
"1358",87.850464,45.01013
"1359",87.03258,45.023464
"1360",86.11459,45.036797
"1361",85.17708,45.050133
"1362",84.27863,45.06347
"1363",83.46075,45.0768
"1364",82.75517,45.090134
"1365",82.176544,45.10347
"1366",81.72732,45.116806
"1367",81.409935,45.13014
"1368",81.22194,45.14347
"1369",81.15602,45.156807
"1370",81.19997,45.170143
"1371",81.33181,45.183475
"1372",81.52712,45.196808
"1373",81.74929,45.210144
"1374",81.95682,45.22348
"1375",82.11307,45.236813
"1376",82.18875,45.250145
"1377",82.16434,45.26348
"1378",82.0325,45.276817
"1379",81.80057,45.29015
"1380",81.48562,45.303482
"1381",81.11452,45.31682
"1382",80.71168,45.330154
"1383",80.30152,45.343487
"1384",79.89868,45.35682
"1385",79.517815,45.370155
"1386",79.17845,45.38349
"1387",78.87572,45.396824
"1388",78.6218,45.410156
"1389",78.41184,45.423492
"1390",78.25071,45.43683
"1391",78.116425,45.45016
"1392",78.00656,45.463493
"1393",77.91623,45.47683
"1394",77.838104,45.490158
"1395",77.769745,45.503494
"1396",77.71114,45.516823
"1397",77.6672,45.53016
"1398",77.625694,45.543488
"1399",77.58175,45.556824
"1400",77.540245,45.570152
"1401",77.49386,45.58349
"1402",77.452354,45.596817
"1403",77.420616,45.610153
"1404",77.3962,45.62348
"1405",77.37423,45.636818
"1406",77.35958,45.650146
"1407",77.33761,45.663483
"1408",77.30343,45.67681
"1409",77.24971,45.690147
"1410",77.18135,45.703476
"1411",77.09102,45.716812
"1412",76.981155,45.73014
"1413",76.8542,45.743477
"1414",76.734566,45.756805
"1415",76.68574,45.77014
"1416",76.81514,45.78347
"1417",77.26681,45.796806
"1418",78.14328,45.810135
"1419",79.449455,45.82347
"1420",81.08522,45.8368
"1421",82.85771,45.850136
"1422",84.5301,45.863464
"1423",85.89975,45.8768
"1424",86.85191,45.89013
"1425",87.34997,45.903465
"1426",87.42077,45.916794
"1427",87.12779,45.93013
"1428",86.556496,45.94346
"1429",85.79477,45.956795
"1430",84.93294,45.970123
"1431",84.04913,45.98346
"1432",83.211716,45.996788
"1433",82.46464,46.010124
"1434",81.829865,46.023453
"1435",81.31228,46.03679
"1436",80.902115,46.050117
"1437",80.59205,46.063454
"1438",80.37476,46.076782
"1439",80.24536,46.09012
"1440",80.2063,46.103447
"1441",80.25025,46.116783
"1442",80.360115,46.13011
"1443",80.499275,46.143448
"1444",80.638435,46.156776
"1445",80.74586,46.170113
"1446",80.78737,46.18344
"1447",80.75075,46.196777
"1448",80.62867,46.210106
"1449",80.428474,46.223442
"1450",80.16235,46.23677
"1451",79.84497,46.250107
"1452",79.49096,46.263435
"1453",79.1223,46.27677
"1454",78.75853,46.2901
"1455",78.40452,46.303436
"1456",78.08713,46.316765
"1457",77.806366,46.3301
"1458",77.56466,46.34343
"1459",77.36202,46.356766
"1460",77.19356,46.370094
"1461",77.05928,46.38343
"1462",76.95674,46.39676
"1463",76.8835,46.410095
"1464",76.83223,46.423424
"1465",76.79317,46.43676
"1466",76.76387,46.45009
"1467",76.74189,46.463425
"1468",76.72236,46.476753
"1469",76.715034,46.49009
"1470",76.71015,46.503418
"1471",76.71015,46.516754
"1472",76.70527,46.530083
"1473",76.6955,46.54342
"1474",76.680855,46.556747
"1475",76.67353,46.570084
"1476",76.663765,46.583412
"1477",76.66132,46.59675
"1478",76.65644,46.610077
"1479",76.64423,46.623413
"1480",76.62226,46.63674
"1481",76.592964,46.650078
"1482",76.55634,46.663406
"1483",76.52216,46.676743
"1484",76.48554,46.69007
"1485",76.44648,46.703407
"1486",76.404976,46.716736
"1487",76.36103,46.730072
"1488",76.31953,46.7434
"1489",76.282906,46.756737
"1490",76.25361,46.770065
"1491",76.22919,46.7834
"1492",76.21454,46.79673
"1493",76.19989,46.810066
"1494",76.190125,46.823395
"1495",76.18524,46.83673
"1496",76.18768,46.85006
"1497",76.19745,46.863396
"1498",76.209656,46.876724
"1499",76.21698,46.89006
"1500",76.21942,46.90339
"1501",76.209656,46.916725
"1502",76.2121,46.930054
"1503",76.282906,46.94339
"1504",76.575874,46.95672
"1505",77.27413,46.970055
"1506",78.504616,46.983383
"1507",80.26002,46.99672
"1508",82.39384,47.010048
"1509",84.644844,47.023384
"1510",86.693214,47.036713
"1511",88.29725,47.05005
"1512",89.342186,47.063377
"1513",89.8378,47.076714
"1514",89.84268,47.090042
"1515",89.44961,47.10338
"1516",88.75868,47.116707
"1517",87.86511,47.130043
"1518",86.8568,47.14337
"1519",85.8143,47.156708
"1520",84.805984,47.170036
"1521",83.878235,47.183372
"1522",83.072556,47.1967
"1523",82.39872,47.210037
"1524",81.864044,47.223366
"1525",81.463646,47.236702
"1526",81.197525,47.25003
"1527",81.06081,47.263367
"1528",81.041275,47.276695
"1529",81.129166,47.29003
"1530",81.290306,47.30336
"1531",81.49294,47.316696
"1532",81.69314,47.330025
"1533",81.85428,47.34336
"1534",81.94705,47.35669
"1535",81.94705,47.370026
"1536",81.846954,47.383354
"1537",81.64675,47.39669
"1538",81.36599,47.41002
"1539",81.02174,47.423355
"1540",80.64088,47.436684
"1541",80.24292,47.45002
"1542",79.84741,47.46335
"1543",79.466545,47.476685
"1544",79.11253,47.490013
"1545",78.79515,47.50335
"1546",78.519264,47.516678
"1547",78.28489,47.530014
"1548",78.08713,47.543343
"1549",77.92844,47.55668
"1550",77.803925,47.570007
"1551",77.71114,47.583344
"1552",77.642784,47.596672
"1553",77.59884,47.61001
"1554",77.57198,47.623337
"1555",77.55001,47.636673
"1556",77.53048,47.65
"1557",77.51583,47.663338
"1558",77.49874,47.676666
"1559",77.48165,47.690002
"1560",77.467,47.70333
"1561",77.454796,47.716667
"1562",77.44991,47.729996
"1563",77.44503,47.743332
"1564",77.435265,47.75666
"1565",77.418175,47.769997
"1566",77.3962,47.783325
"1567",77.36446,47.79666
"1568",77.3254,47.80999
"1569",77.2839,47.823326
"1570",77.239944,47.836655
"1571",77.18623,47.84999
"1572",77.12764,47.86332
"1573",77.066605,47.876656
"1574",77.00557,47.889984
"1575",76.946976,47.90332
"1576",76.895706,47.91665
"1577",76.85176,47.929985
"1578",76.81026,47.943314
"1579",76.773636,47.95665
"1580",76.74433,47.96998
"1581",76.72236,47.983315
"1582",76.70283,47.996643
"1583",76.68574,48.00998
"1584",76.66621,48.023308
"1585",76.63691,48.036644
"1586",76.59052,48.049973
"1587",76.53437,48.06331
"1588",76.49775,48.076637
"1589",76.56611,48.089973
"1590",76.90059,48.103302
"1591",77.68185,48.11664
"1592",79.00511,48.129967
"1593",80.82643,48.143303
"1594",82.967575,48.15663
"1595",85.15022,48.169968
"1596",87.07652,48.183296
"1597",88.534065,48.196632
"1598",89.44228,48.20996
"1599",89.82071,48.223297
"1600",89.73525,48.236626
"1601",89.27627,48.24996
"1602",88.54139,48.26329
"1603",87.61364,48.276627
"1604",86.58091,48.289955
"1605",85.514,48.30329
"1606",84.48127,48.31662
"1607",83.53399,48.329956
"1608",82.703896,48.343285
"1609",82.005646,48.35662
"1610",81.449,48.36995
"1611",81.03883,48.383286
"1612",80.780045,48.396614
"1613",80.68238,48.40995
"1614",80.740974,48.42328
"1615",80.92653,48.436615
"1616",81.20485,48.449944
"1617",81.5198,48.46328
"1618",81.815216,48.47661
"1619",82.04715,48.489944
"1620",82.18387,48.503273
"1621",82.20096,48.51661
"1622",82.09842,48.529938
"1623",81.87869,48.543274
"1624",81.566185,48.556602
"1625",81.18776,48.56994
"1626",80.77028,48.583267
"1627",80.3357,48.596603
"1628",79.91089,48.609932
"1629",79.50561,48.62327
"1630",79.132065,48.636597
"1631",78.79759,48.649933
"1632",78.5095,48.66326
"1633",78.26292,48.676598
"1634",78.06271,48.689926
"1635",77.90646,48.703262
"1636",77.78439,48.71659
"1637",77.696495,48.729927
"1638",77.63302,48.743256
"1639",77.593956,48.75659
"1640",77.56466,48.76992
"1641",77.55245,48.783257
"1642",77.54513,48.796585
"1643",77.54269,48.80992
"1644",77.54269,48.82325
"1645",77.54269,48.836586
"1646",77.54269,48.849915
"1647",77.540245,48.86325
"1648",77.5378,48.87658
"1649",77.53292,48.889915
"1650",77.5256,48.903244
"1651",77.51339,48.91658
"1652",77.4963,48.92991
"1653",77.471886,48.943245
"1654",77.44015,48.956573
"1655",77.3962,48.96991
"1656",77.347374,48.98324
"1657",77.29366,48.996574
"1658",77.2375,49.009903
"1659",77.18379,49.02324
"1660",77.13008,49.036568
"1661",77.07637,49.049904
"1662",77.02754,49.063232
"1663",76.981155,49.07657
"1664",76.94209,49.089897
"1665",76.90791,49.103233
"1666",76.876175,49.11656
"1667",76.84932,49.129898
"1668",76.822464,49.143227
"1669",76.788284,49.156563
"1670",76.74433,49.16989
"1671",76.69306,49.183228
"1672",76.6247,49.196556
"1673",76.55634,49.209892
"1674",76.51972,49.22322
"1675",76.62226,49.236557
"1676",77.03975,49.249886
"1677",77.95041,49.26322
"1678",79.42504,49.27655
"1679",81.392845,49.289886
"1680",83.63409,49.303215
"1681",85.84848,49.31655
"1682",87.745476,49.32988
"1683",89.12489,49.343216
"1684",89.935455,49.356544
"1685",90.213776,49.36988
"1686",90.037994,49.38321
"1687",89.495995,49.396545
"1688",88.68299,49.409874
"1689",87.68688,49.42321
"1690",86.59312,49.43654
"1691",85.47494,49.449875
"1692",84.39094,49.463203
"1693",83.39239,49.47654
"1694",82.513466,49.48987
"1695",81.77371,49.503204
"1696",81.19264,49.516533
"1697",80.78737,49.52987
"1698",80.570076,49.543198
"1699",80.54566,49.556534
"1700",80.706795,49.569862
"1701",81.01442,49.5832
"1702",81.41238,49.596527
"1703",81.832306,49.609863
"1704",82.20828,49.62319
"1705",82.48661,49.636528
"1706",82.63065,49.649857
"1707",82.62577,49.663193
"1708",82.47929,49.67652
"1709",82.20584,49.689857
"1710",81.83719,49.703186
"1711",81.40017,49.716522
"1712",80.93141,49.72985
"1713",80.45533,49.743187
"1714",79.991455,49.756516
"1715",79.54955,49.76985
"1716",79.149155,49.78318
"1717",78.80003,49.796516
"1718",78.502174,49.809845
"1719",78.25559,49.82318
"1720",78.06271,49.83651
"1721",77.91379,49.849846
"1722",77.79904,49.863174
"1723",77.713585,49.87651
"1724",77.65011,49.88984
"1725",77.60372,49.903175
"1726",77.57198,49.916504
"1727",77.55245,49.92984
"1728",77.54269,49.94317
"1729",77.54757,49.956505
"1730",77.55978,49.969833
"1731",77.57931,49.98317
"1732",77.60372,49.9965
"1733",77.63058,50.009834
"1734",77.65011,50.023163
"1735",77.659874,50.0365
"1736",77.662315,50.049828
"1737",77.65499,50.063164
"1738",77.63058,50.076492
"1739",77.5964,50.08983
"1740",77.55489,50.103157
"1741",77.50851,50.116493
"1742",77.452354,50.12982
"1743",77.39132,50.143158
"1744",77.32784,50.156487
"1745",77.25704,50.169823
"1746",77.18623,50.18315
"1747",77.11543,50.196487
"1748",77.049515,50.209816
"1749",76.99092,50.223152
"1750",76.93477,50.23648
"1751",76.87862,50.249817
"1752",76.824905,50.263145
"1753",76.76631,50.27648
"1754",76.700386,50.28981
"1755",76.627144,50.303146
"1756",76.54902,50.316475
"1757",76.46357,50.32981
"1758",76.39765,50.34314
"1759",76.439156,50.356476
"1760",76.756546,50.369804
"1761",77.53292,50.38314
"1762",78.870834,50.39647
"1763",80.723885,50.409805
"1764",82.90166,50.423134
"1765",85.10872,50.43647
"1766",87.04234,50.4498
"1767",88.49012,50.463135
"1768",89.38857,50.476463
"1769",89.75723,50.4898
"1770",89.66689,50.503128
"1771",89.20058,50.516464
"1772",88.44129,50.529793
"1773",87.47448,50.54313
"1774",86.383156,50.556458
"1775",85.243,50.569794
"1776",84.11505,50.583122
"1777",83.053024,50.59646
"1778",82.09842,50.609787
"1779",81.28298,50.623123
"1780",80.635994,50.63645
"1781",80.177,50.649788
"1782",79.94263,50.663116
"1783",79.94507,50.676453
"1784",80.17212,50.68978
"1785",80.57984,50.703117
"1786",81.10231,50.716446
"1787",81.64919,50.729782
"1788",82.13992,50.74311
"1789",82.513466,50.756447
"1790",82.73075,50.769775
"1791",82.77959,50.78311
"1792",82.667274,50.79644
"1793",82.408485,50.809776
"1794",82.03006,50.823105
"1795",81.57351,50.83644
"1796",81.07057,50.84977
"1797",80.5481,50.863106
"1798",80.03296,50.876434
"1799",79.54467,50.88977
"1800",79.10033,50.9031
"1801",78.712135,50.916435
"1802",78.380104,50.929764
"1803",78.11398,50.9431
"1804",77.908905,50.95643
"1805",77.76486,50.969765
"1806",77.6672,50.983093
"1807",77.61349,50.99643
"1808",77.58907,51.009758
"1809",77.58175,51.023094
"1810",77.58419,51.036423
"1811",77.58663,51.04976
"1812",77.58907,51.063087
"1813",77.58663,51.076424
"1814",77.58419,51.089752
"1815",77.57931,51.10309
"1816",77.576866,51.116417
"1817",77.57198,51.129753
"1818",77.5671,51.14308
"1819",77.55978,51.156418
"1820",77.55001,51.169746
"1821",77.52804,51.183083
"1822",77.50118,51.19641
"1823",77.467,51.209747
"1824",77.4255,51.223076
"1825",77.37911,51.236412
"1826",77.332726,51.24974
"1827",77.281456,51.263077
"1828",77.225296,51.276405
"1829",77.171585,51.28974
"1830",77.11543,51.30307
"1831",77.05684,51.316406
"1832",76.998245,51.329735
"1833",76.93233,51.34307
"1834",76.85664,51.3564
"1835",76.771194,51.369736
"1836",76.66621,51.383064
"1837",76.54658,51.3964
"1838",76.42695,51.40973
"1839",76.37324,51.423065
"1840",76.51728,51.436394
"1841",77.05928,51.44973
"1842",78.14084,51.46306
"1843",79.78882,51.476395
"1844",81.866486,51.489723
"1845",84.122375,51.50306
"1846",86.24399,51.516388
"1847",87.97009,51.529724
"1848",89.161514,51.543053
"1849",89.80362,51.55639
"1850",89.94766,51.569717
"1851",89.671776,51.583054
"1852",89.05653,51.596382
"1853",88.19714,51.60972
"1854",87.1815,51.623047
"1855",86.08774,51.636383
"1856",84.98909,51.64971
"1857",83.93927,51.663048
"1858",82.97978,51.676376
"1859",82.14969,51.689713
"1860",81.46853,51.70304
"1861",80.955826,51.716377
"1862",80.635994,51.729706
"1863",80.51148,51.743042
"1864",80.58228,51.75637
"1865",80.81911,51.769707
"1866",81.17555,51.783035
"1867",81.583275,51.79637
"1868",81.97635,51.8097
"1869",82.29374,51.823036
"1870",82.496376,51.836365
"1871",82.562294,51.8497
"1872",82.48417,51.86303
"1873",82.27665,51.876366
"1874",81.95682,51.889694
"1875",81.54665,51.90303
"1876",81.075455,51.91636
"1877",80.57496,51.929695
"1878",80.0647,51.943024
"1879",79.57641,51.95636
"1880",79.12718,51.96969
"1881",78.72434,51.983025
"1882",78.37766,51.996353
"1883",78.09445,52.00969
"1884",77.872284,52.023018
"1885",77.7087,52.036354
"1886",77.58663,52.049683
"1887",77.49874,52.06302
"1888",77.435265,52.076347
"1889",77.383995,52.089684
"1890",77.347374,52.103012
"1891",77.3254,52.11635
"1892",77.313194,52.129677
"1893",77.31075,52.143013
"1894",77.31075,52.15634
"1895",77.313194,52.169678
"1896",77.313194,52.183006
"1897",77.31075,52.196342
"1898",77.30587,52.20967
"1899",77.296104,52.223007
"1900",77.2839,52.236336
"1901",77.26925,52.249672
"1902",77.25216,52.263
"1903",77.23018,52.276337
"1904",77.19844,52.289665
"1905",77.16182,52.303
"1906",77.11299,52.31633
"1907",77.0544,52.329666
"1908",76.98604,52.342995
"1909",76.91768,52.35633
"1910",76.84444,52.36966
"1911",76.771194,52.382996
"1912",76.70527,52.396324
"1913",76.64912,52.40966
"1914",76.59785,52.42299
"1915",76.55146,52.436325
"1916",76.51484,52.449654
"1917",76.47578,52.46299
"1918",76.43427,52.47632
"1919",76.39033,52.489655
"1920",76.33662,52.502983
"1921",76.27558,52.51632
"1922",76.21454,52.529648
"1923",76.17792,52.542984
"1924",76.26826,52.556313
"1925",76.66621,52.56965
"1926",77.55001,52.582977
"1927",79.009995,52.596313
"1928",80.97536,52.609642
"1929",83.245895,52.62298
"1930",85.51888,52.636307
"1931",87.501335,52.649643
"1932",88.988174,52.66297
"1933",89.92325,52.676308
"1934",90.33585,52.689636
"1935",90.287025,52.702972
"1936",89.86221,52.7163
"1937",89.146866,52.729637
"1938",88.23132,52.742966
"1939",87.21324,52.7563
"1940",86.170746,52.76963
"1941",85.169754,52.782967
"1942",84.26887,52.796295
"1943",83.49493,52.80963
"1944",82.86015,52.82296
"1945",82.36454,52.836296
"1946",81.99832,52.849625
"1947",81.75906,52.86296
"1948",81.636986,52.87629
"1949",81.62966,52.889626
"1950",81.71999,52.902954
"1951",81.87137,52.91629
"1952",82.04715,52.92962
"1953",82.213165,52.942955
"1954",82.33036,52.956284
"1955",82.36698,52.96962
"1956",82.31083,52.98295
"1957",82.15213,52.996284
"1958",81.89334,53.009613
"1959",81.549095,53.02295
"1960",81.146255,53.036278
"1961",80.70435,53.049614
"1962",80.24536,53.062943
"1963",79.79126,53.07628
"1964",79.35668,53.089607
"1965",78.96117,53.102943
"1966",78.6096,53.116272
"1967",78.314186,53.12961
"1968",78.07248,53.142937
"1969",77.87717,53.156273
"1970",77.72335,53.1696
"1971",77.60616,53.182938
"1972",77.52071,53.196266
"1973",77.45968,53.209602
"1974",77.418175,53.22293
"1975",77.39132,53.236267
"1976",77.37667,53.249596
"1977",77.36202,53.26293
"1978",77.35226,53.27626
"1979",77.34493,53.289597
"1980",77.34005,53.302925
"1981",77.332726,53.31626
"1982",77.3254,53.32959
"1983",77.313194,53.342926
"1984",77.29366,53.356255
"1985",77.264366,53.36959
"1986",77.23018,53.38292
"1987",77.19112,53.396255
"1988",77.14473,53.409584
"1989",77.0959,53.42292
"1990",77.04463,53.43625
"1991",76.99336,53.449585
"1992",76.93721,53.462914
"1993",76.876175,53.47625
"1994",76.8127,53.48958
"1995",76.74677,53.502914
"1996",76.67597,53.516243
"1997",76.612495,53.52958
"1998",76.55634,53.542908
"1999",76.5124,53.556244
"2000",76.48066,53.569572
"2001",76.45869,53.58291
"2002",76.44404,53.596237
"2003",76.4416,53.609573
"2004",76.44648,53.622902
"2005",76.46357,53.63624
"2006",76.48798,53.649567
"2007",76.524605,53.662903
"2008",76.56367,53.67623
"2009",76.60029,53.689568
"2010",76.629585,53.702896
"2011",76.646675,53.716232
"2012",76.64912,53.72956
"2013",76.63447,53.742897
"2014",76.612495,53.756226
"2015",76.61982,53.76956
"2016",76.75899,53.78289
"2017",77.17891,53.796227
"2018",78.03342,53.809555
"2019",79.38354,53.82289
"2020",81.16823,53.83622
"2021",83.20195,53.849556
"2022",85.21858,53.862885
"2023",86.956894,53.87622
"2024",88.236206,53.88955
"2025",89.00038,53.902885
"2026",89.27383,53.916214
"2027",89.11513,53.92955
"2028",88.619514,53.94288
"2029",87.87488,53.956215
"2030",86.97398,53.969543
"2031",86.00961,53.98288
"2032",85.05257,53.99621
"2033",84.16388,54.009544
"2034",83.387505,54.022873
"2035",82.7454,54.03621
"2036",82.2327,54.049538
"2037",81.846954,54.062874
"2038",81.57595,54.076202
"2039",81.409935,54.08954
"2040",81.34402,54.102867
"2041",81.373314,54.116203
"2042",81.47341,54.12953
"2043",81.62478,54.142868
"2044",81.79324,54.156197
"2045",81.94461,54.169533
"2046",82.04471,54.18286
"2047",82.07156,54.196198
"2048",82.005646,54.209526
"2049",81.84451,54.222862
"2050",81.5906,54.23619
"2051",81.26345,54.249527
"2052",80.885025,54.262856
"2053",80.48463,54.27619
"2054",80.079346,54.28952
"2055",79.68383,54.302856
"2056",79.31518,54.316185
"2057",78.9807,54.32952
"2058",78.69016,54.34285
"2059",78.44846,54.356186
"2060",78.25071,54.369514
"2061",78.09689,54.38285
"2062",77.977264,54.39618
"2063",77.88937,54.409515
"2064",77.8259,54.422844
"2065",77.78195,54.43618
"2066",77.75754,54.44951
"2067",77.75021,54.462845
"2068",77.747765,54.476173
"2069",77.747765,54.48951
"2070",77.75021,54.50284
"2071",77.7551,54.516174
"2072",77.7551,54.529503
"2073",77.75021,54.54284
"2074",77.738,54.556168
"2075",77.72091,54.569504
"2076",77.70138,54.582832
"2077",77.67452,54.59617
"2078",77.64767,54.609497
"2079",77.61837,54.622833
"2080",77.58175,54.63616
"2081",77.5378,54.649498
"2082",77.488976,54.662827
"2083",77.43282,54.676163
"2084",77.37179,54.68949
"2085",77.30831,54.702827
"2086",77.24727,54.716156
"2087",77.188675,54.729492
"2088",77.134964,54.74282
"2089",77.08858,54.756157
"2090",77.049515,54.769485
"2091",77.01778,54.78282
"2092",76.98848,54.79615
"2093",76.964066,54.809486
"2094",76.94209,54.822815
"2095",76.93233,54.83615
"2096",76.93233,54.84948
"2097",76.944534,54.862816
"2098",76.97139,54.876144
"2099",77.00557,54.88948
"2100",77.04219,54.90281
"2101",77.07637,54.916145
"2102",77.10567,54.929474
"2103",77.12276,54.94281
"2104",77.1252,54.95614
"2105",77.11299,54.969475
"2106",77.083694,54.982803
"2107",77.04463,54.99614
"2108",77.032425,55.009468
"2109",77.13008,55.022804
"2110",77.49142,55.036133
"2111",78.27024,55.04947
"2112",79.54467,55.062798
"2113",81.25857,55.076134
"2114",83.23857,55.089462
"2115",85.22102,55.1028
"2116",86.94713,55.116127
"2117",88.224,55.129463
"2118",88.990616,55.14279
"2119",89.27383,55.156128
"2120",89.1371,55.169456
"2121",88.65858,55.182793
"2122",87.93103,55.19612
"2123",87.0399,55.209457
"2124",86.07553,55.222786
"2125",85.10628,55.236122
"2126",84.19562,55.24945
"2127",83.38262,55.262787
"2128",82.69901,55.276115
"2129",82.14725,55.28945
"2130",81.722435,55.30278
"2131",81.42947,55.316116
"2132",81.26589,55.329445
"2133",81.22682,55.34278
"2134",81.30251,55.35611
"2135",81.47341,55.369446
"2136",81.70046,55.382774
"2137",81.94461,55.39611
"2138",82.15701,55.40944
"2139",82.30595,55.422775
"2140",82.36942,55.436104
"2141",82.32792,55.44944
"2142",82.18143,55.46277
"2143",81.93729,55.476105
"2144",81.61257,55.489433
"2145",81.22682,55.50277
"2146",80.80934,55.516098
"2147",80.38697,55.529434
"2148",79.97681,55.542763
"2149",79.59106,55.5561
"2150",79.24193,55.569427
"2151",78.93675,55.582764
"2152",78.677956,55.596092
"2153",78.46555,55.60943
"2154",78.294655,55.622757
"2155",78.16525,55.636093
"2156",78.07004,55.64942
"2157",77.996796,55.662758
"2158",77.943085,55.676086
"2159",77.90402,55.689423
"2160",77.87717,55.70275
"2161",77.857635,55.716087
"2162",77.84787,55.729416
"2163",77.84299,55.742752
"2164",77.84787,55.75608
"2165",77.855194,55.769417
"2166",77.86984,55.782745
"2167",77.88205,55.79608
"2168",77.891815,55.80941
"2169",77.891815,55.822746
"2170",77.88449,55.836075
"2171",77.86984,55.84941
"2172",77.85031,55.86274
"2173",77.81613,55.876076
"2174",77.77463,55.889404
"2175",77.72335,55.90274
"2176",77.66476,55.91607
"2177",77.591515,55.929405
"2178",77.52071,55.942734
"2179",77.452354,55.95607
"2180",77.38644,55.9694
"2181",77.315636,55.982735
"2182",77.24971,55.996063
"2183",77.19112,56.0094
"2184",77.137405,56.022728
"2185",77.08858,56.036064
"2186",77.05684,56.049393
"2187",77.032425,56.06273
"2188",77.02266,56.076057
"2189",77.0251,56.089394
"2190",77.03975,56.102722
"2191",77.06416,56.11606
"2192",77.09346,56.129387
"2193",77.117874,56.142723
"2194",77.13985,56.15605
"2195",77.14717,56.169388
"2196",77.14473,56.182716
"2197",77.1252,56.196053
"2198",77.09102,56.20938
"2199",77.0544,56.222717
"2200",77.049515,56.236046
"2201",77.18379,56.249382
"2202",77.625694,56.26271
"2203",78.52415,56.276047
"2204",79.937744,56.289375
"2205",81.78592,56.30271
"2206",83.86847,56.31604
"2207",85.90463,56.329376
"2208",87.62829,56.342705
"2209",88.87831,56.35604
"2210",89.6083,56.36937
"2211",89.847565,56.382706
"2212",89.66445,56.396034
"2213",89.14198,56.40937
"2214",88.37049,56.4227
"2215",87.4403,56.436035
"2216",86.43931,56.449364
"2217",85.43832,56.4627
"2218",84.5008,56.47603
"2219",83.66094,56.489365
"2220",82.94316,56.502693
"2221",82.3621,56.51603
"2222",81.917755,56.529358
"2223",81.617455,56.542694
"2224",81.461205,56.556023
"2225",81.446556,56.56936
"2226",81.55886,56.582687
"2227",81.77127,56.596024
"2228",82.04471,56.609352
"2229",82.33036,56.62269
"2230",82.57694,56.636017
"2231",82.75029,56.649353
"2232",82.82109,56.66268
"2233",82.76738,56.676018
"2234",82.58915,56.689346
"2235",82.30595,56.702682
"2236",81.93973,56.71601
"2237",81.514915,56.729347
"2238",81.06813,56.742676
"2239",80.618904,56.756012
"2240",80.18921,56.76934
"2241",79.7937,56.782677
"2242",79.43481,56.796005
"2243",79.1223,56.80934
"2244",78.856186,56.82267
"2245",78.63401,56.836006
"2246",78.46067,56.849335
"2247",78.32639,56.86267
"2248",78.221405,56.876
"2249",78.150604,56.889336
"2250",78.101776,56.902664
"2251",78.07004,56.916
"2252",78.048065,56.92933
"2253",78.0383,56.942665
"2254",78.030975,56.955994
"2255",78.02609,56.96933
"2256",78.01877,56.98266
"2257",78.009,56.995995
"2258",77.99924,57.009323
"2259",77.98703,57.02266
"2260",77.977264,57.035988
"2261",77.96506,57.049324
"2262",77.943085,57.062653
"2263",77.908905,57.07599
"2264",77.86496,57.089317
"2265",77.80881,57.102654
"2266",77.74288,57.115982
"2267",77.66964,57.12932
"2268",77.58907,57.142647
"2269",77.503624,57.155983
"2270",77.41573,57.16931
"2271",77.3254,57.182648
"2272",77.2375,57.195976
"2273",77.15938,57.209312
"2274",77.086136,57.22264
"2275",77.01778,57.235977
"2276",76.95918,57.249306
"2277",76.912796,57.26264
"2278",76.87862,57.27597
"2279",76.85664,57.289307
"2280",76.85176,57.302635
"2281",76.859085,57.31597
"2282",76.88106,57.3293
"2283",76.90303,57.342636
"2284",76.925,57.355965
"2285",76.93477,57.3693
"2286",76.93721,57.38263
"2287",76.92256,57.395966
"2288",76.895706,57.409294
"2289",76.86153,57.42263
"2290",76.84444,57.43596
"2291",76.927444,57.449295
"2292",77.25948,57.462624
"2293",78.009,57.47596
"2294",79.27123,57.48929
"2295",81.01442,57.502625
"2296",83.06767,57.515953
"2297",85.169754,57.52929
"2298",87.0399,57.542618
"2299",88.47791,57.555954
"2300",89.39834,57.569283
"2301",89.81094,57.58262
"2302",89.779205,57.595947
"2303",89.37148,57.609283
"2304",88.67567,57.622612
"2305",87.782104,57.63595
"2306",86.77623,57.649277
"2307",85.73861,57.662613
"2308",84.7425,57.67594
"2309",83.83429,57.689278
"2310",83.0457,57.702606
"2311",82.39384,57.715942
"2312",81.881134,57.72927
"2313",81.51736,57.742607
"2314",81.304955,57.755936
"2315",81.248795,57.76927
"2316",81.339134,57.7826
"2317",81.55398,57.795937
"2318",81.84451,57.809265
"2319",82.161896,57.8226
"2320",82.44755,57.83593
"2321",82.65995,57.849266
"2322",82.76738,57.862595
"2323",82.7454,57.87593
"2324",82.598915,57.88926
"2325",82.33524,57.902596
"2326",81.971466,57.915924
"2327",81.53445,57.92926
"2328",81.058365,57.94259
"2329",80.567635,57.955925
"2330",80.09155,57.969254
"2331",79.64965,57.98259
"2332",79.2517,57.99592
"2333",78.91234,58.009254
"2334",78.63157,58.022583
"2335",78.40208,58.03592
"2336",78.21896,58.049248
"2337",78.07004,58.062584
"2338",77.94797,58.075912
"2339",77.857635,58.08925
"2340",77.786835,58.102577
"2341",77.73556,58.115913
"2342",77.70138,58.129242
"2343",77.679405,58.14258
"2344",77.662315,58.155907
"2345",77.65499,58.169243
"2346",77.65011,58.18257
"2347",77.64767,58.195908
"2348",77.645226,58.209236
"2349",77.63302,58.222572
"2350",77.61593,58.2359
"2351",77.59884,58.249237
"2352",77.57198,58.262566
"2353",77.54269,58.2759
"2354",77.51095,58.28923
"2355",77.467,58.302567
"2356",77.41085,58.315895
"2357",77.349815,58.32923
"2358",77.281456,58.34256
"2359",77.208206,58.355896
"2360",77.13252,58.369225
"2361",77.05684,58.38256
"2362",76.98604,58.39589
"2363",76.92012,58.409225
"2364",76.8542,58.422554
"2365",76.80049,58.43589
"2366",76.756546,58.44922
"2367",76.7248,58.462555
"2368",76.70771,58.475883
"2369",76.70527,58.48922
"2370",76.71015,58.50255
"2371",76.717476,58.515884
"2372",76.72968,58.529213
"2373",76.73701,58.54255
"2374",76.73945,58.555878
"2375",76.72724,58.569214
"2376",76.70771,58.582542
"2377",76.67109,58.59588
"2378",76.627144,58.609207
"2379",76.592964,58.622543
"2380",76.64179,58.63587
"2381",76.90059,58.649208
"2382",77.53292,58.662537
"2383",78.64622,58.675873
"2384",80.235596,58.6892
"2385",82.16434,58.702538
"2386",84.2005,58.715866
"2387",86.065765,58.729202
"2388",87.54284,58.74253
"2389",88.5243,58.755867
"2390",89.00282,58.769196
"2391",89.022354,58.78253
"2392",88.66346,58.79586
"2393",88.00427,58.809196
"2394",87.14,58.822525
"2395",86.14877,58.83586
"2396",85.1136,58.84919
"2397",84.1004,58.862526
"2398",83.15556,58.875854
"2399",82.31083,58.88919
"2400",81.600365,58.90252
"2401",81.03883,58.915855
"2402",80.65064,58.929184
"2403",80.45533,58.94252
"2404",80.462654,58.95585
"2405",80.65308,58.969185
"2406",80.99733,58.982513
"2407",81.44167,58.99585
"2408",81.90799,59.00918
"2409",82.3328,59.022514
"2410",82.652626,59.035843
"2411",82.828415,59.04918
"2412",82.84306,59.062508
"2413",82.69657,59.075844
"2414",82.41825,59.089172
"2415",82.037384,59.10251
"2416",81.583275,59.115837
"2417",81.08522,59.129173
"2418",80.5774,59.1425
"2419",80.079346,59.155838
"2420",79.62035,59.169167
"2421",79.21507,59.182503
"2422",78.870834,59.19583
"2423",78.590065,59.209167
"2424",78.365456,59.222496
"2425",78.19455,59.235832
"2426",78.07004,59.24916
"2427",77.98947,59.262497
"2428",77.95041,59.275826
"2429",77.93576,59.28916
"2430",77.94064,59.30249
"2431",77.95529,59.315826
"2432",77.97238,59.329155
"2433",77.98703,59.34249
"2434",77.99924,59.35582
"2435",78.00412,59.369156
"2436",77.99924,59.382484
"2437",77.98947,59.39582
"2438",77.97482,59.40915
"2439",77.960175,59.422485
"2440",77.94064,59.435814
"2441",77.91623,59.44915
"2442",77.88449,59.46248
"2443",77.84787,59.475815
"2444",77.79904,59.489143
"2445",77.74288,59.50248
"2446",77.679405,59.51581
"2447",77.611046,59.529144
"2448",77.53536,59.542473
"2449",77.46212,59.55581
"2450",77.39132,59.569138
"2451",77.33517,59.582474
"2452",77.2839,59.595802
"2453",77.242386,59.60914
"2454",77.205765,59.622467
"2455",77.17647,59.635803
"2456",77.14717,59.64913
"2457",77.120316,59.662468
"2458",77.09346,59.675797
"2459",77.06172,59.689133
"2460",77.0251,59.70246
"2461",76.97627,59.715797
"2462",76.91768,59.729126
"2463",76.86153,59.742462
"2464",76.84688,59.75579
"2465",76.95918,59.769127
"2466",77.34005,59.782455
"2467",78.12863,59.79579
"2468",79.381096,59.80912
"2469",81.03883,59.822456
"2470",82.933395,59.835785
"2471",84.823074,59.84912
"2472",86.4564,59.86245
"2473",87.66979,59.875786
"2474",88.39735,59.889114
"2475",88.65125,59.90245
"2476",88.482796,59.91578
"2477",87.972534,59.929115
"2478",87.21568,59.942444
"2479",86.30747,59.95578
"2480",85.330894,59.96911
"2481",84.36408,59.982445
"2482",83.47051,59.995773
"2483",82.686806,60.00911
"2484",82.03006,60.022438
"2485",81.512474,60.035774
"2486",81.13893,60.049103
"2487",80.902115,60.06244
"2488",80.8069,60.075768
"2489",80.84596,60.089104
"2490",81.00221,60.102432
"2491",81.25124,60.11577
"2492",81.54665,60.129097
"2493",81.83963,60.142433
"2494",82.08133,60.15576
"2495",82.22781,60.169098
"2496",82.252235,60.182426
"2497",82.15213,60.195763
"2498",81.92508,60.20909
"2499",81.602806,60.222427
"2500",81.2195,60.235756
"2501",80.797134,60.249092
"2502",80.365,60.26242
"2503",79.94507,60.275757
"2504",79.551994,60.289085
"2505",79.19554,60.30242
"2506",78.88548,60.31575
"2507",78.626686,60.329086
"2508",78.42405,60.342415
"2509",78.27024,60.35575
"2510",78.15793,60.36908
"2511",78.07736,60.382416
"2512",78.01633,60.395744
"2513",77.97482,60.40908
"2514",77.945526,60.42241
"2515",77.93088,60.435745
"2516",77.92844,60.449074
"2517",77.9382,60.46241
"2518",77.943085,60.47574
"2519",77.943085,60.489075
"2520",77.93088,60.502403
"2521",77.91623,60.51574
"2522",77.90402,60.529068
"2523",77.89426,60.542404
"2524",77.88693,60.555733
"2525",77.87961,60.56907
"2526",77.86496,60.582397
"2527",77.840546,60.595734
"2528",77.80881,60.609062
"2529",77.7673,60.6224
"2530",77.71603,60.635727
"2531",77.65499,60.649063
"2532",77.58907,60.66239
"2533",77.523155,60.675728
"2534",77.46212,60.689056
"2535",77.40353,60.702393
"2536",77.347374,60.71572
"2537",77.296104,60.729057
"2538",77.24727,60.742386
"2539",77.20088,60.755722
"2540",77.1667,60.76905
"2541",77.14717,60.782387
"2542",77.14229,60.795715
"2543",77.14961,60.80905
"2544",77.16426,60.82238
"2545",77.17891,60.835716
"2546",77.19356,60.849045
"2547",77.205765,60.86238
"2548",77.21065,60.87571
"2549",77.205765,60.889046
"2550",77.19112,60.902374
"2551",77.17647,60.91571
"2552",77.208206,60.92904
"2553",77.39132,60.942375
"2554",77.8674,60.955704
"2555",78.76341,60.96904
"2556",80.10376,60.98237
"2557",81.80545,60.995705
"2558",83.682915,61.009033
"2559",85.49203,61.02237
"2560",87.010605,61.035698
"2561",88.097046,61.049034
"2562",88.71229,61.062363
"2563",88.883194,61.0757
"2564",88.6659,61.089027
"2565",88.14099,61.102364
"2566",87.40124,61.115692
"2567",86.539406,61.12903
"2568",85.645836,61.142357
"2569",84.79378,61.155693
"2570",84.034485,61.16902
"2571",83.39971,61.182358
"2572",82.89433,61.195686
"2573",82.50614,61.209023
"2574",82.22049,61.22235
"2575",82.02518,61.235687
"2576",81.90799,61.249016
"2577",81.864044,61.262352
"2578",81.883575,61.27568
"2579",81.95682,61.289017
"2580",82.05936,61.302345
"2581",82.16434,61.31568
"2582",82.247345,61.32901
"2583",82.27421,61.342346
"2584",82.22781,61.355675
"2585",82.09598,61.36901
"2586",81.88602,61.38234
"2587",81.600365,61.395676
"2588",81.26101,61.409004
"2589",80.88258,61.42234
"2590",80.48951,61.43567
"2591",80.10132,61.449005
"2592",79.73022,61.462334
"2593",79.38842,61.47567
"2594",79.08812,61.489
"2595",78.82933,61.502335
"2596",78.61448,61.515663
"2597",78.44114,61.529
"2598",78.30198,61.542328
"2599",78.19699,61.555664
"2600",78.11398,61.568993
"2601",78.048065,61.58233
"2602",77.99924,61.595657
"2603",77.962616,61.608994
"2604",77.93576,61.622322
"2605",77.91867,61.63566
"2606",77.91135,61.648987
"2607",77.90646,61.662323
"2608",77.89914,61.67565
"2609",77.88449,61.688988
"2610",77.86252,61.702316
"2611",77.83322,61.715652
"2612",77.80148,61.72898
"2613",77.76486,61.742317
"2614",77.72579,61.755646
"2615",77.68429,61.768982
"2616",77.63058,61.78231
"2617",77.57198,61.795647
"2618",77.50851,61.808975
"2619",77.44503,61.82231
"2620",77.38155,61.83564
"2621",77.32296,61.848976
"2622",77.264366,61.862305
"2623",77.205765,61.87564
"2624",77.14717,61.88897
"2625",77.08858,61.902306
"2626",77.04219,61.915634
"2627",76.998245,61.92897
"2628",76.96651,61.9423
"2629",76.944534,61.955635
"2630",76.93233,61.968964
"2631",76.925,61.9823
"2632",76.927444,61.99563
"2633",76.93965,62.008965
"2634",76.95674,62.022293
"2635",76.981155,62.03563
"2636",77.01778,62.048958
"2637",77.05928,62.062294
"2638",77.10567,62.075623
"2639",77.152054,62.08896
"2640",77.19356,62.102287
"2641",77.21797,62.115623
"2642",77.22041,62.128952
"2643",77.20332,62.14229
"2644",77.16914,62.155617
"2645",77.13252,62.168953
"2646",77.14229,62.18228
"2647",77.298546,62.195618
"2648",77.747765,62.208946
"2649",78.59983,62.222282
"2650",79.8938,62.23561
"2651",81.55398,62.248947
"2652",83.407036,62.262276
"2653",85.21126,62.27561
"2654",86.751816,62.28894
"2655",87.87732,62.302277
"2656",88.54139,62.315605
"2657",88.75868,62.32894
"2658",88.58045,62.34227
"2659",88.0824,62.355606
"2660",87.35973,62.368935
"2661",86.505226,62.38227
"2662",85.609215,62.3956
"2663",84.754715,62.408936
"2664",84.000305,62.422264
"2665",83.36553,62.4356
"2666",82.862595,62.44893
"2667",82.47929,62.462265
"2668",82.19852,62.475594
"2669",82.01297,62.48893
"2670",81.91287,62.50226
"2671",81.89334,62.515594
"2672",81.94461,62.528923
"2673",82.054474,62.54226
"2674",82.193634,62.555588
"2675",82.32792,62.568924
"2676",82.4329,62.582253
"2677",82.48173,62.59559
"2678",82.44999,62.608917
"2679",82.3328,62.622253
"2680",82.127716,62.635582
"2681",81.84207,62.64892
"2682",81.4905,62.662247
"2683",81.10231,62.675583
"2684",80.70191,62.68891
"2685",80.308846,62.702248
"2686",79.937744,62.715576
"2687",79.60082,62.728912
"2688",79.30541,62.74224
"2689",79.04906,62.755577
"2690",78.83177,62.768906
"2691",78.65598,62.78224
"2692",78.51682,62.79557
"2693",78.40696,62.808907
"2694",78.32151,62.822235
"2695",78.25315,62.83557
"2696",78.20676,62.8489
"2697",78.17502,62.862236
"2698",78.15549,62.875565
"2699",78.14328,62.8889
"2700",78.14084,62.90223
"2701",78.1384,62.915565
"2702",78.13107,62.928894
"2703",78.116425,62.94223
"2704",78.09689,62.95556
"2705",78.07248,62.968895
"2706",78.04074,62.982224
"2707",78.00168,62.99556
"2708",77.960175,63.00889
"2709",77.91379,63.022224
"2710",77.855194,63.035553
"2711",77.79416,63.04889
"2712",77.72579,63.062218
"2713",77.65011,63.075554
"2714",77.57198,63.088882
"2715",77.49142,63.10222
"2716",77.41329,63.115547
"2717",77.34493,63.128883
"2718",77.28634,63.142212
"2719",77.239944,63.15555
"2720",77.20332,63.168877
"2721",77.152054,63.19554
"2722",77.134964,63.208878
"2723",77.117874,63.222206
"2724",77.10811,63.235542
"2725",77.10567,63.24887
"2726",77.11543,63.262207
"2727",77.137405,63.275536
"2728",77.16914,63.28887
"2729",77.205765,63.3022
"2730",77.24971,63.315536
"2731",77.296104,63.328865
"2732",77.34005,63.3422
"2733",77.37667,63.35553
"2734",77.40597,63.368866
"2735",77.4255,63.382195
"2736",77.418175,63.39553
"2737",77.3962,63.40886
"2738",77.3547,63.422195
"2739",77.30343,63.435524
"2740",77.27413,63.44886
"2741",77.349815,63.46219
"2742",77.65499,63.475525
"2743",78.32395,63.488853
"2744",79.43725,63.50219
"2745",80.96315,63.51552
"2746",82.76982,63.528854
"2747",84.64973,63.542183
"2748",86.363625,63.55552
"2749",87.725945,63.568848
"2750",88.64149,63.582184
"2751",89.09804,63.595512
"2752",89.127335,63.60885
"2753",88.79286,63.622177
"2754",88.18738,63.635513
"2755",87.40124,63.64884
"2756",86.52964,63.662178
"2757",85.65316,63.675507
"2758",84.83528,63.688843
"2759",84.11261,63.70217
"2760",83.51202,63.715508
"2761",83.03105,63.728836
"2762",82.667274,63.742172
"2763",82.41581,63.7555
"2764",82.27177,63.768837
"2765",82.22781,63.782166
"2766",82.27177,63.7955
"2767",82.391396,63.80883
"2768",82.55741,63.822166
"2769",82.735634,63.835495
"2770",82.89189,63.84883
"2771",82.98955,63.86216
"2772",83.004196,63.875496
"2773",82.91875,63.888824
"2774",82.73075,63.90216
"2775",82.442665,63.91549
"2776",82.07645,63.928825
"2777",81.65896,63.942154
"2778",81.21217,63.95549
"2779",80.762955,63.96882
"2780",80.3357,63.982155
"2781",79.94263,63.995483
"2782",79.59106,64.00882
"2783",79.290764,64.02215
"2784",79.03685,64.035484
"2785",78.82689,64.04881
"2786",78.65354,64.06215
"2787",78.51682,64.07548
"2788",78.40452,64.08881
"2789",78.31663,64.10214
"2790",78.24826,64.11548
"2791",78.19699,64.12881
"2792",78.16037,64.14214
"2793",78.135956,64.15547
"2794",78.118866,64.16881
"2795",78.10422,64.18214
"2796",78.08957,64.19547
"2797",78.07004,64.2088
"2798",78.04318,64.22214
"2799",78.00656,64.235466
"2800",77.96506,64.2488
"2801",77.91135,64.26213
"2802",77.84299,64.27547
"2803",77.77219,64.288795
"2804",77.696495,64.30213
"2805",77.61593,64.31546
"2806",77.53536,64.3288
"2807",77.454796,64.342125
"2808",77.37179,64.35546
"2809",77.2839,64.36879
"2810",77.196,64.382126
"2811",77.11055,64.395454
"2812",77.02998,64.40879
"2813",76.95918,64.42212
"2814",76.90059,64.435455
"2815",76.85176,64.448784
"2816",76.81026,64.46212
"2817",76.77852,64.47545
"2818",76.754105,64.488785
"2819",76.73945,64.50211
"2820",76.74189,64.51545
"2821",76.76143,64.52878
"2822",76.79561,64.542114
"2823",76.839554,64.55544
"2824",76.88838,64.56878
"2825",76.93477,64.58211
"2826",76.97383,64.59544
"2827",77.00069,64.60877
"2828",77.01045,64.62211
"2829",76.998245,64.63544
"2830",76.964066,64.64877
"2831",76.90791,64.6621
"2832",76.839554,64.67544
"2833",76.80049,64.68877
"2834",76.859085,64.7021
"2835",77.14473,64.71543
"2836",77.79904,64.72877
"2837",78.91478,64.742096
"2838",80.46998,64.75543
"2839",82.337685,64.76876
"2840",84.30305,64.7821
"2841",86.12192,64.795425
"2842",87.60143,64.80876
"2843",88.636604,64.82209
"2844",89.20546,64.83543
"2845",89.33486,64.848755
"2846",89.08583,64.86209
"2847",88.52674,64.87542
"2848",87.75525,64.888756
"2849",86.86168,64.902084
"2850",85.93393,64.91542
"2851",85.04524,64.92875
"2852",84.25422,64.942085
"2853",83.580376,64.955414
"2854",83.03105,64.96875
"2855",82.60868,64.98208
"2856",82.31083,64.995415
"2857",82.13748,65.00874
"2858",82.08133,65.02208
"2859",82.142365,65.03541
"2860",82.29374,65.048744
"2861",82.50126,65.06207
"2862",82.720985,65.07541
"2863",82.91142,65.08874
"2864",83.04082,65.10207
"2865",83.07988,65.1154
"2866",83.01396,65.12874
"2867",82.83818,65.14207
"2868",82.55497,65.1554
"2869",82.18631,65.16873
"2870",81.75174,65.18207
"2871",81.2781,65.1954
"2872",80.797134,65.20873
"2873",80.32838,65.22206
"2874",79.89136,65.2354
"2875",79.4934,65.248726
"2876",79.14427,65.26206
"2877",78.84886,65.27539
"2878",78.607155,65.28873
"2879",78.41184,65.302055
"2880",78.260475,65.31539
"2881",78.14572,65.32872
"2882",78.05295,65.34206
"2883",77.98459,65.355385
"2884",77.93332,65.36872
"2885",77.88937,65.38205
"2886",77.855194,65.395386
"2887",77.83078,65.408714
"2888",77.80881,65.42205
"2889",77.79172,65.43538
"2890",77.77707,65.448715
"2891",77.75998,65.46204
"2892",77.74044,65.47538
"2893",77.71114,65.48871
"2894",77.67208,65.502045
"2895",77.62325,65.51537
"2896",77.56222,65.52871
"2897",77.49386,65.54204
"2898",77.418175,65.555374
"2899",77.33517,65.5687
"2900",77.24727,65.58204
"2901",77.154495,65.59537
"2902",77.06172,65.6087
"2903",76.964066,65.62203
"2904",76.86885,65.63537
"2905",76.77608,65.6487
"2906",76.68818,65.66203
"2907",76.612495,65.67536
"2908",76.54902,65.6887
"2909",76.50507,65.70203
"2910",76.48066,65.71536
"2911",76.473335,65.72869
"2912",76.47578,65.74203
"2913",76.4831,65.755356
"2914",76.48554,65.76869
"2915",76.48066,65.78202
"2916",76.46601,65.79536
"2917",76.44404,65.808685
"2918",76.404976,65.82202
"2919",76.35371,65.83535
"2920",76.297554,65.84869
"2921",76.243835,65.862015
"2922",76.23895,65.87535
"2923",76.37812,65.88868
"2924",76.807816,65.902016
"2925",77.65011,65.915344
"2926",78.96605,65.92868
"2927",80.69215,65.94201
"2928",82.65995,65.955345
"2929",84.627754,65.96867
"2930",86.35874,65.98201
"2931",87.67956,65.99534
"2932",88.52186,66.008675
"2933",88.883194,66.022
"2934",88.80507,66.03534
"2935",88.36317,66.04867
"2936",87.63561,66.062004
"2937",86.72251,66.07533
"2938",85.71908,66.08867
"2939",84.70832,66.102
"2940",83.74639,66.11533
"2941",82.88945,66.12866
"2942",82.159454,66.142
"2943",81.57107,66.15533
"2944",81.13405,66.16866
"2945",80.86549,66.18199
"2946",80.77516,66.19533
"2947",80.86061,66.20866
"2948",81.10231,66.22199
"2949",81.45632,66.23532
"2950",81.8616,66.24866
"2951",82.25712,66.261986
"2952",82.58427,66.27532
"2953",82.794235,66.28865
"2954",82.86992,66.30199
"2955",82.791794,66.315315
"2956",82.56718,66.32865
"2957",82.21805,66.34198
"2958",81.77371,66.355316
"2959",81.26589,66.368645
"2960",80.73365,66.38198
"2961",80.20386,66.39531
"2962",79.70092,66.408646
"2963",79.24437,66.421974
"2964",78.84886,66.43531
"2965",78.519264,66.44864
"2966",78.26292,66.461975
"2967",78.065155,66.4753
"2968",77.92355,66.48864
"2969",77.82834,66.50197
"2970",77.76242,66.515305
"2971",77.71603,66.52863
"2972",77.69161,66.54197
"2973",77.68917,66.5553
"2974",77.69405,66.568634
"2975",77.70382,66.58196
"2976",77.71603,66.5953
"2977",77.72579,66.60863
"2978",77.72091,66.62196
"2979",77.70626,66.63529
"2980",77.68429,66.64863
"2981",77.659874,66.66196
"2982",77.63058,66.67529
"2983",77.593956,66.68862
"2984",77.55245,66.70196
"2985",77.503624,66.71529
"2986",77.44747,66.72862
"2987",77.38888,66.74195
"2988",77.3254,66.75529
"2989",77.25704,66.768616
"2990",77.17403,66.78195
"2991",77.083694,66.79528
"2992",76.98848,66.80862
"2993",76.895706,66.821945
"2994",76.81026,66.83528
"2995",76.734566,66.84861
"2996",76.67597,66.861946
"2997",76.629585,66.875275
"2998",76.592964,66.88861
"2999",76.56611,66.90194
"3000",76.54902,66.915276
"3001",76.53681,66.928604
"3002",76.52216,66.94194
"3003",76.50263,66.95527
"3004",76.470894,66.968605
"3005",76.42451,66.98193
"3006",76.36347,66.99527
"3007",76.299995,67.0086
"3008",76.27314,67.021935
"3009",76.38056,67.03526
"3010",76.76387,67.0486
"3011",77.57931,67.06193
"3012",78.907455,67.075264
"3013",80.69703,67.08859
"3014",82.78203,67.10193
"3015",84.91829,67.11526
"3016",86.83971,67.12859
"3017",88.343636,67.14192
"3018",89.34463,67.15526
"3019",89.83292,67.16859
"3020",89.850006,67.18192
"3021",89.45937,67.19525
"3022",88.7538,67.20859
"3023",87.833374,67.22192
"3024",86.7982,67.23525
"3025",85.73861,67.24858
"3026",84.735176,67.26192
"3027",83.844055,67.275246
"3028",83.07988,67.28858
"3029",82.45731,67.30191
"3030",81.97879,67.31525
"3031",81.651634,67.328575
"3032",81.47341,67.34191
"3033",81.444115,67.35524
"3034",81.55398,67.368576
"3035",81.76883,67.381905
"3036",82.04227,67.39524
"3037",82.32548,67.40857
"3038",82.5745,67.421906
"3039",82.7454,67.435234
"3040",82.804,67.44857
"3041",82.73319,67.4619
"3042",82.528114,67.475235
"3043",82.19852,67.48856
"3044",81.77127,67.5019
"3045",81.28054,67.51523
"3046",80.75807,67.528564
"3047",80.233154,67.54189
"3048",79.73022,67.55523
"3049",79.26635,67.56856
"3050",78.85863,67.581894
"3051",78.50706,67.59522
"3052",78.21896,67.60856
"3053",77.99191,67.62189
"3054",77.823456,67.63522
"3055",77.70382,67.64855
"3056",77.625694,67.66189
"3057",77.58419,67.67522
"3058",77.55978,67.68855
"3059",77.540245,67.70188
"3060",77.523155,67.71522
"3061",77.50851,67.728546
"3062",77.49142,67.74188
"3063",77.47677,67.75521
"3064",77.46456,67.76855
"3065",77.44991,67.781876
"3066",77.42794,67.79521
"3067",77.40597,67.80854
"3068",77.38155,67.82188
"3069",77.35714,67.835205
"3070",77.3254,67.84854
"3071",77.28634,67.86187
"3072",77.2375,67.875206
"3073",77.17647,67.888535
"3074",77.103226,67.90187
"3075",77.02754,67.9152
"3076",76.94942,67.928535
"3077",76.86885,67.941864
"3078",76.788284,67.9552
"3079",76.71259,67.96853
"3080",76.63447,67.981865
"3081",76.55634,67.99519
"3082",76.48554,68.00853
"3083",76.42451,68.02186
"3084",76.37812,68.035194
"3085",76.34638,68.04852
"3086",76.33173,68.06186
"3087",76.32929,68.07519
"3088",76.3415,68.088524
"3089",76.36347,68.10185
"3090",76.39765,68.11519
"3091",76.439156,68.12852
"3092",76.48554,68.14185
"3093",76.52949,68.15518
"3094",76.561226,68.16852
"3095",76.57343,68.18185
"3096",76.561226,68.19518
"3097",76.52216,68.20851
"3098",76.46845,68.22185
"3099",76.4416,68.235176
"3100",76.544136,68.24851
"3101",76.944534,68.26184
"3102",77.7966,68.27518
"3103",79.17845,68.288506
"3104",81.03395,68.30184
"3105",83.192184,68.31517
"3106",85.37972,68.32851
"3107",87.33044,68.341835
"3108",88.8539,68.35517
"3109",89.86221,68.3685
"3110",90.36027,68.381836
"3111",90.392006,68.395164
"3112",90.02823,68.4085
"3113",89.35195,68.42183
"3114",88.46082,68.435165
"3115",87.45739,68.448494
"3116",86.434425,68.46183
"3117",85.472496,68.47516
"3118",84.630196,68.488495
"3119",83.92706,68.50182
"3120",83.36553,68.51516
"3121",82.93584,68.52849
"3122",82.62089,68.541824
"3123",82.41337,68.55515
"3124",82.31327,68.56849
"3125",82.31083,68.58182
"3126",82.388954,68.59515
"3127",82.52323,68.60848
"3128",82.6746,68.62182
"3129",82.80888,68.63515
"3130",82.89189,68.64848
"3131",82.89433,68.66181
"3132",82.80156,68.67515
"3133",82.60136,68.68848
"3134",82.30595,68.70181
"3135",81.92752,68.71514
"3136",81.48806,68.72848
"3137",81.00954,68.741806
"3138",80.51881,68.75514
"3139",80.03296,68.76847
"3140",79.571526,68.78181
"3141",79.149155,68.795135
"3142",78.7805,68.80847
"3143",78.470436,68.8218
"3144",78.21896,68.83514
"3145",78.02365,68.848465
"3146",77.87717,68.8618
"3147",77.769745,68.87513
"3148",77.68917,68.888466
"3149",77.63058,68.901794
"3150",77.58907,68.91513
"3151",77.55978,68.92846
"3152",77.53536,68.941795
"3153",77.51583,68.955124
"3154",77.4963,68.96846
"3155",77.48165,68.98179
"3156",77.467,68.995125
"3157",77.44747,69.00845
"3158",77.42794,69.02179
"3159",77.40353,69.03512
"3160",77.36935,69.048454
"3161",77.3254,69.06178
"3162",77.27169,69.07512
"3163",77.208206,69.08845
"3164",77.137405,69.10178
"3165",77.05684,69.11511
"3166",76.97383,69.12845
"3167",76.88594,69.14178
"3168",76.79561,69.15511
"3169",76.70771,69.16844
"3170",76.6247,69.18178
"3171",76.54658,69.19511
"3172",76.47822,69.20844
"3173",76.41718,69.22177
"3174",76.36347,69.23511
"3175",76.31953,69.248436
"3176",76.28779,69.26177
"3177",76.26093,69.2751
"3178",76.241394,69.28844
"3179",76.23163,69.301765
"3180",76.226746,69.3151
"3181",76.23407,69.32843
"3182",76.24872,69.34177
"3183",76.280464,69.355095
"3184",76.32197,69.36843
"3185",76.37568,69.38176
"3186",76.436714,69.395096
"3187",76.50263,69.408424
"3188",76.57099,69.42176
"3189",76.63203,69.43509
"3190",76.67597,69.448425
"3191",76.697945,69.461754
"3192",76.68574,69.47509
"3193",76.63691,69.48842
"3194",76.56367,69.501755
"3195",76.48798,69.51508
"3196",76.470894,69.52842
"3197",76.654,69.54175
"3198",77.22774,69.555084
"3199",78.35325,69.56841
"3200",80.05493,69.58175
"3201",82.22293,69.59508
"3202",84.61555,69.60841
"3203",86.922714,69.62174
"3204",88.866104,69.63508
"3205",90.29923,69.64841
"3206",91.17815,69.66174
"3207",91.53948,69.67507
"3208",91.441826,69.68841
"3209",90.965744,69.70174
"3210",90.19913,69.71507
"3211",89.251854,69.7284
"3212",88.21423,69.74174
"3213",87.17662,69.755066
"3214",86.20981,69.7684
"3215",85.36263,69.78173
"3216",84.64973,69.79507
"3217",84.07843,69.808395
"3218",83.631645,69.82173
"3219",83.30694,69.83506
"3220",83.09453,69.8484
"3221",82.98711,69.861725
"3222",82.97246,69.87506
"3223",83.03349,69.88839
"3224",83.1458,69.901726
"3225",83.27276,69.915054
"3226",83.37774,69.92839
"3227",83.43145,69.94172
"3228",83.407036,69.955055
"3229",83.282524,69.96838
"3230",83.053024,69.98172
"3231",82.720985,69.99505
"3232",82.29862,70.008385
"3233",81.81033,70.02171
"3234",81.28542,70.03505
"3235",80.75563,70.04838
"3236",80.23804,70.061714
"3237",79.75464,70.07504
"3238",79.32006,70.08838
"3239",78.93919,70.10171
"3240",78.61692,70.11504
"3241",78.348366,70.12837
"3242",78.14084,70.14171
"3243",77.977264,70.15504
"3244",77.857635,70.16837
"3245",77.77219,70.1817
"3246",77.71114,70.19504
"3247",77.66964,70.20837
"3248",77.642784,70.2217
"3249",77.625694,70.23503
"3250",77.62081,70.24837
"3251",77.61837,70.261696
"3252",77.61837,70.27503
"3253",77.61349,70.28836
"3254",77.60128,70.3017
"3255",77.574425,70.315025
"3256",77.53536,70.32836
"3257",77.48409,70.34169
"3258",77.420616,70.35503
"3259",77.349815,70.368355
"3260",77.26925,70.38169
"3261",77.18623,70.39502
"3262",77.09834,70.408356
"3263",77.00557,70.421684
"3264",76.910355,70.43502
"3265",76.8127,70.44835
"3266",76.71992,70.461685
"3267",76.63203,70.47501
"3268",76.54902,70.48835
"3269",76.47578,70.50168
"3270",76.40986,70.515015
"3271",76.34882,70.52834
"3272",76.29511,70.54168
"3273",76.25117,70.55501
"3274",76.22186,70.568344
"3275",76.2121,70.58167
"3276",76.209656,70.59501
"3277",76.224304,70.60834
"3278",76.24872,70.62167
"3279",76.282906,70.635
"3280",76.32685,70.64834
"3281",76.38056,70.66167
"3282",76.439156,70.675
"3283",76.50263,70.68833
"3284",76.558784,70.70167
"3285",76.60273,70.715
"3286",76.6247,70.72833
"3287",76.61494,70.74166
"3288",76.57343,70.755
"3289",76.50507,70.768326
"3290",76.42695,70.78166
"3291",76.39033,70.79499
"3292",76.5124,70.80833
"3293",76.97383,70.821655
"3294",77.94064,70.83499
"3295",79.48119,70.84832
"3296",81.51736,70.86166
"3297",83.84894,70.874985
"3298",86.18295,70.88832
"3299",88.236206,70.90165
"3300",89.82803,70.914986
"3301",90.88274,70.928314
"3302",91.41253,70.94165
"3303",91.46136,70.95498
"3304",91.09758,70.968315
"3305",90.41154,70.98164
"3306",89.50332,70.99498
"3307",88.47059,71.00831
"3308",87.411,71.021645
"3309",86.397804,71.03497
"3310",85.4847,71.04831
"3311",84.70344,71.06164
"3312",84.06622,71.074974
"3313",83.57061,71.0883
"3314",83.209274,71.10164
"3315",82.98222,71.11497
"3316",82.882126,71.1283
"3317",82.89433,71.14163
"3318",83.001755,71.15497
"3319",83.16777,71.1683
"3320",83.35821,71.18163
"3321",83.526665,71.19496
"3322",83.63653,71.2083
"3323",83.648735,71.22163
"3324",83.54864,71.23496
"3325",83.33135,71.24829
"3326",83.001755,71.26163
"3327",82.579384,71.274956
"3328",82.08865,71.28829
"3329",81.55886,71.30162
"3330",81.01442,71.31496
"3331",80.47486,71.328285
"3332",79.9646,71.34162
"3333",79.50317,71.35495
"3334",79.10033,71.368286
"3335",78.75853,71.381615
"3336",78.4802,71.39495
"3337",78.25803,71.40828
"3338",78.0798,71.421616
"3339",77.94064,71.434944
"3340",77.83322,71.44828
"3341",77.7551,71.46161
"3342",77.69894,71.474945
"3343",77.66964,71.48827
"3344",77.65255,71.50161
"3345",77.64034,71.51494
"3346",77.625694,71.528275
"3347",77.60616,71.5416
"3348",77.58175,71.55494
"3349",77.55001,71.56827
"3350",77.51339,71.581604
"3351",77.47677,71.59493
"3352",77.43038,71.60827
"3353",77.37179,71.6216
"3354",77.30343,71.63493
"3355",77.22041,71.64826
"3356",77.13008,71.6616
"3357",77.032425,71.67493
"3358",76.93233,71.68826
"3359",76.82735,71.70159
"3360",76.7248,71.71493
"3361",76.6247,71.72826
"3362",76.52949,71.74159
"3363",76.436714,71.75492
"3364",76.35371,71.76826
"3365",76.27802,71.781586
"3366",76.21454,71.79492
"3367",76.16327,71.80825
"3368",76.12665,71.82159
"3369",76.104675,71.834915
"3370",76.09979,71.84825
"3371",76.10712,71.86158
"3372",76.12421,71.874916
"3373",76.14862,71.888245
"3374",76.18524,71.90158
"3375",76.22919,71.91491
"3376",76.280464,71.928246
"3377",76.33173,71.941574
"3378",76.37568,71.95491
"3379",76.404976,71.96824
"3380",76.40986,71.981575
"3381",76.387886,71.9949
"3382",76.33906,72.00824
"3383",76.2707,72.02157
"3384",76.192566,72.034904
"3385",76.13397,72.04823
"3386",76.18768,72.06157
"3387",76.50507,72.0749
"3388",77.25216,72.088234
"3389",78.53391,72.10156
"3390",80.325935,72.1149
"3391",82.48173,72.12823
"3392",84.74494,72.14156
"3393",86.837265,72.15489
"3394",88.53895,72.16823
"3395",89.73769,72.18156
"3396",90.406654,72.19489
"3397",90.582436,72.20822
"3398",90.32365,72.22156
"3399",89.71328,72.234886
"3400",88.851456,72.24822
"3401",87.84558,72.26155
"3402",86.79332,72.27489
"3403",85.78256,72.288216
"3404",84.86946,72.30155
"3405",84.08331,72.31488
"3406",83.43145,72.32822
"3407",82.90898,72.341545
"3408",82.52079,72.35488
"3409",82.266884,72.36821
"3410",82.14969,72.381546
"3411",82.15701,72.394875
"3412",82.266884,72.40821
"3413",82.44999,72.42154
"3414",82.66239,72.434875
"3415",82.85771,72.448204
"3416",82.99687,72.46154
"3417",83.04814,72.47487
"3418",82.97978,72.488205
"3419",82.78447,72.50153
"3420",82.46952,72.51487
"3421",82.056915,72.5282
"3422",81.57595,72.541534
"3423",81.05104,72.55486
"3424",80.516365,72.5682
"3425",80.00122,72.58153
"3426",79.517815,72.594864
"3427",79.08568,72.60819
"3428",78.71702,72.62153
"3429",78.4094,72.63486
"3430",78.16281,72.64819
"3431",77.97238,72.66152
"3432",77.821014,72.67486
"3433",77.70626,72.68819
"3434",77.61837,72.70152
"3435",77.55489,72.71485
"3436",77.50851,72.72819
"3437",77.48165,72.741516
"3438",77.467,72.75485
"3439",77.45724,72.76818
"3440",77.452354,72.78152
"3441",77.44991,72.794846
"3442",77.44015,72.80818
"3443",77.4255,72.82151
"3444",77.40353,72.83485
"3445",77.37179,72.848175
"3446",77.330284,72.86151
"3447",77.281456,72.87484
"3448",77.225296,72.888176
"3449",77.16182,72.901505
"3450",77.09346,72.91484
"3451",77.01289,72.92817
"3452",76.92012,72.941505
"3453",76.822464,72.954834
"3454",76.72236,72.96817
"3455",76.6247,72.9815
"3456",76.53437,72.994835
"3457",76.45869,73.00816
"3458",76.39033,73.0215
"3459",76.33173,73.03483
"3460",76.282906,73.048164
"3461",76.243835,73.06149
"3462",76.21454,73.07483
"3463",76.19989,73.08816
"3464",76.20477,73.101494
"3465",76.224304,73.11482
"3466",76.265816,73.12816
"3467",76.31953,73.14149
"3468",76.37324,73.15482
"3469",76.419624,73.16815
"3470",76.45869,73.18149
"3471",76.47822,73.19482
"3472",76.473335,73.20815
"3473",76.44404,73.22148
"3474",76.39277,73.23482
"3475",76.31953,73.248146
"3476",76.24872,73.26148
"3477",76.226746,73.27481
"3478",76.351265,73.28815
"3479",76.756546,73.301476
"3480",77.576866,73.31481
"3481",78.853745,73.32814
"3482",80.52369,73.34148
"3483",82.423134,73.354805
"3484",84.30793,73.36814
"3485",85.94125,73.38147
"3486",87.16197,73.394806
"3487",87.904175,73.408134
"3488",88.17273,73.42147
"3489",88.01404,73.4348
"3490",87.5111,73.448135
"3491",86.74937,73.461464
"3492",85.83383,73.4748
"3493",84.857254,73.48813
"3494",83.90509,73.501465
"3495",83.03105,73.51479
"3496",82.27177,73.52813
"3497",81.64187,73.54146
"3498",81.143814,73.554794
"3499",80.78737,73.56812
"3500",80.5774,73.58146
"3501",80.516365,73.59479
"3502",80.601814,73.60812
"3503",80.8069,73.62145
"3504",81.094986,73.63479
"3505",81.409935,73.64812
"3506",81.69802,73.66145
"3507",81.917755,73.67478
"3508",82.02518,73.68812
"3509",82.00076,73.70145
"3510",81.84451,73.71478
"3511",81.55886,73.72811
"3512",81.17555,73.74145
"3513",80.723885,73.754776
"3514",80.23804,73.76811
"3515",79.744865,73.78144
"3516",79.276115,73.79478
"3517",78.8513,73.808105
"3518",78.487526,73.82144
"3519",78.18967,73.83477
"3520",77.960175,73.84811
"3521",77.79172,73.861435
"3522",77.67208,73.87477
"3523",77.593956,73.8881
"3524",77.54757,73.901436
"3525",77.53048,73.914764
"3526",77.52804,73.9281
"3527",77.5378,73.94143
"3528",77.55245,73.954765
"3529",77.5671,73.968094
"3530",77.58175,73.98143
"3531",77.5964,73.99476
"3532",77.61349,74.008095
"3533",77.63058,74.02142
"3534",77.645226,74.03476
"3535",77.65255,74.04809
"3536",77.65011,74.061424
"3537",77.63302,74.07475
"3538",77.60372,74.08809
"3539",77.56466,74.10142
"3540",77.51583,74.11475
"3541",77.46212,74.12808
"3542",77.40353,74.14142
"3543",77.34249,74.15475
"3544",77.279015,74.16808
"3545",77.21309,74.18141
"3546",77.154495,74.19475
"3547",77.09834,74.20808
"3548",77.05684,74.22141
"3549",77.01778,74.23474
"3550",76.98604,74.24808
"3551",76.964066,74.261406
"3552",76.95186,74.27474
"3553",76.946976,74.28807
"3554",76.946976,74.30141
"3555",76.94942,74.314735
"3556",76.944534,74.32807
"3557",76.93233,74.3414
"3558",76.90791,74.35474
"3559",76.876175,74.368065
"3560",76.83711,74.3814
"3561",76.80049,74.39473
"3562",76.79561,74.408066
"3563",76.8835,74.421394
"3564",77.17403,74.43473
"3565",77.78195,74.44806
"3566",78.77806,74.461395
"3567",80.128174,74.474724
"3568",81.71755,74.48806
"3569",83.33868,74.50139
"3570",84.77669,74.514725
"3571",85.86313,74.52805
"3572",86.51499,74.54139
"3573",86.729836,74.55472
"3574",86.556496,74.568054
"3575",86.07553,74.58138
"3576",85.382164,74.59472
"3577",84.56184,74.60805
"3578",83.69756,74.62138
"3579",82.86015,74.63471
"3580",82.09598,74.64805
"3581",81.43679,74.66138
"3582",80.88747,74.67471
"3583",80.465096,74.68804
"3584",80.17212,74.70138
"3585",80.01831,74.71471
"3586",80.008545,74.72804
"3587",80.15015,74.74137
"3588",80.42115,74.75471
"3589",80.78981,74.768036
"3590",81.19997,74.78137
"3591",81.58816,74.7947
"3592",81.89334,74.80804
"3593",82.07645,74.821365
"3594",82.11063,74.8347
"3595",82.00076,74.84803
"3596",81.76639,74.86137
"3597",81.43435,74.874695
"3598",81.041275,74.88803
"3599",80.61402,74.90136
"3600",80.18677,74.914696
"3601",79.77661,74.928024
"3602",79.40795,74.94136
"3603",79.09544,74.95469
"3604",78.84398,74.968025
"3605",78.658424,74.98135
"3606",78.53147,74.99469
"3607",78.45823,75.00802
"3608",78.42405,75.021355
"3609",78.41917,75.03468
"3610",78.43137,75.04802
"3611",78.45335,75.06135
"3612",78.47776,75.074684
"3613",78.502174,75.08801
"3614",78.52903,75.10135
"3615",78.553444,75.11468
"3616",78.5803,75.12801
"3617",78.60227,75.14134
"3618",78.61936,75.15468
"3619",78.63157,75.16801
"3620",78.63401,75.18134
"3621",78.63157,75.19467
"3622",78.61936,75.20801
"3623",78.60227,75.22134
"3624",78.572975,75.23467
"3625",78.53391,75.248
"3626",78.48997,75.26134
"3627",78.44114,75.274666
"3628",78.38743,75.288
"3629",78.331276,75.30133
"3630",78.27268,75.31467
"3631",78.21408,75.327995
"3632",78.15793,75.34133
"3633",78.11154,75.35466
"3634",78.07736,75.368
"3635",78.05295,75.381325
"3636",78.0383,75.39466
"3637",78.02365,75.40799
"3638",78.009,75.421326
"3639",77.979706,75.434654
"3640",77.943085,75.44799
"3641",77.90158,75.46132
"3642",77.857635,75.474655
"3643",77.80881,75.48798
"3644",77.76486,75.50132
"3645",77.747765,75.51465
"3646",77.81125,75.527985
"3647",78.065155,75.54131
"3648",78.63889,75.55465
"3649",79.605705,75.56798
"3650",80.94606,75.581314
"3651",82.54032,75.59464
"3652",84.190735,75.60798
"3653",85.660484,75.62131
"3654",86.768906,75.63464
"3655",87.42565,75.64797
"3656",87.63561,75.66131
"3657",87.447624,75.67464
"3658",86.942245,75.68797
"3659",86.21713,75.7013
"3660",85.367516,75.71464
"3661",84.488594,75.72797
"3662",83.64385,75.7413
"3663",82.89433,75.75463
"3664",82.25956,75.76797
"3665",81.74929,75.781296
"3666",81.35378,75.79463
"3667",81.07301,75.80796
"3668",80.902115,75.8213
"3669",80.84352,75.834625
"3670",80.88747,75.84796
"3671",81.024185,75.86129
"3672",81.22194,75.874626
"3673",81.45876,75.887955
"3674",81.688255,75.90129
"3675",81.87381,75.91462
"3676",81.98367,75.927956
"3677",81.99832,75.941284
"3678",81.90311,75.95462
"3679",81.70779,75.96795
"3680",81.427025,75.981285
"3681",81.0901,75.99461
"3682",80.723885,76.00795
"3683",80.35035,76.02128
"3684",79.98901,76.034615
"3685",79.656975,76.04794
"3686",79.36645,76.06128
"3687",79.114975,76.07461
"3688",78.9099,76.087944
"3689",78.75365,76.10127
"3690",78.643776,76.11461
"3691",78.572975,76.12794
"3692",78.536354,76.14127
"3693",78.51438,76.1546
"3694",78.504616,76.16794
"3695",78.504616,76.18127
"3696",78.50706,76.1946
"3697",78.51194,76.20793
"3698",78.521706,76.22127
"3699",78.53391,76.2346
"3700",78.54856,76.24793
"3701",78.55833,76.26126
"3702",78.56809,76.2746
"3703",78.56809,76.287926
"3704",78.56321,76.30126
"3705",78.551,76.31459
"3706",78.52659,76.32793
"3707",78.49485,76.341255
"3708",78.45823,76.35459
"3709",78.416725,76.36792
"3710",78.37034,76.381256
"3711",78.32395,76.394585
"3712",78.277565,76.40792
"3713",78.22873,76.42125
"3714",78.17502,76.434586
"3715",78.12375,76.447914
"3716",78.07248,76.46125
"3717",78.02121,76.47458
"3718",77.97482,76.487915
"3719",77.93332,76.50124
"3720",77.8967,76.51458
"3721",77.8674,76.52791
"3722",77.84299,76.541245
"3723",77.83078,76.55457
"3724",77.83078,76.56791
"3725",77.838104,76.58124
"3726",77.857635,76.594574
"3727",77.88449,76.6079
"3728",77.91135,76.62124
"3729",77.92844,76.63457
"3730",77.93576,76.6479
"3731",77.92355,76.66123
"3732",77.8967,76.67457
"3733",77.855194,76.6879
"3734",77.80881,76.70123
"3735",77.7966,76.71456
"3736",77.891815,76.7279
"3737",78.22629,76.74123
"3738",78.92943,76.75456
"3739",80.07202,76.76789
"3740",81.60525,76.78123
"3741",83.370415,76.794556
"3742",85.138016,76.80789
"3743",86.659035,76.82122
"3744",87.76257,76.83456
"3745",88.377815,76.847885
"3746",88.534065,76.86122
"3747",88.29481,76.87455
"3748",87.765015,76.887886
"3749",87.027695,76.901215
"3750",86.17807,76.91455
"3751",85.29916,76.92788
"3752",84.46906,76.941216
"3753",83.736626,76.954544
"3754",83.13359,76.96788
"3755",82.667274,76.98121
"3756",82.320595,76.994545
"3757",82.06424,77.00787
"3758",81.881134,77.02121
"3759",81.75662,77.03454
"3760",81.6907,77.047874
"3761",81.67605,77.0612
"3762",81.71023,77.07454
"3763",81.77615,77.08787
"3764",81.85184,77.101204
"3765",81.91531,77.11453
"3766",81.93729,77.12787
"3767",81.900665,77.1412
"3768",81.795685,77.15453
"3769",81.61501,77.16786
"3770",81.37087,77.1812
"3771",81.08034,77.19453
"3772",80.75807,77.20786
"3773",80.41627,77.22119
"3774",80.07446,77.23453
"3775",79.742424,77.247856
"3776",79.43725,77.26119
"3777",79.166245,77.27452
"3778",78.93919,77.28786
"3779",78.75609,77.301186
"3780",78.61204,77.31452
"3781",78.49973,77.32785
"3782",78.41917,77.34119
"3783",78.35813,77.354515
"3784",78.31663,77.36785
"3785",78.29221,77.38118
"3786",78.28489,77.394516
"3787",78.28489,77.407845
"3788",78.28977,77.42118
"3789",78.29954,77.43451
"3790",78.3093,77.447845
"3791",78.311745,77.461174
"3792",78.314186,77.47451
"3793",78.3093,77.48785
"3794",78.29221,77.50118
"3795",78.2678,77.51452
"3796",78.23605,77.527855
"3797",78.20187,77.54119
"3798",78.16281,77.55453
"3799",78.12131,77.56786
"3800",78.0798,77.5812
"3801",78.0383,77.594536
"3802",77.99191,77.60787
"3803",77.945526,77.62121
"3804",77.89426,77.634544
"3805",77.84299,77.64788
"3806",77.789276,77.66122
"3807",77.73556,77.67455
"3808",77.68917,77.68789
"3809",77.65011,77.701225
"3810",77.628136,77.71456
"3811",77.61593,77.7279
"3812",77.611046,77.741234
"3813",77.611046,77.75457
"3814",77.611046,77.76791
"3815",77.60616,77.78124
"3816",77.60128,77.79458
"3817",77.5964,77.807915
"3818",77.59884,77.82125
"3819",77.608604,77.83459
"3820",77.625694,77.84792
"3821",77.65011,77.86126
"3822",77.679405,77.874596
"3823",77.71603,77.88793
"3824",77.7551,77.90127
"3825",77.79172,77.914604
"3826",77.81857,77.92794
"3827",77.838104,77.94128
"3828",77.84543,77.95461
"3829",77.83322,77.96795
"3830",77.806366,77.981285
"3831",77.75998,77.99462
"3832",77.69894,78.00796
"3833",77.63546,78.02129
"3834",77.60616,78.03463
"3835",77.70138,78.047966
"3836",78.06271,78.0613
"3837",78.84154,78.07464
"3838",80.093994,78.087975
"3839",81.76639,78.10131
"3840",83.67071,78.11465
"3841",85.55062,78.12798
"3842",87.14,78.14132
"3843",88.26795,78.154655
"3844",88.87099,78.16799
"3845",88.990616,78.18133
"3846",88.70496,78.194664
"3847",88.111694,78.208
"3848",87.30358,78.22134
"3849",86.38804,78.23467
"3850",85.44808,78.24801
"3851",84.55695,78.261345
"3852",83.77081,78.27468
"3853",83.11894,78.28802
"3854",82.61356,78.30135
"3855",82.22781,78.31469
"3856",81.94949,78.328026
"3857",81.75662,78.34136
"3858",81.636986,78.3547
"3859",81.58572,78.368034
"3860",81.600365,78.38137
"3861",81.671165,78.39471
"3862",81.778595,78.40804
"3863",81.89578,78.42138
"3864",81.99832,78.434715
"3865",82.056915,78.44805
"3866",82.05203,78.46139
"3867",81.96658,78.474724
"3868",81.79813,78.48806
"3869",81.55154,78.501396
"3870",81.24391,78.51473
"3871",80.89723,78.52807
"3872",80.5359,78.541405
"3873",80.177,78.55474
"3874",79.83765,78.56808
"3875",79.52758,78.58141
"3876",79.25414,78.59475
"3877",79.01732,78.608086
"3878",78.81712,78.62142
"3879",78.66331,78.63476
"3880",78.54368,78.648094
"3881",78.450905,78.66143
"3882",78.38743,78.67477
"3883",78.348366,78.6881
"3884",78.32639,78.70144
"3885",78.31907,78.714775
"3886",78.328835,78.72811
"3887",78.345924,78.74145
"3888",78.365456,78.75478
"3889",78.380104,78.76812
"3890",78.39231,78.781456
"3891",78.399635,78.79479
"3892",78.399635,78.80813
"3893",78.397194,78.821465
"3894",78.38499,78.8348
"3895",78.363014,78.84814
"3896",78.331276,78.86147
"3897",78.29221,78.87481
"3898",78.25071,78.888145
"3899",78.204315,78.90148
"3900",78.153046,78.91482
"3901",78.09689,78.928154
"3902",78.03586,78.94149
"3903",77.97238,78.95483
"3904",77.908905,78.96816
"3905",77.85275,78.9815
"3906",77.803925,78.994835
"3907",77.75754,79.00817
"3908",77.713585,79.02151
"3909",77.679405,79.03484
"3910",77.645226,79.04818
"3911",77.61837,79.061516
"3912",77.593956,79.07485
"3913",77.58175,79.08819
"3914",77.57931,79.101524
"3915",77.58419,79.11486
"3916",77.59884,79.1282
"3917",77.61837,79.14153
"3918",77.642784,79.15487
"3919",77.6672,79.168205
"3920",77.696495,79.18154
"3921",77.72335,79.19488
"3922",77.75021,79.20821
"3923",77.76242,79.22155
"3924",77.75998,79.234886
"3925",77.74044,79.24822
"3926",77.70382,79.26156
"3927",77.659874,79.274895
"3928",77.63302,79.28823
"3929",77.68185,79.30157
"3930",77.925995,79.3149
"3931",78.51194,79.32824
"3932",79.53246,79.341576
"3933",80.98024,79.35491
"3934",82.73075,79.36825
"3935",84.56428,79.381584
"3936",86.22446,79.39492
"3937",87.51354,79.40826
"3938",88.32899,79.42159
"3939",88.670784,79.43493
"3940",88.5951,79.448265
"3941",88.18005,79.4616
"3942",87.518425,79.47494
"3943",86.70542,79.48827
"3944",85.821625,79.50161
"3945",84.9427,79.514946
"3946",84.12482,79.52828
"3947",83.41436,79.54162
"3948",82.82597,79.554955
"3949",82.36942,79.56829
"3950",82.02762,79.58163
"3951",81.7908,79.59496
"3952",81.651634,79.6083
"3953",81.602806,79.621635
"3954",81.64919,79.63497
"3955",81.778595,79.64831
"3956",81.96658,79.661644
"3957",82.18143,79.67498
"3958",82.37675,79.68832
"3959",82.51835,79.70165
"3960",82.5745,79.71499
"3961",82.53544,79.728325
"3962",82.39872,79.74166
"3963",82.1741,79.755
"3964",81.87869,79.76833
"3965",81.532005,79.78167
"3966",81.15846,79.795006
"3967",80.77516,79.80834
"3968",80.39918,79.82168
"3969",80.04761,79.835014
"3970",79.73022,79.84835
"3971",79.45678,79.86169
"3972",79.22728,79.87502
"3973",79.04173,79.88836
"3974",78.90257,79.901695
"3975",78.79759,79.91503
"3976",78.71946,79.92837
"3977",78.66575,79.9417
"3978",78.626686,79.95504
"3979",78.59739,79.968376
"3980",78.57786,79.98171
"3981",78.56809,79.99505
"3982",78.57053,80.008385
"3983",78.57786,80.02172
"3984",78.58518,80.03506
"3985",78.59251,80.04839
"3986",78.59495,80.06173
"3987",78.58762,80.075066
"3988",78.56809,80.0884
"3989",78.54124,80.10174
"3990",78.502174,80.115074
"3991",78.45823,80.12841
"3992",78.40208,80.14175
"3993",78.34104,80.15508
"3994",78.27268,80.16842
"3995",78.19455,80.181755
"3996",78.1091,80.19509
"3997",78.01877,80.20843
"3998",77.93332,80.22176
"3999",77.85031,80.2351
"4000",77.77951,80.248436
"4001",77.71603,80.26177
"4002",77.662315,80.27511
"4003",77.61593,80.288445
"4004",77.576866,80.30178
"4005",77.54513,80.31512
"4006",77.51827,80.32845
"4007",77.49874,80.34179
"4008",77.48409,80.355125
"4009",77.47677,80.36846
"4010",77.47921,80.3818
"4011",77.4963,80.395134
"4012",77.523155,80.40847
"4013",77.55489,80.42181
"4014",77.591515,80.43514
"4015",77.62325,80.44848
"4016",77.645226,80.461815
"4017",77.65743,80.47515
"4018",77.65499,80.48849
"4019",77.63302,80.50182
"4020",77.58663,80.51516
"4021",77.52804,80.528496
"4022",77.47921,80.54183
"4023",77.49874,80.55517
"4024",77.70382,80.568504
"4025",78.23361,80.58184
"4026",79.183334,80.59518
"4027",80.56031,80.60851
"4028",82.25712,80.62185
"4029",84.085754,80.635185
"4030",85.80698,80.64852
"4031",87.220566,80.66186
"4032",88.21179,80.67519
"4033",88.744026,80.68853
"4034",88.85634,80.701866
"4035",88.59998,80.7152
"4036",88.060425,80.72854
"4037",87.31823,80.741875
"4038",86.46616,80.75521
"4039",85.58236,80.76855
"4040",84.73762,80.78188
"4041",83.97833,80.79522
"4042",83.336235,80.808556
"4043",82.81865,80.82189
"4044",82.423134,80.83523
"4045",82.144806,80.848564
"4046",81.97879,80.8619
"4047",81.9324,80.87524
"4048",81.99832,80.88857
"4049",82.159454,80.90191
"4050",82.38163,80.915245
"4051",82.62821,80.92858
"4052",82.85771,80.94192
"4053",83.02617,80.95525
"4054",83.104294,80.96859
"4055",83.072556,80.981926
"4056",82.92607,80.99526
"4057",82.67704,81.0086
"4058",82.33524,81.021935
"4059",81.9324,81.03527
"4060",81.497826,81.04861
"4061",81.05104,81.06194
"4062",80.61158,81.07528
"4063",80.2063,81.088615
"4064",79.84009,81.10195
"4065",79.5227,81.11529
"4066",79.256584,81.128624
"4067",79.046616,81.14196
"4068",78.88548,81.1553
"4069",78.765854,81.16863
"4070",78.6804,81.18197
"4071",78.61936,81.195305
"4072",78.57542,81.20864
"4073",78.54612,81.22198
"4074",78.519264,81.23531
"4075",78.49729,81.24865
"4076",78.4802,81.261986
"4077",78.46555,81.27532
"4078",78.44846,81.28866
"4079",78.42649,81.301994
"4080",78.40452,81.31533
"4081",78.37278,81.32867
"4082",78.331276,81.342
"4083",78.28001,81.35534
"4084",78.21896,81.368675
"4085",78.153046,81.38201
"4086",78.07736,81.39535
"4087",77.994354,81.40868
"4088",77.908905,81.42202
"4089",77.81857,81.435356
"4090",77.72091,81.44869
"4091",77.625694,81.46203
"4092",77.53292,81.475365
"4093",77.44747,81.4887
"4094",77.36446,81.50204
"4095",77.29122,81.51537
"4096",77.225296,81.52871
"4097",77.1667,81.542046
"4098",77.120316,81.55538
"4099",77.08125,81.56872
"4100",77.05928,81.582054
"4101",77.04707,81.59539
"4102",77.04707,81.60873
"4103",77.049515,81.62206
"4104",77.04707,81.6354
"4105",77.03487,81.648735
"4106",77.00069,81.66207
"4107",76.944534,81.67541
"4108",76.87129,81.68874
"4109",76.79561,81.70208
"4110",76.73945,81.715416
"4111",76.754105,81.72875
"4112",76.93233,81.74209
"4113",77.401085,81.755424
"4114",78.25071,81.76876
"4115",79.500725,81.7821
"4116",81.08034,81.79543
"4117",82.81377,81.80877
"4118",84.49592,81.822105
"4119",85.924164,81.83544
"4120",86.97154,81.84878
"4121",87.58434,81.862114
"4122",87.77234,81.87545
"4123",87.57946,81.88879
"4124",87.081406,81.90212
"4125",86.363625,81.91546
"4126",85.51644,81.928795
"4127",84.61799,81.94213
"4128",83.74395,81.95547
"4129",82.93828,81.9688
"4130",82.22781,81.98214
"4131",81.636986,81.995476
"4132",81.17799,82.00881
"4133",80.86305,82.02215
"4134",80.706795,82.035484
"4135",80.72144,82.04882
"4136",80.89479,82.06216
"4137",81.20241,82.07549
"4138",81.59548,82.08883
"4139",82.005646,82.102165
"4140",82.371864,82.1155
"4141",82.6453,82.12884
"4142",82.78935,82.14217
"4143",82.78203,82.15551
"4144",82.62333,82.168846
"4145",82.33036,82.18218
"4146",81.934845,82.19552
"4147",81.461205,82.208855
"4148",80.95094,82.22219
"4149",80.43824,82.23553
"4150",79.94507,82.24886
"4151",79.49828,82.2622
"4152",79.10765,82.275536
"4153",78.785385,82.28887
"4154",78.52659,82.30221
"4155",78.34348,82.315544
"4156",78.22385,82.32888
"4157",78.15549,82.34222
"4158",78.12375,82.35555
"4159",78.118866,82.36889
"4160",78.12619,82.382225
"4161",78.14084,82.39556
"4162",78.153046,82.4089
"4163",78.16037,82.42223
"4164",78.16525,82.43557
"4165",78.16037,82.448906
"4166",78.150604,82.46224
"4167",78.14084,82.47558
"4168",78.12619,82.488914
"4169",78.10666,82.50225
"4170",78.082245,82.51559
"4171",78.04562,82.52892
"4172",77.99924,82.54226
"4173",77.945526,82.555595
"4174",77.88449,82.56893
"4175",77.821014,82.58227
"4176",77.7551,82.595604
"4177",77.68917,82.60894
"4178",77.62325,82.62228
"4179",77.55978,82.63561
"4180",77.49386,82.64895
"4181",77.42794,82.662285
"4182",77.35958,82.67562
"4183",77.28634,82.68896
"4184",77.205765,82.70229
"4185",77.120316,82.71563
"4186",77.0251,82.728966
"4187",76.925,82.7423
"4188",76.82979,82.75564
"4189",76.76875,82.768974
"4190",76.80293,82.78231
"4191",77.03731,82.79565
"4192",77.57931,82.80898
"4193",78.49973,82.82232
"4194",79.78882,82.835655
"4195",81.3489,82.84899
"4196",83.001755,82.86233
"4197",84.54963,82.87566
"4198",85.81918,82.889
"4199",86.70298,82.902336
"4200",87.16197,82.91567
"4201",87.218124,82.92901
"4202",86.9276,82.942345
"4203",86.36118,82.95568
"4204",85.61166,82.96902
"4205",84.76448,82.98235
"4206",83.90509,82.99569
"4207",83.087204,83.009026
"4208",82.34989,83.02236
"4209",81.71755,83.0357
"4210",81.20729,83.049034
"4211",80.831314,83.06237
"4212",80.601814,83.07571
"4213",80.533455,83.08904
"4214",80.62623,83.10238
"4215",80.850845,83.115715
"4216",81.16823,83.12905
"4217",81.52468,83.14239
"4218",81.864044,83.15572
"4219",82.13504,83.16906
"4220",82.29374,83.182396
"4221",82.31083,83.19573
"4222",82.176544,83.20907
"4223",81.90555,83.222404
"4224",81.529564,83.23574
"4225",81.077896,83.24908
"4226",80.58961,83.26241
"4227",80.10132,83.27575
"4228",79.639885,83.289085
"4229",79.217514,83.30242
"4230",78.856186,83.31576
"4231",78.56321,83.329094
"4232",78.33616,83.34243
"4233",78.167694,83.35577
"4234",78.05295,83.3691
"4235",77.98215,83.38244
"4236",77.94064,83.395775
"4237",77.91379,83.40911
"4238",77.89914,83.42245
"4239",77.88693,83.43578
"4240",77.874725,83.44912
"4241",77.86008,83.462456
"4242",77.840546,83.47579
"4243",77.81857,83.48913
"4244",77.789276,83.502464
"4245",77.752655,83.5158
"4246",77.71114,83.52914
"4247",77.6672,83.54247
"4248",77.62325,83.55581
"4249",77.57931,83.569145
"4250",77.53048,83.58248
"4251",77.47677,83.59582
"4252",77.420616,83.60915
"4253",77.36202,83.62249
"4254",77.298546,83.635826
"4255",77.23262,83.64916
"4256",77.16426,83.6625
"4257",77.0959,83.675835
"4258",77.02998,83.68917
"4259",76.96651,83.70251
"4260",76.90059,83.71584
"4261",76.83711,83.72918
"4262",76.76875,83.742516
"4263",76.69062,83.75585
"4264",76.60273,83.76919
"4265",76.51972,83.782524
"4266",76.46113,83.79586
"4267",76.490425,83.8092
"4268",76.70283,83.82253
"4269",77.21065,83.83587
"4270",78.082245,83.849205
"4271",79.31518,83.86254
"4272",80.82399,83.87588
"4273",82.44022,83.88921
"4274",83.966125,83.90255
"4275",85.22835,83.915886
"4276",86.10727,83.92922
"4277",86.56626,83.94256
"4278",86.61753,83.955894
"4279",86.32212,83.96923
"4280",85.76303,83.98257
"4281",85.04768,83.9959
"4282",84.266426,84.00924
"4283",83.50713,84.022575
"4284",82.82597,84.03591
"4285",82.252235,84.04925
"4286",81.79324,84.062584
"4287",81.43191,84.07592
"4288",81.1487,84.08926
"4289",80.94118,84.10259
"4290",80.80202,84.11593
"4291",80.73853,84.129265
"4292",80.7483,84.1426
"4293",80.82155,84.15594
"4294",80.94118,84.16927
"4295",81.07057,84.18261
"4296",81.17311,84.195946
"4297",81.22194,84.20928
"4298",81.19508,84.22262
"4299",81.08278,84.235954
"4300",80.88258,84.24929
"4301",80.60914,84.26263
"4302",80.28443,84.27596
"4303",79.92798,84.2893
"4304",79.56176,84.302635
"4305",79.21019,84.31597
"4306",78.88548,84.32931
"4307",78.59495,84.34264
"4308",78.345924,84.35598
"4309",78.14328,84.369316
"4310",77.979706,84.38265
"4311",77.855194,84.39599
"4312",77.76486,84.409325
"4313",77.70626,84.42266
"4314",77.6672,84.436
"4315",77.65011,84.44933
"4316",77.642784,84.46267
"4317",77.645226,84.476006
"4318",77.65255,84.48934
"4319",77.659874,84.50268
"4320",77.6672,84.516014
"4321",77.67696,84.52935
"4322",77.679405,84.54269
"4323",77.68185,84.55602
"4324",77.67696,84.56936
"4325",77.662315,84.582695
"4326",77.64034,84.59603
"4327",77.61593,84.60937
"4328",77.58663,84.6227
"4329",77.55245,84.63604
"4330",77.50851,84.649376
"4331",77.46212,84.66271
"4332",77.41329,84.67605
"4333",77.36202,84.689384
"4334",77.30587,84.70272
"4335",77.25216,84.71606
"4336",77.20088,84.72939
"4337",77.154495,84.74273
"4338",77.120316,84.756065
"4339",77.103226,84.7694
"4340",77.100784,84.78274
"4341",77.10567,84.796074
"4342",77.11543,84.80941
"4343",77.13008,84.82275
"4344",77.152054,84.83608
"4345",77.17891,84.84942
"4346",77.21797,84.862755
"4347",77.261925,84.87609
"4348",77.30587,84.88943
"4349",77.34005,84.90276
"4350",77.35714,84.9161
"4351",77.35714,84.929436
"4352",77.33761,84.94277
"4353",77.31075,84.95611
"4354",77.298546,84.969444
"4355",77.34249,84.98278
"4356",77.5378,84.99612
"4357",78.00168,85.00945
"4358",78.82201,85.02279
"4359",80.01831,85.036125
"4360",81.514915,85.04946
"4361",83.15556,85.0628
"4362",84.72541,85.07613
"4363",86.03403,85.08947
"4364",86.959335,85.102806
"4365",87.46227,85.11614
"4366",87.55993,85.12948
"4367",87.31579,85.142815
"4368",86.80797,85.15615
"4369",86.14145,85.16949
"4370",85.40902,85.18282
"4371",84.69123,85.19616
"4372",84.051575,85.209496
"4373",83.52422,85.22283
"4374",83.11162,85.23617
"4375",82.794235,85.249504
"4376",82.547646,85.26284
"4377",82.34745,85.27618
"4378",82.176544,85.28951
"4379",82.03494,85.30285
"4380",81.92996,85.316185
"4381",81.87137,85.32952
"4382",81.8616,85.34286
"4383",81.883575,85.35619
"4384",81.917755,85.36953
"4385",81.93973,85.382866
"4386",81.9202,85.3962
"4387",81.83963,85.40954
"4388",81.6907,85.422874
"4389",81.47097,85.43621
"4390",81.19508,85.44955
"4391",80.87526,85.46288
"4392",80.52613,85.47622
"4393",80.16968,85.489555
"4394",79.82544,85.50289
"4395",79.50317,85.51623
"4396",79.21507,85.529564
"4397",78.97093,85.5429
"4398",78.77562,85.55624
"4399",78.61692,85.56957
"4400",78.49729,85.58291
"4401",78.4094,85.596245
"4402",78.35081,85.60958
"4403",78.3093,85.62292
"4404",78.28001,85.63625
"4405",78.26292,85.64959
"4406",78.25071,85.662926
"4407",78.238495,85.67626
"4408",78.22385,85.6896
"4409",78.21408,85.702934
"4410",78.20187,85.71627
"4411",78.187225,85.72961
"4412",78.167694,85.74294
"4413",78.14572,85.75628
"4414",78.11154,85.769615
"4415",78.07248,85.78295
"4416",78.02121,85.79629
"4417",77.96506,85.80962
"4418",77.90646,85.82296
"4419",77.84543,85.836296
"4420",77.786835,85.84963
"4421",77.72823,85.86297
"4422",77.67696,85.876305
"4423",77.628136,85.88964
"4424",77.57931,85.90298
"4425",77.5378,85.91631
"4426",77.506065,85.92965
"4427",77.47921,85.942986
"4428",77.454796,85.95632
"4429",77.44259,85.96966
"4430",77.435265,85.982994
"4431",77.437706,85.99633
"4432",77.44015,86.00967
"4433",77.44503,86.023
"4434",77.44991,86.03634
"4435",77.45968,86.049675
"4436",77.47433,86.06301
"4437",77.49386,86.07635
"4438",77.51827,86.08968
"4439",77.55001,86.10302
"4440",77.57931,86.116356
"4441",77.61349,86.12969
"4442",77.69161,86.156364
"4443",77.733116,86.1697
"4444",77.77219,86.18304
"4445",77.80148,86.19637
"4446",77.81369,86.20971
"4447",77.803925,86.223045
"4448",77.769745,86.23638
"4449",77.72091,86.24972
"4450",77.659874,86.263054
"4451",77.61349,86.27639
"4452",77.64034,86.28973
"4453",77.85031,86.30306
"4454",78.36057,86.3164
"4455",79.273674,86.329735
"4456",80.59693,86.34307
"4457",82.23514,86.35641
"4458",84.00275,86.36974
"4459",85.677574,86.38308
"4460",87.05699,86.396416
"4461",88.02136,86.40975
"4462",88.53651,86.42309
"4463",88.62684,86.436424
"4464",88.35584,86.44976
"4465",87.818726,86.4631
"4466",87.10338,86.47643
"4467",86.30503,86.48977
"4468",85.50912,86.503105
"4469",84.77913,86.51644
"4470",84.156555,86.52978
"4471",83.65118,86.54311
"4472",83.25567,86.55645
"4473",82.948044,86.569786
"4474",82.70878,86.58312
"4475",82.52079,86.59646
"4476",82.391396,86.609795
"4477",82.31571,86.62313
"4478",82.30106,86.63647
"4479",82.33036,86.6498
"4480",82.38407,86.66314
"4481",82.43534,86.676476
"4482",82.4622,86.68981
"4483",82.43778,86.70315
"4484",82.34745,86.716484
"4485",82.18387,86.72982
"4486",81.94705,86.74316
"4487",81.64675,86.75649
"4488",81.30007,86.76983
"4489",80.92409,86.783165
"4490",80.54078,86.7965
"4491",80.16968,86.80984
"4492",79.82544,86.82317
"4493",79.51049,86.83651
"4494",79.234604,86.849846
"4495",78.995346,86.86318
"4496",78.79271,86.87652
"4497",78.63157,86.889854
"4498",78.504616,86.90319
"4499",78.4094,86.91653
"4500",78.34104,86.92986
"4501",78.28977,86.9432
"4502",78.25071,86.956535
"4503",78.21896,86.96987
"4504",78.19455,86.98321
"4505",78.17502,86.996544
"4506",78.16037,87.00988
"4507",78.14328,87.02322
"4508",78.12131,87.03655
"4509",78.09201,87.04989
"4510",78.05295,87.063225
"4511",78.00412,87.07656
"4512",77.94064,87.0899
"4513",77.8674,87.10323
"4514",77.786835,87.11657
"4515",77.70382,87.129906
"4516",77.61593,87.14324
"4517",77.53536,87.15658
"4518",77.45968,87.169914
"4519",77.38888,87.18325
"4520",77.315636,87.19659
"4521",77.24971,87.20992
"4522",77.18623,87.22326
"4523",77.1252,87.236595
"4524",77.07149,87.24993
"4525",77.02754,87.26327
"4526",76.98848,87.2766
"4527",76.95186,87.28994
"4528",76.92012,87.303276
"4529",76.895706,87.31661
"4530",76.88106,87.32995
"4531",76.876175,87.343285
"4532",76.88838,87.35662
"4533",76.910355,87.36996
"4534",76.93965,87.38329
"4535",76.97627,87.39663
"4536",77.02022,87.409966
"4537",77.05928,87.4233
"4538",77.09102,87.43664
"4539",77.10567,87.449974
"4540",77.103226,87.46331
"4541",77.08125,87.47665
"4542",77.03731,87.48998
"4543",76.9836,87.50332
"4544",76.93721,87.516655
"4545",76.94209,87.52999
"4546",77.10567,87.54333
"4547",77.574425,87.55666
"4548",78.46311,87.57
"4549",79.80347,87.583336
"4550",81.514915,87.59667
"4551",83.404594,87.61001
"4552",85.23079,87.623344
"4553",86.76402,87.63668
"4554",87.86511,87.65002
"4555",88.48768,87.66335
