"","ppg","time"
"1",82.92607,459.0188
"2",82.230255,459.0321
"3",81.6321,459.0454
"4",81.13405,459.05872
"5",80.743416,459.07202
"6",80.47242,459.08533
"7",80.31861,459.09863
"8",80.274666,459.11194
"9",80.31373,459.12524
"10",80.39918,459.13855
"11",80.482185,459.15186
"12",80.52857,459.16516
"13",80.50904,459.17847
"14",80.42115,459.19177
"15",80.257576,459.20508
"16",80.03784,459.21838
"17",79.77661,459.2317
"18",79.50317,459.245
"19",79.234604,459.2583
"20",78.98558,459.2716
"21",78.77074,459.2849
"22",78.590065,459.29822
"23",78.43626,459.31152
"24",78.30686,459.32483
"25",78.20187,459.33813
"26",78.116425,459.35144
"27",78.05051,459.36475
"28",78.00412,459.37805
"29",77.96994,459.39136
"30",77.94797,459.40466
"31",77.93332,459.41797
"32",77.925995,459.43127
"33",77.92844,459.44458
"34",77.93332,459.4579
"35",77.9382,459.4712
"36",77.943085,459.4845
"37",77.943085,459.4978
"38",77.9382,459.5111
"39",77.91867,459.5244
"40",77.89426,459.53772
"41",77.86252,459.55103
"42",77.83322,459.56433
"43",77.855194,459.57764
"44",78.028534,459.59094
"45",78.49241,459.60425
"46",79.3518,459.61755
"47",80.6067,459.63086
"48",82.13748,459.64417
"49",83.71221,459.65747
"50",85.050125,459.67078
"51",85.93881,459.68408
"52",86.28794,459.6974
"53",86.14633,459.7107
"54",85.63851,459.724
"55",84.90608,459.7373
"56",84.085754,459.7506
"57",83.26055,459.76392
"58",82.48661,459.77722
"59",81.78836,459.79053
"60",81.1902,459.80383
"61",80.71168,459.81714
"62",80.360115,459.83044
"63",80.14038,459.84375
"64",80.05493,459.85706
"65",80.079346,459.87036
"66",80.17456,459.88367
"67",80.2942,459.89697
"68",80.39185,459.91028
"69",80.4358,459.92358
"70",80.40406,459.9369
"71",80.289314,459.9502
"72",80.10376,459.9635
"73",79.86694,459.9768
"74",79.59594,459.9901
"75",79.31762,460.00342
"76",79.05394,460.01672
"77",78.8098,460.03003
"78",78.59739,460.04333
"79",78.41917,460.05664
"80",78.277565,460.06995
"81",78.15793,460.08325
"82",78.06271,460.09656
"83",77.98703,460.10986
"84",77.92844,460.12317
"85",77.88205,460.13647
"86",77.85275,460.14978
"87",77.840546,460.1631
"88",77.84543,460.1764
"89",77.857635,460.1897
"90",77.872284,460.203
"91",77.874725,460.2163
"92",77.872284,460.2296
"93",77.86496,460.24292
"94",77.857635,460.25623
"95",77.84787,460.26953
"96",77.84787,460.28284
"97",77.87717,460.29614
"98",78.011444,460.30945
"99",78.37522,460.32275
"100",79.08812,460.33606
"101",80.19409,460.34937
"102",81.61013,460.36267
"103",83.12871,460.37598
"104",84.488594,460.38928
"105",85.45785,460.4026
"106",85.9144,460.4159
"107",85.87045,460.4292
"108",85.44076,460.4425
"109",84.76692,460.4558
"110",83.97345,460.46912
"111",83.15068,460.48242
"112",82.36454,460.49573
"113",81.64675,460.50903
"114",81.024185,460.52234
"115",80.516365,460.53564
"116",80.13306,460.54895
"117",79.88159,460.56226
"118",79.76929,460.57556
"119",79.77173,460.58887
"120",79.86206,460.60217
"121",79.99634,460.61548
"122",80.128174,460.62878
"123",80.20874,460.6421
"124",80.20874,460.6554
"125",80.12329,460.6687
"126",79.96216,460.682
"127",79.73998,460.6953
"128",79.483635,460.70862
"129",79.21019,460.72192
"130",78.94408,460.73523
"131",78.70237,460.74854
"132",78.49485,460.76184
"133",78.31907,460.77515
"134",78.17258,460.78845
"135",78.05295,460.80176
"136",77.95285,460.81506
"137",77.874725,460.82837
"138",77.821014,460.84167
"139",77.789276,460.85498
"140",77.7673,460.8683
"141",77.75998,460.8816
"142",77.75998,460.8949
"143",77.77707,460.9082
"144",77.806366,460.9215
"145",77.84543,460.9348
"146",77.88449,460.94812
"147",77.91867,460.96143
"148",77.945526,460.97473
"149",77.96506,460.98804
"150",78.00412,461.00134
"151",78.12375,461.01465
"152",78.44114,461.02795
"153",79.078354,461.04126
"154",80.093994,461.05457
"155",81.427025,461.06787
"156",82.90898,461.08118
"157",84.283516,461.09448
"158",85.30648,461.1078
"159",85.83627,461.1211
"160",85.86069,461.1344
"161",85.47982,461.1477
"162",84.82796,461.161
"163",84.03937,461.17432
"164",83.21904,461.18762
"165",82.425575,461.20093
"166",81.6907,461.21423
"167",81.05104,461.22754
"168",80.51881,461.24084
"169",80.113525,461.25415
"170",79.84009,461.26746
"171",79.7058,461.28076
"172",79.69604,461.29407
"173",79.783936,461.30737
"174",79.93042,461.32068
"175",80.08911,461.33398
"176",80.216064,461.3473
"177",80.28199,461.3606
"178",80.26002,461.3739
"179",80.15259,461.3872
"180",79.97681,461.4005
"181",79.74975,461.41382
"182",79.49828,461.42712
"183",79.24193,461.44043
"184",78.99779,461.45374
"185",78.77806,461.46704
"186",78.590065,461.48035
"187",78.43137,461.49365
"188",78.30442,461.50696
"189",78.204315,461.52026
"190",78.12619,461.53357
"191",78.07248,461.54688
"192",78.04074,461.56018
"193",78.030975,461.5735
"194",78.03586,461.5868
"195",78.05051,461.6001
"196",78.07248,461.6134
"197",78.09689,461.6267
"198",78.12375,461.64
"199",78.14572,461.65332
"200",78.16281,461.66663
"201",78.170135,461.67993
"202",78.17746,461.69324
"203",78.22629,461.70654
"204",78.40452,461.71985
"205",78.84154,461.73315
"206",79.635,461.74646
"207",80.79225,461.75977
"208",82.20584,461.77307
"209",83.6585,461.78638
"210",84.893875,461.79968
"211",85.70931,461.813
"212",86.01938,461.8263
"213",85.872894,461.8396
"214",85.38705,461.8529
"215",84.70344,461.8662
"216",83.946594,461.87952
"217",83.19707,461.89282
"218",82.49882,461.90613
"219",81.87381,461.91943
"220",81.33425,461.93274
"221",80.88991,461.94604
"222",80.5481,461.95935
"223",80.32105,461.97266
"224",80.20874,461.98596
"225",80.19409,461.99927
"226",80.2478,462.01257
"227",80.33082,462.02588
"228",80.39918,462.03918
"229",80.42603,462.0525
"230",80.38453,462.0658
"231",80.26978,462.0791
"232",80.08911,462.0924
"233",79.85474,462.1057
"234",79.59594,462.11902
"235",79.33715,462.13232
"236",79.093,462.14563
"237",78.86839,462.15894
"238",78.6804,462.17224
"239",78.52415,462.18555
"240",78.39475,462.19885
"241",78.28001,462.21216
"242",78.184784,462.22546
"243",78.10422,462.23877
"244",78.03586,462.25208
"245",77.98703,462.26538
"246",77.962616,462.2787
"247",77.960175,462.292
"248",77.97238,462.3053
"249",77.99191,462.3186
"250",78.009,462.3319
"251",78.02365,462.3452
"252",78.030975,462.35852
"253",78.03586,462.37183
"254",78.030975,462.38513
"255",78.03342,462.39844
"256",78.10422,462.41174
"257",78.36057,462.42505
"258",78.93675,462.43835
"259",79.90112,462.45166
"260",81.20729,462.46497
"261",82.686806,462.47827
"262",84.09064,462.49158
"263",85.17464,462.50488
"264",85.78256,462.5182
"265",85.89975,462.5315
"266",85.61898,462.5448
"267",85.07942,462.5581
"268",84.41535,462.5714
"269",83.73174,462.58472
"270",83.08232,462.59802
"271",82.50126,462.61133
"272",81.986115,462.62463
"273",81.53445,462.63794
"274",81.1487,462.65125
"275",80.84108,462.66455
"276",80.61402,462.67786
"277",80.4773,462.69116
"278",80.41871,462.70447
"279",80.41871,462.71777
"280",80.43824,462.73108
"281",80.445564,462.7444
"282",80.411385,462.7577
"283",80.325935,462.771
"284",80.181885,462.7843
"285",79.98901,462.7976
"286",79.76196,462.8109
"287",79.51537,462.82422
"288",79.27123,462.83752
"289",79.03441,462.85083
"290",78.81712,462.86414
"291",78.62913,462.87744
"292",78.46555,462.89075
"293",78.32395,462.90405
"294",78.20676,462.91736
"295",78.11154,462.93066
"296",78.03586,462.94397
"297",77.979706,462.95728
"298",77.9382,462.97058
"299",77.908905,462.9839
"300",77.88937,462.9972
"301",77.88205,463.0105
"302",77.88205,463.0238
"303",77.88693,463.0371
"304",77.88449,463.0504
"305",77.872284,463.06372
"306",77.84787,463.07703
"307",77.83322,463.09033
"308",77.88937,463.10364
"309",78.12131,463.11694
"310",78.658424,463.13025
"311",79.57641,463.14355
"312",80.83864,463.15686
"313",82.28397,463.17017
"314",83.682915,463.18347
"315",84.788895,463.19678
"316",85.44076,463.21008
"317",85.61898,463.2234
"318",85.40658,463.2367
"319",84.945145,463.25
"320",84.36652,463.2633
"321",83.775696,463.2766
"322",83.226364,463.28992
"323",82.72831,463.30322
"324",82.27177,463.31653
"325",81.85184,463.32983
"326",81.46609,463.34314
"327",81.12428,463.35645
"328",80.84596,463.36975
"329",80.638435,463.38306
"330",80.50416,463.39636
"331",80.42359,463.40967
"332",80.37965,463.42297
"333",80.343025,463.43628
"334",80.2942,463.4496
"335",80.20386,463.4629
"336",80.0647,463.4762
"337",79.87671,463.4895
"338",79.64721,463.5028
"339",79.40551,463.5161
"340",79.166245,463.52942
"341",78.94652,463.54272
"342",78.746315,463.55603
"343",78.572975,463.56934
"344",78.41917,463.58264
"345",78.27512,463.59595
"346",78.14084,463.60925
"347",78.01877,463.62256
"348",77.90402,463.63586
"349",77.806366,463.64917
"350",77.73556,463.66248
"351",77.69161,463.67578
"352",77.67208,463.6891
"353",77.6672,463.7024
"354",77.66964,463.7157
"355",77.6672,463.729
"356",77.65743,463.7423
"357",77.642784,463.7556
"358",77.62081,463.76892
"359",77.5964,463.78223
"360",77.56954,463.79553
"361",77.576866,463.80884
"362",77.70138,463.82214
"363",78.07492,463.83545
"364",78.80736,463.84875
"365",79.920654,463.86206
"366",81.307396,463.87537
"367",82.7625,463.88867
"368",84.03937,463.90198
"369",84.91829,463.91528
"370",85.31869,463.9286
"371",85.29916,463.9419
"372",84.98909,463.9552
"373",84.51789,463.9685
"374",83.99786,463.9818
"375",83.50713,463.99512
"376",83.06035,464.00842
"377",82.64774,464.02173
"378",82.25468,464.03503
"379",81.87625,464.04834
"380",81.50759,464.06165
"381",81.16579,464.07495
"382",80.86305,464.08826
"383",80.618904,464.10156
"384",80.4358,464.11487
"385",80.31129,464.12817
"386",80.22095,464.14148
"387",80.15259,464.1548
"388",80.08423,464.1681
"389",79.99634,464.1814
"390",79.87427,464.1947
"391",79.708244,464.208
"392",79.50561,464.2213
"393",79.26879,464.23462
"394",79.0222,464.24792
"395",78.77806,464.26123
"396",78.56077,464.27454
"397",78.35813,464.28784
"398",78.17502,464.30115
"399",78.01877,464.31445
"400",77.88693,464.32776
"401",77.77707,464.34106
"402",77.69161,464.35437
"403",77.625694,464.36768
"404",77.57198,464.38098
"405",77.51827,464.3943
"406",77.467,464.4076
"407",77.43038,464.4209
"408",77.40841,464.4342
"409",77.401085,464.4475
"410",77.40353,464.46082
"411",77.40597,464.47412
"412",77.40597,464.48743
"413",77.39864,464.50073
"414",77.383995,464.51404
"415",77.36446,464.52734
"416",77.33761,464.54065
"417",77.315636,464.55396
"418",77.33517,464.56726
"419",77.488976,464.58057
"420",77.91379,464.59387
"421",78.72434,464.60718
"422",79.93042,464.62048
"423",81.409935,464.6338
"424",82.930954,464.6471
"425",84.224915,464.6604
"426",85.09163,464.6737
"427",85.46761,464.687
"428",85.42611,464.70032
"429",85.103836,464.71362
"430",84.6424,464.72693
"431",84.156555,464.74023
"432",83.700005,464.75354
"433",83.282524,464.76685
"434",82.896774,464.78015
"435",82.52323,464.79346
"436",82.14725,464.80676
"437",81.76639,464.82007
"438",81.40017,464.83337
"439",81.07057,464.84668
"440",80.80446,464.86
"441",80.61158,464.8733
"442",80.482185,464.8866
"443",80.40162,464.8999
"444",80.34058,464.9132
"445",80.26978,464.9265
"446",80.17456,464.93982
"447",80.0354,464.95312
"448",79.85474,464.96643
"449",79.64477,464.97974
"450",79.41772,464.99304
"451",79.17601,465.00635
"452",78.941635,465.01965
"453",78.712135,465.03296
"454",78.504616,465.04626
"455",78.31663,465.05957
"456",78.15549,465.07288
"457",78.02121,465.08618
"458",77.908905,465.0995
"459",77.81613,465.1128
"460",77.733116,465.1261
"461",77.65743,465.1394
"462",77.58907,465.1527
"463",77.53292,465.16602
"464",77.48409,465.17932
"465",77.44991,465.19263
"466",77.420616,465.20593
"467",77.40353,465.21924
"468",77.38888,465.23254
"469",77.37667,465.24585
"470",77.35958,465.25916
"471",77.347374,465.27246
"472",77.33761,465.28577
"473",77.330284,465.29907
"474",77.32052,465.31238
"475",77.31075,465.32568
"476",77.29122,465.339
"477",77.27169,465.3523
"478",77.261925,465.3656
"479",77.32784,465.3789
"480",77.58663,465.3922
"481",78.18234,465.40552
"482",79.183334,465.41882
"483",80.550545,465.43213
"484",82.11307,465.44543
"485",83.617,465.45874
"486",84.8011,465.47205
"487",85.51156,465.48535
"488",85.72884,465.49866
"489",85.56039,465.51196
"490",85.16243,465.52527
"491",84.67658,465.53857
"492",84.19806,465.55188
"493",83.77081,465.5652
"494",83.39727,465.5785
"495",83.04814,465.5918
"496",82.69657,465.6051
"497",82.32792,465.6184
"498",81.951935,465.6317
"499",81.59304,465.64502
"500",81.27566,465.65833
"501",81.01686,465.67163
"502",80.82887,465.68494
"503",80.70191,465.69824
"504",80.61158,465.71155
"505",80.533455,465.72485
"506",80.44312,465.73816
"507",80.31861,465.75146
"508",80.15503,465.76477
"509",79.94995,465.77808
"510",79.71557,465.79138
"511",79.4641,465.8047
"512",79.20775,465.818
"513",78.96361,465.8313
"514",78.73655,465.8446
"515",78.52903,465.8579
"516",78.34104,465.87122
"517",78.17258,465.88452
"518",78.02609,465.89783
"519",77.90402,465.91113
"520",77.79904,465.92444
"521",77.71114,465.93774
"522",77.63546,465.95105
"523",77.56954,465.96436
"524",77.51095,465.97766
"525",77.46212,465.99097
"526",77.42306,466.00427
"527",77.39132,466.01758
"528",77.35958,466.03088
"529",77.330284,466.0442
"530",77.30099,466.0575
"531",77.279015,466.0708
"532",77.25704,466.0841
"533",77.24727,466.0974
"534",77.23506,466.11072
"535",77.22041,466.12402
"536",77.20332,466.13733
"537",77.19356,466.15063
"538",77.19112,466.16394
"539",77.2375,466.17725
"540",77.4255,466.19055
"541",77.88693,466.20386
"542",78.72678,466.21716
"543",79.954834,466.23047
"544",81.45876,466.24377
"545",83.004196,466.25708
"546",84.32746,466.2704
"547",85.21614,466.2837
"548",85.609215,466.297
"549",85.57259,466.3103
"550",85.243,466.3236
"551",84.76692,466.3369
"552",84.25422,466.35022
"553",83.77081,466.36353
"554",83.33379,466.37683
"555",82.93828,466.39014
"556",82.562294,466.40344
"557",82.193634,466.41675
"558",81.829865,466.43005
"559",81.48318,466.44336
"560",81.17555,466.45667
"561",80.92653,466.46997
"562",80.74586,466.48328
"563",80.621346,466.49658
"564",80.5359,466.5099
"565",80.46754,466.5232
"566",80.38697,466.5365
"567",80.274666,466.5498
"568",80.12085,466.5631
"569",79.93286,466.57642
"570",79.71313,466.58972
"571",79.47631,466.60303
"572",79.22728,466.61633
"573",78.97826,466.62964
"574",78.73655,466.64294
"575",78.50706,466.65625
"576",78.29954,466.66956
"577",78.118866,466.68286
"578",77.96506,466.69617
"579",77.83566,466.70947
"580",77.730675,466.72278
"581",77.642784,466.73608
"582",77.57198,466.7494
"583",77.51827,466.7627
"584",77.48409,466.776
"585",77.46212,466.7893
"586",77.454796,466.8026
"587",77.45724,466.81592
"588",77.45968,466.82922
"589",77.454796,466.84253
"590",77.44259,466.85583
"591",77.41573,466.86914
"592",77.383995,466.88245
"593",77.37179,466.89575
"594",77.43038,466.90906
"595",77.66476,466.92236
"596",78.204315,466.93567
"597",79.11986,466.94897
"598",80.37232,466.96228
"599",81.80789,466.9756
"600",83.20195,466.9889
"601",84.31281,467.0022
"602",84.979324,467.0155
"603",85.17952,467.0288
"604",84.99153,467.0421
"605",84.56428,467.05542
"606",84.02228,467.06873
"607",83.47295,467.08203
"608",82.96025,467.09534
"609",82.496376,467.10864
"610",82.06424,467.12195
"611",81.65896,467.13525
"612",81.28298,467.14856
"613",80.95094,467.16187
"614",80.69215,467.17517
"615",80.51148,467.18848
"616",80.40894,467.20178
"617",80.360115,467.2151
"618",80.35279,467.2284
"619",80.343025,467.2417
"620",80.31617,467.255
"621",80.24292,467.2683
"622",80.113525,467.28162
"623",79.920654,467.29492
"624",79.68383,467.30823
"625",79.42016,467.32153
"626",79.15648,467.33484
"627",78.90257,467.34814
"628",78.66819,467.36145
"629",78.45579,467.37476
"630",78.26292,467.38806
"631",78.09689,467.40137
"632",77.95529,467.41467
"633",77.84299,467.42798
"634",77.75754,467.44128
"635",77.68917,467.4546
"636",77.6379,467.4679
"637",77.593956,467.4812
"638",77.55489,467.4945
"639",77.51339,467.5078
"640",77.47921,467.52112
"641",77.49142,467.53442
"642",77.64767,467.54773
"643",78.065155,467.56104
"644",78.83177,467.57434
"645",79.94751,467.58765
"646",81.29275,467.60095
"647",82.650185,467.61426
"648",83.792786,467.62756
"649",84.54719,467.64087
"650",84.86458,467.65417
"651",84.79378,467.66748
"652",84.44465,467.6808
"653",83.94171,467.6941
"654",83.38018,467.7074
"655",82.81621,467.7207
"656",82.27665,467.734
"657",81.77127,467.7473
"658",81.30984,467.76062
"659",80.89479,467.77393
"660",80.54322,467.78723
"661",80.27955,467.80054
"662",80.111084,467.81384
"663",80.0354,467.82715
"664",80.028076,467.84045
"665",80.062256,467.85376
"666",80.096436,467.86707
"667",80.096436,467.88037
"668",80.0354,467.89368
"669",79.91089,467.90698
"670",79.72045,467.9203
"671",79.48119,467.9336
"672",79.21019,467.9469
"673",78.93431,467.9602
"674",78.66819,467.9735
"675",78.42161,467.98682
"676",78.20187,468.00012
"677",78.01633,468.01343
"678",77.86008,468.02673
"679",77.72579,468.04004
"680",77.61349,468.05334
"681",77.523155,468.06665
"682",77.44015,468.07996
"683",77.36935,468.09326
"684",77.30831,468.10657
"685",77.26681,468.11987
"686",77.298546,468.13318
"687",77.51583,468.14648
"688",78.04562,468.1598
"689",78.95628,468.1731
"690",80.21362,468.1864
"691",81.66384,468.1997
"692",83.07744,468.213
"693",84.21271,468.22632
"694",84.91585,468.23962
"695",85.155106,468.25293
"696",85.00618,468.26624
"697",84.593575,468.27954
"698",84.03937,468.29285
"699",83.438774,468.30615
"700",82.85527,468.31946
"701",82.31083,468.33276
"702",81.80545,468.34607
"703",81.339134,468.35938
"704",80.91432,468.37268
"705",80.54566,468.386
"706",80.26246,468.3993
"707",80.07446,468.4126
"708",79.97925,468.4259
"709",79.95972,468.4392
"710",79.98169,468.4525
"711",79.99878,468.46582
"712",79.97925,468.47913
"713",79.906006,468.49243
"714",79.77173,468.50574
"715",79.57885,468.51904
"716",79.33715,468.53235
"717",79.061264,468.54565
"718",78.77074,468.55896
"719",78.487526,468.57227
"720",78.22873,468.58557
"721",78.00656,468.59888
"722",77.81857,468.61218
"723",77.662315,468.6255
"724",77.52804,468.6388
"725",77.40841,468.6521
"726",77.30343,468.6654
"727",77.21553,468.6787
"728",77.13985,468.69202
"729",77.07881,468.70532
"730",77.0544,468.71863
"731",77.14717,468.73193
"732",77.48165,468.74524
"733",78.18234,468.75854
"734",79.27856,468.77185
"735",80.68482,468.78516
"736",82.2034,468.79846
"737",83.580376,468.81177
"738",84.58625,468.82507
"739",85.11604,468.83838
"740",85.186844,468.85168
"741",84.910965,468.865
"742",84.41535,468.8783
"743",83.826965,468.8916
"744",83.226364,468.9049
"745",82.652626,468.9182
"746",82.11795,468.93152
"747",81.62722,468.94482
"748",81.17311,468.95813
"749",80.762955,468.97144
"750",80.413826,468.98474
"751",80.15015,468.99805
"752",79.97681,469.01135
"753",79.89136,469.02466
"754",79.871826,469.03796
"755",79.88159,469.05127
"756",79.88159,469.06458
"757",79.83276,469.07788
"758",79.725334,469.0912
"759",79.554436,469.1045
"760",79.33227,469.1178
"761",79.07103,469.1311
"762",78.79515,469.1444
"763",78.51682,469.1577
"764",78.25071,469.17102
"765",78.00656,469.18433
"766",77.7966,469.19763
"767",77.62081,469.21094
"768",77.47433,469.22424
"769",77.35958,469.23755
"770",77.264366,469.25085
"771",77.188675,469.26416
"772",77.11543,469.27747
"773",77.04707,469.29077
"774",76.981155,469.30408
"775",76.944534,469.31738
"776",77.00801,469.3307
"777",77.31075,469.344
"778",77.979706,469.3573
"779",79.061264,469.3706
"780",80.47242,469.3839
"781",82.022736,469.39722
"782",83.4461,469.41052
"783",84.50324,469.42383
"784",85.07942,469.43713
"785",85.19417,469.45044
"786",84.95247,469.46375
"787",84.49348,469.47705
"788",83.93683,469.49036
"789",83.36309,469.50366
"790",82.80644,469.51697
"791",82.27909,469.53027
"792",81.78348,469.54358
"793",81.31472,469.5569
"794",80.88258,469.5702
"795",80.51148,469.5835
"796",80.22583,469.5968
"797",80.04028,469.6101
"798",79.94995,469.6234
"799",79.923096,469.63672
"800",79.92554,469.65002
"801",79.91577,469.66333
"802",79.8645,469.67664
"803",79.7522,469.68994
"804",79.57641,469.70325
"805",79.34692,469.71655
"806",79.078354,469.72986
"807",78.79271,469.74316
"808",78.504616,469.75647
"809",78.23117,469.76978
"810",77.977264,469.78308
"811",77.74532,469.7964
"812",77.54513,469.8097
"813",77.383995,469.823
"814",77.264366,469.8363
"815",77.17891,469.8496
"816",77.12276,469.8629
"817",77.083694,469.87622
"818",77.051956,469.88953
"819",77.02266,469.90283
"820",76.98848,469.91614
"821",76.944534,469.92944
"822",76.92012,469.94275
"823",76.9836,469.95605
"824",77.264366,469.96936
"825",77.89426,469.98267
"826",78.93431,469.99597
"827",80.31373,470.00928
"828",81.83963,470.02258
"829",83.25811,470.0359
"830",84.32746,470.0492
"831",84.92317,470.0625
"832",85.050125,470.0758
"833",84.81575,470.0891
"834",84.3592,470.10242
"835",83.79767,470.11572
"836",83.2166,470.12903
"837",82.650185,470.14233
"838",82.10574,470.15564
"839",81.583275,470.16895
"840",81.09743,470.18225
"841",80.66529,470.19556
"842",80.306404,470.20886
"843",80.04028,470.22217
"844",79.88403,470.23547
"845",79.82544,470.24878
"846",79.82788,470.2621
"847",79.84985,470.2754
"848",79.85962,470.2887
"849",79.818115,470.302
"850",79.69848,470.3153
"851",79.50561,470.3286
"852",79.259026,470.34192
"853",78.9807,470.35522
"854",78.692604,470.36853
"855",78.41428,470.38184
"856",78.153046,470.39514
"857",77.91867,470.40845
"858",77.70626,470.42175
"859",77.523155,470.43506
"860",77.36446,470.44836
"861",77.23506,470.46167
"862",77.14229,470.47498
"863",77.07393,470.48828
"864",77.032425,470.5016
"865",77.00801,470.5149
"866",76.99092,470.5282
"867",76.97139,470.5415
"868",76.946976,470.5548
"869",76.91768,470.5681
"870",76.88106,470.58142
"871",76.86641,470.59473
"872",76.95918,470.60803
"873",77.298546,470.62134
"874",77.99191,470.63464
"875",79.07591,470.64795
"876",80.45289,470.66125
"877",81.917755,470.67456
"878",83.20683,470.68787
"879",84.11261,470.70117
"880",84.53986,470.71448
"881",84.52033,470.72778
"882",84.173645,470.7411
"883",83.63409,470.7544
"884",83.01396,470.7677
"885",82.38651,470.781
"886",81.79324,470.7943
"887",81.23903,470.80762
"888",80.73609,470.82092
"889",80.29664,470.83423
"890",79.9353,470.84753
"891",79.67162,470.86084
"892",79.517815,470.87415
"893",79.47143,470.88745
"894",79.50805,470.90076
"895",79.58129,470.91406
"896",79.64965,470.92737
"897",79.676506,470.94067
"898",79.62768,470.95398
"899",79.49828,470.9673
"900",79.30297,470.9806
"901",79.07103,470.9939
"902",78.82445,471.0072
"903",78.5803,471.0205
"904",78.35325,471.0338
"905",78.14328,471.04712
"906",77.94797,471.06042
"907",77.769745,471.07373
"908",77.62081,471.08704
"909",77.49874,471.10034
"910",77.41329,471.11365
"911",77.36446,471.12695
"912",77.34493,471.14026
"913",77.34249,471.15356
"914",77.347374,471.16687
"915",77.3547,471.18018
"916",77.35714,471.19348
"917",77.349815,471.2068
"918",77.33761,471.2201
"919",77.3254,471.2334
"920",77.32052,471.2467
"921",77.35226,471.26
"922",77.506065,471.27332
"923",77.89914,471.28662
"924",78.63401,471.29993
"925",79.72045,471.31323
"926",81.05592,471.32654
"927",82.43046,471.33984
"928",83.59991,471.35315
"929",84.36652,471.36646
"930",84.64973,471.37976
"931",84.50324,471.39307
"932",84.04913,471.40637
"933",83.42901,471.41968
"934",82.75273,471.43298
"935",82.08865,471.4463
"936",81.46609,471.4596
"937",80.91188,471.4729
"938",80.43336,471.4862
"939",80.05005,471.4995
"940",79.781494,471.51282
"941",79.639885,471.52612
"942",79.61303,471.53943
"943",79.67895,471.55273
"944",79.78882,471.56604
"945",79.89868,471.57935
"946",79.96704,471.59265
"947",79.96704,471.60596
"948",79.88403,471.61926
"949",79.727776,471.63257
"950",79.520256,471.64587
"951",79.28344,471.65918
"952",79.03441,471.6725
"953",78.79027,471.6858
"954",78.56077,471.6991
"955",78.35813,471.7124
"956",78.18234,471.7257
"957",78.04074,471.739
"958",77.93088,471.75232
"959",77.84787,471.76562
"960",77.78195,471.77893
"961",77.72823,471.79224
"962",77.68429,471.80554
"963",77.65011,471.81885
"964",77.62081,471.83215
"965",77.60616,471.84546
"966",77.60616,471.85876
"967",77.625694,471.87207
"968",77.64767,471.88538
"969",77.67208,471.89868
"970",77.69405,471.912
"971",77.74044,471.9253
"972",77.891815,471.9386
"973",78.277565,471.9519
"974",78.99779,471.9652
"975",80.0647,471.97852
"976",81.356224,471.99182
"977",82.667274,472.00513
"978",83.76593,472.01843
"979",84.46174,472.03174
"980",84.68391,472.04504
"981",84.48371,472.05835
"982",83.980774,472.07166
"983",83.29717,472.08496
"984",82.53544,472.09827
"985",81.76883,472.11157
"986",81.0486,472.12488
"987",80.41871,472.13818
"988",79.906006,472.1515
"989",79.53979,472.1648
"990",79.33471,472.1781
"991",79.28832,472.1914
"992",79.37377,472.2047
"993",79.54711,472.21802
"994",79.75708,472.23132
"995",79.94751,472.24463
"996",80.076904,472.25793
"997",80.11597,472.27124
"998",80.05737,472.28455
"999",79.91577,472.29785
"1000",79.70336,472.31116
"1001",79.449455,472.32446
"1002",79.19066,472.33777
"1003",78.94896,472.35107
"1004",78.73411,472.36438
"1005",78.551,472.3777
"1006",78.399635,472.391
"1007",78.27512,472.4043
"1008",78.170135,472.4176
"1009",78.082245,472.4309
"1010",78.01633,472.4442
"1011",77.9675,472.45752
"1012",77.93088,472.47083
"1013",77.90646,472.48413
"1014",77.891815,472.49744
"1015",77.88937,472.51074
"1016",77.891815,472.52405
"1017",77.89914,472.53735
"1018",77.90402,472.55066
"1019",77.908905,472.56396
"1020",77.90646,472.57727
"1021",77.90158,472.59058
"1022",77.93576,472.60388
"1023",78.09201,472.6172
"1024",78.485085,472.6305
"1025",79.21507,472.6438
"1026",80.28199,472.6571
"1027",81.57351,472.6704
"1028",82.879684,472.68372
"1029",83.95636,472.69702
"1030",84.62043,472.71033
"1031",84.808426,472.72363
"1032",84.5716,472.73694
"1033",84.02228,472.75024
"1034",83.28741,472.76355
"1035",82.47196,472.77686
"1036",81.64919,472.79016
"1037",80.87282,472.80347
"1038",80.19653,472.81677
"1039",79.66918,472.83008
"1040",79.31518,472.84338
"1041",79.149155,472.8567
"1042",79.15892,472.87
"1043",79.31274,472.8833
"1044",79.551994,472.8966
"1045",79.818115,472.9099
"1046",80.05737,472.92322
"1047",80.218506,472.93652
"1048",80.27711,472.94983
"1049",80.22827,472.96313
"1050",80.08423,472.97644
"1051",79.871826,472.98975
"1052",79.622795,473.00305
"1053",79.36889,473.01636
"1054",79.13451,473.02966
"1055",78.92699,473.04297
"1056",78.751205,473.05627
"1057",78.607155,473.06958
"1058",78.49241,473.0829
"1059",78.397194,473.0962
"1060",78.32151,473.1095
"1061",78.260475,473.1228
"1062",78.21652,473.1361
"1063",78.187225,473.1494
"1064",78.167694,473.16272
"1065",78.16037,473.17603
"1066",78.16037,473.18933
"1067",78.167694,473.20264
"1068",78.17258,473.21594
"1069",78.170135,473.22925
"1070",78.15549,473.24255
"1071",78.16281,473.25586
"1072",78.26292,473.26917
"1073",78.56809,473.28247
"1074",79.19066,473.29578
"1075",80.15747,473.30908
"1076",81.3782,473.3224
"1077",82.65995,473.3357
"1078",83.78058,473.349
"1079",84.542305,473.3623
"1080",84.842606,473.3756
"1081",84.71076,473.38892
"1082",84.244446,473.40222
"1083",83.55596,473.41553
"1084",82.75029,473.42883
"1085",81.91287,473.44214
"1086",81.10719,473.45544
"1087",80.38941,473.46875
"1088",79.801025,473.48206
"1089",79.378654,473.49536
"1090",79.14427,473.50867
"1091",79.097885,473.52197
"1092",79.217514,473.53528
"1093",79.4519,473.54858
"1094",79.744865,473.5619
"1095",80.03052,473.5752
"1096",80.255135,473.5885
"1097",80.377205,473.6018
"1098",80.38941,473.6151
"1099",80.29908,473.62842
"1100",80.128174,473.64172
"1101",79.906006,473.65503
"1102",79.66186,473.66833
"1103",79.41772,473.68164
"1104",79.183334,473.69495
"1105",78.97826,473.70825
"1106",78.802475,473.72156
"1107",78.66575,473.73486
"1108",78.56565,473.74817
"1109",78.49485,473.76147
"1110",78.44114,473.77478
"1111",78.40208,473.7881
"1112",78.37034,473.8014
"1113",78.345924,473.8147
"1114",78.331276,473.828
"1115",78.32151,473.8413
"1116",78.3093,473.8546
"1117",78.30198,473.86792
"1118",78.30442,473.88123
"1119",78.345924,473.89453
"1120",78.48997,473.90784
"1121",78.84886,473.92114
"1122",79.50317,473.93445
"1123",80.47486,473.94775
"1124",81.67361,473.96106
"1125",82.92607,473.97437
"1126",84.00763,473.98767
"1127",84.72541,474.00098
"1128",84.998856,474.01428
"1129",84.84749,474.0276
"1130",84.36408,474.0409
"1131",83.66338,474.0542
"1132",82.845505,474.0675
"1133",81.99344,474.0808
"1134",81.16823,474.09412
"1135",80.4358,474.10742
"1136",79.84497,474.12073
"1137",79.432365,474.13403
"1138",79.217514,474.14734
"1139",79.19554,474.16064
"1140",79.33227,474.17395
"1141",79.58129,474.18726
"1142",79.87915,474.20056
"1143",80.164795,474.21387
"1144",80.37965,474.22717
"1145",80.49195,474.24048
"1146",80.48707,474.25378
"1147",80.37965,474.2671
"1148",80.19165,474.2804
"1149",79.96216,474.2937
"1150",79.710686,474.307
"1151",79.466545,474.3203
"1152",79.23949,474.33362
"1153",79.03929,474.34692
"1154",78.86595,474.36023
"1155",78.7219,474.37354
"1156",78.6096,474.38684
"1157",78.52415,474.40015
"1158",78.46067,474.41345
"1159",78.42161,474.42676
"1160",78.40208,474.44006
"1161",78.39475,474.45337
"1162",78.38743,474.46667
"1163",78.382545,474.47998
"1164",78.37522,474.4933
"1165",78.363014,474.5066
"1166",78.35081,474.5199
"1167",78.365456,474.5332
"1168",78.45823,474.5465
"1169",78.73899,474.5598
"1170",79.31518,474.57312
"1171",80.233154,474.58643
"1172",81.43191,474.59973
"1173",82.75029,474.61304
"1174",83.96124,474.62634
"1175",84.84505,474.63965
"1176",85.2723,474.65295
"1177",85.23811,474.66626
"1178",84.825516,474.67957
"1179",84.15167,474.69287
"1180",83.32891,474.70618
"1181",82.46464,474.71948
"1182",81.62478,474.7328
"1183",80.86305,474.7461
"1184",80.22583,474.7594
"1185",79.74731,474.7727
"1186",79.45678,474.786
"1187",79.35668,474.79932
"1188",79.432365,474.81262
"1189",79.64233,474.82593
"1190",79.92554,474.83923
"1191",80.21118,474.85254
"1192",80.4358,474.86584
"1193",80.56275,474.87915
"1194",80.57984,474.89246
"1195",80.49195,474.90576
"1196",80.31617,474.91907
"1197",80.08667,474.93237
"1198",79.82788,474.94568
"1199",79.55932,474.95898
"1200",79.30297,474.9723
"1201",79.07347,474.9856
"1202",78.8806,474.9989
"1203",78.72678,475.0122
"1204",78.6096,475.0255
"1205",78.52415,475.03882
"1206",78.46311,475.05212
"1207",78.42649,475.06543
"1208",78.40208,475.07874
"1209",78.38987,475.09204
"1210",78.38743,475.10535
"1211",78.38987,475.11865
"1212",78.38743,475.13196
"1213",78.38743,475.14526
"1214",78.38743,475.15857
"1215",78.40452,475.17188
"1216",78.504616,475.18518
"1217",78.79515,475.1985
"1218",79.38354,475.2118
"1219",80.31373,475.2251
"1220",81.5198,475.2384
"1221",82.83818,475.2517
"1222",84.034485,475.265
"1223",84.9012,475.27832
"1224",85.31136,475.29163
"1225",85.2723,475.30493
"1226",84.86458,475.31824
"1227",84.20294,475.33154
"1228",83.39727,475.34485
"1229",82.55253,475.35815
"1230",81.7322,475.37146
"1231",80.99245,475.38477
"1232",80.37476,475.39807
"1233",79.920654,475.41138
"1234",79.64477,475.42468
"1235",79.554436,475.438
"1236",79.62524,475.4513
"1237",79.823,475.4646
"1238",80.08667,475.4779
"1239",80.35767,475.4912
"1240",80.57496,475.50452
"1241",80.70435,475.51782
"1242",80.719,475.53113
"1243",80.62379,475.54443
"1244",80.43824,475.55774
"1245",80.19165,475.57104
"1246",79.91577,475.58435
"1247",79.635,475.59766
"1248",79.36889,475.61096
"1249",79.132065,475.62427
"1250",78.924545,475.63757
"1251",78.75365,475.65088
"1252",78.61448,475.66418
"1253",78.502174,475.6775
"1254",78.40452,475.6908
"1255",78.31663,475.7041
"1256",78.23361,475.7174
"1257",78.16037,475.7307
"1258",78.099335,475.74402
"1259",78.06027,475.75732
"1260",78.03586,475.77063
"1261",78.01877,475.78394
"1262",77.99924,475.79724
"1263",77.977264,475.81055
"1264",78.00656,475.82385
"1265",78.19699,475.83716
"1266",78.67307,475.85046
"1267",79.50805,475.86377
"1268",80.67017,475.87708
"1269",82.01541,475.89038
"1270",83.3167,475.9037
"1271",84.33967,475.917
"1272",84.94026,475.9303
"1273",85.07454,475.9436
"1274",84.808426,475.9569
"1275",84.25666,475.9702
"1276",83.54131,475.98352
"1277",82.75029,475.99683
"1278",81.96414,476.01013
"1279",81.234146,476.02344
"1280",80.6067,476.03674
"1281",80.12085,476.05005
"1282",79.80347,476.06335
"1283",79.65453,476.07666
"1284",79.67162,476.08997
"1285",79.818115,476.10327
"1286",80.04761,476.11658
"1287",80.291756,476.12988
"1288",80.49195,476.1432
"1289",80.61646,476.1565
"1290",80.64088,476.1698
"1291",80.56275,476.1831
"1292",80.40162,476.1964
"1293",80.19409,476.20972
"1294",79.95972,476.22302
"1295",79.708244,476.23633
"1296",79.45922,476.24963
"1297",79.22728,476.26294
"1298",79.0222,476.27625
"1299",78.84642,476.28955
"1300",78.70725,476.30286
"1301",78.59251,476.31616
"1302",78.49729,476.32947
"1303",78.42405,476.34277
"1304",78.37034,476.35608
"1305",78.33372,476.3694
"1306",78.31663,476.3827
"1307",78.31907,476.396
"1308",78.32639,476.4093
"1309",78.3386,476.4226
"1310",78.348366,476.4359
"1311",78.345924,476.44922
"1312",78.331276,476.46252
"1313",78.33616,476.47583
"1314",78.433815,476.48914
"1315",78.73899,476.50244
"1316",79.364006,476.51575
"1317",80.35035,476.52905
"1318",81.62478,476.54236
"1319",82.99443,476.55566
"1320",84.224915,476.56897
"1321",85.11116,476.58228
"1322",85.538414,476.59558
"1323",85.514,476.6089
"1324",85.13313,476.6222
"1325",84.525215,476.6355
"1326",83.80499,476.6488
"1327",83.053024,476.6621
"1328",82.32548,476.6754
"1329",81.66628,476.68872
"1330",81.112076,476.70203
"1331",80.68726,476.71533
"1332",80.4065,476.72864
"1333",80.274666,476.74194
"1334",80.272224,476.75525
"1335",80.365,476.76855
"1336",80.50416,476.78186
"1337",80.6482,476.79517
"1338",80.74586,476.80847
"1339",80.77272,476.82178
"1340",80.706795,476.83508
"1341",80.552986,476.8484
"1342",80.32838,476.8617
"1343",80.05493,476.875
"1344",79.75708,476.8883
"1345",79.466545,476.9016
"1346",79.202866,476.91492
"1347",78.96605,476.92822
"1348",78.76341,476.94153
"1349",78.59495,476.95483
"1350",78.45335,476.96814
"1351",78.331276,476.98145
"1352",78.22629,476.99475
"1353",78.150604,477.00806
"1354",78.101776,477.02136
"1355",78.07492,477.03467
"1356",78.065155,477.04797
"1357",78.07004,477.06128
"1358",78.082245,477.0746
"1359",78.08957,477.0879
"1360",78.08469,477.1012
"1361",78.07004,477.1145
"1362",78.04318,477.1278
"1363",78.048065,477.1411
"1364",78.170135,477.15442
"1365",78.538795,477.16772
"1366",79.256584,477.18103
"1367",80.34058,477.19434
"1368",81.68093,477.20764
"1369",83.072556,477.22095
"1370",84.26887,477.23425
"1371",85.06233,477.24756
"1372",85.37484,477.26086
"1373",85.25765,477.27417
"1374",84.83284,477.28748
"1375",84.227356,477.30078
"1376",83.55596,477.3141
"1377",82.89433,477.3274
"1378",82.27665,477.3407
"1379",81.71511,477.354
"1380",81.234146,477.3673
"1381",80.84352,477.3806
"1382",80.56519,477.39392
"1383",80.40162,477.40723
"1384",80.35035,477.42053
"1385",80.38453,477.43384
"1386",80.465096,477.44714
"1387",80.53834,477.46045
"1388",80.57252,477.47375
"1389",80.54078,477.48706
"1390",80.428474,477.50037
"1391",80.2478,477.51367
"1392",80.01343,477.52698
"1393",79.74731,477.54028
"1394",79.466545,477.5536
"1395",79.19798,477.5669
"1396",78.95384,477.5802
"1397",78.73655,477.5935
"1398",78.54124,477.6068
"1399",78.365456,477.62012
"1400",78.20676,477.63342
"1401",78.0676,477.64673
"1402",77.945526,477.66003
"1403",77.86008,477.67334
"1404",77.80881,477.68665
"1405",77.786835,477.69995
"1406",77.77707,477.71326
"1407",77.77951,477.72656
"1408",77.77463,477.73987
"1409",77.76486,477.75317
"1410",77.738,477.76648
"1411",77.70382,477.7798
"1412",77.67452,477.7931
"1413",77.70382,477.8064
"1414",77.8967,477.8197
"1415",78.380104,477.833
"1416",79.234604,477.8463
"1417",80.43336,477.85962
"1418",81.83719,477.87292
"1419",83.211716,477.88623
"1420",84.315254,477.89954
"1421",84.98421,477.91284
"1422",85.186844,477.92615
"1423",85.00862,477.93945
"1424",84.576485,477.95276
"1425",84.01984,477.96606
"1426",83.441216,477.97937
"1427",82.89189,477.99268
"1428",82.391396,478.00598
"1429",81.94217,478.0193
"1430",81.54665,478.0326
"1431",81.20729,478.0459
"1432",80.936295,478.0592
"1433",80.740974,478.0725
"1434",80.621346,478.08582
"1435",80.567635,478.09912
"1436",80.552986,478.11243
"1437",80.54322,478.12573
"1438",80.50904,478.13904
"1439",80.430916,478.15234
"1440",80.29664,478.16565
"1441",80.111084,478.17896
"1442",79.88403,478.19226
"1443",79.622795,478.20557
"1444",79.3518,478.21887
"1445",79.08568,478.23218
"1446",78.839096,478.24548
"1447",78.61692,478.2588
"1448",78.42161,478.2721
"1449",78.24826,478.2854
"1450",78.09201,478.2987
"1451",77.960175,478.312
"1452",77.84543,478.32532
"1453",77.752655,478.33862
"1454",77.68429,478.35193
"1455",77.642784,478.36523
"1456",77.61837,478.37854
"1457",77.60372,478.39185
"1458",77.58907,478.40515
"1459",77.56954,478.41846
"1460",77.540245,478.43176
"1461",77.4963,478.44507
"1462",77.44015,478.45837
"1463",77.40841,478.47168
"1464",77.488976,478.485
"1465",77.7966,478.4983
"1466",78.450905,478.5116
"1467",79.48608,478.5249
"1468",80.81178,478.5382
"1469",82.23758,478.5515
"1470",83.51202,478.56482
"1471",84.43,478.57812
"1472",84.9012,478.59143
"1473",84.95003,478.60474
"1474",84.69611,478.61804
"1475",84.266426,478.63135
"1476",83.78058,478.64465
"1477",83.3045,478.65796
"1478",82.87724,478.67126
"1479",82.49149,478.68457
"1480",82.13504,478.69788
"1481",81.795685,478.71118
"1482",81.47097,478.7245
"1483",81.17555,478.7378
"1484",80.92653,478.7511
"1485",80.73609,478.7644
"1486",80.604256,478.7777
"1487",80.51392,478.79102
"1488",80.44312,478.80432
"1489",80.36256,478.81763
"1490",80.257576,478.83093
"1491",80.11597,478.84424
"1492",79.93042,478.85754
"1493",79.708244,478.87085
"1494",79.46166,478.88416
"1495",79.202866,478.89746
"1496",78.94408,478.91077
"1497",78.69749,478.92407
"1498",78.467995,478.93738
"1499",78.26536,478.95068
"1500",78.08469,478.964
"1501",77.93088,478.9773
"1502",77.7966,478.9906
"1503",77.68185,479.0039
"1504",77.58175,479.0172
"1505",77.4963,479.03052
"1506",77.42794,479.04382
"1507",77.37667,479.05713
"1508",77.33517,479.07043
"1509",77.30587,479.08374
"1510",77.279015,479.09705
"1511",77.25704,479.11035
"1512",77.23262,479.12366
"1513",77.20332,479.13696
"1514",77.171585,479.15027
"1515",77.13008,479.16357
"1516",77.08125,479.17688
"1517",77.03731,479.1902
"1518",77.06416,479.2035
"1519",77.27657,479.2168
"1520",77.81613,479.2301
"1521",78.75853,479.2434
"1522",80.062256,479.2567
"1523",81.55886,479.27002
"1524",83.01396,479.28333
"1525",84.18097,479.29663
"1526",84.90852,479.30994
"1527",85.18196,479.32324
"1528",85.10628,479.33655
"1529",84.808426,479.34985
"1530",84.41047,479.36316
"1531",83.99542,479.37646
"1532",83.614555,479.38977
"1533",83.267876,479.40308
"1534",82.930954,479.41638
"1535",82.58671,479.4297
"1536",82.22293,479.443
"1537",81.85672,479.4563
"1538",81.50515,479.4696
"1539",81.20241,479.4829
"1540",80.96559,479.49622
"1541",80.79225,479.50952
"1542",80.66773,479.52283
"1543",80.567635,479.53613
"1544",80.46754,479.54944
"1545",80.34058,479.56274
"1546",80.177,479.57605
"1547",79.97925,479.58936
"1548",79.74975,479.60266
"1549",79.49828,479.61597
"1550",79.237045,479.62927
"1551",78.975815,479.64258
"1552",78.71702,479.65588
"1553",78.470436,479.6692
"1554",78.238495,479.6825
"1555",78.030975,479.6958
"1556",77.84543,479.7091
"1557",77.68673,479.7224
"1558",77.54757,479.73572
"1559",77.435265,479.74902
"1560",77.34005,479.76233
"1561",77.26925,479.77563
"1562",77.205765,479.78894
"1563",77.154495,479.80225
"1564",77.11055,479.81555
"1565",77.069046,479.82886
"1566",77.02754,479.84216
"1567",76.98604,479.85547
"1568",76.94942,479.86877
"1569",76.912796,479.88208
"1570",76.87862,479.8954
"1571",76.85176,479.9087
"1572",76.82979,479.922
"1573",76.805374,479.9353
"1574",76.7834,479.9486
"1575",76.76387,479.9619
"1576",76.74677,479.97522
"1577",76.732124,479.98853
"1578",76.74433,480.00183
"1579",76.86153,480.01514
"1580",77.21797,480.02844
"1581",77.95285,480.04175
"1582",79.114975,480.05505
"1583",80.62379,480.06836
"1584",82.27177,480.08167
"1585",83.78546,480.09497
"1586",84.928055,480.10828
"1587",85.57992,480.12158
"1588",85.78256,480.1349
"1589",85.65316,480.1482
"1590",85.330894,480.1615
"1591",84.9305,480.1748
"1592",84.53498,480.1881
"1593",84.1712,480.20142
"1594",83.83917,480.21472
"1595",83.5169,480.22803
"1596",83.17998,480.24133
"1597",82.81621,480.25464
"1598",82.43778,480.26794
"1599",82.06912,480.28125
"1600",81.74685,480.29456
"1601",81.4905,480.30786
"1602",81.30007,480.32117
"1603",81.15358,480.33447
"1604",81.02663,480.34778
"1605",80.89479,480.36108
"1606",80.740974,480.3744
"1607",80.550545,480.3877
"1608",80.33082,480.401
"1609",80.08667,480.4143
"1610",79.82056,480.4276
"1611",79.54223,480.44092
"1612",79.26391,480.45422
"1613",78.98802,480.46753
"1614",78.7219,480.48083
"1615",78.47288,480.49414
"1616",78.24338,480.50745
"1617",78.04074,480.52075
"1618",77.86496,480.53406
"1619",77.71603,480.54736
"1620",77.591515,480.56067
"1621",77.486534,480.57397
"1622",77.39132,480.58728
"1623",77.31075,480.6006
"1624",77.239944,480.6139
"1625",77.18135,480.6272
"1626",77.12276,480.6405
"1627",77.06172,480.6538
"1628",77.00069,480.6671
"1629",76.94209,480.68042
"1630",76.90059,480.69373
"1631",76.876175,480.70703
"1632",76.86885,480.72034
"1633",76.86397,480.73364
"1634",76.85664,480.74695
"1635",76.83711,480.76025
"1636",76.79805,480.77356
"1637",76.754105,480.78687
"1638",76.72236,480.80017
"1639",76.732124,480.81348
"1640",76.8835,480.82678
"1641",77.32296,480.8401
"1642",78.170135,480.8534
"1643",79.432365,480.8667
"1644",81.004654,480.88
"1645",82.65751,480.8933
"1646",84.119934,480.90662
"1647",85.172195,480.91992
"1648",85.72884,480.93323
"1649",85.84604,480.94653
"1650",85.64828,480.95984
"1651",85.28207,480.97314
"1652",84.86458,480.98645
"1653",84.46418,480.99976
"1654",84.1004,481.01306
"1655",83.76105,481.02637
"1656",83.42657,481.03967
"1657",83.070114,481.05298
"1658",82.686806,481.06628
"1659",82.28886,481.0796
"1660",81.90311,481.0929
"1661",81.5613,481.1062
"1662",81.2781,481.1195
"1663",81.06325,481.1328
"1664",80.902115,481.14612
"1665",80.7776,481.15942
"1666",80.655525,481.17273
"1667",80.51392,481.18604
"1668",80.343025,481.19934
"1669",80.1355,481.21265
"1670",79.89624,481.22595
"1671",79.62524,481.23926
"1672",79.34203,481.25256
"1673",79.0515,481.26587
"1674",78.76097,481.27917
"1675",78.48264,481.29248
"1676",78.22873,481.3058
"1677",77.99924,481.3191
"1678",77.79416,481.3324
"1679",77.61349,481.3457
"1680",77.45968,481.359
"1681",77.32296,481.3723
"1682",77.21309,481.38562
"1683",77.13008,481.39893
"1684",77.07393,481.41223
"1685",77.03731,481.42554
"1686",77.015335,481.43884
"1687",76.998245,481.45215
"1688",76.98848,481.46545
"1689",76.97383,481.47876
"1690",76.9543,481.49207
"1691",76.927444,481.50537
"1692",76.88838,481.51868
"1693",76.839554,481.53198
"1694",76.790726,481.5453
"1695",76.77852,481.5586
"1696",76.895706,481.5719
"1697",77.27657,481.5852
"1698",78.0383,481.5985
"1699",79.21019,481.61182
"1700",80.67994,481.62512
"1701",82.2449,481.63843
"1702",83.65118,481.65173
"1703",84.67902,481.66504
"1704",85.22102,481.67834
"1705",85.313805,481.69165
"1706",85.07454,481.70496
"1707",84.6424,481.71826
"1708",84.13214,481.73157
"1709",83.64141,481.74487
"1710",83.194626,481.75818
"1711",82.78935,481.77148
"1712",82.39872,481.7848
"1713",82.01541,481.7981
"1714",81.62966,481.8114
"1715",81.26589,481.8247
"1716",80.953384,481.838
"1717",80.719,481.85132
"1718",80.55787,481.86462
"1719",80.46021,481.87793
"1720",80.394295,481.89124
"1721",80.33082,481.90454
"1722",80.24048,481.91785
"1723",80.1062,481.93115
"1724",79.923096,481.94446
"1725",79.69604,481.95776
"1726",79.43481,481.97107
"1727",79.16136,481.98438
"1728",78.87572,481.99768
"1729",78.59495,482.011
"1730",78.331276,482.0243
"1731",78.08713,482.0376
"1732",77.8674,482.0509
"1733",77.679405,482.0642
"1734",77.53292,482.0775
"1735",77.420616,482.09082
"1736",77.332726,482.10413
"1737",77.26681,482.11743
"1738",77.21553,482.13074
"1739",77.17403,482.14404
"1740",77.1252,482.15735
"1741",77.07881,482.17065
"1742",77.032425,482.18396
"1743",77.01778,482.19727
"1744",77.0959,482.21057
"1745",77.38644,482.22388
"1746",77.99191,482.23718
"1747",78.958725,482.2505
"1748",80.216064,482.2638
"1749",81.600365,482.2771
"1750",82.88701,482.2904
"1751",83.86847,482.3037
"1752",84.42756,482.31702
"1753",84.56916,482.33032
"1754",84.37385,482.34363
"1755",83.96857,482.35693
"1756",83.46075,482.37024
"1757",82.93584,482.38354
"1758",82.44022,482.39685
"1759",81.98123,482.41016
"1760",81.55154,482.42346
"1761",81.13649,482.43677
"1762",80.75563,482.45007
"1763",80.42359,482.46338
"1764",80.15503,482.47668
"1765",79.96704,482.49
"1766",79.871826,482.5033
"1767",79.84253,482.5166
"1768",79.84253,482.5299
"1769",79.84009,482.5432
"1770",79.81079,482.55652
"1771",79.725334,482.56982
"1772",79.571526,482.58313
"1773",79.3518,482.59644
"1774",79.09544,482.60974
"1775",78.82201,482.62305
"1776",78.54856,482.63635
"1777",78.29221,482.64966
"1778",78.05783,482.66296
"1779",77.85275,482.67627
"1780",77.679405,482.68958
"1781",77.53048,482.70288
"1782",77.41085,482.7162
"1783",77.30831,482.7295
"1784",77.22041,482.7428
"1785",77.137405,482.7561
"1786",77.069046,482.7694
"1787",77.01289,482.7827
"1788",76.99092,482.79602
"1789",77.05928,482.80933
"1790",77.34249,482.82263
"1791",77.95529,482.83594
"1792",78.93919,482.84924
"1793",80.22339,482.86255
"1794",81.634544,482.87585
"1795",82.93584,482.88916
"1796",83.90265,482.90247
"1797",84.42512,482.91577
"1798",84.525215,482.92908
"1799",84.29572,482.94238
"1800",83.86359,482.9557
"1801",83.34356,482.969
"1802",82.81621,482.9823
"1803",82.31571,482.9956
"1804",81.85184,483.0089
"1805",81.41482,483.02222
"1806",81.00221,483.03552
"1807",80.61402,483.04883
"1808",80.274666,483.06213
"1809",80.008545,483.07544
"1810",79.83032,483.08875
"1811",79.73754,483.10205
"1812",79.71313,483.11536
"1813",79.725334,483.12866
"1814",79.73022,483.14197
"1815",79.70092,483.15527
"1816",79.605705,483.16858
"1817",79.44213,483.1819
"1818",79.22484,483.1952
"1819",78.97826,483.2085
"1820",78.71702,483.2218
"1821",78.46311,483.2351
"1822",78.23117,483.2484
"1823",78.013885,483.26172
"1824",77.81125,483.27502
"1825",77.63302,483.28833
"1826",77.48165,483.30164
"1827",77.3547,483.31494
"1828",77.24483,483.32825
"1829",77.152054,483.34155
"1830",77.069046,483.35486
"1831",77.00557,483.36816
"1832",76.99092,483.38147
"1833",77.11055,483.39478
"1834",77.488976,483.40808
"1835",78.22385,483.4214
"1836",79.31518,483.4347
"1837",80.66041,483.448
"1838",82.05203,483.4613
"1839",83.243454,483.4746
"1840",84.04669,483.4879
"1841",84.3885,483.50122
"1842",84.3299,483.51453
"1843",83.9881,483.52783
"1844",83.492485,483.54114
"1845",82.94316,483.55444
"1846",82.39384,483.56775
"1847",81.87137,483.58105
"1848",81.38308,483.59436
"1849",80.93385,483.60767
"1850",80.52125,483.62097
"1851",80.15747,483.63428
"1852",79.86206,483.64758
"1853",79.65209,483.6609
"1854",79.53002,483.6742
"1855",79.48608,483.6875
"1856",79.4934,483.7008
"1857",79.50805,483.7141
"1858",79.50317,483.72742
"1859",79.447014,483.74072
"1860",79.33471,483.75403
"1861",79.17113,483.76733
"1862",78.96361,483.78064
"1863",78.729225,483.79395
"1864",78.48264,483.80725
"1865",78.23605,483.82056
"1866",78.009,483.83386
"1867",77.803925,483.84717
"1868",77.63058,483.86047
"1869",77.49386,483.87378
"1870",77.383995,483.8871
"1871",77.29366,483.9004
"1872",77.22041,483.9137
"1873",77.15694,483.927
"1874",77.10567,483.9403
"1875",77.06172,483.9536
"1876",77.03731,483.96692
"1877",77.07637,483.98022
"1878",77.264366,483.99353
"1879",77.71847,484.00684
"1880",78.52903,484.02014
"1881",79.68383,484.03345
"1882",81.058365,484.04675
"1883",82.43046,484.06006
"1884",83.56573,484.07336
"1885",84.29084,484.08667
"1886",84.55695,484.09998
"1887",84.42756,484.11328
"1888",84.03204,484.1266
"1889",83.4876,484.1399
"1890",82.89189,484.1532
"1891",82.30595,484.1665
"1892",81.75662,484.1798
"1893",81.248795,484.1931
"1894",80.78981,484.20642
"1895",80.38209,484.21973
"1896",80.03784,484.23303
"1897",79.77661,484.24634
"1898",79.61059,484.25964
"1899",79.53979,484.27295
"1900",79.54955,484.28625
"1901",79.59838,484.29956
"1902",79.64965,484.31287
"1903",79.65453,484.32617
"1904",79.59594,484.33948
"1905",79.46899,484.35278
"1906",79.273674,484.3661
"1907",79.04173,484.3794
"1908",78.79271,484.3927
"1909",78.54612,484.406
"1910",78.314186,484.4193
"1911",78.10422,484.43262
"1912",77.91623,484.44592
"1913",77.75754,484.45923
"1914",77.61837,484.47253
"1915",77.506065,484.48584
"1916",77.418175,484.49915
"1917",77.3547,484.51245
"1918",77.31075,484.52576
"1919",77.279015,484.53906
"1920",77.2546,484.55237
"1921",77.22774,484.56567
"1922",77.19356,484.57898
"1923",77.1667,484.5923
"1924",77.18379,484.6056
"1925",77.32784,484.6189
"1926",77.72823,484.6322
"1927",78.48997,484.6455
"1928",79.62035,484.6588
"1929",81.004654,484.67212
"1930",82.42802,484.68542
"1931",83.64385,484.69873
"1932",84.454414,484.71204
"1933",84.77913,484.72534
"1934",84.67414,484.73865
"1935",84.26887,484.75195
"1936",83.682915,484.76526
"1937",83.02617,484.77856
"1938",82.3621,484.79187
"1939",81.72732,484.80518
"1940",81.14137,484.81848
"1941",80.62623,484.8318
"1942",80.198975,484.8451
"1943",79.87671,484.8584
"1944",79.66674,484.8717
"1945",79.57397,484.885
"1946",79.57885,484.89832
"1947",79.64965,484.91162
"1948",79.744865,484.92493
"1949",79.823,484.93823
"1950",79.84741,484.95154
"1951",79.801025,484.96484
"1952",79.67895,484.97815
"1953",79.49584,484.99146
"1954",79.27123,485.00476
"1955",79.027084,485.01807
"1956",78.77806,485.03137
"1957",78.54856,485.04468
"1958",78.34104,485.05798
"1959",78.15793,485.0713
"1960",78.00168,485.0846
"1961",77.874725,485.0979
"1962",77.769745,485.1112
"1963",77.68429,485.1245
"1964",77.62325,485.13782
"1965",77.58907,485.15112
"1966",77.576866,485.16443
"1967",77.574425,485.17773
"1968",77.57931,485.19104
"1969",77.591515,485.20435
"1970",77.60128,485.21765
"1971",77.59884,485.23096
"1972",77.58663,485.24426
"1973",77.56954,485.25757
"1974",77.58419,485.27087
"1975",77.70382,485.28418
"1976",78.06027,485.2975
"1977",78.75365,485.3108
"1978",79.80591,485.3241
"1979",81.12428,485.3374
"1980",82.52567,485.3507
"1981",83.76105,485.364
"1982",84.62531,485.37732
"1983",85.01839,485.39062
"1984",84.96712,485.40393
"1985",84.56916,485.41724
"1986",83.95148,485.43054
"1987",83.2166,485.44385
"1988",82.44999,485.45715
"1989",81.70779,485.47046
"1990",81.024185,485.48376
"1991",80.44068,485.49707
"1992",79.98169,485.51038
"1993",79.674065,485.52368
"1994",79.517815,485.537
"1995",79.50561,485.5503
"1996",79.59838,485.5636
"1997",79.75952,485.5769
"1998",79.93286,485.5902
"1999",80.06958,485.60352
"2000",80.128174,485.61682
"2001",80.08911,485.63013
"2002",79.957275,485.64343
"2003",79.75464,485.65674
"2004",79.50561,485.67004
"2005",79.24437,485.68335
"2006",78.995346,485.69666
"2007",78.768295,485.70996
"2008",78.57053,485.72327
"2009",78.399635,485.73657
"2010",78.25315,485.74988
"2011",78.13107,485.76318
"2012",78.030975,485.7765
"2013",77.95041,485.7898
"2014",77.891815,485.8031
"2015",77.85275,485.8164
"2016",77.83322,485.8297
"2017",77.8259,485.84302
"2018",77.83078,485.85632
"2019",77.838104,485.86963
"2020",77.84543,485.88293
"2021",77.84787,485.89624
"2022",77.85275,485.90955
"2023",77.855194,485.92285
"2024",77.86008,485.93616
"2025",77.874725,485.94946
"2026",77.95285,485.96277
"2027",78.187225,485.97607
"2028",78.692604,485.98938
"2029",79.537346,486.0027
"2030",80.69459,486.016
"2031",82.01785,486.0293
"2032",83.28985,486.0426
"2033",84.27863,486.0559
"2034",84.840164,486.0692
"2035",84.94026,486.08252
"2036",84.65217,486.09583
"2037",84.09308,486.10913
"2038",83.36797,486.12244
"2039",82.564735,486.13574
"2040",81.75906,486.14905
"2041",80.99245,486.16235
"2042",80.31373,486.17566
"2043",79.77417,486.18896
"2044",79.40795,486.20227
"2045",79.22728,486.21558
"2046",79.2224,486.22888
"2047",79.361565,486.2422
"2048",79.58373,486.2555
"2049",79.82788,486.2688
"2050",80.04028,486.2821
"2051",80.17944,486.2954
"2052",80.22095,486.30872
"2053",80.164795,486.32202
"2054",80.028076,486.33533
"2055",79.83032,486.34863
"2056",79.60082,486.36194
"2057",79.36645,486.37524
"2058",79.14183,486.38855
"2059",78.93675,486.40186
"2060",78.75365,486.41516
"2061",78.59739,486.42847
"2062",78.46555,486.44177
"2063",78.35569,486.45508
"2064",78.2678,486.46838
"2065",78.20187,486.4817
"2066",78.153046,486.495
"2067",78.11398,486.5083
"2068",78.08713,486.5216
"2069",78.07248,486.5349
"2070",78.07248,486.54822
"2071",78.08469,486.56152
"2072",78.10422,486.57483
"2073",78.12863,486.58813
"2074",78.153046,486.60144
"2075",78.167694,486.61475
"2076",78.170135,486.62805
"2077",78.17258,486.64136
"2078",78.20676,486.65466
"2079",78.35813,486.66797
"2080",78.73899,486.68127
"2081",79.43481,486.69458
"2082",80.46021,486.7079
"2083",81.70779,486.7212
"2084",82.98711,486.7345
"2085",84.071106,486.7478
"2086",84.77913,486.7611
"2087",85.03548,486.7744
"2088",84.86458,486.78772
"2089",84.3592,486.80103
"2090",83.64141,486.81433
"2091",82.80888,486.82764
"2092",81.94705,486.84094
"2093",81.1194,486.85425
"2094",80.38453,486.86755
"2095",79.78638,486.88086
"2096",79.36645,486.89417
"2097",79.14183,486.90747
"2098",79.10521,486.92078
"2099",79.22484,486.93408
"2100",79.45434,486.9474
"2101",79.73022,486.9607
"2102",79.98901,486.974
"2103",80.184326,486.9873
"2104",80.28687,487.0006
"2105",80.29664,487.01392
"2106",80.20874,487.02722
"2107",80.04761,487.04053
"2108",79.84497,487.05383
"2109",79.622795,487.06714
"2110",79.39086,487.08044
"2111",79.17357,487.09375
"2112",78.9807,487.10706
"2113",78.81224,487.12036
"2114",78.66819,487.13367
"2115",78.54856,487.14697
"2116",78.45579,487.16028
"2117",78.382545,487.17358
"2118",78.33372,487.1869
"2119",78.29954,487.2002
"2120",78.277565,487.2135
"2121",78.25803,487.2268
"2122",78.24338,487.2401
"2123",78.23117,487.25342
"2124",78.22629,487.26672
"2125",78.22629,487.28003
"2126",78.23361,487.29333
"2127",78.24338,487.30664
"2128",78.24582,487.31995
"2129",78.24826,487.33325
"2130",78.26292,487.34656
"2131",78.345924,487.35986
"2132",78.590065,487.37317
"2133",79.093,487.38647
"2134",79.906006,487.39978
"2135",80.99489,487.4131
"2136",82.24246,487.4264
"2137",83.43633,487.4397
"2138",84.37385,487.453
"2139",84.91585,487.4663
"2140",85.02327,487.4796
"2141",84.74006,487.49292
"2142",84.16632,487.50623
"2143",83.41192,487.51953
"2144",82.55985,487.53284
"2145",81.688255,487.54614
"2146",80.86549,487.55945
"2147",80.14282,487.57275
"2148",79.56664,487.58606
"2149",79.17845,487.59937
"2150",78.99779,487.61267
"2151",79.00511,487.62598
"2152",79.1638,487.63928
"2153",79.429924,487.6526
"2154",79.73754,487.6659
"2155",80.025635,487.6792
"2156",80.24048,487.6925
"2157",80.36256,487.7058
"2158",80.38209,487.71912
"2159",80.306404,487.73242
"2160",80.16235,487.74573
"2161",79.97681,487.75903
"2162",79.76929,487.77234
"2163",79.55932,487.78564
"2164",79.35912,487.79895
"2165",79.17601,487.81226
"2166",79.01488,487.82556
"2167",78.8806,487.83887
"2168",78.768295,487.85217
"2169",78.6804,487.86548
"2170",78.6096,487.87878
"2171",78.553444,487.8921
"2172",78.5095,487.9054
"2173",78.47776,487.9187
"2174",78.45823,487.932
"2175",78.450905,487.9453
"2176",78.45579,487.95862
"2177",78.47288,487.97192
"2178",78.49729,487.98523
"2179",78.52415,487.99854
"2180",78.54856,488.01184
"2181",78.56077,488.02515
"2182",78.57786,488.03845
"2183",78.643776,488.05176
"2184",78.84154,488.06506
"2185",79.27123,488.07837
"2186",79.99634,488.09167
"2187",81.00221,488.10498
"2188",82.176544,488.1183
"2189",83.34112,488.1316
"2190",84.29572,488.1449
"2191",84.9012,488.1582
"2192",85.09407,488.1715
"2193",84.90364,488.1848
"2194",84.403145,488.19812
"2195",83.69024,488.21143
"2196",82.85283,488.22473
"2197",81.971466,488.23804
"2198",81.1194,488.25134
"2199",80.35767,488.26465
"2200",79.742424,488.27795
"2201",79.30541,488.29126
"2202",79.06859,488.30457
"2203",79.03685,488.31787
"2204",79.1931,488.33118
"2205",79.47143,488.34448
"2206",79.80835,488.3578
"2207",80.130615,488.3711
"2208",80.38453,488.3844
"2209",80.533455,488.3977
"2210",80.57984,488.411
"2211",80.5359,488.42432
"2212",80.42359,488.43762
"2213",80.26246,488.45093
"2214",80.06958,488.46423
"2215",79.85718,488.47754
"2216",79.639885,488.49084
"2217",79.432365,488.50415
"2218",79.24925,488.51746
"2219",79.09056,488.53076
"2220",78.958725,488.54407
"2221",78.8513,488.55737
"2222",78.77318,488.57068
"2223",78.71458,488.58398
"2224",78.6804,488.5973
"2225",78.66331,488.6106
"2226",78.66331,488.6239
"2227",78.67063,488.6372
"2228",78.6804,488.6505
"2229",78.68528,488.66382
"2230",78.68284,488.67712
"2231",78.675514,488.69043
"2232",78.677956,488.70374
"2233",78.70237,488.71704
"2234",78.81224,488.73035
"2235",79.10033,488.74365
"2236",79.65453,488.75696
"2237",80.49195,488.77026
"2238",81.56374,488.78357
"2239",82.74052,488.79688
"2240",83.824524,488.81018
"2241",84.630196,488.8235
"2242",85.05257,488.8368
"2243",85.07454,488.8501
"2244",84.7425,488.8634
"2245",84.14679,488.8767
"2246",83.389946,488.89
"2247",82.55497,488.90332
"2248",81.71023,488.91663
"2249",80.921646,488.92993
"2250",80.24292,488.94324
"2251",79.72045,488.95654
"2252",79.38598,488.96985
"2253",79.2517,488.98315
"2254",79.30053,488.99646
"2255",79.49828,489.00977
"2256",79.78638,489.02307
"2257",80.09888,489.03638
"2258",80.38697,489.04968
"2259",80.59937,489.063
"2260",80.70435,489.0763
"2261",80.69215,489.0896
"2262",80.57984,489.1029
"2263",80.39185,489.1162
"2264",80.16968,489.12952
"2265",79.940186,489.14282
"2266",79.72045,489.15613
"2267",79.51537,489.16943
"2268",79.327385,489.18274
"2269",79.15648,489.19604
"2270",79.00511,489.20935
"2271",78.88304,489.22266
"2272",78.79027,489.23596
"2273",78.72678,489.24927
"2274",78.692604,489.26257
"2275",78.675514,489.27588
"2276",78.675514,489.28918
"2277",78.69016,489.3025
"2278",78.709694,489.3158
"2279",78.72678,489.3291
"2280",78.73411,489.3424
"2281",78.73655,489.3557
"2282",78.73167,489.36902
"2283",78.75609,489.38232
"2284",78.8806,489.39563
"2285",79.20531,489.40894
"2286",79.798584,489.42224
"2287",80.67994,489.43555
"2288",81.78592,489.44885
"2289",82.96025,489.46216
"2290",84.00763,489.47546
"2291",84.76204,489.48877
"2292",85.13313,489.50208
"2293",85.11116,489.51538
"2294",84.7596,489.5287
"2295",84.16388,489.542
"2296",83.41436,489.5553
"2297",82.59647,489.5686
"2298",81.77615,489.5819
"2299",81.0193,489.5952
"2300",80.37476,489.60852
"2301",79.888916,489.62183
"2302",79.588615,489.63513
"2303",79.483635,489.64844
"2304",79.554436,489.66174
"2305",79.764404,489.67505
"2306",80.05005,489.68835
"2307",80.343025,489.70166
"2308",80.587166,489.71497
"2309",80.73609,489.72827
"2310",80.7776,489.74158
"2311",80.71412,489.75488
"2312",80.570076,489.7682
"2313",80.377205,489.7815
"2314",80.15747,489.7948
"2315",79.923096,489.8081
"2316",79.68627,489.8214
"2317",79.46166,489.83472
"2318",79.256584,489.84802
"2319",79.07103,489.86133
"2320",78.91234,489.87463
"2321",78.78294,489.88794
"2322",78.68284,489.90125
"2323",78.59983,489.91455
"2324",78.54368,489.92786
"2325",78.51682,489.94116
"2326",78.51438,489.95447
"2327",78.52659,489.96777
"2328",78.54856,489.98108
"2329",78.56565,489.9944
"2330",78.5803,490.0077
"2331",78.58274,490.021
"2332",78.590065,490.0343
"2333",78.6511,490.0476
"2334",78.856186,490.0609
"2335",79.30541,490.07422
"2336",80.05737,490.08752
"2337",81.09743,490.10083
"2338",82.31571,490.11414
"2339",83.52422,490.12744
"2340",84.5301,490.14075
"2341",85.186844,490.15405
"2342",85.435875,490.16736
"2343",85.29183,490.18066
"2344",84.83528,490.19397
"2345",84.15411,490.20728
"2346",83.34844,490.22058
"2347",82.496376,490.2339
"2348",81.671165,490.2472
"2349",80.93141,490.2605
"2350",80.325935,490.2738
"2351",79.89136,490.2871
"2352",79.64965,490.3004
"2353",79.59594,490.31372
"2354",79.708244,490.32703
"2355",79.9353,490.34033
"2356",80.20874,490.35364
"2357",80.45777,490.36694
"2358",80.62867,490.38025
"2359",80.69215,490.39355
"2360",80.6482,490.40686
"2361",80.51392,490.42017
"2362",80.31129,490.43347
"2363",80.06958,490.44678
"2364",79.815674,490.46008
"2365",79.55688,490.4734
"2366",79.30785,490.4867
"2367",79.078354,490.5
"2368",78.887924,490.5133
"2369",78.73655,490.5266
"2370",78.62913,490.53992
"2371",78.553444,490.55322
"2372",78.504616,490.56653
"2373",78.47532,490.57983
"2374",78.46067,490.59314
"2375",78.45579,490.60645
"2376",78.450905,490.61975
"2377",78.450905,490.63306
"2378",78.44602,490.64636
"2379",78.433815,490.65967
"2380",78.40696,490.67297
"2381",78.37766,490.68628
"2382",78.36057,490.6996
"2383",78.41917,490.7129
"2384",78.6511,490.7262
"2385",79.15892,490.7395
"2386",79.98169,490.7528
"2387",81.07301,490.7661
"2388",82.29374,490.77942
"2389",83.45098,490.79272
"2390",84.34699,490.80603
"2391",84.86702,490.81934
"2392",84.98421,490.83264
"2393",84.74006,490.84595
"2394",84.21759,490.85925
"2395",83.51202,490.87256
"2396",82.70634,490.88586
"2397",81.881134,490.89917
"2398",81.09987,490.91248
"2399",80.42115,490.92578
"2400",79.89624,490.9391
"2401",79.56664,490.9524
"2402",79.43481,490.9657
"2403",79.48608,490.979
"2404",79.68627,490.9923
"2405",79.97681,491.0056
"2406",80.2942,491.01892
"2407",80.57496,491.03223
"2408",80.77272,491.04553
"2409",80.86061,491.05884
"2410",80.833755,491.07214
"2411",80.70435,491.08545
"2412",80.499275,491.09875
"2413",80.25269,491.11206
"2414",79.98413,491.12537
"2415",79.71557,491.13867
"2416",79.45678,491.15198
"2417",79.219955,491.16528
"2418",79.009995,491.1786
"2419",78.83177,491.1919
"2420",78.68772,491.2052
"2421",78.57542,491.2185
"2422",78.48997,491.2318
"2423",78.42893,491.24512
"2424",78.382545,491.25842
"2425",78.35081,491.27173
"2426",78.33616,491.28503
"2427",78.33616,491.29834
"2428",78.35081,491.31165
"2429",78.37766,491.32495
"2430",78.40696,491.33826
"2431",78.42649,491.35156
"2432",78.44114,491.36487
"2433",78.48264,491.37817
"2434",78.63401,491.39148
"2435",78.99779,491.4048
"2436",79.674065,491.4181
"2437",80.68726,491.4314
"2438",81.95682,491.4447
"2439",83.30938,491.458
"2440",84.53742,491.4713
"2441",85.452965,491.48462
"2442",85.95102,491.49792
"2443",86.029144,491.51123
"2444",85.76059,491.52454
"2445",85.243,491.53784
"2446",84.58137,491.55115
"2447",83.85138,491.56445
"2448",83.11162,491.57776
"2449",82.408485,491.59106
"2450",81.79324,491.60437
"2451",81.307396,491.61768
"2452",80.987564,491.63098
"2453",80.848404,491.6443
"2454",80.8777,491.6576
"2455",81.02907,491.6709
"2456",81.23659,491.6842
"2457",81.43923,491.6975
"2458",81.58572,491.71082
"2459",81.64187,491.72412
"2460",81.5906,491.73743
"2461",81.43679,491.75073
"2462",81.18776,491.76404
"2463",80.8777,491.77734
"2464",80.533455,491.79065
"2465",80.184326,491.80396
"2466",79.852295,491.81726
"2467",79.54955,491.83057
"2468",79.27856,491.84387
"2469",79.04906,491.85718
"2470",78.84886,491.87048
"2471",78.68528,491.8838
"2472",78.553444,491.8971
"2473",78.44846,491.9104
"2474",78.365456,491.9237
"2475",78.30198,491.937
"2476",78.25315,491.95032
"2477",78.221405,491.96362
"2478",78.19699,491.97693
"2479",78.170135,491.99023
"2480",78.135956,492.00354
"2481",78.09201,492.01685
"2482",78.04318,492.03015
"2483",78.04562,492.04346
"2484",78.18967,492.05676
"2485",78.60227,492.07007
"2486",79.36645,492.08337
"2487",80.50172,492.09668
"2488",81.89578,492.11
"2489",83.36309,492.1233
"2490",84.6717,492.1366
"2491",85.63119,492.1499
"2492",86.151215,492.1632
"2493",86.24155,492.1765
"2494",85.99008,492.18982
"2495",85.504234,492.20312
"2496",84.88167,492.21643
"2497",84.210266,492.22974
"2498",83.543755,492.24304
"2499",82.913864,492.25635
"2500",82.354774,492.26965
"2501",81.90799,492.28296
"2502",81.59792,492.29626
"2503",81.43435,492.30957
"2504",81.409935,492.32288
"2505",81.48562,492.33618
"2506",81.602806,492.3495
"2507",81.7029,492.3628
"2508",81.74197,492.3761
"2509",81.69558,492.3894
"2510",81.55642,492.4027
"2511",81.32693,492.41602
"2512",81.02663,492.42932
"2513",80.6775,492.44263
"2514",80.306404,492.45593
"2515",79.92798,492.46924
"2516",79.56664,492.48254
"2517",79.23216,492.49585
"2518",78.93431,492.50916
"2519",78.67307,492.52246
"2520",78.44846,492.53577
"2521",78.25803,492.54907
"2522",78.1091,492.56238
"2523",77.994354,492.57568
"2524",77.90402,492.589
"2525",77.823456,492.6023
"2526",77.7551,492.6156
"2527",77.68917,492.6289
"2528",77.61837,492.6422
"2529",77.54269,492.65552
"2530",77.46456,492.66882
"2531",77.383995,492.68213
"2532",77.34249,492.69543
"2533",77.43282,492.70874
"2534",77.79416,492.72205
"2535",78.54124,492.73535
"2536",79.68383,492.74866
"2537",81.13893,492.76196
"2538",82.71122,492.77527
"2539",84.14923,492.78857
"2540",85.24788,492.80188
"2541",85.90219,492.8152
"2542",86.11948,492.8285
"2543",85.98276,492.8418
"2544",85.60189,492.8551
"2545",85.08919,492.8684
"2546",84.51789,492.8817
"2547",83.94415,492.89502
"2548",83.39239,492.90833
"2549",82.882126,492.92163
"2550",82.42802,492.93494
"2551",82.04959,492.94824
"2552",81.76395,492.96155
"2553",81.57595,492.97485
"2554",81.478294,492.98816
"2555",81.43679,493.00146
"2556",81.41238,493.01477
"2557",81.37087,493.02808
"2558",81.2781,493.04138
"2559",81.10719,493.0547
"2560",80.86549,493.068
"2561",80.56031,493.0813
"2562",80.2063,493.0946
"2563",79.818115,493.1079
"2564",79.42504,493.12122
"2565",79.03929,493.13452
"2566",78.6804,493.14783
"2567",78.35569,493.16113
"2568",78.065155,493.17444
"2569",77.806366,493.18774
"2570",77.574425,493.20105
"2571",77.366905,493.21436
"2572",77.18379,493.22766
"2573",77.032425,493.24097
"2574",76.91524,493.25427
"2575",76.822464,493.26758
"2576",76.74433,493.28088
"2577",76.66865,493.2942
"2578",76.58564,493.3075
"2579",76.49531,493.3208
"2580",76.39277,493.3341
"2581",76.27802,493.3474
"2582",76.16571,493.36072
"2583",76.09247,493.37402
"2584",76.15839,493.38733
"2585",76.507515,493.40063
"2586",77.27169,493.41394
"2587",78.4802,493.42725
"2588",80.028076,493.44055
"2589",81.70779,493.45386
"2590",83.25323,493.46716
"2591",84.437325,493.48047
"2592",85.14778,493.49377
"2593",85.401695,493.50708
"2594",85.28939,493.5204
"2595",84.947586,493.5337
"2596",84.49348,493.547
"2597",84.01495,493.5603
"2598",83.54864,493.5736
"2599",83.106735,493.5869
"2600",82.67704,493.60022
"2601",82.252235,493.61353
"2602",81.84207,493.62683
"2603",81.47585,493.64014
"2604",81.17555,493.65344
"2605",80.95094,493.66675
"2606",80.78981,493.68005
"2607",80.672615,493.69336
"2608",80.56519,493.70667
"2609",80.430916,493.71997
"2610",80.26002,493.73328
"2611",80.03784,493.74658
"2612",79.75952,493.7599
"2613",79.432365,493.7732
"2614",79.06615,493.7865
"2615",78.68284,493.7998
"2616",78.30198,493.8131
"2617",77.943085,493.82642
"2618",77.611046,493.83972
"2619",77.315636,493.85303
"2620",77.0544,493.86633
"2621",76.82979,493.87964
"2622",76.627144,493.89294
"2623",76.44404,493.90625
"2624",76.28535,493.91956
"2625",76.15106,493.93286
"2626",76.02899,493.94617
"2627",75.92401,493.95947
"2628",75.83612,493.97278
"2629",75.757996,493.98608
"2630",75.684746,493.9994
"2631",75.60906,494.0127
"2632",75.53826,494.026
"2633",75.47234,494.0393
"2634",75.406425,494.0526
"2635",75.335625,494.06592
"2636",75.25994,494.07922
"2637",75.17204,494.09253
"2638",75.09636,494.10583
"2639",75.10368,494.11914
"2640",75.3283,494.13245
"2641",75.91913,494.14575
"2642",76.97383,494.15906
"2643",78.44846,494.17236
"2644",80.184326,494.18567
"2645",81.92508,494.19897
"2646",83.39239,494.21228
"2647",84.41291,494.2256
"2648",84.947586,494.2389
"2649",85.07942,494.2522
"2650",84.92561,494.2655
"2651",84.62043,494.2788
"2652",84.263985,494.2921
"2653",83.90509,494.30542
"2654",83.54864,494.31873
"2655",83.18974,494.33203
"2656",82.81377,494.34534
"2657",82.41825,494.35864
"2658",82.01541,494.37195
"2659",81.63943,494.38525
"2660",81.31228,494.39856
"2661",81.0486,494.41187
"2662",80.84352,494.42517
"2663",80.68482,494.43848
"2664",80.54566,494.45178
"2665",80.40406,494.4651
"2666",80.233154,494.4784
"2667",80.02075,494.4917
"2668",79.75708,494.505
"2669",79.44457,494.5183
"2670",79.10277,494.53162
"2671",78.75365,494.54492
"2672",78.41184,494.55823
"2673",78.08713,494.57153
"2674",77.78195,494.58484
"2675",77.49874,494.59814
"2676",77.239944,494.61145
"2677",77.01289,494.62476
"2678",76.81514,494.63806
"2679",76.64423,494.65137
"2680",76.49531,494.66467
"2681",76.36591,494.67798
"2682",76.241394,494.69128
"2683",76.12665,494.7046
"2684",76.02167,494.7179
"2685",75.931335,494.7312
"2686",75.84833,494.7445
"2687",75.76776,494.7578
"2688",75.68719,494.77112
"2689",75.6115,494.78442
"2690",75.53826,494.79773
"2691",75.46746,494.81104
"2692",75.406425,494.82434
"2693",75.36004,494.83765
"2694",75.32098,494.85095
"2695",75.27947,494.86426
"2696",75.23064,494.87756
"2697",75.176926,494.89087
"2698",75.13298,494.90417
"2699",75.16472,494.91748
"2700",75.406425,494.9308
"2701",76.00946,494.9441
"2702",77.066605,494.9574
"2703",78.553444,494.9707
"2704",80.306404,494.984
"2705",82.07889,494.9973
"2706",83.597466,495.01062
"2707",84.66926,495.02393
"2708",85.25521,495.03723
"2709",85.43832,495.05054
"2710",85.34554,495.06384
"2711",85.11116,495.07715
"2712",84.8304,495.09045
"2713",84.55695,495.10376
"2714",84.29328,495.11707
"2715",84.01495,495.13037
"2716",83.702446,495.14368
"2717",83.34112,495.15698
"2718",82.93828,495.1703
"2719",82.52323,495.1836
"2720",82.13016,495.1969
"2721",81.79324,495.2102
"2722",81.52712,495.2235
"2723",81.32693,495.23682
"2724",81.16823,495.25012
"2725",81.02663,495.26343
"2726",80.87038,495.27673
"2727",80.6775,495.29004
"2728",80.43824,495.30334
"2729",80.15747,495.31665
"2730",79.84497,495.32996
"2731",79.51049,495.34326
"2732",79.166245,495.35657
"2733",78.82445,495.36987
"2734",78.49485,495.38318
"2735",78.187225,495.39648
"2736",77.90646,495.4098
"2737",77.66476,495.4231
"2738",77.454796,495.4364
"2739",77.27657,495.4497
"2740",77.117874,495.463
"2741",76.97627,495.47632
"2742",76.84688,495.48962
"2743",76.732124,495.50293
"2744",76.629585,495.51624
"2745",76.53681,495.52954
"2746",76.44404,495.54285
"2747",76.351265,495.55615
"2748",76.25849,495.56946
"2749",76.173035,495.58276
"2750",76.09247,495.59607
"2751",76.02411,495.60938
"2752",75.96796,495.62268
"2753",75.92157,495.636
"2754",75.87518,495.6493
"2755",75.82391,495.6626
"2756",75.757996,495.6759
"2757",75.68719,495.6892
"2758",75.63592,495.7025
"2759",75.66277,495.71582
"2760",75.88983,495.72913
"2761",76.473335,495.74243
"2762",77.50118,495.75574
"2763",78.94896,495.76904
"2764",80.672615,495.78235
"2765",82.4329,495.79565
"2766",83.95392,495.80896
"2767",85.05501,495.82227
"2768",85.677574,495.83557
"2769",85.892426,495.84888
"2770",85.82895,495.86218
"2771",85.6141,495.8755
"2772",85.347984,495.8888
"2773",85.084305,495.9021
"2774",84.83284,495.9154
"2775",84.576485,495.9287
"2776",84.2884,495.94202
"2777",83.946594,495.95532
"2778",83.546196,495.96863
"2779",83.11894,495.98193
"2780",82.69657,495.99524
"2781",82.31815,496.00854
"2782",82.01297,496.02185
"2783",81.778595,496.03516
"2784",81.59304,496.04846
"2785",81.43191,496.06177
"2786",81.26589,496.07507
"2787",81.077896,496.08838
"2788",80.84596,496.10168
"2789",80.567635,496.115
"2790",80.24292,496.1283
"2791",79.8938,496.1416
"2792",79.53246,496.1549
"2793",79.17357,496.1682
"2794",78.836655,496.18152
"2795",78.53147,496.19482
"2796",78.25071,496.20813
"2797",77.98947,496.22144
"2798",77.75021,496.23474
"2799",77.53536,496.24805
"2800",77.34005,496.26135
"2801",77.16914,496.27466
"2802",77.02266,496.28796
"2803",76.895706,496.30127
"2804",76.7834,496.31458
"2805",76.6833,496.32788
"2806",76.58564,496.3412
"2807",76.49531,496.3545
"2808",76.40986,496.3678
"2809",76.32685,496.3811
"2810",76.25361,496.3944
"2811",76.18524,496.4077
"2812",76.11932,496.42102
"2813",76.05829,496.43433
"2814",76.00214,496.44763
"2815",75.95575,496.46094
"2816",75.911804,496.47424
"2817",75.87274,496.48755
"2818",75.83856,496.50085
"2819",75.80194,496.51416
"2820",75.76288,496.52747
"2821",75.757996,496.54077
"2822",75.88739,496.55408
"2823",76.30244,496.56738
"2824",77.134964,496.5807
"2825",78.43137,496.594
"2826",80.096436,496.6073
"2827",81.9202,496.6206
"2828",83.617,496.6339
"2829",84.95003,496.64722
"2830",85.79233,496.66052
"2831",86.16098,496.67383
"2832",86.1561,496.68713
"2833",85.924164,496.70044
"2834",85.5848,496.71375
"2835",85.23323,496.72705
"2836",84.91341,496.74036
"2837",84.62287,496.75366
"2838",84.32746,496.76697
"2839",83.99054,496.78027
"2840",83.60235,496.79358
"2841",83.175095,496.8069
"2842",82.74052,496.8202
"2843",82.340126,496.8335
"2844",82.01053,496.8468
"2845",81.75662,496.8601
"2846",81.57351,496.8734
"2847",81.43191,496.88672
"2848",81.30007,496.90002
"2849",81.143814,496.91333
"2850",80.936295,496.92664
"2851",80.6775,496.93994
"2852",80.37232,496.95325
"2853",80.04028,496.96655
"2854",79.691154,496.97986
"2855",79.33959,496.99316
"2856",78.98802,497.00647
"2857",78.6511,497.01978
"2858",78.33616,497.03308
"2859",78.048065,497.0464
"2860",77.7966,497.0597
"2861",77.576866,497.073
"2862",77.383995,497.0863
"2863",77.21553,497.0996
"2864",77.066605,497.1129
"2865",76.93965,497.12622
"2866",76.83223,497.13953
"2867",76.749214,497.15283
"2868",76.680855,497.16614
"2869",76.6247,497.17944
"2870",76.56611,497.19275
"2871",76.50507,497.20605
"2872",76.44648,497.21936
"2873",76.39277,497.23267
"2874",76.351265,497.24597
"2875",76.32197,497.25928
"2876",76.29023,497.27258
"2877",76.23895,497.2859
"2878",76.17059,497.2992
"2879",76.10712,497.3125
"2880",76.12421,497.3258
"2881",76.35615,497.3391
"2882",76.94942,497.35242
"2883",77.99191,497.36572
"2884",79.447014,497.37903
"2885",81.15602,497.39233
"2886",82.865036,497.40564
"2887",84.31281,497.41895
"2888",85.316246,497.43225
"2889",85.824066,497.44556
"2890",85.90463,497.45886
"2891",85.68734,497.47217
"2892",85.3016,497.48547
"2893",84.85481,497.49878
"2894",84.41047,497.5121
"2895",83.99542,497.5254
"2896",83.60723,497.5387
"2897",83.226364,497.552
"2898",82.84062,497.5653
"2899",82.44999,497.5786
"2900",82.07645,497.59192
"2901",81.74197,497.60522
"2902",81.47585,497.61853
"2903",81.2781,497.63184
"2904",81.13893,497.64514
"2905",81.02907,497.65845
"2906",80.92409,497.67175
"2907",80.78493,497.68506
"2908",80.59937,497.69836
"2909",80.36256,497.71167
"2910",80.07202,497.72498
"2911",79.73998,497.73828
"2912",79.38842,497.7516
"2913",79.03197,497.7649
"2914",78.68528,497.7782
"2915",78.35569,497.7915
"2916",78.06027,497.8048
"2917",77.79416,497.8181
"2918",77.56222,497.83142
"2919",77.366905,497.84473
"2920",77.20332,497.85803
"2921",77.07393,497.87134
"2922",76.97627,497.88464
"2923",76.90059,497.89795
"2924",76.839554,497.91125
"2925",76.77852,497.92456
"2926",76.71992,497.93787
"2927",76.65888,497.95117
"2928",76.58808,497.96448
"2929",76.52216,497.97778
"2930",76.49287,497.9911
"2931",76.57343,498.0044
"2932",76.893265,498.0177
"2933",77.574425,498.031
"2934",78.66575,498.0443
"2935",80.10132,498.05762
"2936",81.69802,498.07092
"2937",83.20683,498.08423
"2938",84.40803,498.09753
"2939",85.172195,498.11084
"2940",85.48226,498.12415
"2941",85.42855,498.13745
"2942",85.12825,498.15076
"2943",84.69123,498.16406
"2944",84.207825,498.17737
"2945",83.72686,498.19067
"2946",83.267876,498.20398
"2947",82.82597,498.2173
"2948",82.39384,498.2306
"2949",81.969025,498.2439
"2950",81.57351,498.2572
"2951",81.231705,498.2705
"2952",80.96803,498.2838
"2953",80.78737,498.29712
"2954",80.68726,498.31042
"2955",80.638435,498.32373
"2956",80.59449,498.33704
"2957",80.52369,498.35034
"2958",80.39918,498.36365
"2959",80.21118,498.37695
"2960",79.954834,498.39026
"2961",79.64721,498.40356
"2962",79.30541,498.41687
"2963",78.95384,498.43018
"2964",78.60227,498.44348
"2965",78.260475,498.4568
"2966",77.945526,498.4701
"2967",77.662315,498.4834
"2968",77.41573,498.4967
"2969",77.208206,498.51
"2970",77.04463,498.52332
"2971",76.92256,498.53662
"2972",76.82735,498.54993
"2973",76.756546,498.56323
"2974",76.69062,498.57654
"2975",76.6247,498.58984
"2976",76.56611,498.60315
"2977",76.51484,498.61646
"2978",76.47578,498.62976
"2979",76.490425,498.64307
"2980",76.64912,498.65637
"2981",77.07637,498.66968
"2982",77.88205,498.68298
"2983",79.097885,498.6963
"2984",80.64332,498.7096
"2985",82.31327,498.7229
"2986",83.84894,498.7362
"2987",85.02571,498.7495
"2988",85.7264,498.76282
"2989",85.9559,498.77612
"2990",85.821625,498.78943
"2991",85.4432,498.80273
"2992",84.9427,498.81604
"2993",84.41047,498.82935
"2994",83.89288,498.84265
"2995",83.40215,498.85596
"2996",82.933395,498.86926
"2997",82.4744,498.88257
"2998",82.037384,498.89587
"2999",81.62966,498.90918
"3000",81.2781,498.9225
"3001",81.007095,498.9358
"3002",80.82643,498.9491
"3003",80.709236,498.9624
"3004",80.63355,498.9757
"3005",80.567635,498.989
"3006",80.4773,499.00232
"3007",80.3357,499.01562
"3008",80.130615,499.02893
"3009",79.85962,499.04224
"3010",79.53246,499.05554
"3011",79.16136,499.06885
"3012",78.77318,499.08215
"3013",78.39231,499.09546
"3014",78.03586,499.10876
"3015",77.71847,499.12207
"3016",77.44015,499.13538
"3017",77.205765,499.14868
"3018",77.01045,499.162
"3019",76.84932,499.1753
"3020",76.717476,499.1886
"3021",76.61494,499.2019
"3022",76.53925,499.2152
"3023",76.4831,499.22852
"3024",76.436714,499.24182
"3025",76.40009,499.25513
"3026",76.36347,499.26843
"3027",76.32929,499.28174
"3028",76.34882,499.29504
"3029",76.53193,499.30835
"3030",77.0251,499.32166
"3031",77.93576,499.33496
"3032",79.273674,499.34827
"3033",80.91676,499.36157
"3034",82.63798,499.37488
"3035",84.16144,499.38818
"3036",85.279625,499.4015
"3037",85.89975,499.4148
"3038",86.06088,499.4281
"3039",85.86069,499.4414
"3040",85.43343,499.4547
"3041",84.89143,499.46802
"3042",84.32258,499.48132
"3043",83.76349,499.49463
"3044",83.23857,499.50793
"3045",82.74052,499.52124
"3046",82.262,499.53455
"3047",81.81033,499.54785
"3048",81.40505,499.56116
"3049",81.07301,499.57446
"3050",80.82887,499.58777
"3051",80.67017,499.60107
"3052",80.57984,499.61438
"3053",80.52369,499.6277
"3054",80.465096,499.641
"3055",80.36744,499.6543
"3056",80.21362,499.6676
"3057",79.9939,499.6809
"3058",79.710686,499.6942
"3059",79.37621,499.70752
"3060",79.00755,499.72083
"3061",78.624245,499.73413
"3062",78.24582,499.74744
"3063",77.88937,499.76074
"3064",77.5671,499.77405
"3065",77.28634,499.78735
"3066",77.049515,499.80066
"3067",76.8542,499.81396
"3068",76.70283,499.82727
"3069",76.58564,499.84058
"3070",76.50019,499.85388
"3071",76.439156,499.8672
"3072",76.402534,499.8805
"3073",76.37812,499.8938
"3074",76.35615,499.9071
"3075",76.334175,499.9204
"3076",76.30732,499.93372
"3077",76.28779,499.94702
"3078",76.34394,499.96033
"3079",76.592964,499.97363
"3080",77.188675,499.98694
"3081",78.21896,500.00024
"3082",79.66674,500.01355
"3083",81.38552,500.02686
"3084",83.12871,500.04016
"3085",84.62287,500.05347
"3086",85.67025,500.06677
"3087",86.202484,500.08008
"3088",86.26353,500.09338
"3089",85.97299,500.1067
"3090",85.46273,500.12
"3091",84.84505,500.1333
"3092",84.2005,500.1466
"3093",83.57305,500.1599
"3094",82.97978,500.17322
"3095",82.423134,500.18652
"3096",81.90799,500.19983
"3097",81.45632,500.21313
"3098",81.08766,500.22644
"3099",80.82399,500.23975
"3100",80.672615,500.25305
"3101",80.618904,500.26636
"3102",80.61158,500.27966
"3103",80.604256,500.29297
"3104",80.552986,500.30627
"3105",80.430916,500.31958
"3106",80.23071,500.3329
"3107",79.96216,500.3462
"3108",79.63744,500.3595
"3109",79.27856,500.3728
"3110",78.89769,500.3861
"3111",78.51438,500.3994
"3112",78.14328,500.41272
"3113",77.79904,500.42603
"3114",77.486534,500.43933
"3115",77.21553,500.45264
"3116",76.98848,500.46594
"3117",76.80049,500.47925
"3118",76.64179,500.49255
"3119",76.51728,500.50586
"3120",76.419624,500.51917
"3121",76.351265,500.53247
"3122",76.314644,500.54578
"3123",76.297554,500.55908
"3124",76.28779,500.5724
"3125",76.282906,500.5857
"3126",76.26826,500.599
"3127",76.23651,500.6123
"3128",76.19501,500.6256
"3129",76.18768,500.63892
"3130",76.297554,500.65222
"3131",76.654,500.66553
"3132",77.401085,500.67883
"3133",78.59983,500.69214
"3134",80.18677,500.70544
"3135",81.969025,500.71875
"3136",83.67803,500.73206
"3137",85.05989,500.74536
"3138",85.95346,500.75867
"3139",86.32212,500.77197
"3140",86.24887,500.78528
"3141",85.85336,500.79858
"3142",85.26498,500.8119
"3143",84.5716,500.8252
"3144",83.85138,500.8385
"3145",83.140915,500.8518
"3146",82.4744,500.8651
"3147",81.8616,500.87842
"3148",81.33669,500.89172
"3149",80.92653,500.90503
"3150",80.65064,500.91833
"3151",80.499275,500.93164
"3152",80.46021,500.94495
"3153",80.49683,500.95825
"3154",80.55787,500.97156
"3155",80.58961,500.98486
"3156",80.552986,500.99817
"3157",80.43824,501.01147
"3158",80.22827,501.02478
"3159",79.9353,501.0381
"3160",79.58129,501.0514
"3161",79.200424,501.0647
"3162",78.8098,501.078
"3163",78.4387,501.0913
"3164",78.099335,501.1046
"3165",77.79416,501.11792
"3166",77.53048,501.13123
"3167",77.298546,501.14453
"3168",77.103226,501.15784
"3169",76.93965,501.17114
"3170",76.807816,501.18445
"3171",76.70527,501.19775
"3172",76.6247,501.21106
"3173",76.56367,501.22437
"3174",76.51728,501.23767
"3175",76.48554,501.25098
"3176",76.46357,501.26428
"3177",76.45136,501.2776
"3178",76.44404,501.2909
"3179",76.43183,501.3042
"3180",76.40986,501.3175
"3181",76.37812,501.3308
"3182",76.351265,501.34412
"3183",76.37568,501.35742
"3184",76.56367,501.37073
"3185",77.05928,501.38403
"3186",77.97238,501.39734
"3187",79.31518,501.41064
"3188",80.98024,501.42395
"3189",82.75029,501.43726
"3190",84.34455,501.45056
"3191",85.53597,501.46387
"3192",86.21469,501.47717
"3193",86.38804,501.49048
"3194",86.14389,501.50378
"3195",85.61166,501.5171
"3196",84.90364,501.5304
"3197",84.11017,501.5437
"3198",83.28985,501.557
"3199",82.493935,501.5703
"3200",81.76883,501.58362
"3201",81.15114,501.59692
"3202",80.66773,501.61023
"3203",80.33326,501.62354
"3204",80.15503,501.63684
"3205",80.111084,501.65015
"3206",80.164795,501.66345
"3207",80.274666,501.67676
"3208",80.38697,501.69006
"3209",80.45533,501.70337
"3210",80.4358,501.71667
"3211",80.31129,501.72998
"3212",80.08911,501.7433
"3213",79.79126,501.7566
"3214",79.44213,501.7699
"3215",79.06859,501.7832
"3216",78.69993,501.7965
"3217",78.35325,501.8098
"3218",78.0383,501.82312
"3219",77.76242,501.83643
"3220",77.5256,501.84973
"3221",77.3254,501.86304
"3222",77.15694,501.87634
"3223",77.02266,501.88965
"3224",76.91768,501.90295
"3225",76.83467,501.91626
"3226",76.773636,501.92957
"3227",76.72968,501.94287
"3228",76.700386,501.95618
"3229",76.680855,501.96948
"3230",76.67353,501.9828
"3231",76.67841,501.9961
"3232",76.700386,502.0094
"3233",76.7248,502.0227
"3234",76.73945,502.036
"3235",76.74433,502.04932
"3236",76.76631,502.06262
"3237",76.89082,502.07593
"3238",77.24727,502.08923
"3239",77.96506,502.10254
"3240",79.11009,502.11584
"3241",80.61646,502.12915
"3242",82.30595,502.14246
"3243",83.91974,502.15576
"3244",85.21126,502.16907
"3245",86.0267,502.18237
"3246",86.33189,502.19568
"3247",86.18051,502.20898
"3248",85.6849,502.2223
"3249",84.95979,502.2356
"3250",84.102844,502.2489
"3251",83.194626,502.2622
"3252",82.29618,502.2755
"3253",81.46853,502.28882
"3254",80.765396,502.30212
"3255",80.22583,502.31543
"3256",79.87915,502.32874
"3257",79.73022,502.34204
"3258",79.744865,502.35535
"3259",79.87427,502.36865
"3260",80.062256,502.38196
"3261",80.2478,502.39526
"3262",80.37476,502.40857
"3263",80.411385,502.42188
"3264",80.34791,502.43518
"3265",80.18677,502.4485
"3266",79.94751,502.4618
"3267",79.656975,502.4751
"3268",79.33715,502.4884
"3269",79.009995,502.5017
"3270",78.69016,502.515
"3271",78.39231,502.52832
"3272",78.12375,502.54163
"3273",77.88693,502.55493
"3274",77.68917,502.56824
"3275",77.52071,502.58154
"3276",77.38155,502.59485
"3277",77.26925,502.60815
"3278",77.17891,502.62146
"3279",77.11543,502.63477
"3280",77.07149,502.64807
"3281",77.04707,502.66138
"3282",77.03731,502.67468
"3283",77.03731,502.688
"3284",77.03975,502.7013
"3285",77.03975,502.7146
"3286",77.02998,502.7279
"3287",77.02754,502.7412
"3288",77.07393,502.75452
"3289",77.261925,502.76782
"3290",77.71114,502.78113
"3291",78.52659,502.79443
"3292",79.7351,502.80774
"3293",81.24147,502.82104
"3294",82.85283,502.83435
"3295",84.3299,502.84766
"3296",85.46273,502.86096
"3297",86.11948,502.87427
"3298",86.29038,502.88757
"3299",86.04135,502.90088
"3300",85.470055,502.91418
"3301",84.68391,502.9275
"3302",83.78546,502.9408
"3303",82.85283,502.9541
"3304",81.95438,502.9674
"3305",81.146255,502.9807
"3306",80.479744,502.99402
"3307",79.98657,503.00732
"3308",79.68383,503.02063
"3309",79.57397,503.03394
"3310",79.62768,503.04724
"3311",79.78882,503.06055
"3312",80.008545,503.07385
"3313",80.22095,503.08716
"3314",80.37232,503.10046
"3315",80.4358,503.11377
"3316",80.40162,503.12708
"3317",80.272224,503.14038
"3318",80.06714,503.1537
"3319",79.815674,503.167
"3320",79.537346,503.1803
"3321",79.24681,503.1936
"3322",78.95628,503.2069
"3323",78.6804,503.2202
"3324",78.42161,503.23352
"3325",78.19211,503.24683
"3326",77.994354,503.26013
"3327",77.82834,503.27344
"3328",77.696495,503.28674
"3329",77.58907,503.30005
"3330",77.503624,503.31335
"3331",77.435265,503.32666
"3332",77.38644,503.33997
"3333",77.36202,503.35327
"3334",77.35958,503.36658
"3335",77.37179,503.37988
"3336",77.3962,503.3932
"3337",77.418175,503.4065
"3338",77.43282,503.4198
"3339",77.45968,503.4331
"3340",77.574425,503.4464
"3341",77.89426,503.45972
"3342",78.54612,503.47302
"3343",79.5935,503.48633
"3344",81.004654,503.49963
"3345",82.61845,503.51294
"3346",84.20538,503.52625
"3347",85.53109,503.53955
"3348",86.434425,503.55286
"3349",86.84703,503.56616
"3350",86.79576,503.57947
"3351",86.363625,503.59277
"3352",85.65316,503.60608
"3353",84.77425,503.6194
"3354",83.81476,503.6327
"3355",82.862595,503.646
"3356",81.986115,503.6593
"3357",81.24147,503.6726
"3358",80.66285,503.6859
"3359",80.27955,503.69922
"3360",80.096436,503.71252
"3361",80.08667,503.72583
"3362",80.2063,503.73914
"3363",80.40894,503.75244
"3364",80.62379,503.76575
"3365",80.797134,503.77905
"3366",80.885025,503.79236
"3367",80.8777,503.80566
"3368",80.76784,503.81897
"3369",80.570076,503.83228
"3370",80.31129,503.84558
"3371",80.01831,503.8589
"3372",79.708244,503.8722
"3373",79.398186,503.8855
"3374",79.10277,503.8988
"3375",78.82445,503.9121
"3376",78.57053,503.9254
"3377",78.345924,503.93872
"3378",78.150604,503.95203
"3379",77.994354,503.96533
"3380",77.86984,503.97864
"3381",77.77463,503.99194
"3382",77.696495,504.00525
"3383",77.6379,504.01855
"3384",77.5964,504.03186
"3385",77.57931,504.04517
"3386",77.576866,504.05847
"3387",77.57931,504.07178
"3388",77.593956,504.08508
"3389",77.659874,504.0984
"3390",77.874725,504.1117
"3391",78.3679,504.125
"3392",79.24681,504.1383
"3393",80.52613,504.1516
"3394",82.10086,504.16492
"3395",83.773254,504.17822
"3396",85.29183,504.19153
"3397",86.44175,504.20483
"3398",87.10826,504.21814
"3399",87.276726,504.23145
"3400",87.01305,504.24475
"3401",86.42954,504.25806
"3402",85.64095,504.27136
"3403",84.7425,504.28467
"3404",83.81964,504.29797
"3405",82.92607,504.31128
"3406",82.11551,504.3246
"3407",81.43923,504.3379
"3408",80.936295,504.3512
"3409",80.62379,504.3645
"3410",80.499275,504.3778
"3411",80.53101,504.3911
"3412",80.66529,504.40442
"3413",80.84108,504.41772
"3414",80.99977,504.43103
"3415",81.094986,504.44434
"3416",81.094986,504.45764
"3417",80.990005,504.47095
"3418",80.78493,504.48425
"3419",80.50172,504.49756
"3420",80.17212,504.51086
"3421",79.815674,504.52417
"3422",79.45922,504.53748
"3423",79.11253,504.55078
"3424",78.79271,504.5641
"3425",78.502174,504.5774
"3426",78.24826,504.5907
"3427",78.02365,504.604
"3428",77.83566,504.6173
"3429",77.679405,504.6306
"3430",77.55489,504.64392
"3431",77.45968,504.65723
"3432",77.39864,504.67053
"3433",77.3547,504.68384
"3434",77.32296,504.69714
"3435",77.29122,504.71045
"3436",77.26925,504.72375
"3437",77.30343,504.73706
"3438",77.49874,504.75037
"3439",77.98703,504.76367
"3440",78.873276,504.77698
"3441",80.177,504.79028
"3442",81.80545,504.8036
"3443",83.54864,504.8169
"3444",85.1429,504.8302
"3445",86.37339,504.8435
"3446",87.10582,504.8568
"3447",87.33044,504.87012
"3448",87.10826,504.88342
"3449",86.554054,504.89673
"3450",85.78256,504.91003
"3451",84.89876,504.92334
"3452",83.983215,504.93665
"3453",83.09941,504.94995
"3454",82.30106,504.96326
"3455",81.6321,504.97656
"3456",81.12184,504.98987
"3457",80.78737,505.00317
"3458",80.62867,505.01648
"3459",80.61646,505.0298
"3460",80.70191,505.0431
"3461",80.82887,505.0564
"3462",80.93385,505.0697
"3463",80.96803,505.083
"3464",80.90944,505.0963
"3465",80.75563,505.10962
"3466",80.5066,505.12292
"3467",80.18921,505.13623
"3468",79.823,505.14954
"3469",79.432365,505.16284
"3470",79.04173,505.17615
"3471",78.658424,505.18945
"3472",78.29954,505.20276
"3473",77.97238,505.21606
"3474",77.68429,505.22937
"3475",77.435265,505.24268
"3476",77.23018,505.25598
"3477",77.05928,505.2693
"3478",76.91768,505.2826
"3479",76.807816,505.2959
"3480",76.71992,505.3092
"3481",76.65156,505.3225
"3482",76.60029,505.33582
"3483",76.558784,505.34912
"3484",76.53437,505.36243
"3485",76.558784,505.37573
"3486",76.715034,505.38904
"3487",77.137405,505.40234
"3488",77.95285,505.41565
"3489",79.21507,505.42896
"3490",80.86305,505.44226
"3491",82.70878,505.45557
"3492",84.488594,505.46887
"3493",85.93881,505.48218
"3494",86.890976,505.49548
"3495",87.2987,505.5088
"3496",87.22301,505.5221
"3497",86.766464,505.5354
"3498",86.05844,505.5487
"3499",85.21126,505.562
"3500",84.30305,505.57532
"3501",83.404594,505.58862
"3502",82.5745,505.60193
"3503",81.85428,505.61523
"3504",81.2781,505.62854
"3505",80.87282,505.64185
"3506",80.635994,505.65515
"3507",80.552986,505.66846
"3508",80.584724,505.68176
"3509",80.67506,505.69507
"3510",80.762955,505.70837
"3511",80.80202,505.72168
"3512",80.76051,505.735
"3513",80.61402,505.7483
"3514",80.37232,505.7616
"3515",80.05493,505.7749
"3516",79.68139,505.7882
"3517",79.27856,505.8015
"3518",78.86839,505.81482
"3519",78.46555,505.82812
"3520",78.07736,505.84143
"3521",77.71847,505.85474
"3522",77.39376,505.86804
"3523",77.11299,505.88135
"3524",76.876175,505.89465
"3525",76.680855,505.90796
"3526",76.51972,505.92126
"3527",76.39033,505.93457
"3528",76.29023,505.94788
"3529",76.21698,505.96118
"3530",76.17059,505.9745
"3531",76.138855,505.9878
"3532",76.10712,506.0011
"3533",76.07538,506.0144
"3534",76.06561,506.0277
"3535",76.15839,506.04102
"3536",76.49287,506.05432
"3537",77.205765,506.06763
"3538",78.39475,506.08093
"3539",80.028076,506.09424
"3540",81.93973,506.10754
"3541",83.86603,506.12085
"3542",85.521324,506.13416
"3543",86.70054,506.14746
"3544",87.31579,506.16077
"3545",87.39147,506.17407
"3546",87.047226,506.18738
"3547",86.41978,506.20068
"3548",85.626305,506.214
"3549",84.7596,506.2273
"3550",83.88556,506.2406
"3551",83.053024,506.2539
"3552",82.30106,506.2672
"3553",81.668724,506.28052
"3554",81.18288,506.29382
"3555",80.86305,506.30713
"3556",80.69947,506.32043
"3557",80.66041,506.33374
"3558",80.70191,506.34705
"3559",80.765396,506.36035
"3560",80.799576,506.37366
"3561",80.765396,506.38696
"3562",80.638435,506.40027
"3563",80.40894,506.41357
"3564",80.08179,506.42688
"3565",79.68627,506.4402
"3566",79.25414,506.4535
"3567",78.81468,506.4668
"3568",78.39475,506.4801
"3569",78.011444,506.4934
"3570",77.662315,506.5067
"3571",77.34493,506.52002
"3572",77.0544,506.53333
"3573",76.79317,506.54663
"3574",76.56855,506.55994
"3575",76.38056,506.57324
"3576",76.226746,506.58655
"3577",76.10712,506.59985
"3578",76.02167,506.61316
"3579",75.96063,506.62646
"3580",75.92157,506.63977
"3581",75.897156,506.65308
"3582",75.88251,506.66638
"3583",75.860535,506.6797
"3584",75.83612,506.693
"3585",75.81659,506.7063
"3586",75.85809,506.7196
"3587",76.087585,506.7329
"3588",76.663765,506.74622
"3589",77.713585,506.75952
"3590",79.259026,506.77283
"3591",81.18532,506.78613
"3592",83.23613,506.79944
"3593",85.11604,506.81274
"3594",86.573586,506.82605
"3595",87.47692,506.83936
"3596",87.81384,506.85266
"3597",87.66979,506.86597
"3598",87.186386,506.87927
"3599",86.49058,506.89258
"3600",85.67513,506.90588
"3601",84.823074,506.9192
"3602",83.98566,506.9325
"3603",83.20683,506.9458
"3604",82.52323,506.9591
"3605",81.969025,506.9724
"3606",81.57107,506.98572
"3607",81.32693,506.99902
"3608",81.2195,507.01233
"3609",81.19997,507.02563
"3610",81.214615,507.03894
"3611",81.22682,507.05225
"3612",81.18776,507.06555
"3613",81.06325,507.07886
"3614",80.84108,507.09216
"3615",80.5359,507.10547
"3616",80.15991,507.11877
"3617",79.73754,507.13208
"3618",79.293205,507.1454
"3619",78.853745,507.1587
"3620",78.42893,507.172
"3621",78.02609,507.1853
"3622",77.65499,507.1986
"3623",77.32296,507.2119
"3624",77.02022,507.22522
"3625",76.75166,507.23853
"3626",76.51972,507.25183
"3627",76.334175,507.26514
"3628",76.190125,507.27844
"3629",76.085144,507.29175
"3630",76.019226,507.30505
"3631",75.97284,507.31836
"3632",75.93866,507.33167
"3633",75.90936,507.34497
"3634",75.88251,507.35828
"3635",75.85077,507.37158
"3636",75.809265,507.3849
"3637",75.7702,507.3982
"3638",75.789734,507.4115
"3639",75.999695,507.4248
"3640",76.57343,507.4381
"3641",77.64767,507.45142
"3642",79.23949,507.46472
"3643",81.22438,507.47803
"3644",83.34844,507.49133
"3645",85.29916,507.50464
"3646",86.81285,507.51794
"3647",87.75769,507.53125
"3648",88.13367,507.54456
"3649",88.03113,507.55786
"3650",87.58434,507.57117
"3651",86.93004,507.58447
"3652",86.168304,507.59778
"3653",85.3724,507.61108
"3654",84.58869,507.6244
"3655",83.85626,507.6377
"3656",83.194626,507.651
"3657",82.63554,507.6643
"3658",82.2034,507.6776
"3659",81.89334,507.69092
"3660",81.69558,507.70422
"3661",81.57595,507.71753
"3662",81.50759,507.73083
"3663",81.444115,507.74414
"3664",81.34646,507.75745
"3665",81.18288,507.77075
"3666",80.94606,507.78406
"3667",80.62623,507.79736
"3668",80.23804,507.81067
"3669",79.80591,507.82397
"3670",79.34692,507.83728
"3671",78.88548,507.8506
"3672",78.433815,507.8639
"3673",78.00412,507.8772
"3674",77.60372,507.8905
"3675",77.239944,507.9038
"3676",76.92012,507.9171
"3677",76.63691,507.93042
"3678",76.39277,507.94373
"3679",76.18768,507.95703
"3680",76.019226,507.97034
"3681",75.88251,507.98364
"3682",75.775085,507.99695
"3683",75.69207,508.01025
"3684",75.62859,508.02356
"3685",75.57488,508.03687
"3686",75.528496,508.05017
"3687",75.48211,508.06348
"3688",75.43328,508.07678
"3689",75.37469,508.0901
"3690",75.30633,508.1034
"3691",75.250175,508.1167
"3692",75.29412,508.13
"3693",75.58709,508.1433
"3694",76.30244,508.15662
"3695",77.557335,508.16992
"3696",79.34203,508.18323
"3697",81.48806,508.19653
"3698",83.702446,508.20984
"3699",85.67025,508.22314
"3700",87.15709,508.23645
"3701",88.0531,508.24976
"3702",88.39002,508.26306
"3703",88.272835,508.27637
"3704",87.8407,508.28967
"3705",87.218124,508.30298
"3706",86.50767,508.31628
"3707",85.767914,508.3296
"3708",85.0428,508.3429
"3709",84.35432,508.3562
"3710",83.72198,508.3695
"3711",83.15556,508.3828
"3712",82.684364,508.39612
"3713",82.31327,508.40942
"3714",82.039825,508.42273
"3715",81.84207,508.43604
"3716",81.688255,508.44934
"3717",81.54177,508.46265
"3718",81.36843,508.47595
"3719",81.13649,508.48926
"3720",80.84352,508.50256
"3721",80.48951,508.51587
"3722",80.08179,508.52917
"3723",79.63012,508.54248
"3724",79.16136,508.5558
"3725",78.68772,508.5691
"3726",78.221405,508.5824
"3727",77.77463,508.5957
"3728",77.35714,508.609
"3729",76.981155,508.6223
"3730",76.64423,508.63562
"3731",76.34638,508.64893
"3732",76.085144,508.66223
"3733",75.860535,508.67554
"3734",75.6701,508.68884
"3735",75.51385,508.70215
"3736",75.39178,508.71545
"3737",75.301445,508.72876
"3738",75.23308,508.74207
"3739",75.17937,508.75537
"3740",75.13054,508.76868
"3741",75.07683,508.78198
"3742",75.01091,508.7953
"3743",74.9279,508.8086
"3744",74.83513,508.8219
"3745",74.76921,508.8352
"3746",74.827805,508.8485
"3747",75.17204,508.86182
"3748",75.98016,508.87512
"3749",77.347374,508.88843
"3750",79.24437,508.90173
"3751",81.480736,508.91504
"3752",83.75372,508.92834
"3753",85.73861,508.94165
"3754",87.20592,508.95496
"3755",88.05798,508.96826
"3756",88.341194,508.98157
"3757",88.17517,508.99487
"3758",87.71618,509.00818
"3759",87.096054,509.02148
"3760",86.41978,509.0348
"3761",85.74349,509.0481
"3762",85.08675,509.0614
"3763",84.44709,509.0747
"3764",83.83429,509.088
"3765",83.25811,509.10132
"3766",82.73319,509.11462
"3767",82.286415,509.12793
"3768",81.9324,509.14124
"3769",81.668724,509.15454
"3770",81.461205,509.16785
"3771",81.287865,509.18115
"3772",81.10231,509.19446
"3773",80.87526,509.20776
"3774",80.587166,509.22107
"3775",80.23071,509.23438
"3776",79.815674,509.24768
"3777",79.35668,509.261
"3778",78.873276,509.2743
"3779",78.382545,509.2876
"3780",77.90402,509.3009
"3781",77.44747,509.3142
"3782",77.02266,509.3275
"3783",76.63447,509.34082
"3784",76.28779,509.35413
"3785",75.98505,509.36743
"3786",75.72869,509.38074
"3787",75.508965,509.39404
"3788",75.32342,509.40735
"3789",75.16716,509.42065
"3790",75.04021,509.43396
"3791",74.94011,509.44727
"3792",74.86687,509.46057
"3793",74.810715,509.47388
"3794",74.76921,509.48718
"3795",74.7277,509.5005
"3796",74.68131,509.5138
"3797",74.63004,509.5271
"3798",74.56901,509.5404
"3799",74.495766,509.5537
"3800",74.43229,509.56702
"3801",74.46403,509.58032
"3802",74.74723,509.59363
"3803",75.46258,509.60693
"3804",76.734566,509.62024
"3805",78.56077,509.63354
"3806",80.77516,509.64685
"3807",83.08232,509.66016
"3808",85.14534,509.67346
"3809",86.71519,509.68677
"3810",87.67712,509.70007
"3811",88.05066,509.71338
"3812",87.94324,509.72668
"3813",87.5111,509.74
"3814",86.89586,509.7533
"3815",86.1976,509.7666
"3816",85.489586,509.7799
"3817",84.8011,509.7932
"3818",84.14679,509.80652
"3819",83.526665,509.81982
"3820",82.95293,509.83313
"3821",82.44511,509.84644
"3822",82.020294,509.85974
"3823",81.6907,509.87305
"3824",81.449,509.88635
"3825",81.27566,509.89966
"3826",81.11696,509.91296
"3827",80.94362,509.92627
"3828",80.719,509.93958
"3829",80.428474,509.95288
"3830",80.07446,509.9662
"3831",79.67162,509.9795
"3832",79.237045,509.9928
"3833",78.785385,510.0061
"3834",78.32639,510.0194
"3835",77.86252,510.0327
"3836",77.41329,510.04602
"3837",76.98604,510.05933
"3838",76.592964,510.07263
"3839",76.243835,510.08594
"3840",75.93866,510.09924
"3841",75.67986,510.11255
"3842",75.457695,510.12585
"3843",75.267265,510.13916
"3844",75.11345,510.15247
"3845",74.99138,510.16577
"3846",74.90349,510.17908
"3847",74.84001,510.19238
"3848",74.80095,510.2057
"3849",74.76921,510.219
"3850",74.73258,510.2323
"3851",74.67887,510.2456
"3852",74.600746,510.2589
"3853",74.51774,510.27222
"3854",74.50553,510.28552
"3855",74.70573,510.29883
"3856",75.29412,510.31213
"3857",76.39521,510.32544
"3858",78.03342,510.33875
"3859",80.08179,510.35205
"3860",82.2913,510.36536
"3861",84.34699,510.37866
"3862",85.98764,510.39197
"3863",87.05699,510.40527
"3864",87.535515,510.41858
"3865",87.501335,510.4319
"3866",87.096054,510.4452
"3867",86.46372,510.4585
"3868",85.72884,510.4718
"3869",84.964676,510.4851
"3870",84.22003,510.4984
"3871",83.50713,510.51172
"3872",82.847946,510.52502
"3873",82.25956,510.53833
"3874",81.77371,510.55164
"3875",81.392845,510.56494
"3876",81.12428,510.57825
"3877",80.9485,510.59155
"3878",80.82643,510.60486
"3879",80.71656,510.61816
"3880",80.58228,510.63147
"3881",80.39918,510.64478
"3882",80.15503,510.65808
"3883",79.84497,510.6714
"3884",79.47875,510.6847
"3885",79.07103,510.698
"3886",78.63645,510.7113
"3887",78.187225,510.7246
"3888",77.74288,510.7379
"3889",77.315636,510.75122
"3890",76.91524,510.76453
"3891",76.53925,510.77783
"3892",76.20233,510.79114
"3893",75.911804,510.80444
"3894",75.66033,510.81775
"3895",75.45281,510.83105
"3896",75.284355,510.84436
"3897",75.15495,510.85767
"3898",75.0573,510.87097
"3899",74.98894,510.88428
"3900",74.93767,510.89758
"3901",74.898605,510.9109
"3902",74.85954,510.9242
"3903",74.8156,510.9375
"3904",74.76189,510.9508
"3905",74.70084,510.9641
"3906",74.649574,510.97742
"3907",74.669106,510.99072
"3908",74.898605,511.00403
"3909",75.50164,511.01733
"3910",76.610054,511.03064
"3911",78.24582,511.04395
"3912",80.289314,511.05725
"3913",82.48173,511.07056
"3914",84.5008,511.08386
"3915",86.07797,511.09717
"3916",87.0692,511.11047
"3917",87.46227,511.12378
"3918",87.345085,511.1371
"3919",86.8568,511.1504
"3920",86.14145,511.1637
"3921",85.30404,511.177
"3922",84.43,511.1903
"3923",83.577934,511.2036
"3924",82.794235,511.21692
"3925",82.10574,511.23022
"3926",81.53689,511.24353
"3927",81.10231,511.25684
"3928",80.80202,511.27014
"3929",80.621346,511.28345
"3930",80.52857,511.29675
"3931",80.48951,511.31006
"3932",80.462654,511.32336
"3933",80.4065,511.33667
"3934",80.289314,511.34998
"3935",80.09155,511.36328
"3936",79.81079,511.3766
"3937",79.45922,511.3899
"3938",79.061264,511.4032
"3939",78.63889,511.4165
"3940",78.21164,511.4298
"3941",77.79172,511.4431
"3942",77.39132,511.45642
"3943",77.01778,511.46973
"3944",76.680855,511.48303
"3945",76.383,511.49634
"3946",76.12909,511.50964
"3947",75.91913,511.52295
"3948",75.74822,511.53625
"3949",75.6115,511.54956
"3950",75.42596,511.57617
"3951",75.36736,511.58948
"3952",75.31609,511.60278
"3953",75.267265,511.6161
"3954",75.21843,511.6294
"3955",75.191574,511.6427
"3956",75.25262,511.656
"3957",75.53826,511.6693
"3958",76.192566,511.68262
"3959",77.31808,511.69592
"3960",78.907455,511.70923
"3961",80.82887,511.72253
"3962",82.83818,511.73584
"3963",84.65461,511.74915
"3964",86.04135,511.76245
"3965",86.869,511.77576
"3966",87.12535,511.78906
"3967",86.89342,511.80237
"3968",86.30015,511.81567
"3969",85.47738,511.82898
"3970",84.542305,511.8423
"3971",83.577934,511.8556
"3972",82.6453,511.8689
"3973",81.79813,511.8822
"3974",81.08278,511.8955
"3975",80.54078,511.9088
"3976",80.19409,511.92212
"3977",80.0354,511.93542
"3978",80.02319,511.94873
"3979",80.10864,511.96204
"3980",80.22095,511.97534
"3981",80.29908,511.98865
"3982",80.30396,512.00195
"3983",80.21362,512.01526
"3984",80.02075,512.02856
"3985",79.73998,512.0419
"3986",79.3933,512.0552
"3987",78.992905,512.0685
"3988",78.56809,512.0818
"3989",78.14084,512.0951
"3990",77.733116,512.1084
"3991",77.35958,512.1217
"3992",77.032425,512.135
"3993",76.74677,512.1483
"3994",76.49775,512.1616
"3995",76.282906,512.1749
"3996",76.09491,512.18823
"3997",75.931335,512.20154
"3998",75.78729,512.21484
"3999",75.665215,512.22815
"4000",75.577324,512.24146
"4001",75.57488,512.25476
"4002",75.7702,512.26807
"4003",76.3122,512.2814
"4004",77.31808,512.2947
"4005",78.8098,512.308
"4006",80.68482,512.3213
"4007",82.7161,512.3346
"4008",84.60334,512.3479
"4009",86.09262,512.3612
"4010",87.03746,512.3745
"4011",87.411,512.3878
"4012",87.27184,512.4011
"4013",86.746925,512.4144
"4014",85.96323,512.42773
"4015",85.033035,512.44104
"4016",84.04181,512.45435
"4017",83.06279,512.46765
"4018",82.15457,512.48096
"4019",81.37087,512.49426
"4020",80.75075,512.50757
"4021",80.325935,512.5209
"4022",80.10864,512.5342
"4023",80.07446,512.5475
"4024",80.16724,512.5608
"4025",80.31617,512.5741
"4026",80.45045,512.5874
"4027",80.51392,512.6007
"4028",80.46998,512.614
"4029",80.306404,512.6273
"4030",80.03296,512.6406
"4031",79.676506,512.65393
"4032",79.26635,512.66724
"4033",78.836655,512.68054
"4034",78.41184,512.69385
"4035",78.013885,512.70715
"4036",77.6379,512.72046
"4037",77.29366,512.73376
"4038",76.98848,512.7471
"4039",76.732124,512.7604
"4040",76.507515,512.7737
"4041",76.31953,512.787
"4042",76.15839,512.8003
"4043",76.02167,512.8136
"4044",75.93622,512.8269
"4045",75.99725,512.8402
"4046",76.35615,512.8535
"4047",77.154495,512.8668
"4048",78.46555,512.8801
"4049",80.23804,512.89343
"4050",82.29374,512.90674
"4051",84.34455,512.92004
"4052",86.0975,512.93335
"4053",87.35485,512.94666
"4054",88.03113,512.95996
"4055",88.148315,512.97327
"4056",87.8114,512.9866
"4057",87.15221,512.9999
"4058",86.29038,513.0132
"4059",85.330894,513.0265
"4060",84.349434,513.0398
"4061",83.41192,513.0531
"4062",82.56962,513.0664
"4063",81.864044,513.0797
"4064",81.324486,513.093
"4065",80.96559,513.1063
"4066",80.782486,513.1196
"4067",80.740974,513.13293
"4068",80.782486,513.14624
"4069",80.8362,513.15955
"4070",80.85329,513.17285
"4071",80.799576,513.18616
"4072",80.64576,513.19946
"4073",80.38453,513.21277
"4074",80.042725,513.2261
"4075",79.63256,513.2394
"4076",79.17845,513.2527
"4077",78.70237,513.266
"4078",78.24338,513.2793
"4079",77.81857,513.2926
"4080",77.44015,513.3059
"4081",77.100784,513.3192
"4082",76.80293,513.3325
"4083",76.53925,513.3458
"4084",76.29511,513.35913
"4085",76.070496,513.37244
"4086",75.880066,513.38574
"4087",75.78485,513.39905
"4088",75.894714,513.41235
"4089",76.35859,513.42566
"4090",77.30343,513.43896
"4091",78.75365,513.4523
"4092",80.60914,513.4656
"4093",82.650185,513.4789
"4094",84.58625,513.4922
"4095",86.1561,513.5055
"4096",87.19615,513.5188
"4097",87.66735,513.5321
"4098",87.63317,513.5454
"4099",87.218124,513.5587
"4100",86.556496,513.572
"4101",85.74593,513.5853
"4102",84.86458,513.59863
"4103",83.966125,513.61194
"4104",83.087204,513.62524
"4105",82.27665,513.63855
"4106",81.58816,513.65186
"4107",81.06081,513.66516
"4108",80.719,513.67847
"4109",80.53834,513.6918
"4110",80.479744,513.7051
"4111",80.4773,513.7184
"4112",80.46998,513.7317
"4113",80.394295,513.745
"4114",80.22095,513.7583
"4115",79.94507,513.7716
"4116",79.57885,513.7849
"4117",79.14183,513.7982
"4118",78.675514,513.8115
"4119",78.204315,513.8248
"4120",77.747765,513.83813
"4121",77.315636,513.85144
"4122",76.92256,513.86475
"4123",76.561226,513.87805
"4124",76.23895,513.89136
"4125",75.95087,513.90466
"4126",75.69451,513.91797
"4127",75.46746,513.9313
"4128",75.26971,513.9446
"4129",75.0988,513.9579
"4130",74.98161,513.9712
"4131",75.018234,513.9845
"4132",75.34295,513.9978
"4133",76.10956,514.0111
"4134",77.39132,514.0244
"4135",79.12718,514.0377
"4136",81.12428,514.051
"4137",83.09941,514.06433
"4138",84.76204,514.07764
"4139",85.91928,514.09094
"4140",86.51743,514.10425
"4141",86.607765,514.11755
"4142",86.29771,514.13086
"4143",85.71908,514.14417
"4144",84.972,514.1575
"4145",84.13214,514.1708
"4146",83.25811,514.1841
"4147",82.39628,514.1974
"4148",81.600365,514.2107
"4149",80.91188,514.224
"4150",80.365,514.2373
"4151",79.96948,514.2506
"4152",79.727776,514.2639
"4153",79.61303,514.2772
"4154",79.58129,514.2905
"4155",79.57641,514.30383
"4156",79.551994,514.31714
"4157",79.4519,514.33044
"4158",79.24925,514.34375
"4159",78.941635,514.35706
"4160",78.54856,514.37036
"4161",78.10422,514.38367
"4162",77.63546,514.397
"4163",77.171585,514.4103
"4164",76.734566,514.4236
"4165",76.33662,514.4369
"4166",75.98993,514.4502
"4167",75.69451,514.4635
"4168",75.44305,514.4768
"4169",75.228195,514.4901
"4170",75.04509,514.5034
"4171",74.89128,514.5167
"4172",74.76189,514.53
"4173",74.6569,514.54333
"4174",74.56901,514.55664
"4175",74.493324,514.56995
"4176",74.4567,514.58325
"4177",74.54948,514.59656
"4178",74.90837,514.60986
"4179",75.67254,514.62317
"4180",76.925,514.6365
"4181",78.607155,514.6498
"4182",80.53834,514.6631
"4183",82.44755,514.6764
"4184",84.06378,514.6897
"4185",85.19417,514.703
"4186",85.77524,514.7163
"4187",85.855804,514.7296
"4188",85.5433,514.7429
"4189",84.227356,514.76953
"4190",83.407036,514.78284
"4191",82.562294,514.79614
"4192",81.74441,514.80945
"4193",80.99977,514.82275
"4194",80.37476,514.83606
"4195",79.91333,514.84937
"4196",79.63744,514.8627
"4197",79.53246,514.876
"4198",79.54955,514.8893
"4199",79.63012,514.9026
"4200",79.708244,514.9159
"4201",79.727776,514.9292
"4202",79.65942,514.9425
"4203",79.49096,514.9558
"4204",79.22972,514.9691
"4205",78.887924,514.9824
"4206",78.48997,514.9957
"4207",78.0676,515.00903
"4208",77.65011,515.02234
"4209",77.2546,515.03564
"4210",76.88838,515.04895
"4211",76.56611,515.06226
"4212",76.28779,515.07556
"4213",76.04608,515.08887
"4214",75.84589,515.1022
"4215",75.684746,515.1155
"4216",75.55535,515.1288
"4217",75.45525,515.1421
"4218",75.386894,515.1554
"4219",75.34295,515.1687
"4220",75.31365,515.182
"4221",75.29412,515.1953
"4222",75.27215,515.2086
"4223",75.24773,515.2219
"4224",75.26238,515.2352
"4225",75.41863,515.24854
"4226",75.86542,515.26184
"4227",76.7248,515.27515
"4228",78.03586,515.28845
"4229",79.708244,515.30176
"4230",81.53689,515.31506
"4231",83.24834,515.32837
"4232",84.60334,515.3417
"4233",85.46029,515.355
"4234",85.79965,515.3683
"4235",85.697105,515.3816
"4236",85.25765,515.3949
"4237",84.58625,515.4082
"4238",83.775696,515.4215
"4239",82.90654,515.4348
"4240",82.04227,515.4481
"4241",81.24147,515.4614
"4242",80.56275,515.47473
"4243",80.05249,515.48804
"4244",79.73754,515.50134
"4245",79.61547,515.51465
"4246",79.656975,515.52795
"4247",79.79614,515.54126
"4248",79.957275,515.55457
"4249",80.07446,515.5679
"4250",80.096436,515.5812
"4251",80.00366,515.5945
"4252",79.7937,515.6078
"4253",79.49096,515.6211
"4254",79.12718,515.6344
"4255",78.73411,515.6477
"4256",78.33616,515.661
"4257",77.95529,515.6743
"4258",77.611046,515.6876
"4259",77.31075,515.7009
"4260",77.049515,515.71423
"4261",76.82735,515.72754
"4262",76.64423,515.74084
"4263",76.49775,515.75415
"4264",76.385445,515.76746
"4265",76.30244,515.78076
"4266",76.24628,515.79407
"4267",76.21698,515.8074
"4268",76.207214,515.8207
"4269",76.19745,515.834
"4270",76.1828,515.8473
"4271",76.155945,515.8606
"4272",76.11688,515.8739
"4273",76.09003,515.8872
"4274",76.13641,515.9005
"4275",76.368355,515.9138
"4276",76.92012,515.9271
"4277",77.87717,515.9404
"4278",79.23949,515.95374
"4279",80.88258,515.96704
"4280",82.579384,515.98035
"4281",84.07843,515.99365
"4282",85.17708,516.00696
"4283",85.78012,516.02026
"4284",85.89975,516.03357
"4285",85.62386,516.0469
"4286",85.05745,516.0602
"4287",84.30305,516.0735
"4288",83.45098,516.0868
"4289",82.57206,516.1001
"4290",81.7322,516.1134
"4291",81.00221,516.1267
"4292",80.4358,516.14
"4293",80.06714,516.1533
"4294",79.90845,516.1666
"4295",79.940186,516.17993
"4296",80.096436,516.19324
"4297",80.31129,516.20654
"4298",80.50904,516.21985
"4299",80.62867,516.23315
"4300",80.63111,516.24646
"4301",80.51148,516.25977
"4302",80.28443,516.2731
"4303",79.971924,516.2864
"4304",79.61059,516.2997
"4305",79.23216,516.313
"4306",78.856186,516.3263
"4307",78.50706,516.3396
"4308",78.19211,516.3529
"4309",77.92111,516.3662
"4310",77.68917,516.3795
"4311",77.486534,516.3928
"4312",77.31808,516.4061
"4313",77.18135,516.41943
"4314",77.07881,516.43274
"4315",77.00801,516.44604
"4316",76.97383,516.45935
"4317",76.964066,516.47266
"4318",76.97139,516.48596
"4319",76.98604,516.49927
"4320",77.00313,516.5126
"4321",77.015335,516.5259
"4322",77.015335,516.5392
"4323",76.995804,516.5525
"4324",76.964066,516.5658
"4325",76.95186,516.5791
"4326",77.03731,516.5924
"4327",77.3547,516.6057
"4328",78.02609,516.619
"4329",79.11009,516.6323
"4330",80.550545,516.6456
"4331",82.18143,516.65894
"4332",83.74883,516.67224
"4333",85.013504,516.68555
"4334",85.81186,516.69885
"4335",86.0975,516.71216
"4336",85.91928,516.72546
"4337",85.38705,516.7388
"4338",84.62043,516.7521
"4339",83.72198,516.7654
"4340",82.77226,516.7787
"4341",81.849396,516.792
"4342",81.01686,516.8053
"4343",80.3357,516.8186
"4344",79.85474,516.8319
"4345",79.59838,516.8452
"4346",79.554436,516.8585
"4347",79.68139,516.8718
"4348",79.91821,516.88513
"4349",80.18921,516.89844
"4350",80.42359,516.91174
"4351",80.56519,516.92505
"4352",80.57984,516.93835
"4353",80.47242,516.95166
"4354",80.255135,516.96497
"4355",79.95972,516.9783
"4356",79.62035,516.9916
"4357",79.26635,517.0049
"4358",78.91478,517.0182
"4359",78.58518,517.0315
"4360",78.28977,517.0448
"4361",78.03342,517.0581
"4362",77.823456,517.0714
"4363",77.659874,517.0847
"4364",77.53536,517.098
"4365",77.44259,517.1113
"4366",77.37179,517.12463
"4367",77.315636,517.13794
"4368",77.27413,517.15125
"4369",77.25216,517.16455
"4370",77.2546,517.17786
"4371",77.27657,517.19116
"4372",77.31075,517.20447
"4373",77.35226,517.2178
"4374",77.38888,517.2311
"4375",77.40841,517.2444
"4376",77.41085,517.2577
"4377",77.40353,517.271
"4378",77.420616,517.2843
"4379",77.55978,517.2976
"4380",77.94797,517.3109
"4381",78.70237,517.3242
"4382",79.86206,517.3375
"4383",81.34646,517.3508
"4384",82.95781,517.36414
"4385",84.44709,517.37744
"4386",85.57992,517.39075
"4387",86.22934,517.40405
"4388",86.37095,517.41736
"4389",86.07309,517.43066
"4390",85.44076,517.444
"4391",84.59113,517.4573
"4392",83.612114,517.4706
"4393",82.598915,517.4839
"4394",81.62722,517.4972
"4395",80.780045,517.5105
"4396",80.12085,517.5238
"4397",79.69604,517.5371
"4398",79.520256,517.5504
"4399",79.571526,517.5637
"4400",79.79126,517.577
"4401",80.10132,517.59033
"4402",80.42115,517.60364
"4403",80.67506,517.61694
"4404",80.82155,517.63025
"4405",80.833755,517.64355
"4406",80.723885,517.65686
"4407",80.5066,517.67017
"4408",80.218506,517.6835
"4409",79.88403,517.6968
"4410",79.534904,517.7101
"4411",79.19798,517.7234
"4412",78.887924,517.7367
"4413",78.61204,517.75
"4414",78.382545,517.7633
"4415",78.19211,517.7766
"4416",78.04318,517.7899
"4417",77.92355,517.8032
"4418",77.83078,517.8165
"4419",77.76486,517.82983
"4420",77.72335,517.84314
"4421",77.70382,517.85645
"4422",77.71114,517.86975
"4423",77.738,517.88306
"4424",77.77463,517.89636
"4425",77.81369,517.90967
"4426",77.84299,517.923
"4427",77.855194,517.9363
"4428",77.855194,517.9496
"4429",77.84299,517.9629
"4430",77.84543,517.9762
"4431",77.925995,517.9895
"4432",78.19943,518.0028
"4433",78.785385,518.0161
"4434",79.75464,518.0294
"4435",81.08034,518.0427
"4436",82.62089,518.056
"4437",84.15167,518.06934
"4438",85.42611,518.08264
"4439",86.26597,518.09595
"4440",86.598,518.10925
"4441",86.451515,518.12256
"4442",85.924164,518.13586
"4443",85.12581,518.1492
"4444",84.16632,518.1625
"4445",83.140915,518.1758
"4446",82.13992,518.1891
"4447",81.23903,518.2024
"4448",80.516365,518.2157
"4449",80.025635,518.229
"4450",79.79126,518.2423
"4451",79.80591,518.2556
"4452",80.01587,518.2689
"4453",80.33814,518.2822
"4454",80.69947,518.29553
"4455",81.024185,518.30884
"4456",81.253685,518.32214
"4457",81.35134,518.33545
"4458",81.31716,518.34875
"4459",81.160904,518.36206
"4460",80.90456,518.37537
"4461",80.570076,518.3887
"4462",80.198975,518.402
"4463",79.818115,518.4153
"4464",79.46166,518.4286
"4465",79.13939,518.4419
"4466",78.86839,518.4552
"4467",78.64622,518.4685
"4468",78.47288,518.4818
"4469",78.3386,518.4951
"4470",78.23605,518.5084
"4471",78.15793,518.5217
"4472",78.099335,518.53503
"4473",78.06271,518.54834
"4474",78.048065,518.56165
"4475",78.048065,518.57495
"4476",78.06027,518.58826
"4477",78.07492,518.60156
"4478",78.09201,518.61487
"4479",78.09201,518.6282
"4480",78.07736,518.6415
"4481",78.07004,518.6548
"4482",78.167694,518.6681
"4483",78.49485,518.6814
"4484",79.166245,518.6947
"4485",80.23071,518.708
"4486",81.634544,518.7213
"4487",83.19951,518.7346
"4488",84.6717,518.7479
"4489",85.81674,518.7612
"4490",86.4979,518.77454
"4491",86.678566,518.78784
"4492",86.40269,518.80115
"4493",85.7728,518.81445
"4494",84.90364,518.82776
"4495",83.90021,518.84106
"4496",82.85771,518.8544
"4497",81.864044,518.8677
"4498",80.990005,518.881
"4499",80.30152,518.8943
"4500",79.84985,518.9076
"4501",79.64965,518.9209
"4502",79.691154,518.9342
"4503",79.920654,518.9475
"4504",80.2649,518.9608
"4505",80.63355,518.9741
"4506",80.953384,518.9874
"4507",81.15846,519.00073
"4508",81.21217,519.01404
"4509",81.1194,519.02734
"4510",80.90456,519.04065
"4511",80.61646,519.05396
"4512",80.27955,519.06726
"4513",79.923096,519.08057
"4514",79.57885,519.0939
"4515",79.26391,519.1072
"4516",78.975815,519.1205
"4517",78.72434,519.1338
"4518",78.519264,519.1471
"4519",78.36057,519.1604
"4520",78.238495,519.1737
"4521",78.14572,519.187
"4522",78.082245,519.2003
"4523",78.04318,519.2136
