"","ppg","time"
"1",83.69512,862.8818
"2",83.563286,862.8951
"3",83.26299,862.9084
"4",82.85283,862.9217
"5",82.38407,862.935
"6",81.89578,862.9483
"7",81.42458,862.9616
"8",80.99245,862.9749
"9",80.60914,862.9882
"10",80.28199,863.0015
"11",80.01587,863.01483
"12",79.80835,863.02814
"13",79.67162,863.04144
"14",79.603264,863.05475
"15",79.603264,863.06805
"16",79.66918,863.08136
"17",79.78638,863.09467
"18",79.937744,863.108
"19",80.096436,863.1213
"20",80.24536,863.1346
"21",80.360115,863.1479
"22",80.42603,863.1612
"23",80.43824,863.1745
"24",80.396736,863.1878
"25",80.31373,863.2011
"26",80.198975,863.2144
"27",80.062256,863.2277
"28",79.923096,863.241
"29",79.78638,863.25433
"30",79.65453,863.26764
"31",79.534904,863.28094
"32",79.429924,863.29425
"33",79.34203,863.30756
"34",79.26879,863.32086
"35",79.21263,863.33417
"36",79.17113,863.3475
"37",79.14427,863.3608
"38",79.12474,863.3741
"39",79.11009,863.3874
"40",79.093,863.4007
"41",79.078354,863.414
"42",79.05882,863.4273
"43",79.044174,863.4406
"44",79.03441,863.4539
"45",79.02464,863.4672
"46",79.01488,863.4805
"47",79.00755,863.49384
"48",79.00267,863.50714
"49",79.00511,863.52045
"50",79.01488,863.53375
"51",79.03197,863.54706
"52",79.04906,863.56036
"53",79.063705,863.57367
"54",79.07591,863.587
"55",79.08568,863.6003
"56",79.09544,863.6136
"57",79.097885,863.6269
"58",79.097885,863.6402
"59",79.08812,863.6535
"60",79.07591,863.6668
"61",79.10521,863.6801
"62",79.24437,863.6934
"63",79.54955,863.7067
"64",80.0647,863.72003
"65",80.762955,863.73334
"66",81.56863,863.74664
"67",82.36942,863.75995
"68",83.04814,863.77325
"69",83.51934,863.78656
"70",83.758606,863.79987
"71",83.77814,863.8132
"72",83.60479,863.8265
"73",83.28985,863.8398
"74",82.87724,863.8531
"75",82.41093,863.8664
"76",81.9324,863.8797
"77",81.47341,863.893
"78",81.05104,863.9063
"79",80.6775,863.9196
"80",80.36256,863.9329
"81",80.10132,863.9462
"82",79.906006,863.95953
"83",79.77661,863.97284
"84",79.71557,863.98615
"85",79.71801,863.99945
"86",79.781494,864.01276
"87",79.89136,864.02606
"88",80.028076,864.03937
"89",80.17456,864.0527
"90",80.308846,864.066
"91",80.40894,864.0793
"92",80.45777,864.0926
"93",80.45777,864.1059
"94",80.4065,864.1192
"95",80.31617,864.1325
"96",80.198975,864.1458
"97",80.0647,864.1591
"98",79.920654,864.1724
"99",79.77661,864.1857
"100",79.63744,864.19904
"101",79.51049,864.21234
"102",79.398186,864.22565
"103",79.30541,864.23895
"104",79.22972,864.25226
"105",79.17113,864.26556
"106",79.12962,864.2789
"107",79.097885,864.2922
"108",79.07591,864.3055
"109",79.05882,864.3188
"110",79.04173,864.3321
"111",79.01976,864.3454
"112",78.995346,864.3587
"113",78.97337,864.372
"114",78.95384,864.3853
"115",78.941635,864.3986
"116",78.93431,864.4119
"117",78.93187,864.42523
"118",78.92943,864.43854
"119",78.924545,864.45184
"120",78.91966,864.46515
"121",78.91722,864.47845
"122",78.91966,864.49176
"123",78.92943,864.50507
"124",78.94408,864.5184
"125",78.96361,864.5317
"126",78.97337,864.545
"127",78.975815,864.5583
"128",78.97093,864.5716
"129",78.96849,864.5849
"130",79.00755,864.5982
"131",79.15404,864.6115
"132",79.47387,864.6248
"133",79.99878,864.6381
"134",80.706795,864.6514
"135",81.52712,864.66473
"136",82.34745,864.67804
"137",83.055466,864.69135
"138",83.563286,864.70465
"139",83.83917,864.71796
"140",83.88556,864.73126
"141",83.736626,864.74457
"142",83.43145,864.7579
"143",83.02617,864.7712
"144",82.56962,864.7845
"145",82.09842,864.7978
"146",81.64431,864.8111
"147",81.22682,864.8244
"148",80.86061,864.8377
"149",80.54322,864.851
"150",80.28443,864.8643
"151",80.08667,864.8776
"152",79.954834,864.8909
"153",79.886475,864.90424
"154",79.88159,864.91754
"155",79.940186,864.93085
"156",80.04761,864.94415
"157",80.18921,864.95746
"158",80.3357,864.97076
"159",80.465096,864.9841
"160",80.56031,864.9974
"161",80.6067,865.0107
"162",80.59937,865.024
"163",80.54078,865.0373
"164",80.44312,865.0506
"165",80.31617,865.0639
"166",80.16968,865.0772
"167",80.01587,865.0905
"168",79.86206,865.1038
"169",79.72045,865.1171
"170",79.59106,865.13043
"171",79.47387,865.14374
"172",79.37377,865.15704
"173",79.290764,865.17035
"174",79.2224,865.18365
"175",79.168686,865.19696
"176",79.1223,865.21027
"177",79.08812,865.2236
"178",79.05638,865.2369
"179",79.029526,865.2502
"180",79.00755,865.2635
"181",78.98314,865.2768
"182",78.96117,865.2901
"183",78.941635,865.3034
"184",78.922104,865.3167
"185",78.907455,865.33
"186",78.90013,865.3433
"187",78.89525,865.3566
"188",78.89281,865.36993
"189",78.89525,865.38324
"190",78.905014,865.39655
"191",78.91478,865.40985
"192",78.924545,865.42316
"193",78.93431,865.43646
"194",78.93675,865.44977
"195",78.92699,865.4631
"196",78.91478,865.4764
"197",78.92943,865.4897
"198",79.03685,865.503
"199",79.30541,865.5163
"200",79.77905,865.5296
"201",80.45045,865.5429
"202",81.26101,865.5562
"203",82.10574,865.5695
"204",82.86992,865.5828
"205",83.458305,865.5961
"206",83.826965,865.60944
"207",83.96857,865.62274
"208",83.90509,865.63605
"209",83.66827,865.64935
"210",83.30938,865.66266
"211",82.882126,865.67596
"212",82.423134,865.6893
"213",81.97391,865.7026
"214",81.55886,865.7159
"215",81.1902,865.7292
"216",80.87038,865.7425
"217",80.601814,865.7558
"218",80.394295,865.7691
"219",80.24536,865.7824
"220",80.15503,865.7957
"221",80.1355,865.809
"222",80.18677,865.8223
"223",80.28443,865.83563
"224",80.41871,865.84894
"225",80.56275,865.86224
"226",80.69703,865.87555
"227",80.79225,865.88885
"228",80.8362,865.90216
"229",80.82155,865.91547
"230",80.75319,865.9288
"231",80.635994,865.9421
"232",80.48951,865.9554
"233",80.32838,865.9687
"234",80.16235,865.982
"235",79.99878,865.9953
"236",79.84253,866.0086
"237",79.69604,866.0219
"238",79.5642,866.0352
"239",79.45434,866.0485
"240",79.361565,866.0618
"241",79.28588,866.07513
"242",79.22728,866.08844
"243",79.18089,866.10175
"244",79.14183,866.11505
"245",79.10277,866.12836
"246",79.063705,866.14166
"247",79.02464,866.15497
"248",78.98558,866.1683
"249",78.94652,866.1816
"250",78.91478,866.1949
"251",78.887924,866.2082
"252",78.86595,866.2215
"253",78.84886,866.2348
"254",78.83177,866.2481
"255",78.81712,866.2614
"256",78.802475,866.2747
"257",78.785385,866.288
"258",78.79027,866.30133
"259",78.86351,866.31464
"260",79.061264,866.32794
"261",79.44213,866.34125
"262",80.01831,866.35455
"263",80.74586,866.36786
"264",81.549095,866.38116
"265",82.31327,866.3945
"266",82.93828,866.4078
"267",83.36065,866.4211
"268",83.55596,866.4344
"269",83.53643,866.4477
"270",83.33868,866.461
"271",83.00908,866.4743
"272",82.60868,866.4876
"273",82.176544,866.5009
"274",81.75662,866.5142
"275",81.373314,866.5275
"276",81.02907,866.54083
"277",80.72877,866.55414
"278",80.4773,866.56744
"279",80.27711,866.58075
"280",80.130615,866.59406
"281",80.05249,866.60736
"282",80.03784,866.62067
"283",80.08667,866.634
"284",80.184326,866.6473
"285",80.31373,866.6606
"286",80.45045,866.6739
"287",80.57252,866.6872
"288",80.65797,866.7005
"289",80.689705,866.7138
"290",80.67017,866.7271
"291",80.59205,866.7404
"292",80.46754,866.7537
"293",80.308846,866.767
"294",80.13306,866.78033
"295",79.95239,866.79364
"296",79.77905,866.80695
"297",79.622795,866.82025
"298",79.483635,866.83356
"299",79.364006,866.84686
"300",79.259026,866.86017
"301",79.16136,866.8735
"302",79.080795,866.8868
"303",79.01488,866.9001
"304",78.958725,866.9134
"305",78.91722,866.9267
"306",78.88304,866.94
"307",78.853745,866.9533
"308",78.81712,866.9666
"309",78.78294,866.9799
"310",78.746315,866.9932
"311",78.71458,867.00653
"312",78.68528,867.01984
"313",78.658424,867.03314
"314",78.63401,867.04645
"315",78.60471,867.05975
"316",78.572975,867.07306
"317",78.553444,867.08636
"318",78.58518,867.0997
"319",78.72678,867.113
"320",79.03441,867.1263
"321",79.54223,867.1396
"322",80.22827,867.1529
"323",81.03395,867.1662
"324",81.85184,867.1795
"325",82.56718,867.1928
"326",83.09941,867.2061
"327",83.39727,867.2194
"328",83.46075,867.2327
"329",83.32403,867.24603
"330",83.03349,867.25934
"331",82.64774,867.27264
"332",82.22293,867.28595
"333",81.80301,867.29926
"334",81.41238,867.31256
"335",81.06325,867.32587
"336",80.75563,867.3392
"337",80.49195,867.3525
"338",80.274666,867.3658
"339",80.111084,867.3791
"340",80.008545,867.3924
"341",79.96948,867.4057
"342",79.98901,867.419
"343",80.062256,867.4323
"344",80.16968,867.4456
"345",80.289314,867.4589
"346",80.396736,867.4722
"347",80.47242,867.48553
"348",80.499275,867.49884
"349",80.46754,867.51215
"350",80.38209,867.52545
"351",80.25025,867.53876
"352",80.08911,867.55206
"353",79.90845,867.56537
"354",79.72045,867.5787
"355",79.534904,867.592
"356",79.364006,867.6053
"357",79.21263,867.6186
"358",79.078354,867.6319
"359",78.96361,867.6452
"360",78.87572,867.6585
"361",78.80492,867.6718
"362",78.746315,867.6851
"363",78.695045,867.6984
"364",78.6511,867.71173
"365",78.60471,867.72504
"366",78.55833,867.73834
"367",78.51682,867.75165
"368",78.47776,867.76495
"369",78.44114,867.77826
"370",78.41184,867.79156
"371",78.38743,867.8049
"372",78.365456,867.8182
"373",78.345924,867.8315
"374",78.32395,867.8448
"375",78.29954,867.8581
"376",78.26536,867.8714
"377",78.23605,867.8847
"378",78.21896,867.898
"379",78.26536,867.9113
"380",78.43137,867.9246
"381",78.77074,867.9379
"382",79.30053,867.95123
"383",80.00122,867.96454
"384",80.80202,867.97784
"385",81.59304,867.99115
"386",82.262,868.00446
"387",82.735634,868.01776
"388",82.97734,868.03107
"389",82.99199,868.0444
"390",82.81865,868.0577
"391",82.511024,868.071
"392",82.13016,868.0843
"393",81.72488,868.0976
"394",81.33425,868.1109
"395",80.98024,868.1242
"396",80.672615,868.1375
"397",80.40406,868.1508
"398",80.17212,868.1641
"399",79.974365,868.1774
"400",79.82056,868.19073
"401",79.71801,868.20404
"402",79.676506,868.21735
"403",79.691154,868.23065
"404",79.75708,868.24396
"405",79.84741,868.25726
"406",79.94507,868.27057
"407",80.028076,868.2839
"408",80.08179,868.2972
"409",80.09155,868.3105
"410",80.05493,868.3238
"411",79.96704,868.3371
"412",79.84497,868.3504
"413",79.691154,868.3637
"414",79.5227,868.377
"415",79.34692,868.3903
"416",79.17845,868.4036
"417",79.02464,868.41693
"418",78.887924,868.43024
"419",78.77074,868.44354
"420",78.677956,868.45685
"421",78.60471,868.47015
"422",78.551,868.48346
"423",78.5095,868.49677
"424",78.47776,868.5101
"425",78.45335,868.5234
"426",78.433815,868.5367
"427",78.4094,868.55
"428",78.382545,868.5633
"429",78.35813,868.5766
"430",78.33372,868.5899
"431",78.311745,868.6032
"432",78.2971,868.6165
"433",78.28733,868.6298
"434",78.28245,868.6431
"435",78.28001,868.65643
"436",78.277565,868.66974
"437",78.277565,868.68304
"438",78.277565,868.69635
"439",78.27024,868.70966
"440",78.25315,868.72296
"441",78.23117,868.73627
"442",78.21896,868.7496
"443",78.25315,868.7629
"444",78.39475,868.7762
"445",78.70725,868.7895
"446",79.20531,868.8028
"447",79.87427,868.8161
"448",80.64088,868.8294
"449",81.39529,868.8427
"450",82.02518,868.856
"451",82.4622,868.8693
"452",82.67216,868.8826
"453",82.67216,868.89594
"454",82.49882,868.90924
"455",82.20828,868.92255
"456",81.85428,868.93585
"457",81.48318,868.94916
"458",81.13649,868.96246
"459",80.833755,868.97577
"460",80.57496,868.9891
"461",80.360115,869.0024
"462",80.181885,869.0157
"463",80.03052,869.029
"464",79.906006,869.0423
"465",79.82056,869.0556
"466",79.77905,869.0689
"467",79.781494,869.0822
"468",79.82788,869.0955
"469",79.906006,869.1088
"470",79.99878,869.12213
"471",80.08179,869.13544
"472",80.13794,869.14874
"473",80.147705,869.16205
"474",80.1062,869.17535
"475",80.01343,869.18866
"476",79.88159,869.20197
"477",79.727776,869.2153
"478",79.5642,869.2286
"479",79.40551,869.2419
"480",79.26147,869.2552
"481",79.13451,869.2685
"482",79.029526,869.2818
"483",78.94652,869.2951
"484",78.87816,869.3084
"485",78.82689,869.3217
"486",78.785385,869.335
"487",78.75853,869.3483
"488",78.73899,869.36163
"489",78.7219,869.37494
"490",78.70481,869.38824
"491",78.692604,869.40155
"492",78.677956,869.41486
"493",78.660866,869.42816
"494",78.641335,869.44147
"495",78.61936,869.4548
"496",78.59495,869.4681
"497",78.56565,869.4814
"498",78.538795,869.4947
"499",78.52659,869.508
"500",78.521706,869.5213
"501",78.521706,869.5346
"502",78.52659,869.5479
"503",78.53147,869.5612
"504",78.54124,869.5745
"505",78.553444,869.5878
"506",78.56321,869.60114
"507",78.57053,869.61444
"508",78.57053,869.62775
"509",78.55833,869.64105
"510",78.54368,869.65436
"511",78.54368,869.66766
"512",78.61692,869.68097
"513",78.81468,869.6943
"514",79.183334,869.7076
"515",79.73266,869.7209
"516",80.428474,869.7342
"517",81.180435,869.7475
"518",81.883575,869.7608
"519",82.43778,869.7741
"520",82.78447,869.7874
"521",82.91142,869.8007
"522",82.84062,869.814
"523",82.616005,869.82733
"524",82.2913,869.84064
"525",81.92752,869.85394
"526",81.56863,869.86725
"527",81.24391,869.88055
"528",80.96803,869.89386
"529",80.73853,869.90717
"530",80.54566,869.9205
"531",80.38209,869.9338
"532",80.24048,869.9471
"533",80.128174,869.9604
"534",80.05737,869.9737
"535",80.025635,869.987
"536",80.0354,870.0003
"537",80.08179,870.0136
"538",80.15503,870.0269
"539",80.23071,870.0402
"540",80.2942,870.0535
"541",80.32838,870.06683
"542",80.325935,870.08014
"543",80.272224,870.09344
"544",80.17456,870.10675
"545",80.04761,870.12006
"546",79.903564,870.13336
"547",79.74975,870.14667
"548",79.603264,870.16
"549",79.47387,870.1733
"550",79.361565,870.1866
"551",79.26635,870.1999
"552",79.19066,870.2132
"553",79.13695,870.2265
"554",79.093,870.2398
"555",79.05638,870.2531
"556",79.03197,870.2664
"557",79.00755,870.2797
"558",78.98558,870.293
"559",78.96361,870.30634
"560",78.93919,870.31964
"561",78.91478,870.33295
"562",78.89525,870.34625
"563",78.87816,870.35956
"564",78.86839,870.37286
"565",78.86107,870.38617
"566",78.856186,870.3995
"567",78.8513,870.4128
"568",78.84154,870.4261
"569",78.83177,870.4394
"570",78.82201,870.4527
"571",78.81468,870.466
"572",78.8098,870.4793
"573",78.80736,870.4926
"574",78.8098,870.5059
"575",78.81468,870.5192
"576",78.819565,870.53253
"577",78.819565,870.54584
"578",78.81468,870.55914
"579",78.80736,870.57245
"580",78.80003,870.58575
"581",78.79515,870.59906
"582",78.80003,870.61237
"583",78.80736,870.6257
"584",78.819565,870.639
"585",78.83177,870.6523
"586",78.84154,870.6656
"587",78.84642,870.6789
"588",78.84886,870.6922
"589",78.84886,870.7055
"590",78.870834,870.7188
"591",78.96605,870.7321
"592",79.19066,870.7454
"593",79.59838,870.7587
"594",80.19409,870.77203
"595",80.936295,870.78534
"596",81.72976,870.79865
"597",82.459755,870.81195
"598",83.018845,870.82526
"599",83.36065,870.83856
"600",83.46563,870.85187
"601",83.36309,870.8652
"602",83.10918,870.8785
"603",82.7625,870.8918
"604",82.38163,870.9051
"605",82.01297,870.9184
"606",81.68337,870.9317
"607",81.409935,870.945
"608",81.19264,870.9583
"609",81.01686,870.9716
"610",80.86549,870.9849
"611",80.726326,870.9982
"612",80.59937,871.01154
"613",80.49195,871.02484
"614",80.41871,871.03815
"615",80.38697,871.05145
"616",80.40162,871.06476
"617",80.45289,871.07806
"618",80.516365,871.0914
"619",80.5774,871.1047
"620",80.60914,871.118
"621",80.6067,871.1313
"622",80.552986,871.1446
"623",80.46021,871.1579
"624",80.33326,871.1712
"625",80.184326,871.1845
"626",80.02319,871.1978
"627",79.869385,871.2111
"628",79.73022,871.2244
"629",79.605705,871.23773
"630",79.500725,871.25104
"631",79.415276,871.26434
"632",79.3518,871.27765
"633",79.29809,871.29095
"634",79.25414,871.30426
"635",79.2224,871.31757
"636",79.1931,871.3309
"637",79.1638,871.3442
"638",79.13695,871.3575
"639",79.114975,871.3708
"640",79.097885,871.3841
"641",79.08812,871.3974
"642",79.07591,871.4107
"643",79.063705,871.424
"644",79.046616,871.4373
"645",79.0222,871.4506
"646",78.995346,871.4639
"647",78.97093,871.47723
"648",78.95384,871.49054
"649",78.94652,871.50385
"650",78.94896,871.51715
"651",78.95384,871.53046
"652",78.96117,871.54376
"653",78.96117,871.55707
"654",78.958725,871.5704
"655",78.95628,871.5837
"656",78.94896,871.597
"657",78.94408,871.6103
"658",78.94652,871.6236
"659",78.94408,871.6369
"660",78.94408,871.6502
"661",78.94652,871.6635
"662",78.94896,871.6768
"663",78.941635,871.6901
"664",78.93431,871.7034
"665",78.92699,871.71674
"666",78.93675,871.73004
"667",79.00023,871.74335
"668",79.17601,871.75665
"669",79.51049,871.76996
"670",80.025635,871.78326
"671",80.69703,871.7966
"672",81.449,871.8099
"673",82.1741,871.8232
"674",82.7625,871.8365
"675",83.14824,871.8498
"676",83.30938,871.8631
"677",83.26299,871.8764
"678",83.05058,871.8897
"679",82.735634,871.903
"680",82.36698,871.9163
"681",81.99588,871.9296
"682",81.651634,871.94293
"683",81.36355,871.95624
"684",81.129166,871.96954
"685",80.94606,871.98285
"686",80.79469,871.99615
"687",80.66529,872.00946
"688",80.54322,872.02277
"689",80.4358,872.0361
"690",80.35279,872.0494
"691",80.30396,872.0627
"692",80.29664,872.076
"693",80.32838,872.0893
"694",80.38453,872.1026
"695",80.448006,872.1159
"696",80.49683,872.1292
"697",80.50904,872.1425
"698",80.48463,872.1558
"699",80.41627,872.1691
"700",80.308846,872.18243
"701",80.17456,872.19574
"702",80.025635,872.20905
"703",79.87427,872.22235
"704",79.73022,872.23566
"705",79.603264,872.24896
"706",79.49096,872.26227
"707",79.40063,872.2756
"708",79.33471,872.2889
"709",79.28344,872.3022
"710",79.24925,872.3155
"711",79.2224,872.3288
"712",79.200424,872.3421
"713",79.17601,872.3554
"714",79.15404,872.3687
"715",79.13451,872.382
"716",79.11253,872.3953
"717",79.08812,872.4086
"718",79.06859,872.42194
"719",79.04906,872.43524
"720",79.03197,872.44855
"721",79.01732,872.46185
"722",79.00755,872.47516
"723",79.00023,872.48846
"724",78.99046,872.5018
"725",78.9807,872.5151
"726",78.97337,872.5284
"727",78.97093,872.5417
"728",78.96605,872.555
"729",78.96361,872.5683
"730",78.96361,872.5816
"731",78.96605,872.5949
"732",78.97093,872.6082
"733",78.97093,872.6215
"734",78.96849,872.6348
"735",78.96605,872.64813
"736",78.96361,872.66144
"737",78.96605,872.67474
"738",78.96361,872.68805
"739",78.958725,872.70135
"740",78.95384,872.71466
"741",78.941635,872.72797
"742",78.93187,872.7413
"743",78.95384,872.7546
"744",79.0515,872.7679
"745",79.28344,872.7812
"746",79.691154,872.7945
"747",80.274666,872.8078
"748",80.98268,872.8211
"749",81.7322,872.8344
"750",82.408485,872.8477
"751",82.91875,872.861
"752",83.211716,872.8743
"753",83.29229,872.88763
"754",83.18486,872.90094
"755",82.933395,872.91425
"756",82.59647,872.92755
"757",82.22781,872.94086
"758",81.866486,872.95416
"759",81.54421,872.96747
"760",81.27566,872.9808
"761",81.06325,872.9941
"762",80.89235,873.0074
"763",80.75319,873.0207
"764",80.63111,873.034
"765",80.52613,873.0473
"766",80.445564,873.0606
"767",80.39185,873.0739
"768",80.37476,873.0872
"769",80.394295,873.1005
"770",80.44312,873.11383
"771",80.5066,873.12714
"772",80.56275,873.14044
"773",80.59205,873.15375
"774",80.58228,873.16705
"775",80.5359,873.18036
"776",80.445564,873.19366
"777",80.32838,873.207
"778",80.19409,873.2203
"779",80.05005,873.2336
"780",79.906006,873.2469
"781",79.76929,873.2602
"782",79.64477,873.2735
"783",79.537346,873.2868
"784",79.449455,873.3001
"785",79.381096,873.3134
"786",79.327385,873.3267
"787",79.28832,873.34
"788",79.256584,873.35333
"789",79.23216,873.36664
"790",79.21019,873.37994
"791",79.19066,873.39325
"792",79.17357,873.40656
"793",79.15404,873.41986
"794",79.13451,873.43317
"795",79.114975,873.4465
"796",79.097885,873.4598
"797",79.080795,873.4731
"798",79.07103,873.4864
"799",79.06615,873.4997
"800",79.061264,873.513
"801",79.05394,873.5263
"802",79.04906,873.5396
"803",79.04173,873.5529
"804",79.03197,873.5662
"805",79.029526,873.5795
"806",79.029526,873.59283
"807",79.03197,873.60614
"808",79.03197,873.61945
"809",79.029526,873.63275
"810",79.029526,873.64606
"811",79.029526,873.65936
"812",79.03441,873.67267
"813",79.03685,873.686
"814",79.03685,873.6993
"815",79.03197,873.7126
"816",79.01732,873.7259
"817",79.00755,873.7392
"818",79.03685,873.7525
"819",79.17113,873.7658
"820",79.45434,873.7791
"821",79.91821,873.7924
"822",80.5481,873.8057
"823",81.2781,873.81903
"824",82.01297,873.83234
"825",82.64774,873.84564
"826",83.106735,873.85895
"827",83.346,873.87225
"828",83.3753,873.88556
"829",83.21904,873.89886
"830",82.94072,873.9122
"831",82.59159,873.9255
"832",82.2327,873.9388
"833",81.900665,873.9521
"834",81.61257,873.9654
"835",81.38064,873.9787
"836",81.1902,873.992
"837",81.03395,874.0053
"838",80.902115,874.0186
"839",80.78493,874.0319
"840",80.68238,874.0452
"841",80.601814,874.05853
"842",80.552986,874.07184
"843",80.53834,874.08514
"844",80.56031,874.09845
"845",80.604256,874.11176
"846",80.66041,874.12506
"847",80.70435,874.13837
"848",80.723885,874.1517
"849",80.70191,874.165
"850",80.638435,874.1783
"851",80.5359,874.1916
"852",80.40406,874.2049
"853",80.257576,874.2182
"854",80.10864,874.2315
"855",79.96704,874.2448
"856",79.83765,874.2581
"857",79.725334,874.2714
"858",79.62524,874.2847
"859",79.53979,874.29803
"860",79.4641,874.31134
"861",79.40551,874.32465
"862",79.35424,874.33795
"863",79.31274,874.35126
"864",79.26879,874.36456
"865",79.23216,874.37787
"866",79.1931,874.3912
"867",79.15404,874.4045
"868",79.11986,874.4178
"869",79.093,874.4311
"870",79.07103,874.4444
"871",79.046616,874.4577
"872",79.02464,874.471
"873",79.00023,874.4843
"874",78.97826,874.4976
"875",78.96117,874.5109
"876",78.94652,874.52423
"877",78.93919,874.53754
"878",78.92943,874.55084
"879",78.91966,874.56415
"880",78.907455,874.57745
"881",78.89281,874.59076
"882",78.87572,874.60406
"883",78.85863,874.6174
"884",78.84642,874.6307
"885",78.836655,874.644
"886",78.83177,874.6573
"887",78.82689,874.6706
"888",78.82445,874.6839
"889",78.82201,874.6972
"890",78.819565,874.7105
"891",78.819565,874.7238
"892",78.82201,874.7371
"893",78.82201,874.7504
"894",78.81712,874.76373
"895",78.80736,874.77704
"896",78.79759,874.79034
"897",78.80492,874.80365
"898",78.87816,874.81696
"899",79.078354,874.83026
"900",79.449455,874.84357
"901",80.0061,874.8569
"902",80.706795,874.8702
"903",81.46609,874.8835
"904",82.178986,874.8968
"905",82.74052,874.9101
"906",83.09697,874.9234
"907",83.23369,874.9367
"908",83.17998,874.95
"909",82.9749,874.9633
"910",82.67704,874.9766
"911",82.33524,874.9899
"912",81.99588,875.00323
"913",81.685814,875.01654
"914",81.427025,875.02985
"915",81.214615,875.04315
"916",81.0486,875.05646
"917",80.90944,875.06976
"918",80.78981,875.08307
"919",80.67994,875.0964
"920",80.58228,875.1097
"921",80.50172,875.123
"922",80.448006,875.1363
"923",80.42359,875.1496
"924",80.428474,875.1629
"925",80.45045,875.1762
"926",80.48463,875.1895
"927",80.50416,875.2028
"928",80.50172,875.2161
"929",80.465096,875.22943
"930",80.396736,875.24274
"931",80.291756,875.25604
"932",80.16968,875.26935
"933",80.0354,875.28265
"934",79.8938,875.29596
"935",79.75464,875.30927
"936",79.62768,875.3226
"937",79.51293,875.3359
"938",79.42016,875.3492
"939",79.33959,875.3625
"940",79.276115,875.3758
"941",79.22728,875.3891
"942",79.185776,875.4024
"943",79.14671,875.4157
"944",79.11742,875.429
"945",79.09056,875.4423
"946",79.06859,875.4556
"947",79.046616,875.46893
"948",79.02464,875.48224
"949",79.00267,875.49554
"950",78.98558,875.50885
"951",78.96849,875.52216
"952",78.9514,875.53546
"953",78.941635,875.54877
"954",78.92943,875.5621
"955",78.91722,875.5754
"956",78.90257,875.5887
"957",78.887924,875.602
"958",78.870834,875.6153
"959",78.85863,875.6286
"960",78.84398,875.6419
"961",78.836655,875.6552
"962",78.82933,875.6685
"963",78.82201,875.6818
"964",78.8098,875.6951
"965",78.79759,875.70844
"966",78.785385,875.72174
"967",78.77318,875.73505
"968",78.765854,875.74835
"969",78.76097,875.76166
"970",78.75853,875.77496
"971",78.75853,875.78827
"972",78.76341,875.8016
"973",78.768295,875.8149
"974",78.77318,875.8282
"975",78.77318,875.8415
"976",78.76341,875.8548
"977",78.74876,875.8681
"978",78.746315,875.8814
"979",78.78783,875.8947
"980",78.924545,875.908
"981",79.202866,875.9213
"982",79.66186,875.93463
"983",80.27955,875.94794
"984",80.99977,875.96124
"985",81.72976,875.97455
"986",82.35966,875.98785
"987",82.81377,876.00116
"988",83.053024,876.01447
"989",83.07988,876.0278
"990",82.930954,876.0411
"991",82.65507,876.0544
"992",82.31327,876.0677
"993",81.95438,876.081
"994",81.617455,876.0943
"995",81.32693,876.1076
"996",81.092545,876.1209
"997",80.907,876.1342
"998",80.75807,876.1475
"999",80.638435,876.1608
"1000",80.52857,876.17413
"1001",80.4358,876.18744
"1002",80.360115,876.20074
"1003",80.308846,876.21405
"1004",80.28687,876.22736
"1005",80.29908,876.24066
"1006",80.33326,876.25397
"1007",80.37965,876.2673
"1008",80.42359,876.2806
"1009",80.448006,876.2939
"1010",80.445564,876.3072
"1011",80.40162,876.3205
"1012",80.325935,876.3338
"1013",80.218506,876.3471
"1014",80.09155,876.3604
"1015",79.957275,876.3737
"1016",79.82788,876.387
"1017",79.70336,876.4003
"1018",79.59106,876.41364
"1019",79.49096,876.42694
"1020",79.40551,876.44025
"1021",79.33227,876.45355
"1022",79.273674,876.46686
"1023",79.23216,876.48016
"1024",79.200424,876.49347
"1025",79.17601,876.5068
"1026",79.15404,876.5201
"1027",79.132065,876.5334
"1028",79.11009,876.5467
"1029",79.09056,876.56
"1030",79.07347,876.5733
"1031",79.05882,876.5866
"1032",79.04173,876.5999
"1033",79.02464,876.6132
"1034",79.01488,876.6265
"1035",79.009995,876.63983
"1036",79.012436,876.65314
"1037",79.0222,876.66644
"1038",79.029526,876.67975
"1039",79.03197,876.69305
"1040",79.03197,876.70636
"1041",79.02464,876.71967
"1042",79.01732,876.733
"1043",79.00755,876.7463
"1044",79.00267,876.7596
"1045",78.99779,876.7729
"1046",78.995346,876.7862
"1047",78.99046,876.7995
"1048",78.98802,876.8128
"1049",78.98558,876.8261
"1050",78.98802,876.8394
"1051",78.995346,876.8527
"1052",79.00511,876.866
"1053",79.01488,876.87933
"1054",79.01732,876.89264
"1055",79.012436,876.90594
"1056",79.00023,876.91925
"1057",78.9807,876.93256
"1058",78.975815,876.94586
"1059",79.027084,876.95917
"1060",79.183334,876.9725
"1061",79.4934,876.9858
"1062",79.98169,876.9991
"1063",80.61646,877.0124
"1064",81.322044,877.0257
"1065",81.99588,877.039
"1066",82.545204,877.0523
"1067",82.90166,877.0656
"1068",83.053024,877.0789
"1069",83.01396,877.0922
"1070",82.82597,877.1055
"1071",82.53544,877.11884
"1072",82.19119,877.13214
"1073",81.83475,877.14545
"1074",81.50515,877.15875
"1075",81.22438,877.17206
"1076",80.99245,877.18536
"1077",80.8069,877.19867
"1078",80.65308,877.212
"1079",80.52613,877.2253
"1080",80.41871,877.2386
"1081",80.34058,877.2519
"1082",80.29908,877.2652
"1083",80.29908,877.2785
"1084",80.33082,877.2918
"1085",80.38697,877.3051
"1086",80.45533,877.3184
"1087",80.516365,877.3317
"1088",80.55543,877.34503
"1089",80.56519,877.35834
"1090",80.54078,877.37164
"1091",80.479744,877.38495
"1092",80.38697,877.39825
"1093",80.272224,877.41156
"1094",80.14038,877.42487
"1095",80.008545,877.4382
"1096",79.87671,877.4515
"1097",79.75952,877.4648
"1098",79.656975,877.4781
"1099",79.571526,877.4914
"1100",79.50317,877.5047
"1101",79.44457,877.518
"1102",79.398186,877.5313
"1103",79.361565,877.5446
"1104",79.32983,877.5579
"1105",79.30541,877.5712
"1106",79.28588,877.58453
"1107",79.26879,877.59784
"1108",79.2517,877.61115
"1109",79.237045,877.62445
"1110",79.2224,877.63776
"1111",79.20775,877.65106
"1112",79.1931,877.66437
"1113",79.18089,877.6777
"1114",79.17357,877.691
"1115",79.168686,877.7043
"1116",79.166245,877.7176
"1117",79.1638,877.7309
"1118",79.16136,877.7442
"1119",79.15648,877.7575
"1120",79.151596,877.7708
"1121",79.14427,877.7841
"1122",79.13939,877.7974
"1123",79.13695,877.8107
"1124",79.13695,877.82404
"1125",79.13451,877.83734
"1126",79.12962,877.85065
"1127",79.11742,877.86395
"1128",79.10521,877.87726
"1129",79.093,877.89056
"1130",79.08812,877.9039
"1131",79.08812,877.9172
"1132",79.09056,877.9305
"1133",79.093,877.9438
"1134",79.09056,877.9571
"1135",79.08324,877.9704
"1136",79.08568,877.9837
"1137",79.12718,877.997
"1138",79.26147,878.0103
"1139",79.53979,878.0236
"1140",79.98657,878.0369
"1141",80.584724,878.05023
"1142",81.27322,878.06354
"1143",81.95438,878.07684
"1144",82.533,878.09015
"1145",82.93584,878.10345
"1146",83.13847,878.11676
"1147",83.140915,878.13007
"1148",82.98222,878.1434
"1149",82.70634,878.1567
"1150",82.36454,878.17
"1151",82.003204,878.1833
"1152",81.65896,878.1966
"1153",81.358665,878.2099
"1154",81.109634,878.2232
"1155",80.907,878.2365
"1156",80.743416,878.2498
"1157",80.61402,878.2631
"1158",80.516365,878.2764
"1159",80.445564,878.28973
"1160",80.40894,878.30304
"1161",80.411385,878.31635
"1162",80.448006,878.32965
"1163",80.50904,878.34296
"1164",80.57984,878.35626
"1165",80.64332,878.36957
"1166",80.689705,878.3829
"1167",80.70191,878.3962
"1168",80.67506,878.4095
"1169",80.60914,878.4228
"1170",80.51392,878.4361
"1171",80.39185,878.4494
"1172",80.255135,878.4627
"1173",80.111084,878.476
"1174",79.96948,878.4893
"1175",79.84253,878.5026
"1176",79.727776,878.5159
"1177",79.63012,878.52924
"1178",79.55688,878.54254
"1179",79.50317,878.55585
"1180",79.46166,878.56915
"1181",79.42748,878.58246
"1182",79.398186,878.59576
"1183",79.37133,878.6091
"1184",79.344475,878.6224
"1185",79.31762,878.6357
"1186",79.29809,878.649
"1187",79.281,878.6623
"1188",79.26391,878.6756
"1189",79.24681,878.6889
"1190",79.22728,878.7022
"1191",79.21263,878.7155
"1192",79.19798,878.7288
"1193",79.185776,878.7421
"1194",79.17357,878.75543
"1195",79.16136,878.76874
"1196",79.14671,878.78204
"1197",79.13695,878.79535
"1198",79.13451,878.80865
"1199",79.13451,878.82196
"1200",79.13451,878.83527
"1201",79.13451,878.8486
"1202",79.132065,878.8619
"1203",79.12718,878.8752
"1204",79.114975,878.8885
"1205",79.10277,878.9018
"1206",79.09056,878.9151
"1207",79.07347,878.9284
"1208",79.05394,878.9417
"1209",79.03441,878.955
"1210",79.01976,878.9683
"1211",79.01732,878.9816
"1212",79.07591,878.99493
"1213",79.2517,879.00824
"1214",79.58129,879.02155
"1215",80.079346,879.03485
"1216",80.71168,879.04816
"1217",81.40017,879.06146
"1218",82.04471,879.07477
"1219",82.55497,879.0881
"1220",82.8748,879.1014
"1221",82.99687,879.1147
"1222",82.93584,879.128
"1223",82.73319,879.1413
"1224",82.43778,879.1546
"1225",82.09842,879.1679
"1226",81.75906,879.1812
"1227",81.444115,879.1945
"1228",81.17311,879.2078
"1229",80.94606,879.2211
"1230",80.762955,879.23444
"1231",80.61402,879.24774
"1232",80.49683,879.26105
"1233",80.413826,879.27435
"1234",80.365,879.28766
"1235",80.360115,879.30096
"1236",80.38697,879.3143
"1237",80.44312,879.3276
"1238",80.51392,879.3409
"1239",80.587166,879.3542
"1240",80.638435,879.3675
"1241",80.66285,879.3808
"1242",80.65064,879.3941
"1243",80.59449,879.4074
"1244",80.50172,879.4207
"1245",80.37476,879.434
"1246",80.22827,879.4473
"1247",80.08179,879.46063
"1248",79.937744,879.47394
"1249",79.81079,879.48724
"1250",79.69848,879.50055
"1251",79.605705,879.51385
"1252",79.52514,879.52716
"1253",79.45922,879.54047
"1254",79.40795,879.5538
"1255",79.37133,879.5671
"1256",79.344475,879.5804
"1257",79.32494,879.5937
"1258",79.30541,879.607
"1259",79.28832,879.6203
"1260",79.27123,879.6336
"1261",79.256584,879.6469
"1262",79.23949,879.6602
"1263",79.219955,879.6735
"1264",79.200424,879.6868
"1265",79.18089,879.70013
"1266",79.166245,879.71344
"1267",79.15404,879.72675
"1268",79.149155,879.74005
"1269",79.14671,879.75336
"1270",79.149155,879.76666
"1271",79.151596,879.77997
"1272",79.15404,879.7933
"1273",79.15404,879.8066
"1274",79.15404,879.8199
"1275",79.14671,879.8332
"1276",79.13695,879.8465
"1277",79.12474,879.8598
"1278",79.114975,879.8731
"1279",79.11009,879.8864
"1280",79.10277,879.8997
"1281",79.08812,879.913
"1282",79.07103,879.92633
"1283",79.046616,879.93964
"1284",79.01732,879.95294
"1285",79.00023,879.96625
"1286",79.029526,879.97955
"1287",79.149155,879.99286
"1288",79.40795,880.00616
"1289",79.82544,880.0195
"1290",80.39918,880.0328
"1291",81.06569,880.0461
"1292",81.73708,880.0594
"1293",82.31815,880.0727
"1294",82.735634,880.086
"1295",82.95781,880.0993
"1296",82.984665,880.1126
"1297",82.847946,880.1259
"1298",82.60136,880.1392
"1299",82.29618,880.1525
"1300",81.97879,880.16583
"1301",81.685814,880.17914
"1302",81.43435,880.19244
"1303",81.22926,880.20575
"1304",81.058365,880.21906
"1305",80.91432,880.23236
"1306",80.79225,880.24567
"1307",80.68726,880.259
"1308",80.61402,880.2723
"1309",80.57496,880.2856
"1310",80.57496,880.2989
"1311",80.61402,880.3122
"1312",80.67994,880.3255
"1313",80.75563,880.3388
"1314",80.816666,880.3521
"1315",80.85329,880.3654
"1316",80.85329,880.3787
"1317",80.80934,880.392
"1318",80.72144,880.40533
"1319",80.6067,880.41864
"1320",80.46998,880.43195
"1321",80.325935,880.44525
"1322",80.184326,880.45856
"1323",80.05249,880.47186
"1324",79.93042,880.48517
"1325",79.82544,880.4985
"1326",79.73998,880.5118
"1327",79.67162,880.5251
"1328",79.62035,880.5384
"1329",79.571526,880.5517
"1330",79.52758,880.565
"1331",79.47875,880.5783
"1332",79.432365,880.5916
"1333",79.38842,880.6049
"1334",79.35424,880.6182
"1335",79.32494,880.63153
"1336",79.30297,880.64484
"1337",79.281,880.65814
"1338",79.259026,880.67145
"1339",79.23949,880.68475
"1340",79.22728,880.69806
"1341",79.217514,880.71136
"1342",79.20775,880.7247
"1343",79.19798,880.738
"1344",79.18822,880.7513
"1345",79.17845,880.7646
"1346",79.166245,880.7779
"1347",79.15892,880.7912
"1348",79.149155,880.8045
"1349",79.13451,880.8178
"1350",79.11742,880.8311
"1351",79.10033,880.8444
"1352",79.08324,880.8577
"1353",79.06615,880.87103
"1354",79.0515,880.88434
"1355",79.03929,880.89764
"1356",79.03197,880.91095
"1357",79.02464,880.92426
"1358",79.0222,880.93756
"1359",79.01976,880.95087
"1360",79.009995,880.9642
"1361",78.99046,880.9775
"1362",78.96361,880.9908
"1363",78.94896,881.0041
"1364",78.98314,881.0174
"1365",79.10521,881.0307
"1366",79.36645,881.044
"1367",79.79126,881.0573
"1368",80.36256,881.0706
"1369",81.01442,881.0839
"1370",81.66628,881.0972
"1371",82.22293,881.11053
"1372",82.61356,881.12384
"1373",82.80644,881.13715
"1374",82.81377,881.15045
"1375",82.669716,881.16376
"1376",82.423134,881.17706
"1377",82.12283,881.19037
"1378",81.812775,881.2037
"1379",81.52712,881.217
"1380",81.28298,881.2303
"1381",81.0901,881.2436
"1382",80.936295,881.2569
"1383",80.8069,881.2702
"1384",80.69459,881.2835
"1385",80.59937,881.2968
"1386",80.52369,881.3101
"1387",80.47242,881.3234
"1388",80.45777,881.33673
"1389",80.4773,881.35004
"1390",80.52369,881.36334
"1391",80.5774,881.37665
"1392",80.62379,881.38995
"1393",80.64332,881.40326
"1394",80.62379,881.41656
"1395",80.56031,881.4299
"1396",80.462654,881.4432
"1397",80.3357,881.4565
"1398",80.19165,881.4698
"1399",80.05005,881.4831
"1400",79.91089,881.4964
"1401",79.783936,881.5097
"1402",79.676506,881.523
"1403",79.588615,881.5363
"1404",79.51537,881.5496
"1405",79.45434,881.5629
"1406",79.40063,881.57623
"1407",79.34936,881.58954
"1408",79.30541,881.60284
"1409",79.26879,881.61615
"1410",79.23949,881.62946
"1411",79.219955,881.64276
"1412",79.20531,881.65607
"1413",79.18822,881.6694
"1414",79.166245,881.6827
"1415",79.14183,881.696
"1416",79.114975,881.7093
"1417",79.08812,881.7226
"1418",79.06859,881.7359
"1419",79.05394,881.7492
"1420",79.03929,881.7625
"1421",79.02464,881.7758
"1422",79.01732,881.7891
"1423",79.009995,881.8024
"1424",79.00511,881.81573
"1425",78.995346,881.82904
"1426",78.9807,881.84235
"1427",78.958725,881.85565
"1428",78.93187,881.86896
"1429",78.907455,881.88226
"1430",78.890366,881.89557
"1431",78.87816,881.9089
"1432",78.86595,881.9222
"1433",78.853745,881.9355
"1434",78.83421,881.9488
"1435",78.8098,881.9621
"1436",78.79515,881.9754
"1437",78.81468,881.9887
"1438",78.91722,882.002
"1439",79.14427,882.0153
"1440",79.5227,882.0286
"1441",80.03296,882.04193
"1442",80.621346,882.05524
"1443",81.19997,882.06854
"1444",81.685814,882.08185
"1445",82.01785,882.09515
"1446",82.159454,882.10846
"1447",82.125275,882.12177
"1448",81.94949,882.1351
"1449",81.67605,882.1484
"1450",81.358665,882.1617
"1451",81.04616,882.175
"1452",80.77028,882.1883
"1453",80.54322,882.2016
"1454",80.36256,882.2149
"1455",80.216064,882.2282
"1456",80.09888,882.2415
"1457",80.00122,882.2548
"1458",79.93286,882.2681
"1459",79.90112,882.28143
"1460",79.91333,882.29474
"1461",79.971924,882.30804
"1462",80.062256,882.32135
"1463",80.16724,882.33466
"1464",80.26734,882.34796
"1465",80.343025,882.36127
"1466",80.37476,882.3746
"1467",80.360115,882.3879
"1468",80.29908,882.4012
"1469",80.198975,882.4145
"1470",80.07202,882.4278
"1471",79.9353,882.4411
"1472",79.801025,882.4544
"1473",79.68139,882.4677
"1474",79.57397,882.481
"1475",79.483635,882.4943
"1476",79.41772,882.5076
"1477",79.364006,882.52094
"1478",79.32494,882.53424
"1479",79.293205,882.54755
"1480",79.27123,882.56085
"1481",79.256584,882.57416
"1482",79.24681,882.58746
"1483",79.24681,882.60077
"1484",79.24925,882.6141
"1485",79.256584,882.6274
"1486",79.25414,882.6407
"1487",79.2517,882.654
"1488",79.24681,882.6673
"1489",79.23949,882.6806
"1490",79.22972,882.6939
"1491",79.217514,882.7072
"1492",79.200424,882.7205
"1493",79.183334,882.7338
"1494",79.166245,882.74713
"1495",79.15404,882.76044
"1496",79.14427,882.77374
"1497",79.13451,882.78705
"1498",79.11742,882.80035
"1499",79.093,882.81366
"1500",79.06615,882.82697
"1501",79.03929,882.8403
"1502",79.012436,882.8536
"1503",78.995346,882.8669
"1504",79.009995,882.8802
"1505",79.093,882.8935
"1506",79.28832,882.9068
"1507",79.62035,882.9201
"1508",80.08667,882.9334
"1509",80.638435,882.9467
"1510",81.197525,882.96
"1511",81.68093,882.9733
"1512",82.022736,882.98663
"1513",82.18875,882.99994
"1514",82.18631,883.01324
"1515",82.04715,883.02655
"1516",81.81033,883.03986
"1517",81.52468,883.05316
"1518",81.234146,883.06647
"1519",80.970474,883.0798
"1520",80.7483,883.0931
"1521",80.56031,883.1064
"1522",80.4065,883.1197
"1523",80.274666,883.133
"1524",80.15991,883.1463
"1525",80.07202,883.1596
"1526",80.025635,883.1729
"1527",80.025635,883.1862
"1528",80.06958,883.1995
"1529",80.147705,883.2128
"1530",80.23804,883.22614
"1531",80.323494,883.23944
"1532",80.38453,883.25275
"1533",80.40406,883.26605
"1534",80.377205,883.27936
"1535",80.308846,883.29266
"1536",80.20386,883.30597
"1537",80.076904,883.3193
"1538",79.940186,883.3326
"1539",79.80347,883.3459
"1540",79.674065,883.3592
"1541",79.55688,883.3725
"1542",79.45678,883.3858
"1543",79.381096,883.3991
"1544",79.327385,883.4124
"1545",79.293205,883.4257
"1546",79.273674,883.439
"1547",79.26147,883.45233
"1548",79.25414,883.46564
"1549",79.24437,883.47894
"1550",79.237045,883.49225
"1551",79.22972,883.50555
"1552",79.219955,883.51886
"1553",79.21507,883.53217
"1554",79.21019,883.5455
"1555",79.20775,883.5588
"1556",79.19798,883.5721
"1557",79.185776,883.5854
"1558",79.17113,883.5987
"1559",79.16136,883.612
"1560",79.15404,883.6253
"1561",79.151596,883.6386
"1562",79.14427,883.6519
"1563",79.13939,883.6652
"1564",79.12962,883.6785
"1565",79.11742,883.69183
"1566",79.10033,883.70514
"1567",79.08324,883.71844
"1568",79.06615,883.73175
"1569",79.04906,883.74506
"1570",79.046616,883.75836
"1571",79.09056,883.77167
"1572",79.22728,883.785
"1573",79.49096,883.7983
"1574",79.89624,883.8116
"1575",80.42359,883.8249
"1576",80.99977,883.8382
"1577",81.54177,883.8515
"1578",81.97391,883.8648
"1579",82.23514,883.8781
"1580",82.320595,883.8914
"1581",82.247345,883.9047
"1582",82.05936,883.918
"1583",81.79813,883.93134
"1584",81.51736,883.94464
"1585",81.253685,883.95795
"1586",81.024185,883.97125
"1587",80.82887,883.98456
"1588",80.672615,883.99786
"1589",80.5359,884.01117
"1590",80.40894,884.0245
"1591",80.2942,884.0378
"1592",80.201416,884.0511
"1593",80.147705,884.0644
"1594",80.13306,884.0777
"1595",80.16235,884.091
"1596",80.22339,884.1043
"1597",80.29908,884.1176
"1598",80.36988,884.1309
"1599",80.42115,884.1442
"1600",80.430916,884.15753
"1601",80.40162,884.17084
"1602",80.32838,884.18414
"1603",80.216064,884.19745
"1604",80.08423,884.21075
"1605",79.940186,884.22406
"1606",79.79614,884.23737
"1607",79.66674,884.2507
"1608",79.551994,884.264
"1609",79.45678,884.2773
"1610",79.38598,884.2906
"1611",79.33471,884.3039
"1612",79.29809,884.3172
"1613",79.276115,884.3305
"1614",79.26391,884.3438
"1615",79.256584,884.3571
"1616",79.24437,884.3704
"1617",79.234604,884.3837
"1618",79.22484,884.39703
"1619",79.21263,884.41034
"1620",79.19554,884.42365
"1621",79.18089,884.43695
"1622",79.166245,884.45026
"1623",79.14427,884.46356
"1624",79.1223,884.47687
"1625",79.10521,884.4902
"1626",79.097885,884.5035
"1627",79.09544,884.5168
"1628",79.10277,884.5301
"1629",79.11253,884.5434
"1630",79.11986,884.5567
"1631",79.1223,884.57
"1632",79.11742,884.5833
"1633",79.11009,884.5966
"1634",79.09544,884.6099
"1635",79.07591,884.6232
"1636",79.046616,884.63654
"1637",79.027084,884.64984
"1638",79.027084,884.66315
"1639",79.08568,884.67645
"1640",79.23949,884.68976
"1641",79.53002,884.70306
"1642",79.96216,884.7164
"1643",80.50904,884.7297
"1644",81.112076,884.743
"1645",81.68093,884.7563
"1646",82.13504,884.7696
"1647",82.423134,884.7829
"1648",82.52567,884.7962
"1649",82.4622,884.8095
"1650",82.27421,884.8228
"1651",82.01297,884.8361
"1652",81.72976,884.8494
"1653",81.46609,884.86273
"1654",81.24147,884.87604
"1655",81.06569,884.88934
"1656",80.93141,884.90265
"1657",80.814224,884.91595
"1658",80.69947,884.92926
"1659",80.57984,884.94257
"1660",80.46021,884.9559
"1661",80.35035,884.9692
"1662",80.272224,884.9825
"1663",80.233154,884.9958
"1664",80.24048,885.0091
"1665",80.274666,885.0224
"1666",80.323494,885.0357
"1667",80.36256,885.049
"1668",80.37965,885.0623
"1669",80.35767,885.0756
"1670",80.29664,885.0889
"1671",80.201416,885.10223
"1672",80.08179,885.11554
"1673",79.94263,885.12885
"1674",79.798584,885.14215
"1675",79.66186,885.15546
"1676",79.54467,885.16876
"1677",79.44213,885.18207
"1678",79.36645,885.1954
"1679",79.31762,885.2087
"1680",79.281,885.222
"1681",79.259026,885.2353
"1682",79.23949,885.2486
"1683",79.22484,885.2619
"1684",79.21019,885.2752
"1685",79.19554,885.2885
"1686",79.17601,885.3018
"1687",79.15892,885.3151
"1688",79.13695,885.3284
"1689",79.11742,885.34174
"1690",79.10277,885.35504
"1691",79.09056,885.36835
"1692",79.08324,885.38165
"1693",79.07591,885.39496
"1694",79.06615,885.40826
"1695",79.05638,885.4216
"1696",79.046616,885.4349
"1697",79.04173,885.4482
"1698",79.03685,885.4615
"1699",79.03197,885.4748
"1700",79.029526,885.4881
"1701",79.027084,885.5014
"1702",79.01976,885.5147
"1703",79.01488,885.528
"1704",79.00755,885.5413
"1705",78.995346,885.5546
"1706",78.97826,885.56793
"1707",78.95628,885.58124
"1708",78.93675,885.59454
"1709",78.924545,885.60785
"1710",78.941635,885.62115
"1711",79.0222,885.63446
"1712",79.21263,885.64777
"1713",79.54223,885.6611
"1714",80.01343,885.6744
"1715",80.59693,885.6877
"1716",81.22194,885.701
"1717",81.79813,885.7143
"1718",82.24002,885.7276
"1719",82.50126,885.7409
"1720",82.5745,885.7542
"1721",82.48173,885.7675
"1722",82.27421,885.7808
"1723",82.005646,885.7941
"1724",81.72732,885.80743
"1725",81.47585,885.82074
"1726",81.26833,885.83405
"1727",81.10475,885.84735
"1728",80.9778,885.86066
"1729",80.86549,885.87396
"1730",80.75563,885.88727
"1731",80.64332,885.9006
"1732",80.52369,885.9139
"1733",80.41627,885.9272
"1734",80.325935,885.9405
"1735",80.272224,885.9538
"1736",80.257576,885.9671
"1737",80.27711,885.9804
"1738",80.31861,885.9937
"1739",80.360115,886.007
"1740",80.37965,886.0203
"1741",80.36744,886.0336
"1742",80.31617,886.04694
"1743",80.22583,886.06024
"1744",80.1062,886.07355
"1745",79.96948,886.08685
"1746",79.835205,886.10016
"1747",79.708244,886.11346
"1748",79.59838,886.1268
"1749",79.50317,886.1401
"1750",79.42504,886.1534
"1751",79.361565,886.1667
"1752",79.31762,886.18
"1753",79.28344,886.1933
"1754",79.26391,886.2066
"1755",79.2517,886.2199
"1756",79.23949,886.2332
"1757",79.22484,886.2465
"1758",79.20775,886.2598
"1759",79.1931,886.27313
"1760",79.18089,886.28644
"1761",79.166245,886.29974
"1762",79.15404,886.31305
"1763",79.13939,886.32635
"1764",79.12474,886.33966
"1765",79.11009,886.35297
"1766",79.09544,886.3663
"1767",79.08568,886.3796
"1768",79.078354,886.3929
"1769",79.07347,886.4062
"1770",79.07103,886.4195
"1771",79.06859,886.4328
"1772",79.063705,886.4461
"1773",79.05394,886.4594
"1774",79.04173,886.4727
"1775",79.03197,886.486
"1776",79.02464,886.4993
"1777",79.01488,886.51263
"1778",79.00755,886.52594
"1779",78.99779,886.53925
"1780",78.99046,886.55255
"1781",78.98558,886.56586
"1782",78.98314,886.57916
"1783",78.9807,886.59247
"1784",78.97826,886.6058
"1785",78.97093,886.6191
"1786",78.96361,886.6324
"1787",78.98558,886.6457
"1788",79.078354,886.659
"1789",79.28344,886.6723
"1790",79.64477,886.6856
"1791",80.15747,886.6989
"1792",80.782486,886.7122
"1793",81.43923,886.7255
"1794",82.03494,886.73883
"1795",82.48661,886.75214
"1796",82.75029,886.76544
"1797",82.82353,886.77875
"1798",82.72831,886.79205
"1799",82.51591,886.80536
"1800",82.23758,886.81866
"1801",81.94705,886.832
"1802",81.67849,886.8453
"1803",81.45876,886.8586
"1804",81.29763,886.8719
"1805",81.180435,886.8852
"1806",81.092545,886.8985
"1807",81.00954,886.9118
"1808",80.91432,886.9251
"1809",80.80202,886.9384
"1810",80.68726,886.9517
"1811",80.587166,886.965
"1812",80.51881,886.97833
"1813",80.48707,886.99164
"1814",80.48951,887.00494
"1815",80.50904,887.01825
"1816",80.52613,887.03156
"1817",80.533455,887.04486
"1818",80.51881,887.05817
"1819",80.47242,887.0715
"1820",80.396736,887.0848
"1821",80.29664,887.0981
"1822",80.17212,887.1114
"1823",80.0354,887.1247
"1824",79.89868,887.138
"1825",79.77661,887.1513
"1826",79.66918,887.1646
"1827",79.588615,887.1779
"1828",79.52758,887.1912
"1829",79.48119,887.2045
"1830",79.449455,887.21783
"1831",79.42016,887.23114
"1832",79.39086,887.24445
"1833",79.364006,887.25775
"1834",79.33715,887.27106
"1835",79.31274,887.28436
"1836",79.28832,887.29767
"1837",79.26879,887.311
"1838",79.25414,887.3243
"1839",79.24193,887.3376
"1840",79.23216,887.3509
"1841",79.219955,887.3642
"1842",79.20531,887.3775
"1843",79.19066,887.3908
"1844",79.17357,887.4041
"1845",79.16136,887.4174
"1846",79.149155,887.4307
"1847",79.13695,887.44403
"1848",79.12474,887.45734
"1849",79.114975,887.47064
"1850",79.10277,887.48395
"1851",79.097885,887.49725
"1852",79.093,887.51056
"1853",79.093,887.52386
"1854",79.09056,887.5372
"1855",79.093,887.5505
"1856",79.09544,887.5638
"1857",79.093,887.5771
"1858",79.08568,887.5904
"1859",79.07347,887.6037
"1860",79.05638,887.617
"1861",79.046616,887.6303
"1862",79.07347,887.6436
"1863",79.17357,887.6569
"1864",79.38842,887.6702
"1865",79.75464,887.68353
"1866",80.26734,887.69684
"1867",80.885025,887.71014
"1868",81.529564,887.72345
"1869",82.11795,887.73676
"1870",82.562294,887.75006
"1871",82.82109,887.76337
"1872",82.89189,887.7767
"1873",82.79912,887.79
"1874",82.58915,887.8033
"1875",82.320595,887.8166
"1876",82.039825,887.8299
"1877",81.78836,887.8432
"1878",81.583275,887.8565
"1879",81.42947,887.8698
"1880",81.307396,887.8831
"1881",81.19997,887.8964
"1882",81.0901,887.9097
"1883",80.972916,887.92303
"1884",80.848404,887.93634
"1885",80.73609,887.94965
"1886",80.65064,887.96295
"1887",80.59693,887.97626
"1888",80.584724,887.98956
"1889",80.6067,888.00287
"1890",80.64576,888.0162
"1891",80.68726,888.0295
"1892",80.709236,888.0428
"1893",80.69947,888.0561
"1894",80.64332,888.0694
"1895",80.54566,888.0827
"1896",80.41627,888.096
"1897",80.26978,888.1093
"1898",80.11597,888.1226
"1899",79.974365,888.1359
"1900",79.84985,888.14923
"1901",79.742424,888.16254
"1902",79.65209,888.17584
"1903",79.58129,888.18915
"1904",79.52514,888.20245
"1905",79.47875,888.21576
"1906",79.44213,888.22906
"1907",79.41039,888.2424
"1908",79.38354,888.2557
"1909",79.3518,888.269
"1910",79.32494,888.2823
"1911",79.29565,888.2956
"1912",79.27123,888.3089
"1913",79.24925,888.3222
"1914",79.22972,888.3355
"1915",79.217514,888.3488
"1916",79.20775,888.3621
"1917",79.19554,888.3754
"1918",79.18822,888.38873
"1919",79.17357,888.40204
"1920",79.15648,888.41534
"1921",79.132065,888.42865
"1922",79.114975,888.44196
"1923",79.10521,888.45526
"1924",79.097885,888.46857
"1925",79.09544,888.4819
"1926",79.093,888.4952
"1927",79.09056,888.5085
"1928",79.078354,888.5218
"1929",79.05638,888.5351
"1930",79.03685,888.5484
"1931",79.02464,888.5617
"1932",79.00755,888.575
"1933",78.99046,888.5883
"1934",78.97337,888.6016
"1935",78.95384,888.6149
"1936",78.941635,888.62823
"1937",78.96605,888.64154
"1938",79.06859,888.65485
"1939",79.293205,888.66815
"1940",79.67162,888.68146
"1941",80.201416,888.69476
"1942",80.84352,888.70807
"1943",81.51736,888.7214
"1944",82.1326,888.7347
"1945",82.60136,888.748
"1946",82.882126,888.7613
"1947",82.96513,888.7746
"1948",82.87724,888.7879
"1949",82.667274,888.8012
"1950",82.39384,888.8145
"1951",82.10574,888.8278
"1952",81.849396,888.8411
"1953",81.634544,888.85443
"1954",81.46609,888.86774
"1955",81.33425,888.88104
"1956",81.22438,888.89435
"1957",81.11452,888.90765
"1958",80.99977,888.92096
"1959",80.88014,888.93427
"1960",80.77028,888.9476
"1961",80.68482,888.9609
"1962",80.63355,888.9742
"1963",80.62379,888.9875
"1964",80.6482,889.0008
"1965",80.689705,889.0141
"1966",80.726326,889.0274
"1967",80.740974,889.0407
"1968",80.719,889.054
"1969",80.66041,889.0673
"1970",80.567635,889.0806
"1971",80.44068,889.09393
"1972",80.29908,889.10724
"1973",80.14526,889.12054
"1974",79.99878,889.13385
"1975",79.86694,889.14716
"1976",79.7522,889.16046
"1977",79.656975,889.17377
"1978",79.58373,889.1871
"1979",79.52758,889.2004
"1980",79.47631,889.2137
"1981",79.429924,889.227
"1982",79.39086,889.2403
"1983",79.35424,889.2536
"1984",79.31762,889.2669
"1985",79.28832,889.2802
"1986",79.26391,889.2935
"1987",79.24681,889.3068
"1988",79.234604,889.3201
"1989",79.2224,889.33344
"1990",79.202866,889.34674
"1991",79.17845,889.36005
"1992",79.14671,889.37335
"1993",79.11742,889.38666
"1994",79.09056,889.39996
"1995",79.06859,889.41327
"1996",79.04906,889.4266
"1997",79.029526,889.4399
"1998",79.009995,889.4532
"1999",78.98314,889.4665
"2000",78.96117,889.4798
"2001",78.941635,889.4931
"2002",78.922104,889.5064
"2003",78.905014,889.5197
"2004",78.88548,889.533
"2005",78.86595,889.5463
"2006",78.8513,889.55963
"2007",78.836655,889.57294
"2008",78.82689,889.58624
"2009",78.82201,889.59955
"2010",78.81468,889.61285
"2011",78.80492,889.62616
"2012",78.785385,889.63947
"2013",78.76341,889.6528
"2014",78.75365,889.6661
"2015",78.79027,889.6794
"2016",78.91966,889.6927
"2017",79.19066,889.706
"2018",79.63256,889.7193
"2019",80.22583,889.7326
"2020",80.91676,889.7459
"2021",81.60525,889.7592
"2022",82.19852,889.7725
"2023",82.62577,889.7858
"2024",82.85527,889.79913
"2025",82.88945,889.81244
"2026",82.76982,889.82574
"2027",82.54276,889.83905
"2028",82.262,889.85236
"2029",81.97879,889.86566
"2030",81.72732,889.87897
"2031",81.52712,889.8923
"2032",81.375755,889.9056
"2033",81.25857,889.9189
"2034",81.15846,889.9322
"2035",81.058365,889.9455
"2036",80.94606,889.9588
"2037",80.82887,889.9721
"2038",80.71656,889.9854
"2039",80.621346,889.9987
"2040",80.55787,890.012
"2041",80.53101,890.0253
"2042",80.533455,890.03864
"2043",80.552986,890.05194
"2044",80.57496,890.06525
"2045",80.57984,890.07855
"2046",80.550545,890.09186
"2047",80.49195,890.10516
"2048",80.40162,890.11847
"2049",80.289314,890.1318
"2050",80.164795,890.1451
"2051",80.03784,890.1584
"2052",79.91089,890.1717
"2053",79.7937,890.185
"2054",79.68871,890.1983
"2055",79.60082,890.2116
"2056",79.52758,890.2249
"2057",79.47143,890.2382
"2058",79.4226,890.2515
"2059",79.38842,890.26483
"2060",79.35912,890.27814
"2061",79.32983,890.29144
"2062",79.29809,890.30475
"2063",79.26635,890.31805
"2064",79.23216,890.33136
"2065",79.19554,890.34467
"2066",79.15892,890.358
"2067",79.12474,890.3713
"2068",79.08812,890.3846
"2069",79.0515,890.3979
"2070",79.01976,890.4112
"2071",78.98558,890.4245
"2072",78.9514,890.4378
"2073",78.91722,890.4511
"2074",78.87816,890.4644
"2075",78.84154,890.4777
"2076",78.80492,890.491
"2077",78.77074,890.50433
"2078",78.74143,890.51764
"2079",78.712135,890.53094
"2080",78.68528,890.54425
"2081",78.66331,890.55756
"2082",78.64622,890.57086
"2083",78.63157,890.58417
"2084",78.624245,890.5975
"2085",78.61692,890.6108
"2086",78.607155,890.6241
"2087",78.59983,890.6374
"2088",78.59739,890.6507
"2089",78.59739,890.664
"2090",78.60227,890.6773
"2091",78.6096,890.6906
"2092",78.61692,890.7039
"2093",78.61448,890.7172
"2094",78.607155,890.7305
"2095",78.59495,890.74384
"2096",78.59495,890.75714
"2097",78.64622,890.77045
"2098",78.80492,890.78375
"2099",79.11742,890.79706
"2100",79.60082,890.81036
"2101",80.23071,890.82367
"2102",80.94118,890.837
"2103",81.63943,890.8503
"2104",82.22781,890.8636
"2105",82.6453,890.8769
"2106",82.865036,890.8902
"2107",82.88945,890.9035
"2108",82.75517,890.9168
"2109",82.51591,890.9301
"2110",82.22049,890.9434
"2111",81.92264,890.9567
"2112",81.654076,890.97003
"2113",81.43435,890.98334
"2114",81.270775,890.99664
"2115",81.1487,891.00995
"2116",81.0486,891.02325
"2117",80.953384,891.03656
"2118",80.85573,891.04987
"2119",80.75075,891.0632
"2120",80.65308,891.0765
"2121",80.570076,891.0898
"2122",80.516365,891.1031
"2123",80.49439,891.1164
"2124",80.50172,891.1297
"2125",80.52125,891.143
"2126",80.5359,891.1563
"2127",80.533455,891.1696
"2128",80.50416,891.1829
"2129",80.44068,891.1962
"2130",80.34547,891.20953
"2131",80.22827,891.22284
"2132",80.093994,891.23615
"2133",79.94995,891.24945
"2134",79.80347,891.26276
"2135",79.66674,891.27606
"2136",79.54467,891.28937
"2137",79.44457,891.3027
"2138",79.36645,891.316
"2139",79.30541,891.3293
"2140",79.25414,891.3426
"2141",79.21019,891.3559
"2142",79.17113,891.3692
"2143",79.13695,891.3825
"2144",79.11009,891.3958
"2145",79.09056,891.4091
"2146",79.07103,891.4224
"2147",79.05394,891.4357
"2148",79.03197,891.44904
"2149",79.009995,891.46234
"2150",78.98314,891.47565
"2151",78.958725,891.48895
"2152",78.93675,891.50226
"2153",78.91478,891.51556
"2154",78.89769,891.5289
"2155",78.88304,891.5422
"2156",78.870834,891.5555
"2157",78.856186,891.5688
"2158",78.84886,891.5821
"2159",78.839096,891.5954
"2160",78.83177,891.6087
"2161",78.82201,891.622
"2162",78.8098,891.6353
"2163",78.79271,891.6486
"2164",78.77806,891.6619
"2165",78.76341,891.67523
"2166",78.746315,891.68854
"2167",78.73655,891.70184
"2168",78.73411,891.71515
"2169",78.73655,891.72845
"2170",78.74387,891.74176
"2171",78.75609,891.75507
"2172",78.77074,891.7684
"2173",78.785385,891.7817
"2174",78.79515,891.795
"2175",78.80492,891.8083
"2176",78.81224,891.8216
"2177",78.81224,891.8349
"2178",78.802475,891.8482
"2179",78.79027,891.8615
"2180",78.78783,891.8748
"2181",78.836655,891.8881
"2182",78.98314,891.9014
"2183",79.273674,891.91473
"2184",79.727776,891.92804
"2185",80.325935,891.94135
"2186",81.00221,891.95465
"2187",81.66628,891.96796
"2188",82.22781,891.98126
"2189",82.62089,891.99457
"2190",82.81865,892.0079
"2191",82.8333,892.0212
"2192",82.69657,892.0345
"2193",82.45243,892.0478
"2194",82.15457,892.0611
"2195",81.83963,892.0744
"2196",81.55154,892.0877
"2197",81.307396,892.101
"2198",81.11696,892.1143
"2199",80.970474,892.1276
"2200",80.85329,892.1409
"2201",80.75319,892.15424
"2202",80.66285,892.16754
"2203",80.57984,892.18085
"2204",80.51392,892.19415
"2205",80.46998,892.20746
"2206",80.45533,892.22076
"2207",80.46998,892.2341
"2208",80.50416,892.2474
"2209",80.5481,892.2607
"2210",80.58228,892.274
"2211",80.59449,892.2873
"2212",80.57496,892.3006
"2213",80.516365,892.3139
"2214",80.428474,892.3272
"2215",80.31373,892.3405
"2216",80.184326,892.3538
"2217",80.05005,892.3671
"2218",79.91577,892.38043
"2219",79.7937,892.39374
"2220",79.68871,892.40704
"2221",79.59838,892.42035
"2222",79.52514,892.43365
"2223",79.466545,892.44696
"2224",79.42016,892.46027
"2225",79.381096,892.4736
"2226",79.3518,892.4869
"2227",79.32983,892.5002
"2228",79.30785,892.5135
"2229",79.28832,892.5268
"2230",79.26879,892.5401
"2231",79.24925,892.5534
"2232",79.22484,892.5667
"2233",79.20531,892.58
"2234",79.18822,892.5933
"2235",79.17601,892.6066
"2236",79.1638,892.61993
"2237",79.15404,892.63324
"2238",79.14183,892.64655
"2239",79.12718,892.65985
"2240",79.10765,892.67316
"2241",79.08324,892.68646
"2242",79.063705,892.69977
"2243",79.046616,892.7131
"2244",79.029526,892.7264
"2245",79.01488,892.7397
"2246",79.00023,892.753
"2247",78.98558,892.7663
"2248",78.97093,892.7796
"2249",78.958725,892.7929
"2250",78.94896,892.8062
"2251",78.94652,892.8195
"2252",78.94652,892.8328
"2253",78.94896,892.8461
"2254",78.94896,892.85944
"2255",78.9514,892.87274
"2256",78.95384,892.88605
"2257",78.958725,892.89935
"2258",78.96117,892.91266
"2259",78.96117,892.92596
"2260",78.96117,892.9393
"2261",78.9514,892.9526
"2262",78.941635,892.9659
"2263",78.95384,892.9792
"2264",79.027084,892.9925
"2265",79.21507,893.0058
"2266",79.55932,893.0191
"2267",80.06958,893.0324
"2268",80.71412,893.0457
"2269",81.41482,893.059
"2270",82.074005,893.0723
"2271",82.60136,893.08563
"2272",82.94072,893.09894
"2273",83.087204,893.11224
"2274",83.053024,893.12555
"2275",82.879684,893.13885
"2276",82.61356,893.15216
"2277",82.29862,893.16547
"2278",81.97635,893.1788
"2279",81.68337,893.1921
"2280",81.43435,893.2054
"2281",81.231705,893.2187
"2282",81.06813,893.232
"2283",80.93385,893.2453
"2284",80.81911,893.2586
"2285",80.72144,893.2719
"2286",80.65064,893.2852
"2287",80.61158,893.2985
"2288",80.6067,893.3118
"2289",80.63111,893.32513
"2290",80.67994,893.33844
"2291",80.73853,893.35175
"2292",80.79469,893.36505
"2293",80.82643,893.37836
"2294",80.82643,893.39166
"2295",80.78737,893.40497
"2296",80.71168,893.4183
"2297",80.6067,893.4316
"2298",80.482185,893.4449
"2299",80.34791,893.4582
"2300",80.21118,893.4715
"2301",80.079346,893.4848
"2302",79.954834,893.4981
"2303",79.84497,893.5114
"2304",79.74731,893.5247
"2305",79.6643,893.538
"2306",79.5935,893.55133
"2307",79.53979,893.56464
"2308",79.49584,893.57794
"2309",79.46166,893.59125
"2310",79.432365,893.60455
"2311",79.40795,893.61786
"2312",79.38354,893.63116
"2313",79.361565,893.6445
"2314",79.33959,893.6578
"2315",79.31518,893.6711
"2316",79.293205,893.6844
"2317",79.27123,893.6977
"2318",79.2517,893.711
"2319",79.234604,893.7243
"2320",79.219955,893.7376
"2321",79.21019,893.7509
"2322",79.202866,893.7642
"2323",79.1931,893.7775
"2324",79.18089,893.79083
"2325",79.17357,893.80414
"2326",79.1638,893.81744
"2327",79.15648,893.83075
"2328",79.149155,893.84406
"2329",79.14671,893.85736
"2330",79.14427,893.87067
"2331",79.14183,893.884
"2332",79.13939,893.8973
"2333",79.13939,893.9106
"2334",79.13695,893.9239
"2335",79.12962,893.9372
"2336",79.11986,893.9505
"2337",79.11253,893.9638
"2338",79.10521,893.9771
"2339",79.10033,893.9904
"2340",79.093,894.0037
"2341",79.078354,894.017
"2342",79.05394,894.03033
"2343",79.03197,894.04364
"2344",79.03441,894.05695
"2345",79.09544,894.07025
"2346",79.259026,894.08356
"2347",79.571526,894.09686
"2348",80.04028,894.11017
"2349",80.64576,894.1235
"2350",81.322044,894.1368
"2351",81.988556,894.1501
"2352",82.55497,894.1634
"2353",82.95537,894.1767
"2354",83.16533,894.19
"2355",83.19707,894.2033
"2356",83.075,894.2166
"2357",82.845505,894.2299
"2358",82.547646,894.2432
"2359",82.22781,894.25653
"2360",81.91531,894.26984
"2361",81.64187,894.28314
"2362",81.41482,894.29645
"2363",81.23659,894.30975
"2364",81.10231,894.32306
"2365",80.99489,894.33636
"2366",80.902115,894.3497
"2367",80.81911,894.363
"2368",80.75563,894.3763
"2369",80.71656,894.3896
"2370",80.709236,894.4029
"2371",80.73121,894.4162
"2372",80.77516,894.4295
"2373",80.831314,894.4428
"2374",80.8777,894.4561
"2375",80.89967,894.4694
"2376",80.88747,894.4827
"2377",80.84108,894.49603
"2378",80.76051,894.50934
"2379",80.65308,894.52264
"2380",80.53101,894.53595
"2381",80.39918,894.54926
"2382",80.2649,894.56256
"2383",80.1355,894.57587
"2384",80.01343,894.5892
"2385",79.903564,894.6025
"2386",79.80591,894.6158
"2387",79.72045,894.6291
"2388",79.64965,894.6424
"2389",79.588615,894.6557
"2390",79.53002,894.669
"2391",79.47631,894.6823
"2392",79.42748,894.6956
"2393",79.37621,894.7089
"2394",79.32006,894.7222
"2395",79.26391,894.73553
"2396",79.202866,894.74884
"2397",79.14427,894.76215
"2398",79.09056,894.77545
"2399",79.046616,894.78876
"2400",79.009995,894.80206
"2401",78.98558,894.81537
"2402",78.96605,894.8287
"2403",78.9514,894.842
"2404",78.941635,894.8553
"2405",78.93675,894.8686
"2406",78.92699,894.8819
"2407",78.91722,894.8952
"2408",78.905014,894.9085
"2409",78.887924,894.9218
"2410",78.86839,894.9351
"2411",78.84886,894.9484
"2412",78.83177,894.96173
"2413",78.82689,894.97504
"2414",78.83177,894.98834
"2415",78.84398,895.00165
"2416",78.86107,895.01495
"2417",78.8806,895.02826
"2418",78.890366,895.04156
"2419",78.89769,895.0549
"2420",78.89525,895.0682
"2421",78.88548,895.0815
"2422",78.86595,895.0948
"2423",78.84154,895.1081
"2424",78.836655,895.1214
"2425",78.90013,895.1347
"2426",79.08568,895.148
"2427",79.43725,895.1613
"2428",79.957275,895.1746
"2429",80.60914,895.1879
"2430",81.324486,895.20123
"2431",82.00076,895.21454
"2432",82.55497,895.22784
"2433",82.933395,895.24115
"2434",83.123825,895.25446
"2435",83.13115,895.26776
"2436",82.98955,895.28107
"2437",82.74052,895.2944
"2438",82.4329,895.3077
"2439",82.11063,895.321
"2440",81.80301,895.3343
"2441",81.529564,895.3476
"2442",81.30007,895.3609
"2443",81.10475,895.3742
"2444",80.94118,895.3875
"2445",80.80202,895.4008
"2446",80.69459,895.4141
"2447",80.618904,895.4274
"2448",80.58228,895.44073
"2449",80.58228,895.45404
"2450",80.621346,895.46735
"2451",80.6775,895.48065
"2452",80.740974,895.49396
"2453",80.79469,895.50726
"2454",80.82399,895.52057
"2455",80.814224,895.5339
"2456",80.76784,895.5472
"2457",80.67994,895.5605
"2458",80.55787,895.5738
"2459",80.41627,895.5871
"2460",80.2649,895.6004
"2461",80.10864,895.6137
"2462",79.95972,895.627
"2463",79.82056,895.6403
"2464",79.69848,895.6536
"2465",79.586174,895.66693
"2466",79.48608,895.68024
"2467",79.395744,895.69354
"2468",79.3225,895.70685
"2469",79.26147,895.72015
"2470",79.21019,895.73346
"2471",79.166245,895.74677
"2472",79.12718,895.7601
"2473",79.08568,895.7734
"2474",79.04906,895.7867
"2475",79.01488,895.8
"2476",78.99046,895.8133
"2477",78.97093,895.8266
"2478",78.95384,895.8399
"2479",78.93675,895.8532
"2480",78.924545,895.8665
"2481",78.91478,895.8798
"2482",78.907455,895.8931
"2483",78.907455,895.90643
"2484",78.9099,895.91974
"2485",78.91722,895.93304
"2486",78.92699,895.94635
"2487",78.941635,895.95966
"2488",78.95384,895.97296
"2489",78.96361,895.98627
"2490",78.96361,895.9996
"2491",78.95384,896.0129
"2492",78.93675,896.0262
"2493",78.91234,896.0395
"2494",78.890366,896.0528
"2495",78.870834,896.0661
"2496",78.853745,896.0794
"2497",78.836655,896.0927
"2498",78.81712,896.106
"2499",78.80003,896.1193
"2500",78.77562,896.1326
"2501",78.74876,896.14594
"2502",78.71946,896.15924
"2503",78.70725,896.17255
"2504",78.75609,896.18585
"2505",78.91478,896.19916
"2506",79.22728,896.21246
"2507",79.708244,896.22577
"2508",80.325935,896.2391
"2509",81.007095,896.2524
"2510",81.654076,896.2657
"2511",82.18631,896.279
"2512",82.547646,896.2923
"2513",82.718544,896.3056
"2514",82.703896,896.3189
"2515",82.54032,896.3322
"2516",82.25956,896.3455
"2517",81.91287,896.3588
"2518",81.54177,896.37213
"2519",81.18776,896.38544
"2520",80.8777,896.39874
"2521",80.621346,896.41205
"2522",80.42115,896.42535
"2523",80.26734,896.43866
"2524",80.15259,896.45197
"2525",80.06958,896.4653
"2526",80.02319,896.4786
"2527",80.01099,896.4919
"2528",80.0354,896.5052
"2529",80.093994,896.5185
"2530",80.177,896.5318
"2531",80.26246,896.5451
"2532",80.33082,896.5584
"2533",80.365,896.5717
"2534",80.35279,896.585
"2535",80.289314,896.5983
"2536",80.181885,896.61163
"2537",80.045166,896.62494
"2538",79.89624,896.63824
"2539",79.744865,896.65155
"2540",79.59838,896.66486
"2541",79.46166,896.67816
"2542",79.344475,896.69147
"2543",79.23949,896.7048
"2544",79.15404,896.7181
"2545",79.08812,896.7314
"2546",79.03929,896.7447
"2547",79.00267,896.758
"2548",78.97826,896.7713
"2549",78.958725,896.7846
"2550",78.941635,896.7979
"2551",78.92699,896.8112
"2552",78.905014,896.8245
"2553",78.88304,896.8378
"2554",78.86107,896.85114
"2555",78.839096,896.86444
"2556",78.82689,896.87775
"2557",78.82201,896.89105
"2558",78.82201,896.90436
"2559",78.82933,896.91766
"2560",78.84154,896.93097
"2561",78.8513,896.9443
"2562",78.85863,896.9576
"2563",78.86107,896.9709
"2564",78.85863,896.9842
"2565",78.84642,896.9975
"2566",78.83421,897.0108
"2567",78.82201,897.0241
"2568",78.8098,897.0374
"2569",78.802475,897.0507
"2570",78.80003,897.064
"2571",78.79759,897.07733
"2572",78.79759,897.09064
"2573",78.79759,897.10394
"2574",78.79271,897.11725
"2575",78.78294,897.13055
"2576",78.76341,897.14386
"2577",78.74143,897.15717
"2578",78.72434,897.1705
"2579",78.74387,897.1838
"2580",78.84154,897.1971
"2581",79.063705,897.2104
"2582",79.44213,897.2237
"2583",79.974365,897.237
"2584",80.6067,897.2503
"2585",81.26101,897.2636
"2586",81.849396,897.2769
"2587",82.2913,897.2902
"2588",82.547646,897.3035
"2589",82.616005,897.31683
"2590",82.52567,897.33014
"2591",82.31083,897.34344
"2592",82.01541,897.35675
"2593",81.688255,897.37006
"2594",81.36355,897.38336
"2595",81.06325,897.39667
"2596",80.80446,897.41
"2597",80.59205,897.4233
"2598",80.42359,897.4366
"2599",80.289314,897.4499
"2600",80.18677,897.4632
"2601",80.11597,897.4765
"2602",80.08423,897.4898
"2603",80.093994,897.5031
"2604",80.14038,897.5164
"2605",80.22339,897.5297
"2606",80.32105,897.543
"2607",80.41627,897.55634
"2608",80.49195,897.56964
"2609",80.53834,897.58295
"2610",80.54566,897.59625
"2611",80.50904,897.60956
"2612",80.43336,897.62286
"2613",80.32105,897.63617
"2614",80.19165,897.6495
"2615",80.05737,897.6628
"2616",79.93286,897.6761
"2617",79.818115,897.6894
"2618",79.72045,897.7027
"2619",79.639885,897.716
"2620",79.56664,897.7293
"2621",79.50561,897.7426
"2622",79.45922,897.7559
"2623",79.4226,897.7692
"2624",79.39086,897.78253
"2625",79.364006,897.79584
"2626",79.344475,897.80914
"2627",79.33227,897.82245
"2628",79.32006,897.83575
"2629",79.310295,897.84906
"2630",79.30053,897.86237
"2631",79.28832,897.8757
"2632",79.273674,897.889
"2633",79.256584,897.9023
"2634",79.24437,897.9156
"2635",79.23216,897.9289
"2636",79.22484,897.9422
"2637",79.219955,897.9555
"2638",79.2224,897.9688
"2639",79.22728,897.9821
"2640",79.234604,897.9954
"2641",79.23949,898.0087
"2642",79.23949,898.02203
"2643",79.237045,898.03534
"2644",79.234604,898.04865
"2645",79.22484,898.06195
"2646",79.21263,898.07526
"2647",79.1931,898.08856
"2648",79.168686,898.10187
"2649",79.14427,898.1152
"2650",79.13695,898.1285
"2651",79.183334,898.1418
"2652",79.32983,898.1551
"2653",79.61547,898.1684
"2654",80.042725,898.1817
"2655",80.584724,898.195
"2656",81.17555,898.2083
"2657",81.72488,898.2216
"2658",82.15457,898.2349
"2659",82.41825,898.2482
"2660",82.5037,898.26154
"2661",82.423134,898.27484
"2662",82.213165,898.28815
"2663",81.917755,898.30145
"2664",81.57839,898.31476
"2665",81.23659,898.32806
"2666",80.919205,898.3414
"2667",80.638435,898.3547
"2668",80.40162,898.368
"2669",80.21118,898.3813
"2670",80.062256,898.3946
"2671",79.954834,898.4079
"2672",79.89868,898.4212
"2673",79.89624,898.4345
"2674",79.94507,898.4478
"2675",80.0354,898.4611
"2676",80.15991,898.4744
"2677",80.29908,898.48773
"2678",80.428474,898.50104
"2679",80.53834,898.51434
"2680",80.61402,898.52765
"2681",80.6482,898.54095
"2682",80.62867,898.55426
"2683",80.56031,898.56757
"2684",80.45045,898.5809
"2685",80.308846,898.5942
"2686",80.15015,898.6075
"2687",79.991455,898.6208
"2688",79.84009,898.6341
"2689",79.7058,898.6474
"2690",79.59838,898.6607
"2691",79.51537,898.674
"2692",79.45678,898.6873
"2693",79.42504,898.7006
"2694",79.41039,898.7139
"2695",79.40795,898.72723
"2696",79.412834,898.74054
"2697",79.429924,898.75385
"2698",79.447014,898.76715
"2699",79.466545,898.78046
"2700",79.48852,898.79376
"2701",79.51049,898.80707
"2702",79.52758,898.8204
"2703",79.54223,898.8337
"2704",79.54711,898.847
"2705",79.534904,898.8603
"2706",79.50561,898.8736
"2707",79.45678,898.8869
"2708",79.3933,898.9002
"2709",79.32006,898.9135
"2710",79.24437,898.9268
"2711",79.185776,898.9401
"2712",79.168686,898.9534
"2713",79.23949,898.96674
"2714",79.44213,898.98004
"2715",79.7937,898.99335
"2716",80.28199,899.00665
"2717",80.848404,899.01996
"2718",81.41726,899.03326
"2719",81.898224,899.0466
"2720",82.22781,899.0599
"2721",82.371864,899.0732
"2722",82.34257,899.0865
"2723",82.161896,899.0998
"2724",81.87625,899.1131
"2725",81.53689,899.1264
"2726",81.1902,899.1397
"2727",80.867935,899.153
"2728",80.584724,899.1663
"2729",80.34791,899.1796
"2730",80.15503,899.19293
"2731",80.0061,899.20624
"2732",79.89624,899.21954
"2733",79.82788,899.23285
"2734",79.81079,899.24615
"2735",79.83276,899.25946
"2736",79.89136,899.27277
"2737",79.98413,899.2861
"2738",80.096436,899.2994
"2739",80.21118,899.3127
"2740",80.306404,899.326
"2741",80.36744,899.3393
"2742",80.37965,899.3526
"2743",80.343025,899.3659
"2744",80.26734,899.3792
"2745",80.16235,899.3925
"2746",80.04761,899.4058
"2747",79.93286,899.4191
"2748",79.82544,899.43243
"2749",79.725334,899.44574
"2750",79.63744,899.45905
"2751",79.56176,899.47235
"2752",79.49828,899.48566
"2753",79.447014,899.49896
"2754",79.415276,899.51227
"2755",79.40063,899.5256
"2756",79.398186,899.5389
"2757",79.40551,899.5522
"2758",79.412834,899.5655
"2759",79.415276,899.5788
"2760",79.41772,899.5921
"2761",79.412834,899.6054
"2762",79.41039,899.6187
"2763",79.40063,899.632
"2764",79.38842,899.6453
"2765",79.37133,899.6586
"2766",79.35912,899.67194
"2767",79.36889,899.68524
"2768",79.44213,899.69855
"2769",79.62035,899.71185
"2770",79.937744,899.72516
"2771",80.38941,899.73846
"2772",80.94118,899.7518
"2773",81.52224,899.7651
"2774",82.04471,899.7784
"2775",82.43534,899.7917
"2776",82.65507,899.805
"2777",82.701454,899.8183
"2778",82.59159,899.8316
"2779",82.36698,899.8449
"2780",82.07645,899.8582
"2781",81.76639,899.8715
"2782",81.47097,899.8848
"2783",81.21217,899.89813
"2784",80.99977,899.91144
"2785",80.831314,899.92474
"2786",80.69215,899.93805
"2787",80.5774,899.95135
"2788",80.482185,899.96466
"2789",80.40162,899.97797
"2790",80.35279,899.9913
"2791",80.3357,900.0046
"2792",80.35279,900.0179
"2793",80.396736,900.0312
"2794",80.462654,900.0445
"2795",80.52857,900.0578
"2796",80.57984,900.0711
"2797",80.59937,900.0844
"2798",80.57496,900.0977
"2799",80.50904,900.111
"2800",80.40406,900.1243
"2801",80.26978,900.13763
"2802",80.12329,900.15094
"2803",79.974365,900.16425
"2804",79.83765,900.17755
"2805",79.71801,900.19086
"2806",79.61791,900.20416
"2807",79.534904,900.21747
"2808",79.47143,900.2308
"2809",79.4226,900.2441
"2810",79.378654,900.2574
"2811",79.344475,900.2707
"2812",79.31762,900.284
"2813",79.29565,900.2973
"2814",79.276115,900.3106
"2815",79.26391,900.3239
"2816",79.2517,900.3372
"2817",79.23216,900.3505
"2818",79.21019,900.36383
"2819",79.17845,900.37714
"2820",79.14671,900.39044
"2821",79.13451,900.40375
"2822",79.168686,900.41705
"2823",79.28588,900.43036
"2824",79.52758,900.44366
"2825",79.8938,900.457
"2826",80.36744,900.4703
"2827",80.89723,900.4836
"2828",81.41238,900.4969
"2829",81.83475,900.5102
"2830",82.108185,900.5235
"2831",82.21561,900.5368
"2832",82.16434,900.5501
"2833",81.98367,900.5634
"2834",81.71999,900.5767
"2835",81.427025,900.59
"2836",81.14137,900.60333
"2837",80.885025,900.61664
"2838",80.66773,900.62994
"2839",80.48463,900.64325
"2840",80.323494,900.65656
"2841",80.17456,900.66986
"2842",80.0354,900.68317
"2843",79.91821,900.6965
"2844",79.83032,900.7098
"2845",79.78882,900.7231
"2846",79.80347,900.7364
"2847",79.86694,900.7497
"2848",79.96948,900.763
"2849",80.08423,900.7763
"2850",80.181885,900.7896
"2851",80.24292,900.8029
"2852",80.255135,900.8162
"2853",80.216064,900.8295
"2854",80.130615,900.84283
"2855",80.008545,900.85614
"2856",79.869385,900.86945
"2857",79.727776,900.88275
"2858",79.59106,900.89606
"2859",79.47143,900.90936
"2860",79.36889,900.92267
"2861",79.28588,900.936
"2862",79.219955,900.9493
"2863",79.166245,900.9626
"2864",79.12718,900.9759
"2865",79.10277,900.9892
"2866",79.093,901.0025
"2867",79.08568,901.0158
"2868",79.080795,901.0291
"2869",79.07591,901.0424
"2870",79.06859,901.0557
"2871",79.05394,901.06903
"2872",79.027084,901.08234
"2873",78.992905,901.09564
"2874",78.95384,901.10895
"2875",78.91722,901.12225
"2876",78.907455,901.13556
"2877",78.96361,901.14886
"2878",79.12474,901.1622
"2879",79.412834,901.1755
"2880",79.82544,901.1888
"2881",80.3357,901.2021
"2882",80.87038,901.2154
"2883",81.35378,901.2287
"2884",81.71511,901.242
"2885",81.91531,901.2553
"2886",81.94705,901.2686
"2887",81.83475,901.2819
"2888",81.619896,901.2952
"2889",81.34646,901.30853
"2890",81.06081,901.32184
"2891",80.78737,901.33514
"2892",80.5481,901.34845
"2893",80.34547,901.36176
"2894",80.17456,901.37506
"2895",80.02319,901.38837
"2896",79.89136,901.4017
"2897",79.78638,901.415
"2898",79.710686,901.4283
"2899",79.676506,901.4416
"2900",79.691154,901.4549
"2901",79.74975,901.4682
"2902",79.83765,901.4815
"2903",79.937744,901.4948
"2904",80.03296,901.5081
"2905",80.09888,901.5214
"2906",80.11841,901.5347
"2907",80.093994,901.54803
"2908",80.02319,901.56134
"2909",79.91577,901.57465
"2910",79.78882,901.58795
"2911",79.65209,901.60126
"2912",79.520256,901.61456
"2913",79.395744,901.62787
"2914",79.28588,901.6412
"2915",79.19554,901.6545
"2916",79.12474,901.6678
"2917",79.07591,901.6811
"2918",79.04906,901.6944
"2919",79.03685,901.7077
"2920",79.03929,901.721
"2921",79.04173,901.7343
"2922",79.044174,901.7476
"2923",79.04173,901.7609
"2924",79.03929,901.77423
"2925",79.027084,901.78754
"2926",79.009995,901.80084
"2927",78.99046,901.81415
"2928",78.96849,901.82745
"2929",78.94408,901.84076
"2930",78.922104,901.85406
"2931",78.90013,901.8674
"2932",78.887924,901.8807
"2933",78.89281,901.894
"2934",78.94896,901.9073
"2935",79.097885,901.9206
"2936",79.381096,901.9339
"2937",79.80835,901.9472
"2938",80.35035,901.9605
"2939",80.94606,901.9738
"2940",81.50759,901.9871
"2941",81.94949,902.0004
"2942",82.22293,902.01373
"2943",82.31571,902.02704
"2944",82.24246,902.04034
"2945",82.04471,902.05365
"2946",81.77127,902.06696
"2947",81.478294,902.08026
"2948",81.19997,902.09357
"2949",80.96071,902.1069
"2950",80.76784,902.1202
"2951",80.61646,902.1335
"2952",80.48707,902.1468
"2953",80.36744,902.1601
"2954",80.25269,902.1734
"2955",80.14526,902.1867
"2956",80.062256,902.2
"2957",80.01587,902.2133
"2958",80.00366,902.2266
"2959",80.03296,902.2399
"2960",80.08911,902.25323
"2961",80.15503,902.26654
"2962",80.21362,902.27985
"2963",80.24292,902.29315
"2964",80.235596,902.30646
"2965",80.184326,902.31976
"2966",80.093994,902.33307
"2967",79.971924,902.3464
"2968",79.84497,902.3597
"2969",79.71557,902.373
"2970",79.59106,902.3863
"2971",79.47875,902.3996
"2972",79.37621,902.4129
"2973",79.293205,902.4262
"2974",79.22728,902.4395
"2975",79.17845,902.4528
"2976",79.14427,902.4661
"2977",79.11986,902.47943
"2978",79.10033,902.49274
"2979",79.080795,902.50604
"2980",79.06615,902.51935
"2981",79.0515,902.53265
"2982",79.03441,902.54596
"2983",79.01732,902.55927
"2984",78.99779,902.5726
"2985",78.9807,902.5859
"2986",78.96605,902.5992
"2987",78.958725,902.6125
"2988",78.95384,902.6258
"2989",78.94652,902.6391
"2990",78.93675,902.6524
"2991",78.92699,902.6657
"2992",78.91234,902.679
"2993",78.89525,902.6923
"2994",78.873276,902.7056
"2995",78.84886,902.71893
"2996",78.82689,902.73224
"2997",78.81468,902.74554
"2998",78.84886,902.75885
"2999",78.98314,902.77216
"3000",79.256584,902.78546
"3001",79.68627,902.79877
"3002",80.257576,902.8121
"3003",80.907,902.8254
"3004",81.53689,902.8387
"3005",82.05936,902.852
"3006",82.41825,902.8653
"3007",82.59159,902.8786
"3008",82.58427,902.8919
"3009",82.442665,902.9052
"3010",82.213165,902.9185
"3011",81.94705,902.9318
"3012",81.68093,902.9451
"3013",81.446556,902.95844
"3014",81.26101,902.97174
"3015",81.11452,902.98505
"3016",80.99245,902.99835
"3017",80.885025,903.01166
"3018",80.77516,903.02496
"3019",80.66529,903.03827
"3020",80.55787,903.0516
"3021",80.46021,903.0649
"3022",80.39185,903.0782
"3023",80.360115,903.0915
"3024",80.36256,903.1048
"3025",80.394295,903.1181
"3026",80.44068,903.1314
"3027",80.4773,903.1447
"3028",80.48951,903.158
"3029",80.46021,903.1713
"3030",80.39185,903.18463
"3031",80.28443,903.19794
"3032",80.15015,903.21124
"3033",80.0061,903.22455
"3034",79.8645,903.23785
"3035",79.73266,903.25116
"3036",79.61303,903.26447
"3037",79.51049,903.2778
"3038",79.4226,903.2911
"3039",79.35424,903.3044
"3040",79.29809,903.3177
"3041",79.256584,903.331
"3042",79.22728,903.3443
"3043",79.202866,903.3576
"3044",79.18822,903.3709
"3045",79.17357,903.3842
"3046",79.1638,903.3975
"3047",79.151596,903.4108
"3048",79.13939,903.42413
"3049",79.1223,903.43744
"3050",79.10277,903.45074
"3051",79.08324,903.46405
"3052",79.05882,903.47736
"3053",79.029526,903.49066
"3054",79.00023,903.50397
"3055",78.97337,903.5173
"3056",78.94408,903.5306
"3057",78.91966,903.5439
"3058",78.90013,903.5572
"3059",78.887924,903.5705
"3060",78.8806,903.5838
"3061",78.870834,903.5971
"3062",78.86351,903.6104
"3063",78.856186,903.6237
"3064",78.84886,903.637
"3065",78.836655,903.6503
"3066",78.83177,903.66364
"3067",78.82933,903.67694
"3068",78.82933,903.69025
"3069",78.82933,903.70355
"3070",78.82933,903.71686
"3071",78.82445,903.73016
"3072",78.81224,903.74347
"3073",78.79759,903.7568
"3074",78.78294,903.7701
"3075",78.768295,903.7834
"3076",78.77074,903.7967
"3077",78.82933,903.81
"3078",78.99779,903.8233
"3079",79.327385,903.8366
"3080",79.83276,903.8499
"3081",80.49439,903.8632
"3082",81.23659,903.8765
"3083",81.95438,903.88983
"3084",82.55497,903.90314
"3085",82.97002,903.91644
"3086",83.17998,903.92975
"3087",83.194626,903.94305
"3088",83.05058,903.95636
"3089",82.80156,903.96967
"3090",82.5037,903.983
"3091",82.2034,903.9963
"3092",81.93973,904.0096
"3093",81.72488,904.0229
"3094",81.55886,904.0362
"3095",81.427025,904.0495
"3096",81.31472,904.0628
"3097",81.20241,904.0761
"3098",81.08278,904.0894
"3099",80.95827,904.1027
"3100",80.84108,904.116
"3101",80.75075,904.12933
"3102",80.69947,904.14264
"3103",80.68238,904.15594
"3104",80.69215,904.16925
"3105",80.71412,904.18256
"3106",80.72877,904.19586
"3107",80.72144,904.20917
"3108",80.68726,904.2225
"3109",80.618904,904.2358
"3110",80.52125,904.2491
"3111",80.396736,904.2624
"3112",80.257576,904.2757
"3113",80.1062,904.289
"3114",79.954834,904.3023
"3115",79.818115,904.3156
"3116",79.693596,904.3289
"3117",79.58373,904.3422
"3118",79.48608,904.3555
"3119",79.3933,904.36884
"3120",79.30785,904.38214
"3121",79.2224,904.39545
"3122",79.13939,904.40875
"3123",79.061264,904.42206
"3124",78.99046,904.43536
"3125",78.93431,904.44867
"3126",78.89769,904.462
"3127",78.88304,904.4753
"3128",78.890366,904.4886
"3129",78.91722,904.5019
"3130",78.95628,904.5152
"3131",78.995346,904.5285
"3132",79.029526,904.5418
"3133",79.0515,904.5551
"3134",79.063705,904.5684
"3135",79.05882,904.5817
"3136",79.044174,904.59503
"3137",79.0222,904.60834
"3138",79.00023,904.62164
"3139",78.975815,904.63495
"3140",78.94652,904.64825
"3141",78.9099,904.66156
"3142",78.870834,904.67487
"3143",78.83421,904.6882
"3144",78.802475,904.7015
"3145",78.7805,904.7148
"3146",78.77074,904.7281
"3147",78.765854,904.7414
"3148",78.75853,904.7547
"3149",78.74876,904.768
"3150",78.74143,904.7813
"3151",78.74143,904.7946
"3152",78.74387,904.8079
"3153",78.751205,904.8212
"3154",78.76341,904.83453
"3155",78.77318,904.84784
"3156",78.78783,904.86115
"3157",78.836655,904.87445
"3158",78.958725,904.88776
"3159",79.19798,904.90106
"3160",79.59838,904.91437
"3161",80.16235,904.9277
"3162",80.84596,904.941
"3163",81.56863,904.9543
"3164",82.24002,904.9676
"3165",82.76982,904.9809
"3166",83.10185,904.9942
"3167",83.23369,905.0075
"3168",83.18242,905.0208
"3169",82.99443,905.0341
"3170",82.72587,905.0474
"3171",82.423134,905.0607
"3172",82.13016,905.07404
"3173",81.87381,905.08734
"3174",81.668724,905.10065
"3175",81.5198,905.11395
"3176",81.41238,905.12726
"3177",81.32937,905.14056
"3178",81.25124,905.1539
"3179",81.16823,905.1672
"3180",81.077896,905.1805
"3181",80.990005,905.1938
"3182",80.921646,905.2071
"3183",80.88258,905.2204
"3184",80.87526,905.2337
"3185",80.89723,905.247
"3186",80.938736,905.2603
"3187",80.987564,905.2736
"3188",81.03151,905.2869
"3189",81.06325,905.30023
"3190",81.07301,905.31354
"3191",81.05592,905.32684
"3192",81.00221,905.34015
"3193",80.91188,905.35345
"3194",80.78493,905.36676
"3195",80.618904,905.38007
"3196",80.430916,905.3934
"3197",80.22339,905.4067
"3198",80.02319,905.42
"3199",79.852295,905.4333
"3200",79.72289,905.4466
"3201",79.635,905.4599
"3202",79.586174,905.4732
"3203",79.55688,905.4865
"3204",79.53002,905.4998
"3205",79.48608,905.5131
"3206",79.4226,905.5264
"3207",79.33959,905.53973
"3208",79.23949,905.55304
"3209",79.132065,905.56635
"3210",79.03197,905.57965
"3211",78.95384,905.59296
"3212",78.89525,905.60626
"3213",78.86351,905.61957
"3214",78.853745,905.6329
"3215",78.84398,905.6462
"3216",78.819565,905.6595
"3217",78.768295,905.6728
"3218",78.692604,905.6861
"3219",78.59983,905.6994
"3220",78.504616,905.7127
"3221",78.43137,905.726
"3222",78.39475,905.7393
"3223",78.397194,905.7526
"3224",78.43626,905.7659
"3225",78.487526,905.77924
"3226",78.52415,905.79254
"3227",78.52659,905.80585
"3228",78.47532,905.81915
"3229",78.37278,905.83246
"3230",78.23361,905.84576
"3231",78.09201,905.8591
"3232",77.977264,905.8724
"3233",77.91623,905.8857
"3234",77.91623,905.899
"3235",77.979706,905.9123
"3236",78.10422,905.9256
"3237",78.30686,905.9389
"3238",78.607155,905.9522
"3239",79.027084,905.9655
"3240",79.55688,905.9788
"3241",80.164795,905.9921
"3242",80.80202,906.00543
"3243",81.392845,906.01874
"3244",81.87869,906.03204
"3245",82.230255,906.04535
"3246",82.43534,906.05865
"3247",82.49149,906.07196
"3248",82.42802,906.08527
"3249",82.266884,906.0986
"3250",82.04471,906.1119
"3251",81.7908,906.1252
"3252",81.53689,906.1385
"3253",81.304955,906.1518
"3254",81.09743,906.1651
"3255",80.907,906.1784
"3256",80.726326,906.1917
"3257",80.550545,906.205
"3258",80.377205,906.2183
"3259",80.22339,906.2316
"3260",80.1062,906.24493
"3261",80.04028,906.25824
"3262",80.02319,906.27155
"3263",80.05737,906.28485
"3264",80.12573,906.29816
"3265",80.216064,906.31146
"3266",80.308846,906.32477
"3267",80.38941,906.3381
"3268",80.43824,906.3514
"3269",80.43824,906.3647
"3270",80.38453,906.378
"3271",80.274666,906.3913
"3272",80.12085,906.4046
"3273",79.94263,906.4179
"3274",79.75464,906.4312
"3275",79.586174,906.4445
"3276",79.44213,906.4578
"3277",79.33227,906.4711
"3278",79.25414,906.48444
"3279",79.202866,906.49774
"3280",79.17357,906.51105
"3281",79.15892,906.52435
"3282",79.151596,906.53766
"3283",79.149155,906.55096
"3284",79.149155,906.5643
"3285",79.149155,906.5776
"3286",79.14427,906.5909
"3287",79.12962,906.6042
"3288",79.10033,906.6175
"3289",79.044174,906.6308
"3290",78.96117,906.6441
"3291",78.85863,906.6574
"3292",78.746315,906.6707
"3293",78.63645,906.684
"3294",78.54856,906.6973
"3295",78.49729,906.71063
"3296",78.47532,906.72394
"3297",78.487526,906.73724
"3298",78.521706,906.75055
"3299",78.572975,906.76385
"3300",78.626686,906.77716
"3301",78.68284,906.79047
"3302",78.73167,906.8038
"3303",78.77074,906.8171
"3304",78.79271,906.8304
"3305",78.79515,906.8437
"3306",78.78783,906.857
"3307",78.768295,906.8703
"3308",78.74387,906.8836
"3309",78.72434,906.8969
"3310",78.71702,906.9102
"3311",78.73899,906.9235
"3312",78.82689,906.9368
"3313",79.03685,906.95013
"3314",79.40795,906.96344
"3315",79.954834,906.97675
"3316",80.64088,906.99005
"3317",81.392845,907.00336
"3318",82.11307,907.01666
"3319",82.71122,907.02997
"3320",83.12627,907.0433
"3321",83.34356,907.0566
"3322",83.37774,907.0699
"3323",83.250786,907.0832
"3324",83.01396,907.0965
"3325",82.70878,907.1098
"3326",82.38407,907.1231
"3327",82.06668,907.1364
"3328",81.78592,907.1497
"3329",81.54665,907.163
"3330",81.34402,907.17633
"3331",81.16823,907.18964
"3332",81.00954,907.20294
"3333",80.86549,907.21625
"3334",80.743416,907.22955
"3335",80.65064,907.24286
"3336",80.59937,907.25616
"3337",80.59205,907.2695
"3338",80.621346,907.2828
"3339",80.66773,907.2961
"3340",80.719,907.3094
"3341",80.75807,907.3227
"3342",80.765396,907.336
"3343",80.73609,907.3493
"3344",80.67017,907.3626
"3345",80.567635,907.3759
"3346",80.44068,907.3892
"3347",80.29664,907.4025
"3348",80.14038,907.41583
"3349",79.97681,907.42914
"3350",79.81323,907.44244
"3351",79.656975,907.45575
"3352",79.50561,907.46906
"3353",79.36645,907.48236
"3354",79.24681,907.49567
"3355",79.14427,907.509
"3356",79.05638,907.5223
"3357",78.98558,907.5356
"3358",78.93187,907.5489
"3359",78.89281,907.5622
"3360",78.86351,907.5755
"3361",78.839096,907.5888
"3362",78.81712,907.6021
"3363",78.79515,907.6154
"3364",78.77562,907.6287
"3365",78.75609,907.642
"3366",78.73167,907.65533
"3367",78.712135,907.66864
"3368",78.68772,907.68195
"3369",78.66331,907.69525
"3370",78.63645,907.70856
"3371",78.61936,907.72186
"3372",78.6096,907.73517
"3373",78.61204,907.7485
"3374",78.61692,907.7618
"3375",78.624245,907.7751
"3376",78.63889,907.7884
"3377",78.64866,907.8017
"3378",78.65598,907.815
"3379",78.660866,907.8283
"3380",78.66331,907.8416
"3381",78.65598,907.8549
"3382",78.643776,907.8682
"3383",78.63645,907.88153
"3384",78.64866,907.89484
"3385",78.729225,907.90814
"3386",78.93675,907.92145
"3387",79.30785,907.93475
"3388",80.53834,907.96136
"3389",81.27566,907.9747
"3390",81.96658,907.988
"3391",82.52079,908.0013
"3392",82.88457,908.0146
"3393",83.04814,908.0279
"3394",83.021286,908.0412
"3395",82.845505,908.0545
"3396",82.55985,908.0678
"3397",82.21805,908.0811
"3398",81.85672,908.0944
"3399",81.514915,908.1077
"3400",81.21706,908.12103
"3401",80.96559,908.13434
"3402",80.75807,908.14764
"3403",80.57984,908.16095
"3404",80.428474,908.17426
"3405",80.29664,908.18756
"3406",80.19653,908.20087
"3407",80.128174,908.2142
"3408",80.09888,908.2275
"3409",80.111084,908.2408
"3410",80.15015,908.2541
"3411",80.201416,908.2674
"3412",80.257576,908.2807
"3413",80.306404,908.294
"3414",80.32838,908.3073
"3415",80.31617,908.3206
"3416",80.2649,908.3339
"3417",80.17212,908.3472
"3418",80.05005,908.36053
"3419",79.91089,908.37384
"3420",79.764404,908.38715
"3421",79.62035,908.40045
"3422",79.483635,908.41376
"3423",79.35668,908.42706
"3424",79.24681,908.44037
"3425",79.15648,908.4537
"3426",79.078354,908.467
"3427",79.009995,908.4803
"3428",78.9514,908.4936
"3429",78.905014,908.5069
"3430",78.85863,908.5202
"3431",78.819565,908.5335
"3432",78.79027,908.5468
"3433",78.768295,908.5601
"3434",78.746315,908.5734
"3435",78.72434,908.58673
"3436",78.69993,908.60004
"3437",78.6804,908.61334
"3438",78.658424,908.62665
"3439",78.63401,908.63995
"3440",78.61448,908.65326
"3441",78.60471,908.66656
"3442",78.59739,908.6799
"3443",78.59495,908.6932
"3444",78.59983,908.7065
"3445",78.607155,908.7198
"3446",78.61692,908.7331
"3447",78.624245,908.7464
"3448",78.63401,908.7597
"3449",78.63889,908.773
"3450",78.64622,908.7863
"3451",78.64866,908.7996
"3452",78.65354,908.8129
"3453",78.65598,908.82623
"3454",78.65598,908.83954
"3455",78.6511,908.85284
"3456",78.64866,908.86615
"3457",78.68284,908.87946
"3458",78.80492,908.89276
"3459",79.07103,908.90607
"3460",79.50805,908.9194
"3461",80.1062,908.9327
"3462",80.80934,908.946
"3463",81.5198,908.9593
"3464",82.13992,908.9726
"3465",82.59159,908.9859
"3466",82.847946,908.9992
"3467",82.90898,909.0125
"3468",82.79912,909.0258
"3469",82.56718,909.0391
"3470",82.25468,909.0524
"3471",81.90555,909.06573
"3472",81.55642,909.07904
"3473",81.234146,909.09235
"3474",80.953384,909.10565
"3475",80.723885,909.11896
"3476",80.5359,909.13226
"3477",80.38697,909.14557
"3478",80.2649,909.1589
"3479",80.16724,909.1722
"3480",80.09888,909.1855
"3481",80.062256,909.1988
"3482",80.059814,909.2121
"3483",80.08911,909.2254
"3484",80.14526,909.2387
"3485",80.216064,909.252
"3486",80.28687,909.2653
"3487",80.34547,909.2786
"3488",80.37476,909.29193
"3489",80.36744,909.30524
"3490",80.31373,909.31854
"3491",80.22583,909.33185
"3492",80.10864,909.34515
"3493",79.97681,909.35846
"3494",79.83765,909.37177
"3495",79.7058,909.3851
"3496",79.586174,909.3984
"3497",79.48119,909.4117
"3498",79.3933,909.425
"3499",79.3225,909.4383
"3500",79.273674,909.4516
"3501",79.234604,909.4649
"3502",79.202866,909.4782
"3503",79.17601,909.4915
"3504",79.151596,909.5048
"3505",79.12474,909.5181
"3506",79.097885,909.53143
"3507",79.078354,909.54474
"3508",79.061264,909.55804
"3509",79.0515,909.57135
"3510",79.044174,909.58466
"3511",79.04173,909.59796
"3512",79.03441,909.61127
"3513",79.02464,909.6246
"3514",79.01732,909.6379
"3515",79.00755,909.6512
"3516",79.00267,909.6645
"3517",79.00023,909.6778
"3518",79.00267,909.6911
"3519",79.009995,909.7044
"3520",79.02464,909.7177
"3521",79.03929,909.731
"3522",79.0515,909.7443
"3523",79.063705,909.7576
"3524",79.07347,909.77094
"3525",79.08324,909.78424
"3526",79.09056,909.79755
"3527",79.09056,909.81085
"3528",79.08324,909.82416
"3529",79.07103,909.83746
"3530",79.05394,909.85077
"3531",79.07103,909.8641
"3532",79.166245,909.8774
"3533",79.40307,909.8907
"3534",79.80591,909.904
"3535",80.37232,909.9173
"3536",81.0486,909.9306
"3537",81.74685,909.9439
"3538",82.36454,909.9572
"3539",82.82353,909.9705
"3540",83.089645,909.9838
"3541",83.16533,909.99713
"3542",83.070114,910.01044
"3543",82.845505,910.02374
"3544",82.528114,910.03705
"3545",82.16922,910.05035
"3546",81.80057,910.06366
"3547",81.45876,910.07697
"3548",81.15846,910.0903
"3549",80.907,910.1036
"3550",80.69947,910.1169
"3551",80.53101,910.1302
"3552",80.394295,910.1435
"3553",80.291756,910.1568
"3554",80.22827,910.1701
"3555",80.20386,910.1834
"3556",80.22095,910.1967
"3557",80.274666,910.21
"3558",80.35767,910.2233
"3559",80.44312,910.23663
"3560",80.52125,910.24994
"3561",80.58228,910.26324
"3562",80.604256,910.27655
"3563",80.58961,910.28986
"3564",80.533455,910.30316
"3565",80.445564,910.31647
"3566",80.33082,910.3298
"3567",80.19653,910.3431
"3568",80.05493,910.3564
"3569",79.91821,910.3697
"3570",79.78882,910.383
"3571",79.674065,910.3963
"3572",79.57397,910.4096
"3573",79.49584,910.4229
"3574",79.43725,910.4362
"3575",79.39086,910.4495
"3576",79.35668,910.4628
"3577",79.33227,910.47614
"3578",79.31274,910.48944
"3579",79.293205,910.50275
"3580",79.27856,910.51605
"3581",79.26879,910.52936
"3582",79.259026,910.54266
"3583",79.2517,910.55597
"3584",79.23949,910.5693
"3585",79.22728,910.5826
"3586",79.21263,910.5959
"3587",79.19554,910.6092
"3588",79.18089,910.6225
"3589",79.17113,910.6358
"3590",79.1638,910.6491
"3591",79.1638,910.6624
"3592",79.166245,910.6757
"3593",79.166245,910.689
"3594",79.168686,910.70233
"3595",79.17357,910.71564
"3596",79.17845,910.72894
"3597",79.185776,910.74225
"3598",79.185776,910.75555
"3599",79.18089,910.76886
"3600",79.168686,910.78217
"3601",79.15892,910.7955
"3602",79.168686,910.8088
"3603",79.24925,910.8221
"3604",79.45678,910.8354
"3605",79.823,910.8487
"3606",80.34791,910.862
"3607",80.98512,910.8753
"3608",81.65652,910.8886
"3609",82.25956,910.9019
"3610",82.7161,910.9152
"3611",82.984665,910.9285
"3612",83.06279,910.94183
"3613",82.97246,910.95514
"3614",82.74784,910.96844
"3615",82.42802,910.98175
"3616",82.06668,910.99506
"3617",81.7029,911.00836
"3618",81.358665,911.02167
"3619",81.05348,911.035
"3620",80.78737,911.0483
"3621",80.56275,911.0616
"3622",80.377205,911.0749
"3623",80.23071,911.0882
"3624",80.12573,911.1015
"3625",80.06958,911.1148
"3626",80.06714,911.1281
"3627",80.111084,911.1414
"3628",80.19653,911.1547
"3629",80.31129,911.168
"3630",80.430916,911.18134
"3631",80.5359,911.19464
"3632",80.61158,911.20795
"3633",80.6482,911.22125
"3634",80.635994,911.23456
"3635",80.58228,911.24786
"3636",80.48707,911.26117
"3637",80.360115,911.2745
"3638",80.218506,911.2878
"3639",80.07202,911.3011
"3640",79.92798,911.3144
"3641",79.7937,911.3277
"3642",79.67162,911.341
"3643",79.5642,911.3543
"3644",79.47143,911.3676
"3645",79.40063,911.3809
"3646",79.3518,911.3942
"3647",79.32006,911.40753
"3648",79.30541,911.42084
"3649",79.29809,911.43414
"3650",79.293205,911.44745
"3651",79.28588,911.46075
"3652",79.26879,911.47406
"3653",79.24193,911.48737
"3654",79.21019,911.5007
"3655",79.17601,911.514
"3656",79.14671,911.5273
"3657",79.12474,911.5406
"3658",79.10765,911.5539
"3659",79.093,911.5672
"3660",79.08568,911.5805
"3661",79.08324,911.5938
"3662",79.08324,911.6071
"3663",79.08812,911.6204
"3664",79.093,911.6337
"3665",79.08812,911.64703
"3666",79.07591,911.66034
"3667",79.05394,911.67365
"3668",79.03441,911.68695
"3669",79.046616,911.70026
"3670",79.13695,911.71356
"3671",79.35424,911.72687
"3672",79.73266,911.7402
"3673",80.26246,911.7535
"3674",80.89967,911.7668
"3675",81.56374,911.7801
"3676",82.161896,911.7934
"3677",82.61845,911.8067
"3678",82.88457,911.82
"3679",82.96269,911.8333
"3680",82.86992,911.8466
"3681",82.64286,911.8599
"3682",82.33036,911.8732
"3683",81.96658,911.88654
"3684",81.59304,911.89984
"3685",81.234146,911.91315
"3686",80.91432,911.92645
"3687",80.638435,911.93976
"3688",80.4065,911.95306
"3689",80.216064,911.9664
"3690",80.07202,911.9797
"3691",79.96948,911.993
"3692",79.91577,912.0063
"3693",79.91821,912.0196
"3694",79.971924,912.0329
"3695",80.07202,912.0462
"3696",80.198975,912.0595
"3697",80.3357,912.0728
"3698",80.465096,912.0861
"3699",80.56519,912.0994
"3700",80.621346,912.11273
"3701",80.62379,912.12604
"3702",80.57496,912.13934
"3703",80.4773,912.15265
"3704",80.343025,912.16595
"3705",80.18921,912.17926
"3706",80.028076,912.19257
"3707",79.87427,912.2059
"3708",79.73754,912.2192
"3709",79.622795,912.2325
"3710",79.52514,912.2458
"3711",79.44457,912.2591
"3712",79.381096,912.2724
"3713",79.33227,912.2857
"3714",79.290764,912.299
"3715",79.26147,912.3123
"3716",79.234604,912.3256
"3717",79.21019,912.3389
"3718",79.183334,912.35223
"3719",79.15648,912.36554
"3720",79.13451,912.37885
"3721",79.114975,912.39215
"3722",79.097885,912.40546
"3723",79.078354,912.41876
"3724",79.06615,912.43207
"3725",79.05638,912.4454
"3726",79.044174,912.4587
"3727",79.03197,912.472
"3728",79.0222,912.4853
"3729",79.00267,912.4986
"3730",78.9807,912.5119
"3731",78.97093,912.5252
"3732",79.00267,912.5385
"3733",79.12962,912.5518
"3734",79.398186,912.5651
"3735",79.835205,912.5784
"3736",80.41871,912.59174
"3737",81.0901,912.60504
"3738",81.75662,912.61835
"3739",82.32304,912.63165
"3740",82.7161,912.64496
"3741",82.90654,912.65826
"3742",82.90654,912.6716
"3743",82.7454,912.6849
"3744",82.46708,912.6982
"3745",82.11795,912.7115
"3746",81.74197,912.7248
"3747",81.36599,912.7381
"3748",81.01198,912.7514
"3749",80.69215,912.7647
"3750",80.413826,912.778
"3751",80.17212,912.7913
"3752",79.974365,912.8046
"3753",79.818115,912.81793
"3754",79.710686,912.83124
"3755",79.65453,912.84454
"3756",79.66674,912.85785
"3757",79.742424,912.87115
"3758",79.869385,912.88446
"3759",80.03296,912.89777
"3760",80.20386,912.9111
"3761",80.35035,912.9244
"3762",80.45289,912.9377
"3763",80.49683,912.951
"3764",80.482185,912.9643
"3765",80.41871,912.9776
"3766",80.31861,912.9909
"3767",80.19165,913.0042
"3768",80.045166,913.0175
"3769",79.8938,913.0308
"3770",79.742424,913.0441
"3771",79.59838,913.05743
"3772",79.47143,913.07074
"3773",79.364006,913.08405
"3774",79.28588,913.09735
"3775",79.237045,913.11066
"3776",79.20775,913.12396
"3777",79.19798,913.13727
"3778",79.200424,913.1506
"3779",79.202866,913.1639
"3780",79.20531,913.1772
"3781",79.202866,913.1905
"3782",79.19554,913.2038
"3783",79.183334,913.2171
"3784",79.15892,913.2304
"3785",79.12474,913.2437
"3786",79.08812,913.257
"3787",79.07347,913.2703
"3788",79.12718,913.2836
"3789",79.30053,913.29694
"3790",79.635,913.31024
"3791",80.13794,913.32355
"3792",80.77028,913.33685
"3793",81.45876,913.35016
"3794",82.10574,913.36346
"3795",82.63065,913.3768
"3796",82.97978,913.3901
"3797",83.13115,913.4034
"3798",83.10185,913.4167
"3799",82.933395,913.43
"3800",82.65995,913.4433
"3801",82.3328,913.4566
"3802",81.991,913.4699
"3803",81.668724,913.4832
"3804",81.38064,913.4965
"3805",81.13893,913.5098
"3806",80.93385,913.52313
"3807",80.76051,913.53644
"3808",80.618904,913.54974
"3809",80.5066,913.56305
"3810",80.428474,913.57635
"3811",80.38209,913.58966
"3812",80.37965,913.60297
"3813",80.40894,913.6163
"3814",80.465096,913.6296
"3815",80.53101,913.6429
"3816",80.59449,913.6562
"3817",80.638435,913.6695
"3818",80.6482,913.6828
"3819",80.618904,913.6961
"3820",80.550545,913.7094
"3821",80.448006,913.7227
"3822",80.31617,913.736
"3823",80.16968,913.7493
"3824",80.01343,913.76263
"3825",79.85962,913.77594
"3826",79.708244,913.78925
"3827",79.57397,913.80255
"3828",79.45678,913.81586
"3829",79.35912,913.82916
"3830",79.276115,913.84247
"3831",79.21507,913.8558
"3832",79.17113,913.8691
"3833",79.13451,913.8824
"3834",79.09056,913.8957
"3835",79.044174,913.909
"3836",79.00023,913.9223
"3837",78.9514,913.9356
"3838",78.905014,913.9489
"3839",78.86107,913.9622
"3840",78.81468,913.9755
"3841",78.765854,913.98883
"3842",78.71702,914.00214
"3843",78.709694,914.01544
"3844",78.79027,914.02875
"3845",79.01976,914.04205
"3846",79.429924,914.05536
"3847",80.02075,914.06866
"3848",80.73609,914.082
"3849",81.49294,914.0953
"3850",82.18631,914.1086
"3851",82.735634,914.1219
"3852",83.09209,914.1352
"3853",83.24101,914.1485
"3854",83.20683,914.1618
"3855",83.018845,914.1751
"3856",82.72587,914.1884
"3857",82.38407,914.2017
"3858",82.04227,914.215
"3859",81.72488,914.22833
"3860",81.45388,914.24164
"3861",81.234146,914.25494
"3862",81.05104,914.26825
"3863",80.88991,914.28156
"3864",80.73853,914.29486
"3865",80.601814,914.30817
"3866",80.482185,914.3215
"3867",80.38697,914.3348
"3868",80.32838,914.3481
"3869",80.306404,914.3614
"3870",80.31129,914.3747
"3871",80.32838,914.388
"3872",80.34547,914.4013
"3873",80.34791,914.4146
"3874",80.3357,914.4279
"3875",80.2942,914.4412
"3876",80.22827,914.4545
"3877",80.13794,914.46783
"3878",80.02075,914.48114
"3879",79.88403,914.49445
"3880",79.7351,914.50775
"3881",79.59106,914.52106
"3882",79.449455,914.53436
"3883",79.31762,914.54767
"3884",79.19798,914.561
"3885",79.09056,914.5743
"3886",78.995346,914.5876
"3887",78.905014,914.6009
"3888",78.82445,914.6142
"3889",78.74876,914.6275
"3890",78.677956,914.6408
"3891",78.61448,914.6541
"3892",78.55833,914.6674
"3893",78.51194,914.6807
"3894",78.470436,914.69403
"3895",78.43137,914.70734
"3896",78.38987,914.72064
"3897",78.345924,914.73395
"3898",78.2971,914.74725
"3899",78.25071,914.76056
"3900",78.20187,914.77386
"3901",78.15549,914.7872
"3902",78.12375,914.8005
"3903",78.133514,914.8138
"3904",78.24338,914.8271
"3905",78.51194,914.8404
"3906",78.98314,914.8537
"3907",79.65453,914.867
"3908",80.47242,914.8803
"3909",81.324486,914.8936
"3910",82.09598,914.9069
"3911",82.69169,914.9202
"3912",83.06279,914.93353
"3913",83.20683,914.94684
"3914",83.15312,914.96014
"3915",82.948044,914.97345
"3916",82.64286,914.98676
"3917",82.286415,915.00006
"3918",81.91531,915.01337
"3919",81.54421,915.0267
"3920",81.19508,915.04
"3921",80.87038,915.0533
"3922",80.58228,915.0666
"3923",80.3357,915.0799
"3924",80.1355,915.0932
"3925",79.9939,915.1065
"3926",79.906006,915.1198
"3927",79.869385,915.1331
"3928",79.87671,915.1464
"3929",79.91821,915.1597
"3930",79.97925,915.17303
"3931",80.045166,915.18634
"3932",80.09155,915.19965
"3933",80.11597,915.21295
"3934",80.1062,915.22626
"3935",80.06714,915.23956
"3936",79.99878,915.25287
"3937",79.90845,915.2662
"3938",79.80347,915.2795
"3939",79.68871,915.2928
"3940",79.5642,915.3061
"3941",79.429924,915.3194
"3942",79.290764,915.3327
"3943",79.13939,915.346
"3944",78.98802,915.3593
"3945",78.84154,915.3726
"3946",78.70725,915.3859
"3947",78.59251,915.39923
"3948",78.502174,915.41254
"3949",78.42649,915.42584
"3950",78.363014,915.43915
"3951",78.30442,915.45245
"3952",78.24826,915.46576
"3953",78.19699,915.47906
"3954",78.15793,915.4924
"3955",78.12375,915.5057
"3956",78.09689,915.519
"3957",78.07248,915.5323
"3958",78.04562,915.5456
"3959",78.01633,915.5589
"3960",77.98703,915.5722
"3961",77.95773,915.5855
"3962",77.93576,915.5988
"3963",77.91867,915.6121
"3964",77.90158,915.6254
"3965",77.88693,915.63873
"3966",77.872284,915.65204
"3967",77.857635,915.66534
"3968",77.840546,915.67865
"3969",77.83322,915.69196
"3970",77.857635,915.70526
"3971",77.96506,915.71857
"3972",78.21164,915.7319
"3973",78.64622,915.7452
"3974",79.26635,915.7585
"3975",80.025635,915.7718
"3976",80.84352,915.7851
"3977",81.60769,915.7984
"3978",82.22049,915.8117
"3979",82.62089,915.825
"3980",82.79668,915.8383
"3981",82.757614,915.8516
"3982",82.54032,915.8649
"3983",82.193634,915.87823
"3984",81.77371,915.89154
"3985",81.32693,915.90485
"3986",80.89235,915.91815
"3987",80.49683,915.93146
"3988",80.15015,915.94476
"3989",79.85474,915.95807
"3990",79.61791,915.9714
"3991",79.44213,915.9847
"3992",79.34203,915.998
"3993",79.31274,916.0113
"3994",79.361565,916.0246
"3995",79.47631,916.0379
"3996",79.63256,916.0512
"3997",79.798584,916.0645
"3998",79.954834,916.0778
"3999",80.07446,916.0911
"4000",80.14038,916.10443
"4001",80.147705,916.11774
"4002",80.10132,916.13104
"4003",80.01099,916.14435
"4004",79.87671,916.15765
"4005",79.71557,916.17096
"4006",79.54223,916.18427
"4007",79.36645,916.1976
"4008",79.202866,916.2109
"4009",79.061264,916.2242
"4010",78.94408,916.2375
"4011",78.84642,916.2508
"4012",78.768295,916.2641
"4013",78.695045,916.2774
"4014",78.626686,916.2907
"4015",78.56077,916.304
"4016",78.502174,916.3173
"4017",78.44602,916.3306
"4018",78.399635,916.34393
"4019",78.35813,916.35724
"4020",78.32639,916.37054
"4021",78.29954,916.38385
"4022",78.27512,916.39716
"4023",78.25315,916.41046
"4024",78.24094,916.42377
"4025",78.23117,916.4371
"4026",78.23361,916.4504
"4027",78.24582,916.4637
"4028",78.27024,916.477
"4029",78.30686,916.4903
"4030",78.35081,916.5036
"4031",78.399635,916.5169
"4032",78.44602,916.5302
"4033",78.49241,916.5435
"4034",78.53147,916.5568
"4035",78.56077,916.5701
"4036",78.5803,916.58344
"4037",78.58518,916.59674
"4038",78.57053,916.61005
"4039",78.54856,916.62335
"4040",78.536354,916.63666
"4041",78.57053,916.64996
"4042",78.70481,916.66327
"4043",78.99779,916.6766
"4044",79.46899,916.6899
"4045",80.10376,916.7032
"4046",80.833755,916.7165
"4047",81.5613,916.7298
"4048",82.19119,916.7431
"4049",82.6453,916.7564
"4050",82.89433,916.7697
"4051",82.94316,916.783
"4052",82.81865,916.7963
"4053",82.55497,916.80963
"4054",82.2034,916.82294
"4055",81.79813,916.83624
"4056",81.375755,916.84955
"4057",80.95827,916.86285
"4058",80.56275,916.87616
"4059",80.201416,916.88947
"4060",79.8938,916.9028
"4061",79.64233,916.9161
"4062",79.4641,916.9294
"4063",79.364006,916.9427
"4064",79.34692,916.956
"4065",79.41039,916.9693
"4066",79.54955,916.9826
"4067",79.73754,916.9959
"4068",79.94995,917.0092
"4069",80.15747,917.0225
"4070",80.32838,917.0358
"4071",80.4358,917.04913
"4072",80.479744,917.06244
"4073",80.45777,917.07574
"4074",80.37965,917.08905
"4075",80.26002,917.10236
"4076",80.113525,917.11566
"4077",79.94995,917.12897
"4078",79.783936,917.1423
"4079",79.62035,917.1556
"4080",79.46899,917.1689
"4081",79.34203,917.1822
"4082",79.23949,917.1955
"4083",79.15648,917.2088
"4084",79.10033,917.2221
"4085",79.061264,917.2354
"4086",79.03685,917.2487
"4087",79.027084,917.262
"4088",79.029526,917.2753
"4089",79.03929,917.28864
"4090",79.046616,917.30194
"4091",79.046616,917.31525
"4092",79.03929,917.32855
"4093",79.012436,917.34186
"4094",78.97337,917.35516
"4095",78.93187,917.36847
"4096",78.887924,917.3818
"4097",78.853745,917.3951
"4098",78.82689,917.4084
"4099",78.8098,917.4217
"4100",78.80003,917.435
"4101",78.79515,917.4483
"4102",78.79027,917.4616
"4103",78.79759,917.4749
"4104",78.8098,917.4882
"4105",78.82933,917.5015
"4106",78.853745,917.51483
"4107",78.873276,917.52814
"4108",78.87816,917.54144
"4109",78.87816,917.55475
"4110",78.890366,917.56805
"4111",78.975815,917.58136
"4112",79.19798,917.59467
"4113",79.60082,917.608
"4114",80.17944,917.6213
"4115",80.88258,917.6346
"4116",81.62478,917.6479
"4117",82.29862,917.6612
"4118",82.82109,917.6745
"4119",83.15068,917.6878
"4120",83.28008,917.7011
"4121",83.226364,917.7144
"4122",83.021286,917.7277
"4123",82.703896,917.741
"4124",82.31571,917.75433
"4125",81.88846,917.76764
"4126",81.45388,917.78094
"4127",81.02663,917.79425
"4128",80.621346,917.80756
"4129",80.25025,917.82086
"4130",79.93042,917.83417
"4131",79.676506,917.8475
"4132",79.50317,917.8608
"4133",79.4226,917.8741
"4134",79.44213,917.8874
"4135",79.54711,917.9007
"4136",79.72045,917.914
"4137",79.93042,917.9273
"4138",80.15259,917.9406
"4139",80.35279,917.9539
"4140",80.50416,917.9672
"4141",80.59205,917.9805
"4142",80.618904,917.99384
"4143",80.584724,918.00714
"4144",80.499275,918.02045
"4145",80.37965,918.03375
"4146",80.23071,918.04706
"4147",80.06958,918.06036
"4148",79.903564,918.07367
"4149",79.742424,918.087
"4150",79.60082,918.1003
"4151",79.47631,918.1136
"4152",79.37377,918.1269
"4153",79.28832,918.1402
"4154",79.217514,918.1535
"4155",79.15892,918.1668
"4156",79.10765,918.1801
"4157",79.06859,918.1934
"4158",79.03441,918.2067
"4159",79.00267,918.22003
"4160",78.97337,918.23334
"4161",78.94652,918.24664
"4162",78.922104,918.25995
"4163",78.90013,918.27325
"4164",78.887924,918.28656
"4165",78.88304,918.29987
"4166",78.87816,918.3132
"4167",78.873276,918.3265
"4168",78.86839,918.3398
"4169",78.86351,918.3531
"4170",78.86351,918.3664
"4171",78.86107,918.3797
"4172",78.86107,918.393
"4173",78.85863,918.4063
"4174",78.853745,918.4196
"4175",78.86595,918.4329
"4176",78.93919,918.4462
"4177",79.13939,918.45953
"4178",79.51049,918.47284
"4179",80.06714,918.48615
"4180",80.77516,918.49945
"4181",81.55886,918.51276
"4182",82.30839,918.52606
"4183",82.933395,918.53937
"4184",83.36553,918.5527
"4185",83.5877,918.566
"4186",83.60723,918.5793
"4187",83.458305,918.5926
"4188",83.175095,918.6059
"4189",82.79912,918.6192
"4190",82.36942,918.6325
"4191",81.9202,918.6458
"4192",81.46853,918.6591
"4193",81.03883,918.6724
"4194",80.638435,918.6857
"4195",80.289314,918.69904
"4196",79.99634,918.71234
"4197",79.77417,918.72565
"4198",79.63744,918.73895
"4199",79.59594,918.75226
"4200",79.64477,918.76556
"4201",79.77417,918.7789
"4202",79.96216,918.7922
"4203",80.177,918.8055
"4204",80.39185,918.8188
"4205",80.57252,918.8321
"4206",80.69947,918.8454
"4207",80.76784,918.8587
"4208",80.77516,918.872
"4209",80.72144,918.8853
"4210",80.618904,918.8986
"4211",80.48463,918.9119
"4212",80.325935,918.92523
"4213",80.15991,918.93854
"4214",79.991455,918.95184
"4215",79.82788,918.96515
"4216",79.68139,918.97845
"4217",79.554436,918.99176
"4218",79.447014,919.00507
"4219",79.35668,919.0184
"4220",79.281,919.0317
"4221",79.219955,919.045
"4222",79.1638,919.0583
"4223",79.114975,919.0716
"4224",79.07591,919.0849
"4225",79.044174,919.0982
"4226",79.01732,919.1115
"4227",78.992905,919.1248
"4228",78.96849,919.1381
"4229",78.94408,919.1514
"4230",78.92699,919.16473
"4231",78.91234,919.17804
"4232",78.90257,919.19135
"4233",78.90013,919.20465
"4234",78.89769,919.21796
"4235",78.887924,919.23126
"4236",78.870834,919.24457
"4237",78.86839,919.2579
"4238",78.924545,919.2712
"4239",79.10765,919.2845
"4240",79.46899,919.2978
"4241",80.028076,919.3111
"4242",80.75319,919.3244
"4243",81.56374,919.3377
"4244",82.36454,919.351
"4245",83.05791,919.3643
"4246",83.57549,919.3776
"4247",83.88312,919.3909
"4248",83.97833,919.40424
"4249",83.88556,919.41754
"4250",83.631645,919.43085
"4251",83.265434,919.44415
"4252",82.82597,919.45746
"4253",82.35966,919.47076
"4254",81.89334,919.4841
"4255",81.449,919.4974
"4256",81.03395,919.5107
"4257",80.66529,919.524
"4258",80.34791,919.5373
"4259",80.096436,919.5506
"4260",79.92554,919.5639
"4261",79.84741,919.5772
"4262",79.86206,919.5905
"4263",79.954834,919.6038
"4264",80.111084,919.6171
"4265",80.29664,919.63043
"4266",80.48707,919.64374
"4267",80.65064,919.65704
"4268",80.77272,919.67035
"4269",80.8362,919.68365
"4270",80.83864,919.69696
"4271",80.78737,919.71027
"4272",80.68238,919.7236
"4273",80.5359,919.7369
"4274",80.36256,919.7502
"4275",80.17456,919.7635
"4276",79.98901,919.7768
"4277",79.81323,919.7901
"4278",79.656975,919.8034
"4279",79.520256,919.8167
"4280",79.40551,919.83
"4281",79.30785,919.8433
"4282",79.2224,919.8566
"4283",79.149155,919.86993
"4284",79.08324,919.88324
"4285",79.02464,919.89655
"4286",78.97826,919.90985
"4287",78.93919,919.92316
"4288",78.90257,919.93646
"4289",78.873276,919.94977
"4290",78.84398,919.9631
"4291",78.81224,919.9764
"4292",78.7805,919.9897
"4293",78.751205,920.003
"4294",78.7219,920.0163
"4295",78.69016,920.0296
"4296",78.658424,920.0429
"4297",78.64866,920.0562
"4298",78.70725,920.0695
"4299",78.90013,920.0828
"4300",79.28344,920.0961
"4301",79.87427,920.10944
"4302",80.635994,920.12274
"4303",81.49294,920.13605
"4304",82.337685,920.14935
"4305",83.06523,920.16266
"4306",83.60479,920.17596
"4307",83.92706,920.1893
"4308",84.03204,920.2026
"4309",83.94171,920.2159
"4310",83.69512,920.2292
"4311",83.33379,920.2425
"4312",82.9041,920.2558
"4313",82.442665,920.2691
"4314",81.986115,920.2824
"4315",81.55154,920.2957
"4316",81.15114,920.309
"4317",80.79469,920.3223
"4318",80.49439,920.33563
"4319",80.26246,920.34894
"4320",80.1062,920.36224
"4321",80.03784,920.37555
"4322",80.05249,920.38885
"4323",80.14038,920.40216
"4324",80.274666,920.41547
"4325",80.4358,920.4288
"4326",80.59693,920.4421
"4327",80.73121,920.4554
"4328",80.81911,920.4687
"4329",80.84352,920.482
"4330",80.81178,920.4953
"4331",80.723885,920.5086
"4332",80.59205,920.5219
"4333",80.428474,920.5352
"4334",80.25269,920.5485
"4335",80.06714,920.5618
"4336",79.87915,920.57513
"4337",79.69848,920.58844
"4338",79.537346,920.60175
"4339",79.3933,920.61505
"4340",79.273674,920.62836
"4341",79.17601,920.64166
"4342",79.10033,920.65497
"4343",79.03197,920.6683
"4344",78.975815,920.6816
"4345",78.91966,920.6949
"4346",78.86595,920.7082
"4347",78.81468,920.7215
"4348",78.77074,920.7348
"4349",78.729225,920.7481
"4350",78.68772,920.7614
"4351",78.64866,920.7747
"4352",78.60471,920.788
"4353",78.55833,920.80133
"4354",78.51682,920.81464
"4355",78.504616,920.82794
"4356",78.57786,920.84125
"4357",78.80492,920.85455
"4358",79.22972,920.86786
"4359",79.8645,920.88116
"4360",80.66529,920.8945
"4361",81.54421,920.9078
"4362",82.391396,920.9211
"4363",83.104294,920.9344
"4364",83.614555,920.9477
"4365",83.90021,920.961
"4366",83.9588,920.9743
"4367",83.82208,920.9876
"4368",83.529106,921.0009
"4369",83.13847,921.0142
"4370",82.69413,921.0275
"4371",82.23514,921.04083
"4372",81.78104,921.05414
"4373",81.356224,921.06744
"4374",80.970474,921.08075
"4375",80.63355,921.09406
"4376",80.35767,921.10736
"4377",80.15747,921.12067
"4378",80.04028,921.134
"4379",80.00366,921.1473
"4380",80.042725,921.1606
"4381",80.14038,921.1739
"4382",80.272224,921.1872
"4383",80.40894,921.2005
"4384",80.53101,921.2138
"4385",80.61158,921.2271
"4386",80.64332,921.2404
"4387",80.618904,921.2537
"4388",80.54078,921.267
"4389",80.41871,921.28033
"4390",80.26002,921.29364
"4391",80.076904,921.30695
"4392",79.87915,921.32025
"4393",79.67895,921.33356
"4394",79.48852,921.34686
"4395",79.31518,921.36017
"4396",79.15648,921.3735
"4397",79.01488,921.3868
"4398",78.89769,921.4001
"4399",78.80003,921.4134
"4400",78.71946,921.4267
"4401",78.65598,921.44
"4402",78.60227,921.4533
"4403",78.551,921.4666
"4404",78.49485,921.4799
"4405",78.44358,921.4932
"4406",78.39231,921.50653
"4407",78.3386,921.51984
"4408",78.28977,921.53314
"4409",78.24582,921.54645
"4410",78.19943,921.55975
"4411",78.14816,921.57306
"4412",78.099335,921.58636
"4413",78.07736,921.5997
"4414",78.133514,921.613
"4415",78.328835,921.6263
"4416",78.72678,921.6396
"4417",79.33715,921.6529
"4418",80.128174,921.6662
"4419",81.01442,921.6795
"4420",81.88846,921.6928
"4421",82.63798,921.7061
"4422",83.18486,921.7194
"4423",83.49493,921.7327
"4424",83.57061,921.74603
"4425",83.43633,921.75934
"4426",83.14336,921.77264
"4427",82.7454,921.78595
"4428",82.2913,921.79926
"4429",81.829865,921.81256
"4430",81.38552,921.82587
"4431",80.970474,921.8392
"4432",80.59937,921.8525
"4433",80.27955,921.8658
"4434",80.01587,921.8791
"4435",79.82544,921.8924
"4436",79.71313,921.9057
"4437",79.68383,921.919
"4438",79.725334,921.9323
"4439",79.82788,921.9456
"4440",79.96704,921.9589
"4441",80.11841,921.9722
"4442",80.26002,921.98553
"4443",80.360115,921.99884
"4444",80.4065,922.01215
"4445",80.38697,922.02545
"4446",80.306404,922.03876
"4447",80.17456,922.05206
"4448",80.00122,922.06537
"4449",79.80591,922.0787
"4450",79.60082,922.092
"4451",79.395744,922.1053
"4452",79.202866,922.1186
"4453",79.03197,922.1319
"4454",78.887924,922.1452
"4455",78.77318,922.1585
"4456",78.677956,922.1718
"4457",78.59983,922.1851
"4458",78.53391,922.1984
"4459",78.47776,922.21173
"4460",78.42649,922.22504
"4461",78.380104,922.23834
"4462",78.34348,922.25165
"4463",78.311745,922.26495
"4464",78.28245,922.27826
"4465",78.24826,922.29156
"4466",78.20187,922.3049
"4467",78.14572,922.3182
"4468",78.08713,922.3315
"4469",78.04562,922.3448
"4470",78.06027,922.3581
"4471",78.19211,922.3714
"4472",78.502174,922.3847
"4473",79.01732,922.398
"4474",79.73022,922.4113
"4475",80.58228,922.4246
"4476",81.47097,922.4379
"4477",82.286415,922.45123
"4478",82.930954,922.46454
"4479",83.34844,922.47784
"4480",83.52178,922.49115
"4481",83.47295,922.50446
"4482",83.24101,922.51776
"4483",82.88701,922.53107
"4484",82.46464,922.5444
"4485",82.022736,922.5577
"4486",81.59548,922.571
"4487",81.20241,922.5843
"4488",80.850845,922.5976
"4489",80.54322,922.6109
"4490",80.289314,922.6242
"4491",80.096436,922.6375
"4492",79.97681,922.6508
"4493",79.93286,922.6641
"4494",79.96216,922.6774
"4495",80.045166,922.69073
"4496",80.16724,922.70404
"4497",80.30152,922.71735
"4498",80.42115,922.73065
"4499",80.50172,922.74396
"4500",80.53101,922.75726
"4501",80.49683,922.77057
"4502",80.40162,922.7839
"4503",80.25269,922.7972
"4504",80.06714,922.8105
"4505",79.8645,922.8238
"4506",79.65942,922.8371
"4507",79.466545,922.8504
"4508",79.28832,922.8637
"4509",79.12718,922.877
"4510",78.98558,922.8903
"4511",78.85863,922.9036
"4512",78.751205,922.91693
"4513",78.66575,922.93024
"4514",78.60471,922.94354
"4515",78.553444,922.95685
"4516",78.519264,922.97015
"4517",78.485085,922.98346
"4518",78.44114,922.99677
"4519",78.38499,923.0101
"4520",78.31907,923.0234
"4521",78.24094,923.0367
"4522",78.16281,923.05
"4523",78.101776,923.0633
"4524",78.099335,923.0766
"4525",78.204315,923.0899
"4526",78.47532,923.1032
"4527",78.94896,923.1165
"4528",79.61547,923.1298
"4529",80.42359,923.1431
"4530",81.26589,923.15643
"4531",82.0325,923.16974
"4532",82.62577,923.18304
"4533",82.98955,923.19635
"4534",83.10918,923.20966
"4535",83.0164,923.22296
"4536",82.757614,923.23627
"4537",82.39384,923.2496
"4538",81.98367,923.2629
"4539",81.57595,923.2762
"4540",81.19508,923.2895
"4541",80.85329,923.3028
"4542",80.5481,923.3161
"4543",80.27955,923.3294
"4544",80.04761,923.3427
"4545",79.85718,923.356
"4546",79.72289,923.3693
"4547",79.65209,923.3826
"4548",79.64477,923.39594
"4549",79.68383,923.40924
"4550",79.75708,923.42255
"4551",79.84741,923.43585
"4552",79.923096,923.44916
"4553",79.96948,923.46246
"4554",79.96704,923.47577
"4555",79.90112,923.4891
"4556",79.77905,923.5024
"4557",79.61059,923.5157
"4558",79.412834,923.529
"4559",79.202866,923.5423
"4560",78.99779,923.5556
"4561",78.80736,923.5689
"4562",78.63889,923.5822
"4563",78.49485,923.5955
"4564",78.37522,923.6088
"4565",78.28001,923.62213
"4566",78.20187,923.63544
"4567",78.133514,923.64874
"4568",78.07492,923.66205
"4569",78.02609,923.67535
"4570",77.98215,923.68866
"4571",77.94064,923.70197
