"","ppg","time"
"1",85.924164,64.02588
"2",84.90852,64.03906
"3",83.86603,64.052246
"4",82.8748,64.06543
"5",82.02518,64.07861
"6",81.36843,64.0918
"7",80.91432,64.10498
"8",80.621346,64.118164
"9",80.42603,64.13135
"10",80.25269,64.14453
"11",80.03296,64.157715
"12",79.725334,64.1709
"13",79.31274,64.18408
"14",78.79271,64.197266
"15",78.187225,64.21045
"16",77.51339,64.22363
"17",76.80049,64.23682
"18",76.070496,64.25
"19",75.34539,64.26318
"20",74.649574,64.27637
"21",74.005035,64.28955
"22",73.4313,64.302734
"23",72.935684,64.31592
"24",72.52796,64.3291
"25",72.20569,64.342285
"26",71.94934,64.35547
"27",71.73937,64.36865
"28",71.55871,64.381836
"29",71.412224,64.39502
"30",71.380486,64.4082
"31",71.673454,64.42139
"32",72.59144,64.43457
"33",74.37614,64.447754
"34",77.03731,64.46094
"35",80.343025,64.47412
"36",83.86603,64.487305
"37",87.10338,64.50049
"38",89.652245,64.51367
"39",91.33929,64.526855
"40",92.208435,64.54004
"41",92.41108,64.55322
"42",92.12787,64.56641
"43",91.52239,64.57959
"44",90.75578,64.59277
"45",89.94278,64.60596
"46",89.1664,64.61914
"47",88.45838,64.632324
"48",87.79431,64.64551
"49",87.12535,64.65869
"50",86.380714,64.671875
"51",85.521324,64.68506
"52",84.53986,64.69824
"53",83.4876,64.711426
"54",82.44511,64.72461
"55",81.50759,64.73779
"56",80.73853,64.75098
"57",80.15991,64.76416
"58",79.75464,64.77734
"59",79.47631,64.79053
"60",79.25414,64.80371
"61",79.01976,64.816895
"62",78.72678,64.83008
"63",78.34348,64.84326
"64",77.86252,64.856445
"65",77.29366,64.86963
"66",76.66865,64.88281
"67",76.0119,64.895996
"68",75.355156,64.90918
"69",74.720375,64.92236
"70",74.11978,64.93555
"71",73.5729,64.94873
"72",73.077286,64.961914
"73",72.64271,64.9751
"74",72.27894,64.98828
"75",71.97864,65.001465
"76",71.7467,65.01465
"77",71.57824,65.02783
"78",71.448845,65.041016
"79",71.34875,65.0542
"80",71.26086,65.06738
"81",71.199814,65.08057
"82",71.26086,65.09375
"83",71.673454,65.10693
"84",72.706184,65.12012
"85",74.529945,65.1333
"86",77.11543,65.146484
"87",80.218506,65.15967
"88",83.43145,65.17285
"89",86.30747,65.186035
"90",88.516975,65.19922
"91",89.94034,65.2124
"92",90.63615,65.225586
"93",90.74601,65.23877
"94",90.43839,65.25195
"95",89.884186,65.26514
"96",89.22499,65.27832
"97",88.568245,65.291504
"98",87.96765,65.30469
"99",87.42321,65.31787
"100",86.90074,65.331055
"101",86.33921,65.34424
"102",85.680016,65.35742
"103",84.89143,65.370605
"104",83.99298,65.38379
"105",83.035934,65.39697
"106",82.1033,65.41016
"107",81.28054,65.42334
"108",80.62623,65.43652
"109",80.15503,65.44971
"110",79.84253,65.46289
"111",79.635,65.476074
"112",79.4641,65.48926
"113",79.276115,65.50244
"114",79.01732,65.515625
"115",78.67063,65.52881
"116",78.23361,65.54199
"117",77.72579,65.555176
"118",77.16426,65.56836
"119",76.575874,65.58154
"120",75.98749,65.59473
"121",75.41619,65.60791
"122",74.87663,65.62109
"123",74.373695,65.63428
"124",73.92203,65.64746
"125",73.52651,65.660645
"126",73.19203,65.67383
"127",72.92836,65.68701
"128",72.742805,65.700195
"129",72.62806,65.71338
"130",72.57191,65.72656
"131",72.549934,65.739746
"132",72.53773,65.75293
"133",72.52308,65.76611
"134",72.532845,65.7793
"135",72.674446,65.79248
"136",73.162735,65.805664
"137",74.21011,65.81885
"138",75.94354,65.83203
"139",78.29954,65.845215
"140",81.05348,65.8584
"141",83.84161,65.87158
"142",86.28306,65.884766
"143",88.111694,65.89795
"144",89.24208,65.91113
"145",89.723045,65.92432
"146",89.68398,65.9375
"147",89.28603,65.95068
"148",88.69276,65.96387
"149",88.03601,65.97705
"150",87.40612,65.990234
"151",86.83482,66.00342
"152",86.30747,66.0166
"153",85.770355,66.029785
"154",85.155106,66.04297
"155",84.42512,66.05615
"156",83.5877,66.069336
"157",82.701454,66.08252
"158",81.849396,66.0957
"159",81.109634,66.10889
"160",80.53834,66.12207
"161",80.14038,66.135254
"162",79.87671,66.14844
"163",79.693596,66.16162
"164",79.52514,66.174805
"165",79.31518,66.18799
"166",79.027084,66.20117
"167",78.65354,66.214355
"168",78.19455,66.22754
"169",77.67452,66.24072
"170",77.117874,66.25391
"171",76.54902,66.26709
"172",75.99237,66.28027
"173",75.46014,66.29346
"174",74.95964,66.30664
"175",74.495766,66.319824
"176",74.07095,66.33301
"177",73.69253,66.34619
"178",73.36538,66.359375
"179",73.091934,66.37256
"180",72.87953,66.38574
"181",72.72816,66.398926
"182",72.637825,66.41211
"183",72.601204,66.42529
"184",72.61097,66.43848
"185",72.65003,66.45166
"186",72.691536,66.46484
"187",72.723274,66.47803
"188",72.742805,66.49121
"189",72.82338,66.504395
"190",73.13344,66.51758
"191",73.89761,66.53076
"192",75.30877,66.543945
"193",77.39864,66.55713
"194",80.01587,66.57031
"195",82.85283,66.583496
"196",85.523766,66.59668
"197",87.69421,66.60986
"198",89.19325,66.62305
"199",90.02579,66.63623
"200",90.301674,66.649414
"201",90.179596,66.6626
"202",89.82315,66.67578
"203",89.36172,66.688965
"204",88.885635,66.70215
"205",88.44129,66.71533
"206",88.02869,66.728516
"207",87.620964,66.7417
"208",87.1693,66.75488
"209",86.61509,66.76807
"210",85.92172,66.78125
"211",85.08675,66.79443
"212",84.156555,66.80762
"213",83.20683,66.8208
"214",82.32792,66.833984
"215",81.58816,66.84717
"216",81.01198,66.86035
"217",80.58228,66.873535
"218",80.2478,66.88672
"219",79.957275,66.8999
"220",79.656975,66.913086
"221",79.31518,66.92627
"222",78.91478,66.93945
"223",78.45823,66.95264
"224",77.95773,66.96582
"225",77.43038,66.979004
"226",76.895706,66.99219
"227",76.36591,67.00537
"228",75.85321,67.018555
"229",75.36492,67.03174
"230",74.91081,67.04492
"231",74.49821,67.058105
"232",74.13199,67.07129
"233",73.80728,67.08447
"234",73.52407,67.09766
"235",73.28237,67.11084
"236",73.0724,67.12402
"237",72.89174,67.13721
"238",72.742805,67.15039
"239",72.62806,67.163574
"240",72.54261,67.17676
"241",72.47669,67.18994
"242",72.42054,67.203125
"243",72.37415,67.21631
"244",72.33265,67.22949
"245",72.30091,67.242676
"246",72.28382,67.25586
"247",72.2765,67.26904
"248",72.26917,67.28223
"249",72.23987,67.29541
"250",72.19104,67.30859
"251",72.166626,67.32178
"252",72.325325,67.33496
"253",72.921036,67.348145
"254",74.20035,67.36133
"255",76.24872,67.37451
"256",78.95628,67.387695
"257",82.01053,67.40088
"258",84.99153,67.41406
"259",87.49401,67.427246
"260",89.28603,67.44043
"261",90.34074,67.45361
"262",90.77287,67.4668
"263",90.74845,67.47998
"264",90.443275,67.493164
"265",90.01114,67.50635
"266",89.55947,67.51953
"267",89.13222,67.532715
"268",88.744026,67.5459
"269",88.375374,67.55908
"270",87.989624,67.572266
"271",87.53063,67.58545
"272",86.956894,67.59863
"273",86.24887,67.61182
"274",85.42611,67.625
"275",84.542305,67.63818
"276",83.67315,67.65137
"277",82.896774,67.66455
"278",82.25956,67.677734
"279",81.77615,67.69092
"280",81.40505,67.7041
"281",81.10719,67.717285
"282",80.833755,67.73047
"283",80.54322,67.74365
"284",80.2063,67.756836
"285",79.80591,67.77002
"286",79.34936,67.7832
"287",78.84154,67.79639
"288",78.30442,67.80957
"289",77.7551,67.822754
"290",77.21065,67.83594
"291",76.68818,67.84912
"292",76.19745,67.862305
"293",75.7409,67.87549
"294",75.33318,67.88867
"295",74.97429,67.901855
"296",74.666664,67.91504
"297",74.40055,67.92822
"298",74.17105,67.94141
"299",73.96353,67.95459
"300",73.78531,67.96777
"301",73.62661,67.98096
"302",73.494774,67.99414
"303",73.38247,68.007324
"304",73.29458,68.02051
"305",73.22133,68.03369
"306",73.15053,68.046875
"307",73.07973,68.06006
"308",73.00404,68.07324
"309",72.921036,68.086426
"310",72.84291,68.09961
"311",72.77455,68.11279
"312",72.725716,68.12598
"313",72.69642,68.13916
"314",72.689095,68.15234
"315",72.69642,68.16553
"316",72.708626,68.17871
"317",72.71839,68.191895
"318",72.7306,68.20508
"319",72.82582,68.21826
"320",73.214005,68.231445
"321",74.17105,68.24463
"322",75.8996,68.25781
"323",78.416725,68.270996
"324",81.50515,68.28418
"325",84.76448,68.29736
"326",87.7235,68.31055
"327",90.01846,68.32373
"328",91.493095,68.336914
"329",92.18646,68.3501
"330",92.24994,68.36328
"331",91.8764,68.376465
"332",91.25384,68.38965
"333",90.54093,68.40283
"334",89.850006,68.416016
"335",89.24208,68.4292
"336",88.72205,68.44238
"337",88.255745,68.45557
"338",87.78943,68.46875
"339",87.26452,68.48193
"340",86.62974,68.49512
"341",85.875336,68.5083
"342",85.02815,68.521484
"343",84.156555,68.53467
"344",83.336235,68.54785
"345",82.63798,68.561035
"346",82.09842,68.57422
"347",81.71267,68.5874
"348",81.43679,68.600586
"349",81.21217,68.61377
"350",80.98268,68.62695
"351",80.69459,68.64014
"352",80.33082,68.65332
"353",79.88403,68.666504
"354",79.36889,68.67969
"355",78.80492,68.69287
"356",78.21896,68.706055
"357",77.63546,68.71924
"358",77.07393,68.73242
"359",76.54902,68.745605
"360",76.07294,68.75879
"361",75.64568,68.77197
"362",75.267265,68.78516
"363",74.93523,68.79834
"364",74.649574,68.81152
"365",74.40299,68.82471
"366",74.195465,68.83789
"367",74.02457,68.851074
"368",73.88785,68.86426
"369",73.780426,68.87744
"370",73.704735,68.890625
"371",73.64858,68.90381
"372",73.61196,68.91699
"373",73.58022,68.930176
"374",73.55581,68.94336
"375",73.52407,68.95654
"376",73.49233,68.96973
"377",73.460594,68.98291
"378",73.43862,68.99609
"379",73.42397,69.00928
"380",73.41909,69.02246
"381",73.39468,69.035645
"382",73.29946,69.04883
"383",73.1017,69.06201
"384",72.82094,69.075195
"385",72.54749,69.08838
"386",72.50355,69.10156
"387",73.0309,69.114746
"388",74.40299,69.12793
"389",76.66865,69.14111
"390",79.62035,69.1543
"391",82.86992,69.16748
"392",85.93149,69.180664
"393",88.37293,69.19385
"394",89.986725,69.20703
"395",90.78752,69.220215
"396",90.90959,69.2334
"397",90.53361,69.24658
"398",89.84268,69.259766
"399",89.00282,69.27295
"400",88.1532,69.28613
"401",87.38171,69.29932
"402",86.72495,69.3125
"403",86.17807,69.32568
"404",85.694664,69.33887
"405",85.20393,69.35205
"406",84.65949,69.365234
"407",84.04181,69.37842
"408",83.387505,69.3916
"409",82.7625,69.404785
"410",82.23758,69.41797
"411",81.87137,69.43115
"412",81.671165,69.444336
"413",81.60525,69.45752
"414",81.61501,69.4707
"415",81.62478,69.48389
"416",81.57595,69.49707
"417",81.43191,69.510254
"418",81.17067,69.52344
"419",80.799576,69.53662
"420",80.343025,69.549805
"421",79.82056,69.56299
"422",79.259026,69.57617
"423",78.677956,69.589355
"424",78.10422,69.60254
"425",77.55489,69.61572
"426",77.04463,69.62891
"427",76.578316,69.64209
"428",76.17059,69.65527
"429",75.81903,69.66846
"430",75.52117,69.68164
"431",75.27459,69.694824
"432",75.07927,69.70801
"433",74.93523,69.72119
"434",74.83757,69.734375
"435",74.7863,69.74756
"436",74.77898,69.76074
"437",74.80583,69.773926
"438",74.847336,69.78711
"439",74.88396,69.80029
"440",74.89128,69.81348
"441",74.85222,69.82666
"442",74.78874,69.83984
"443",74.79607,69.85303
"444",75.08171,69.86621
"445",75.90448,69.879395
"446",77.435265,69.89258
"447",79.656975,69.90576
"448",82.36454,69.918945
"449",85.19661,69.93213
"450",87.73571,69.94531
"451",89.66689,69.958496
"452",90.86076,69.97168
"453",91.35638,69.98486
"454",91.283134,69.99805
"455",90.80705,70.01123
"456",90.091705,70.024414
"457",89.29092,70.0376
"458",88.50721,70.05078
"459",87.80408,70.063965
"460",87.19615,70.07715
"461",86.659035,70.09033
"462",86.13901,70.103516
"463",85.575035,70.1167
"464",84.9305,70.12988
"465",84.19562,70.14307
"466",83.40948,70.15625
"467",82.63798,70.16943
"468",81.94949,70.18262
"469",81.39773,70.1958
"470",81.004654,70.208984
"471",80.7483,70.22217
"472",80.584724,70.23535
"473",80.448006,70.248535
"474",80.28199,70.26172
"475",80.04028,70.2749
"476",79.70092,70.288086
"477",79.26635,70.30127
"478",78.75365,70.31445
"479",78.187225,70.32764
"480",77.5964,70.34082
"481",76.99336,70.354004
"482",76.404976,70.36719
"483",75.83856,70.38037
"484",75.30877,70.393555
"485",74.82292,70.40674
"486",74.390785,70.41992
"487",74.0148,70.433105
"488",73.69985,70.44629
"489",73.43862,70.45947
"490",73.23598,70.47266
"491",73.08217,70.48584
"492",72.972305,70.49902
"493",72.901505,70.51221
"494",72.86488,70.52539
"495",72.85512,70.538574
"496",72.867325,70.55176
"497",72.89906,70.56494
"498",72.935684,70.578125
"499",72.9601,70.59131
"500",72.9601,70.60449
"501",72.935684,70.617676
"502",72.95033,70.63086
"503",73.20668,70.64404
"504",74.00992,70.65723
"505",75.61883,70.67041
"506",78.08469,70.68359
"507",81.2195,70.69678
"508",84.627754,70.70996
"509",87.816284,70.723145
"510",90.35783,70.73633
"511",92.04486,70.74951
"512",92.89937,70.762695
"513",93.065384,70.77588
"514",92.72602,70.78906
"515",92.06683,70.802246
"516",91.25872,70.81543
"517",90.443275,70.82861
"518",89.70107,70.8418
"519",89.06142,70.85498
"520",88.52186,70.868164
"521",88.03601,70.88135
"522",87.53307,70.89453
"523",86.95201,70.907715
"524",86.24643,70.9209
"525",85.41634,70.93408
"526",84.505684,70.947266
"527",83.580376,70.96045
"528",82.72343,70.97363
"529",82.003204,70.98682
"530",81.45144,71
"531",81.05348,71.01318
"532",80.77516,71.02637
"533",80.550545,71.03955
"534",80.31373,71.052734
"535",80.01587,71.06592
"536",79.63012,71.0791
"537",79.149155,71.092285
"538",78.59251,71.10547
"539",77.98459,71.11865
"540",77.35226,71.131836
"541",76.71259,71.14502
"542",76.085144,71.1582
"543",75.48211,71.17139
"544",74.91325,71.18457
"545",74.38102,71.197754
"546",73.900055,71.21094
"547",73.47524,71.22412
"548",73.111465,71.237305
"549",72.813614,71.25049
"550",72.57435,71.26367
"551",72.39124,71.276855
"552",72.254524,71.29004
"553",72.1593,71.30322
"554",72.09827,71.31641
"555",72.06653,71.32959
"556",72.061646,71.34277
"557",72.08118,71.35596
"558",72.10803,71.36914
"559",72.13489,71.382324
"560",72.14465,71.39551
"561",72.12268,71.40869
"562",72.095825,71.421875
"563",72.19104,71.43506
"564",72.69642,71.44824
"565",73.944,71.461426
"566",76.11688,71.47461
"567",79.14671,71.48779
"568",82.70878,71.50098
"569",86.30015,71.51416
"570",89.40322,71.52734
"571",91.65911,71.54053
"572",92.99458,71.55371
"573",93.51705,71.566895
"574",93.40475,71.58008
"575",92.8481,71.59326
"576",92.03998,71.606445
"577",91.139084,71.61963
"578",90.267494,71.63281
"579",89.495995,71.645996
"580",88.84169,71.65918
"581",88.2826,71.67236
"582",87.75281,71.68555
"583",87.17662,71.69873
"584",86.49302,71.711914
"585",85.68246,71.7251
"586",84.7596,71.73828
"587",83.7879,71.751465
"588",82.85771,71.76465
"589",82.04715,71.77783
"590",81.409935,71.791016
"591",80.9485,71.8042
"592",80.635994,71.81738
"593",80.4065,71.83057
"594",80.19653,71.84375
"595",79.937744,71.85693
"596",79.5935,71.87012
"597",79.151596,71.8833
"598",78.61936,71.896484
"599",78.011444,71.90967
"600",77.36202,71.92285
"601",76.69062,71.936035
"602",76.0119,71.94922
"603",75.35027,71.9624
"604",74.720375,71.975586
"605",74.13443,71.98877
"606",73.59487,72.00195
"607",73.11391,72.01514
"608",72.691536,72.02832
"609",72.32777,72.041504
"610",72.02014,72.05469
"611",71.77112,72.06787
"612",71.570915,72.081055
"613",71.412224,72.09424
"614",71.292595,72.10742
"615",71.20714,72.120605
"616",71.150986,72.13379
"617",71.12169,72.14697
"618",71.12413,72.16016
"619",71.1461,72.17334
"620",71.18028,72.18652
"621",71.22179,72.19971
"622",71.258415,72.21289
"623",71.275505,72.226074
"624",71.26086,72.23926
"625",71.22179,72.25244
"626",71.22423,72.265625
"627",71.50988,72.27881
"628",72.47669,72.29199
"629",74.45182,72.305176
"630",77.486534,72.31836
"631",81.307396,72.33154
"632",85.40902,72.34473
"633",89.15663,72.35791
"634",92.03998,72.37109
"635",93.85397,72.38428
"636",94.69138,72.39746
"637",94.75731,72.410645
"638",94.26902,72.42383
"639",93.42184,72.43701
"640",92.39399,72.450195
"641",91.33196,72.46338
"642",90.34318,72.47656
"643",89.48623,72.489746
"644",88.76845,72.50293
"645",88.13611,72.51611
"646",87.51598,72.5293
"647",86.82994,72.54248
"648",86.04135,72.555664
"649",85.15755,72.56885
"650",84.23956,72.58203
"651",83.372856,72.595215
"652",82.64774,72.6084
"653",82.11307,72.62158
"654",81.77615,72.634766
"655",81.60525,72.64795
"656",81.53445,72.66113
"657",81.478294,72.67432
"658",81.36599,72.6875
"659",81.15114,72.70068
"660",80.80446,72.71387
"661",80.3357,72.72705
"662",79.75708,72.740234
"663",79.09544,72.75342
"664",78.37766,72.7666
"665",77.63058,72.779785
"666",76.87373,72.79297
"667",76.138855,72.80615
"668",75.45037,72.819336
"669",74.81804,72.83252
"670",74.26139,72.8457
"671",73.79263,72.85889
"672",73.409325,72.87207
"673",73.11391,72.885254
"674",72.89906,72.89844
"675",72.762344,72.91162
"676",72.689095,72.924805
"677",72.672005,72.93799
"678",72.69398,72.95117
"679",72.73548,72.964355
"680",72.77211,72.97754
"681",72.781876,72.99072
"682",72.75014,73.00391
"683",72.73304,73.01709
"684",72.91371,73.03027
"685",73.619286,73.04346
"686",75.157394,73.05664
"687",77.63302,73.069824
"688",80.867935,73.08301
"689",84.44709,73.09619
"690",87.8407,73.109375
"691",90.565346,73.12256
"692",92.367134,73.13574
"693",93.25094,73.148926
"694",93.37057,73.16211
"695",92.91646,73.17529
"696",92.07416,73.18848
"697",91.0341,73.20166
"698",89.94766,73.21484
"699",88.92714,73.22803
"700",88.03845,73.24121
"701",87.28405,73.254395
"702",86.61753,73.26758
"703",85.95834,73.28076
"704",85.23323,73.293945
"705",84.4007,73.30713
"706",83.475395,73.32031
"707",82.51591,73.333496
"708",81.619896,73.34668
"709",80.87526,73.35986
"710",80.33326,73.37305
"711",79.98657,73.38623
"712",79.78882,73.399414
"713",79.67162,73.4126
"714",79.54955,73.42578
"715",79.35912,73.438965
"716",79.05394,73.45215
"717",78.61936,73.46533
"718",78.06027,73.478516
"719",77.39132,73.4917
"720",76.646675,73.50488
"721",75.85565,73.51807
"722",75.04753,73.53125
"723",74.251625,73.54443
"724",73.494774,73.55762
"725",72.7892,73.5708
"726",72.149536,73.583984
"727",71.59045,73.59717
"728",71.11192,73.61035
"729",70.72373,73.623535
"730",70.421,73.63672
"731",70.19882,73.6499
"732",70.05234,73.663086
"733",69.98886,73.67627
"734",70.01572,73.68945
"735",70.14023,73.70264
"736",70.347755,73.71582
"737",70.608986,73.729004
"738",70.87999,73.74219
"739",71.11925,73.75537
"740",71.309685,73.768555
"741",71.536736,73.78174
"742",72.076294,73.79492
"743",73.338524,73.808105
"744",75.6408,73.82129
"745",79.00755,73.83447
"746",83.12627,73.84766
"747",87.450066,73.86084
"748",91.34661,73.87402
"749",94.327614,73.88721
"750",96.23193,73.90039
"751",97.181656,73.913574
"752",97.38918,73.92676
"753",97.059586,73.93994
"754",96.38087,73.953125
"755",95.49706,73.96631
"756",94.54246,73.97949
"757",93.609825,73.992676
"758",92.75044,74.00586
"759",91.966736,74.01904
"760",91.209885,74.03223
"761",90.406654,74.04541
"762",89.49111,74.05859
"763",88.429085,74.07178
"764",87.23033,74.08496
"765",85.96567,74.098145
"766",84.73762,74.11133
"767",83.65362,74.12451
"768",82.794235,74.137695
"769",82.178986,74.15088
"770",81.77371,74.16406
"771",81.512474,74.177246
"772",81.3196,74.19043
"773",81.11696,74.20361
"774",80.85573,74.2168
"775",80.51392,74.22998
"776",80.03296,74.243164
"777",79.32983,74.25635
"778",78.36057,74.26953
"779",77.17891,74.282715
"780",75.897156,74.2959
"781",74.63981,74.30908
"782",73.53384,74.322266
"783",72.65247,74.33545
"784",71.96643,74.34863
"785",71.39269,74.36182
"786",70.89952,74.375
"787",70.47959,74.38818
"788",70.12802,74.40137
"789",69.839935,74.41455
"790",69.61288,74.427734
"791",69.4493,74.44092
"792",69.34432,74.4541
"793",69.29305,74.467285
"794",69.28329,74.48047
"795",69.30038,74.49365
"796",69.315025,74.506836
"797",69.349205,74.52002
"798",69.54696,74.5332
"799",70.20615,74.54639
"800",71.7174,74.55957
"801",74.319984,74.572754
"802",77.9382,74.58594
"803",82.159454,74.59912
"804",86.36851,74.612305
"805",89.92813,74.62549
"806",92.403755,74.63867
"807",93.70748,74.651855
"808",94.03708,74.66504
"809",93.69283,74.67822
"810",92.93843,74.69141
"811",91.981384,74.70459
"812",90.97795,74.71777
"813",90.01602,74.73096
"814",89.13954,74.74414
"815",88.35096,74.757324
"816",87.620964,74.77051
"817",86.89342,74.78369
"818",86.10239,74.796875
"819",85.19417,74.81006
"820",84.159,74.82324
"821",83.02617,74.836426
"822",81.87381,74.84961
"823",80.797134,74.86279
"824",79.88159,74.87598
"825",79.17845,74.88916
"826",78.68284,74.90234
"827",78.36057,74.91553
"828",78.135956,74.92871
"829",77.93576,74.941895
"830",77.69405,74.95508
"831",77.35958,74.96826
"832",76.91524,74.981445
"833",76.3708,74.99463
"834",75.757996,75.00781
"835",75.106125,75.020996
"836",74.444496,75.03418
"837",73.78775,75.04736
"838",73.1432,75.06055
"839",72.515755,75.07373
"840",71.90784,75.086914
"841",71.326775,75.1001
"842",70.79454,75.11328
"843",70.328224,75.126465
"844",69.94003,75.13965
"845",69.63241,75.15283
"846",69.400475,75.166016
"847",69.23201,75.1792
"848",69.11726,75.19238
"849",69.04158,75.20557
"850",68.997635,75.21875
"851",68.97322,75.23193
"852",68.98543,75.24512
"853",69.12215,75.2583
"854",69.63241,75.271484
"855",70.88243,75.28467
"856",73.15541,75.29785
"857",76.46845,75.311035
"858",80.49195,75.32422
"859",84.6717,75.3374
"860",88.377815,75.350586
"861",91.1342,75.36377
"862",92.7773,75.37695
"863",93.44869,75.39014
"864",93.39742,75.40332
"865",92.860306,75.416504
"866",92.03265,75.42969
"867",91.070724,75.44287
"868",90.091705,75.456055
"869",89.17128,75.46924
"870",88.341194,75.48242
"871",87.586784,75.495605
"872",86.84459,75.50879
"873",86.04379,75.52197
"874",85.14046,75.53516
"875",84.15167,75.54834
"876",83.13847,75.56152
"877",82.19852,75.57471
"878",81.43191,75.58789
"879",80.89723,75.601074
"880",80.59205,75.61426
"881",80.46754,75.62744
"882",80.43336,75.640625
"883",80.39185,75.65381
"884",80.26002,75.66699
"885",79.98901,75.680176
"886",78.995346,75.70654
"887",78.31907,75.71973
"888",77.56954,75.73291
"889",76.771194,75.74609
"890",75.95087,75.75928
"891",75.13054,75.77246
"892",74.32487,75.785645
"893",73.55337,75.79883
"894",72.82582,75.81201
"895",72.149536,75.825195
"896",71.5465,75.83838
"897",71.02403,75.85156
"898",70.59922,75.864746
"899",70.28672,75.87793
"900",70.08896,75.89111
"901",69.98642,75.9043
"902",69.96445,75.91748
"903",70.00351,75.930664
"904",70.15976,75.94385
"905",70.64561,75.95703
"906",71.82971,75.970215
"907",74.022125,75.9834
"908",77.27413,75.99658
"909",81.287865,76.009766
"910",85.521324,76.02295
"911",89.339745,76.03613
"912",92.22064,76.04932
"913",93.96872,76.0625
"914",94.696266,76.07568
"915",94.659645,76.08887
"916",94.098114,76.10205
"917",93.21675,76.115234
"918",92.16937,76.12842
"919",91.09514,76.1416
"920",90.074615,76.154785
"921",89.15419,76.16797
"922",88.32899,76.18115
"923",87.54284,76.194336
"924",86.72251,76.20752
"925",85.80698,76.2207
"926",84.77669,76.23389
"927",83.67071,76.24707
"928",82.5745,76.260254
"929",81.5906,76.27344
"930",80.80446,76.28662
"931",80.24292,76.299805
"932",79.888916,76.31299
"933",79.68139,76.32617
"934",79.53002,76.339355
"935",79.35424,76.35254
"936",79.09544,76.36572
"937",78.71702,76.37891
"938",78.20187,76.39209
"939",77.56954,76.40527
"940",76.84688,76.41846
"941",76.06317,76.43164
"942",75.25262,76.444824
"943",74.442055,76.45801
"944",73.64858,76.47119
"945",72.886856,76.484375
"946",72.16907,76.49756
"947",71.50744,76.51074
"948",70.90929,76.523926
"949",70.381935,76.53711
"950",69.93271,76.55029
"951",69.56649,76.56348
"952",69.28329,76.57666
"953",69.08797,76.58984
"954",68.98543,76.60303
"955",68.96834,76.61621
"956",69.01961,76.629395
"957",69.11482,76.64258
"958",69.224686,76.65576
"959",69.32479,76.668945
"960",69.46395,76.68213
"961",69.85214,76.69531
"962",70.87755,76.708496
"963",72.955215,76.72168
"964",76.241394,76.73486
"965",80.49195,76.74805
"966",85.1429,76.76123
"967",89.49355,76.774414
"968",92.92134,76.7876
"969",95.12108,76.80078
"970",96.166016,76.813965
"971",96.34669,76.82715
"972",95.95117,76.84033
"973",95.20653,76.853516
"974",94.28123,76.8667
"975",93.30709,76.87988
"976",92.37202,76.89307
"977",91.51507,76.90625
"978",90.7338,76.91943
"979",89.986725,76.93262
"980",89.21767,76.9458
"981",88.36317,76.958984
"982",87.38415,76.97217
"983",86.28062,76.98535
"984",85.101395,76.998535
"985",83.93927,77.01172
"986",82.88945,77.0249
"987",82.02518,77.038086
"988",81.38064,77.05127
"989",80.93141,77.06445
"990",80.61646,77.07764
"991",80.35279,77.09082
"992",80.06714,77.104004
"993",79.691154,77.11719
"994",79.1931,77.13037
"995",78.56809,77.143555
"996",77.83322,77.15674
"997",77.01289,77.16992
"998",76.14862,77.183105
"999",75.26238,77.19629
"1000",74.37614,77.20947
"1001",73.514305,77.22266
"1002",72.689095,77.23584
"1003",71.91516,77.24902
"1004",71.199814,77.26221
"1005",70.56016,77.27539
"1006",69.996185,77.288574
"1007",69.51034,77.30176
"1008",69.09773,77.31494
"1009",68.7657,77.328125
"1010",68.509346,77.34131
"1011",68.32868,77.35449
"1012",68.21637,77.367676
"1013",68.16754,77.38086
"1014",68.16022,77.39404
"1015",68.18707,77.40723
"1016",68.23834,77.42041
"1017",68.316475,77.43359
"1018",68.41657,77.44678
"1019",68.54597,77.45996
"1020",68.699776,77.473145
"1021",68.860916,77.48633
"1022",69.00496,77.49951
"1023",69.12703,77.512695
"1024",69.25887,77.52588
"1025",69.5787,77.53906
"1026",70.46494,77.552246
"1027",72.427864,77.56543
"1028",75.79462,77.57861
"1029",80.445564,77.5918
"1030",85.804535,77.60498
"1031",91.05119,77.618164
"1032",95.37011,77.63135
"1033",98.24124,77.64453
"1034",99.60845,77.657715
"1035",99.80133,77.6709
"1036",99.23735,77.68408
"1037",98.23392,77.697266
"1038",97.025406,77.71045
"1039",95.77539,77.72363
"1040",94.588844,77.73682
"1041",93.51949,77.75
"1042",92.57465,77.76318
"1043",91.71526,77.77637
"1044",90.87053,77.78955
"1045",89.96475,77.802734
"1046",88.94179,77.81592
"1047",87.77722,77.8291
"1048",86.51743,77.842285
"1049",85.243,77.85547
"1050",84.071106,77.86865
"1051",83.09697,77.881836
"1052",82.36942,77.89502
"1053",81.883575,77.9082
"1054",81.57595,77.92139
"1055",81.358665,77.93457
"1056",81.129166,77.947754
"1057",80.81911,77.96094
"1058",80.377205,77.97412
"1059",79.79614,77.987305
"1060",79.080795,78.00049
"1061",78.27024,78.01367
"1062",77.3962,78.026855
"1063",76.490425,78.04004
"1064",75.58221,78.05322
"1065",74.69108,78.06641
"1066",73.831696,78.07959
"1067",73.02113,78.09277
"1068",72.2765,78.10596
"1069",71.61242,78.11914
"1070",71.0338,78.132324
"1071",70.538185,78.14551
"1072",70.12314,78.15869
"1073",69.78378,78.171875
"1074",69.5201,78.18506
"1075",69.33944,78.19824
"1076",69.23445,78.211426
"1077",69.19295,78.22461
"1078",69.20027,78.23779
"1079",69.241776,78.25098
"1080",69.30526,78.26416
"1081",69.3785,78.27734
"1082",69.468834,78.29053
"1083",69.573814,78.30371
"1084",69.68856,78.316895
"1085",69.81308,78.33008
"1086",69.94736,78.34326
"1087",70.066986,78.356445
"1088",70.1622,78.36963
"1089",70.233,78.38281
"1090",70.3502,78.395996
"1091",70.74326,78.40918
"1092",71.82971,78.42236
"1093",74.09781,78.43555
"1094",77.769745,78.44873
"1095",82.616005,78.461914
"1096",87.972534,78.4751
"1097",92.99458,78.48828
"1098",96.90822,78.501465
"1099",99.300835,78.51465
"1100",100.21881,78.52783
"1101",100.033264,78.541016
"1102",99.16167,78.5542
"1103",97.90921,78.56738
"1104",96.483406,78.58057
"1105",95.04051,78.59375
"1106",93.68551,78.60693
"1107",92.474556,78.62012
"1108",91.407646,78.6333
"1109",90.43595,78.646484
"1110",89.478905,78.65967
"1111",88.463264,78.67285
"1112",87.35485,78.686035
"1113",86.18051,78.69922
"1114",85.00862,78.7124
"1115",83.94415,78.725586
"1116",83.07988,78.73877
"1117",82.47196,78.75195
"1118",82.108185,78.76514
"1119",81.9324,78.77832
"1120",81.83963,78.791504
"1121",81.71511,78.80469
"1122",81.46853,78.81787
"1123",81.04372,78.831055
"1124",80.430916,78.84424
"1125",79.65453,78.85742
"1126",78.75609,78.870605
"1127",77.77707,78.88379
"1128",76.75899,78.89697
"1129",75.7409,78.91016
"1130",74.74967,78.92334
"1131",73.814606,78.93652
"1132",72.95033,78.94971
"1133",72.164185,78.96289
"1134",71.46105,78.976074
"1135",70.84337,78.98926
"1136",70.311134,79.00244
"1137",69.86435,79.015625
"1138",69.50057,79.02881
"1139",69.224686,79.04199
"1140",69.02693,79.055176
"1141",68.90486,79.06836
"1142",68.85359,79.08154
"1143",68.875565,79.09473
"1144",68.963455,79.10791
"1145",69.102615,79.12109
"1146",69.27352,79.13428
"1147",69.4493,79.14746
"1148",69.610435,79.160645
"1149",69.75693,79.17383
"1150",69.976654,79.18701
"1151",70.518654,79.200195
"1152",71.81018,79.21338
"1153",74.302895,79.22656
"1154",78.16037,79.239746
"1155",83.08476,79.25293
"1156",88.39735,79.26611
"1157",93.25826,79.2793
"1158",96.95705,79.29248
"1159",99.142136,79.305664
"1160",99.91608,79.31885
"1161",99.667046,79.33203
"1162",98.78813,79.345215
"1163",97.56252,79.3584
"1164",96.19287,79.37158
"1165",94.81346,79.384766
"1166",93.52682,79.39795
"1167",92.369576,79.41113
"1168",91.34173,79.42432
"1169",90.39689,79.4375
"1170",89.45937,79.45068
"1171",88.45106,79.46387
"1172",87.33532,79.47705
"1173",86.10971,79.490234
"1174",84.842606,79.50342
"1175",83.631645,79.5166
"1176",82.58671,79.529785
"1177",81.78592,79.54297
"1178",81.25124,79.55615
"1179",80.9485,79.569336
"1180",80.797134,79.58252
"1181",80.68482,79.5957
"1182",80.5066,79.60889
"1183",80.19409,79.62207
"1184",79.70336,79.635254
"1185",79.044174,79.64844
"1186",78.24338,79.66162
"1187",77.34493,79.674805
"1188",76.387886,79.68799
"1189",75.40887,79.70117
"1190",74.43717,79.714355
"1191",73.497215,79.72754
"1192",72.60609,79.74072
"1193",71.783325,79.75391
"1194",71.0338,79.76709
"1195",70.36729,79.78027
"1196",69.78134,79.79346
"1197",69.280846,79.80664
"1198",68.860916,79.819824
"1199",68.53132,79.83301
"1200",68.28474,79.84619
"1201",68.1236,79.859375
"1202",68.04303,79.87256
"1203",68.033264,79.88574
"1204",68.08209,79.898926
"1205",68.172424,79.91211
"1206",68.30427,79.92529
"1207",68.46784,79.93848
"1208",68.64118,79.95166
"1209",68.80476,79.96484
"1210",68.96834,79.97803
"1211",69.21736,79.99121
"1212",69.80087,80.004395
"1213",71.17296,80.01758
"1214",73.814606,80.03076
"1215",77.89426,80.043945
"1216",83.09453,80.05713
"1217",88.687874,80.07031
"1218",93.785614,80.083496
"1219",97.64309,80.09668
"1220",99.90143,80.10986
"1221",100.682686,80.12305
"1222",100.40925,80.13623
"1223",99.49859,80.149414
"1224",98.248566,80.1626
"1225",96.85451,80.17578
"1226",95.467766,80.188965
"1227",94.17624,80.20215
"1228",93.02388,80.21533
"1229",92.0058,80.228516
"1230",91.073166,80.2417
"1231",90.142975,80.25488
"1232",89.1371,80.26807
"1233",88.00427,80.28125
"1234",86.75426,80.29443
"1235",85.43832,80.30762
"1236",84.159,80.3208
"1237",83.018845,80.333984
"1238",82.11307,80.34717
"1239",81.46853,80.36035
"1240",81.07301,80.373535
"1241",80.85329,80.38672
"1242",80.709236,80.3999
"1243",80.5359,80.413086
"1244",80.257576,80.42627
"1245",79.82056,80.43945
"1246",79.21507,80.45264
"1247",78.46067,80.46582
"1248",77.59884,80.479004
"1249",76.66621,80.49219
"1250",75.70428,80.50537
"1251",74.74967,80.518555
"1252",73.829254,80.53174
"1253",72.94789,80.54492
"1254",72.1178,80.558105
"1255",71.34875,80.57129
"1256",70.65537,80.58447
"1257",70.047455,80.59766
"1258",69.539635,80.61084
"1259",69.12703,80.62402
"1260",68.80965,80.63721
"1261",68.56794,80.65039
"1262",68.39948,80.663574
"1263",68.30915,80.67676
"1264",68.28718,80.68994
"1265",68.33845,80.703125
"1266",68.455635,80.71631
"1267",68.628975,80.72949
"1268",68.8365,80.742676
"1269",69.06111,80.75586
"1270",69.28573,80.76904
"1271",69.51034,80.78223
"1272",69.805756,80.79541
"1273",70.39658,80.80859
"1274",71.67834,80.82178
"1275",74.110016,80.83496
"1276",77.88449,80.848145
"1277",82.757614,80.86133
"1278",88.07507,80.87451
"1279",93.00923,80.887695
"1280",96.82033,80.90088
"1281",99.12993,80.91406
"1282",100.001526,80.927246
"1283",99.81354,80.94043
"1284",98.97124,80.95361
"1285",97.78226,80.9668
"1286",96.43946,80.97998
"1287",95.079575,80.993164
"1288",93.79294,81.00635
"1289",92.62592,81.01953
"1290",91.580986,81.032715
"1291",90.61906,81.0459
"1292",89.671776,81.05908
"1293",88.66834,81.072266
"1294",87.56725,81.08545
"1295",86.37827,81.09863
"1296",85.15755,81.11182
"1297",84.00763,81.125
"1298",83.03105,81.13818
"1299",82.30106,81.15137
"1300",81.832306,81.16455
"1301",81.5906,81.177734
"1302",81.48806,81.19092
"1303",81.41482,81.2041
"1304",81.26833,81.217285
"1305",80.9778,81.23047
"1306",80.5066,81.24365
"1307",79.85962,81.256836
"1308",79.07103,81.27002
"1309",78.17502,81.2832
"1310",77.21797,81.29639
"1311",76.24628,81.30957
"1312",75.29168,81.322754
"1313",74.38102,81.33594
"1314",73.53628,81.34912
"1315",72.77455,81.362305
"1316",72.095825,81.37549
"1317",71.50988,81.38867
"1318",71.01915,81.401855
"1319",70.62852,81.41504
"1320",70.33311,81.42822
"1321",70.12558,81.44141
"1322",69.98886,81.45459
"1323",69.91318,81.46777
"1324",69.88144,81.48096
"1325",69.88144,81.49414
"1326",69.89365,81.507324
"1327",69.9205,81.52051
"1328",70.00839,81.53369
"1329",70.33799,81.546875
"1330",71.25109,81.56006
"1331",73.16518,81.57324
"1332",76.29267,81.586426
"1333",80.465096,81.59961
"1334",85.152664,81.61279
"1335",89.62539,81.62598
"1336",93.2021,81.63916
"1337",95.48974,81.65234
"1338",96.49073,81.66553
"1339",96.49073,81.67871
"1340",95.84619,81.691895
"1341",94.82811,81.70508
"1342",93.62447,81.71826
"1343",92.37446,81.731445
"1344",91.17326,81.74463
"1345",90.06729,81.75781
"1346",89.05653,81.770996
"1347",88.10925,81.78418
"1348",87.16441,81.79736
"1349",86.15854,81.81055
"1350",85.07698,81.82373
"1351",83.946594,81.836914
"1352",82.82353,81.8501
"1353",81.78836,81.86328
"1354",80.94606,81.876465
"1355",80.35279,81.88965
"1356",80.02319,81.90283
"1357",79.903564,81.916016
"1358",79.903564,81.9292
"1359",79.90845,81.94238
"1360",79.81079,81.95557
"1361",79.54223,81.96875
"1362",79.080795,81.98193
"1363",78.44846,81.99512
"1364",77.69405,82.0083
"1365",76.86641,82.021484
"1366",76.00946,82.03467
"1367",75.157394,82.04785
"1368",74.32975,82.061035
"1369",73.531395,82.07422
"1370",72.77211,82.0874
"1371",72.05676,82.100586
"1372",71.397575,82.11377
"1373",70.81651,82.12695
"1374",70.30869,82.14014
"1375",69.879,82.15332
"1376",69.5201,82.166504
"1377",69.222244,82.17969
"1378",68.980545,82.19287
"1379",68.79256,82.206055
"1380",68.65095,82.21924
"1381",68.55329,82.23242
"1382",68.48249,82.245605
"1383",68.43122,82.25879
"1384",68.438545,82.27197
"1385",68.648506,82.28516
"1386",69.39803,82.29834
"1387",71.133896,82.31152
"1388",74.1564,82.32471
"1389",78.38743,82.33789
"1390",83.34112,82.351074
"1391",88.28016,82.36426
"1392",92.44282,82.37744
"1393",95.326164,82.390625
"1394",96.849625,82.40381
"1395",97.26223,82.41699
"1396",96.92775,82.430176
"1397",96.14404,82.44336
"1398",95.116196,82.45654
"1399",93.98093,82.46973
"1400",92.83101,82.48291
"1401",91.72991,82.49609
"1402",90.71427,82.50928
"1403",89.77432,82.52246
"1404",88.88075,82.535645
"1405",87.97986,82.54883
"1406",87.01305,82.56201
"1407",85.9559,82.575195
"1408",84.81575,82.58838
"1409",83.66094,82.60156
"1410",82.562294,82.614746
"1411",81.60525,82.62793
"1412",80.83864,82.64111
"1413",80.2649,82.6543
"1414",79.84741,82.66748
"1415",79.534904,82.680664
"1416",79.2517,82.69385
"1417",78.93431,82.70703
"1418",78.52903,82.720215
"1419",78.009,82.7334
"1420",77.37179,82.74658
"1421",76.6247,82.759766
"1422",75.792175,82.77295
"1423",74.90837,82.78613
"1424",74.00015,82.79932
"1425",73.09682,82.8125
"1426",72.20813,82.82568
"1427",71.35119,82.83887
"1428",70.538185,82.85205
"1429",69.79843,82.865234
"1430",69.15144,82.87842
"1431",68.61433,82.8916
"1432",68.19928,82.904785
"1433",67.90143,82.91797
"1434",67.70611,82.93115
"1435",67.59136,82.944336
"1436",67.542534,82.95752
"1437",67.54009,82.9707
"1438",67.57427,82.98389
"1439",67.63531,82.99707
"1440",67.7525,83.010254
"1441",68.069885,83.02344
"1442",68.892654,83.03662
"1443",70.67002,83.049805
"1444",73.75845,83.06299
"1445",78.17746,83.07617
"1446",83.48272,83.089355
"1447",88.91249,83.10254
"1448",93.64156,83.11572
"1449",97.04738,83.12891
"1450",98.92485,83.14209
"1451",99.46929,83.15527
"1452",99.06645,83.16846
"1453",98.06546,83.18164
"1454",96.70313,83.194824
"1455",95.15282,83.20801
"1456",93.55367,83.22119
"1457",92.01312,83.234375
"1458",90.59464,83.24756
"1459",89.31777,83.26074
"1460",88.14099,83.273926
"1461",86.99596,83.28711
"1462",85.81918,83.30029
"1463",84.59846,83.31348
"1464",83.370415,83.32666
"1465",82.230255,83.33984
"1466",81.27566,83.35303
"1467",80.58961,83.36621
"1468",80.19653,83.379395
"1469",80.07446,83.39258
"1470",80.13794,83.40576
"1471",80.28199,83.418945
"1472",80.394295,83.43213
"1473",80.37965,83.44531
"1474",80.181885,83.458496
"1475",79.783936,83.47168
"1476",79.20531,83.48486
"1477",78.487526,83.49805
"1478",77.67696,83.51123
"1479",76.81026,83.524414
"1480",75.931335,83.5376
"1481",75.06218,83.55078
"1482",74.22476,83.563965
"1483",73.44839,83.57715
"1484",72.74525,83.59033
"1485",72.130005,83.603516
"1486",71.61242,83.6167
"1487",71.19493,83.62988
"1488",70.86534,83.64307
"1489",70.60166,83.65625
"1490",70.37949,83.66943
"1491",70.20126,83.68262
"1492",70.13046,83.6958
"1493",70.37461,83.708984
"1494",71.30724,83.72217
"1495",73.323875,83.73535
"1496",76.5832,83.748535
"1497",80.84596,83.76172
"1498",85.523766,83.7749
"1499",89.88907,83.788086
"1500",93.29977,83.80127
"1501",95.414055,83.81445
"1502",96.28809,83.82764
"1503",96.21973,83.84082
"1504",95.5288,83.854004
"1505",94.46189,83.86719
"1506",93.189896,83.88037
"1507",91.83978,83.893555
"1508",90.50919,83.90674
"1509",89.24696,83.91992
"1510",88.07019,83.933105
"1511",86.942245,83.94629
"1512",85.81918,83.95947
"1513",84.65705,83.97266
"1514",83.46807,83.98584
"1515",82.286415,83.99902
"1516",81.20485,84.01221
"1517",80.306404,84.02539
"1518",79.65942,84.038574
"1519",79.26635,84.05176
"1520",79.08812,84.06494
"1521",79.03685,84.078125
"1522",79.00267,84.09131
"1523",78.887924,84.10449
"1524",78.61936,84.117676
"1525",78.17258,84.13086
"1526",77.55001,84.14404
"1527",76.79317,84.15723
"1528",75.9411,84.17041
"1529",75.037766,84.18359
"1530",74.107574,84.19678
"1531",73.18715,84.20996
"1532",72.29847,84.223145
"1533",71.47082,84.23633
"1534",70.728615,84.24951
"1535",70.081635,84.262695
"1536",69.542076,84.27588
"1537",69.11238,84.28906
"1538",68.787674,84.302246
"1539",68.56306,84.31543
"1540",68.421455,84.32861
"1541",68.34821,84.3418
"1542",68.32624,84.35498
"1543",68.37263,84.368164
"1544",68.628975,84.38135
"1545",69.41024,84.39453
"1546",71.148544,84.407715
"1547",74.124664,84.4209
"1548",78.25315,84.43408
"1549",83.053024,84.447266
"1550",87.80652,84.46045
"1551",91.79828,84.47363
"1552",94.55955,84.48682
"1553",96.01709,84.5
"1554",96.43458,84.51318
"1555",96.163574,84.52637
"1556",95.47265,84.53955
"1557",94.54978,84.552734
"1558",93.52926,84.56592
"1559",92.50385,84.5791
"1560",91.53704,84.592285
"1561",90.65324,84.60547
"1562",89.847565,84.61865
"1563",89.06874,84.631836
"1564",88.25086,84.64502
"1565",87.33532,84.6582
"1566",86.28794,84.67139
"1567",85.12337,84.68457
"1568",83.90997,84.697754
"1569",82.738075,84.71094
"1570",81.705345,84.72412
"1571",80.8777,84.737305
"1572",80.272224,84.75049
"1573",79.85474,84.76367
"1574",79.55932,84.776855
"1575",79.29809,84.79004
"1576",78.99046,84.80322
"1577",78.57786,84.81641
"1578",78.03342,84.82959
"1579",77.35714,84.84277
"1580",76.57343,84.85596
"1581",75.70672,84.86914
"1582",74.793625,84.882324
"1583",73.863434,84.89551
"1584",72.95033,84.90869
"1585",72.07141,84.921875
"1586",71.255974,84.93506
"1587",70.52354,84.94824
"1588",69.89365,84.961426
"1589",69.3785,84.97461
"1590",68.980545,84.98779
"1591",68.69245,85.00098
"1592",68.50202,85.01416
"1593",68.39216,85.02734
"1594",68.34577,85.04053
"1595",68.33845,85.05371
"1596",68.353096,85.066895
"1597",68.38972,85.08008
"1598",68.53376,85.09326
"1599",69.02937,85.106445
"1600",70.28672,85.11963
"1601",72.67689,85.13281
"1602",76.27314,85.145996
"1603",80.743416,85.15918
"1604",85.46517,85.17236
"1605",89.720604,85.18555
"1606",92.94087,85.19873
"1607",94.90135,85.211914
"1608",95.746086,85.2251
"1609",95.79004,85.23828
"1610",95.31884,85.251465
"1611",94.53513,85.26465
"1612",93.58785,85.27783
"1613",92.594185,85.291016
"1614",91.632256,85.3042
"1615",90.74113,85.31738
"1616",89.92081,85.33057
"1617",89.1371,85.34375
"1618",88.32166,85.35693
"1619",87.41833,85.37012
"1620",86.39048,85.3833
"1621",85.25765,85.396484
"1622",84.08087,85.40967
"1623",82.948044,85.42285
"1624",81.95926,85.436035
"1625",81.17067,85.44922
"1626",80.59693,85.4624
"1627",80.21362,85.475586
"1628",79.95239,85.48877
"1629",79.725334,85.50195
"1630",79.44213,85.51514
"1631",79.03685,85.52832
"1632",78.470436,85.541504
"1633",77.752655,85.55469
"1634",76.925,85.56787
"1635",76.02655,85.581055
"1636",75.10124,85.59424
"1637",74.19302,85.60742
"1638",73.323875,85.620605
"1639",72.50843,85.63379
"1640",71.75891,85.64697
"1641",71.08995,85.66016
"1642",70.50889,85.67334
"1643",70.01816,85.68652
"1644",69.625084,85.69971
"1645",69.32967,85.71289
"1646",69.13435,85.726074
"1647",69.02205,85.73926
"1648",68.980545,85.75244
"1649",68.98299,85.765625
"1650",69.017166,85.77881
"1651",69.07332,85.79199
"1652",69.16365,85.805176
"1653",69.295494,85.81836
"1654",69.471275,85.83154
"1655",69.678795,85.84473
"1656",69.89365,85.85791
"1657",70.0914,85.87109
"1658",70.313576,85.88428
"1659",70.748146,85.89746
"1660",71.78088,85.910645
"1661",73.83658,85.92383
"1662",77.09834,85.93701
"1663",81.35378,85.950195
"1664",86.05356,85.96338
"1665",90.48722,85.97656
"1666",94.012665,85.989746
"1667",96.307625,86.00293
"1668",97.42092,86.01611
"1669",97.64309,86.0293
"1670",97.269554,86.04248
"1671",96.52003,86.055664
"1672",95.56054,86.06885
"1673",94.5156,86.08203
"1674",93.47555,86.095215
"1675",92.49409,86.1084
"1676",91.595634,86.12158
"1677",90.74601,86.134766
"1678",89.90372,86.14795
"1679",89.01015,86.16113
"1680",88.03601,86.17432
"1681",86.98131,86.1875
"1682",85.88266,86.20068
"1683",84.823074,86.21387
"1684",83.88312,86.22705
"1685",83.12871,86.240234
"1686",82.58427,86.25342
"1687",82.24002,86.2666
"1688",82.037384,86.279785
"1689",81.89334,86.29297
"1690",81.71999,86.30615
"1691",81.45144,86.319336
"1692",81.041275,86.33252
"1693",80.4773,86.3457
"1694",79.77905,86.35889
"1695",78.9807,86.37207
"1696",78.118866,86.385254
"1697",77.23506,86.39844
"1698",76.35615,86.41162
"1699",75.50164,86.424805
"1700",74.69352,86.43799
"1701",73.936676,86.45117
"1702",73.231094,86.464355
"1703",72.586555,86.47754
"1704",72.007935,86.49072
"1705",71.502556,86.50391
"1706",71.08751,86.51709
"1707",70.77501,86.53027
"1708",70.57725,86.54346
"1709",70.486916,86.55664
"1710",70.47959,86.569824
"1711",70.53086,86.58301
"1712",70.608986,86.59619
"1713",70.677345,86.609375
"1714",70.711525,86.62256
"1715",70.70908,86.63574
"1716",70.68467,86.648926
"1717",70.76036,86.66211
"1718",71.219345,86.67529
"1719",72.47181,86.68848
"1720",74.80095,86.70166
"1721",78.18967,86.71484
"1722",82.25712,86.72803
"1723",86.40757,86.74121
"1724",89.99893,86.754395
"1725",92.57221,86.76758
"1726",94.00778,86.78076
"1727",94.47654,86.793945
"1728",94.22995,86.80713
"1729",93.487755,86.82031
"1730",92.4184,86.833496
"1731",91.16838,86.84668
"1732",89.86221,86.85986
"1733",88.5951,86.87305
"1734",87.40856,86.88623
"1735",86.30015,86.899414
"1736",85.23811,86.9126
"1737",84.19562,86.92578
"1738",83.16289,86.938965
"1739",82.16922,86.95215
"1740",81.27566,86.96533
"1741",80.56275,86.978516
"1742",80.07202,86.9917
"1743",79.81079,87.00488
"1744",79.74731,87.01807
"1745",79.81079,87.03125
"1746",79.90845,87.04443
"1747",79.95239,87.05762
"1748",79.87427,87.0708
"1749",79.639885,87.083984
"1750",79.22972,87.09717
"1751",78.6511,87.11035
"1752",77.93332,87.123535
"1753",77.11543,87.13672
"1754",76.23651,87.1499
"1755",75.33074,87.163086
"1756",74.42252,87.17627
"1757",73.52651,87.18945
"1758",72.66956,87.20264
"1759",71.871216,87.21582
"1760",71.148544,87.229004
"1761",70.52842,87.24219
"1762",70.04013,87.25537
"1763",69.68612,87.268555
"1764",69.46395,87.28174
"1765",69.36141,87.29492
"1766",69.35897,87.308105
"1767",69.420006,87.32129
"1768",69.51278,87.33447
"1769",69.610435,87.34766
"1770",69.74227,87.36084
"1771",70.047455,87.37402
"1772",70.87511,87.38721
"1773",72.65003,87.40039
"1774",75.60662,87.413574
"1775",79.605705,87.42676
"1776",84.173645,87.43994
"1777",88.64393,87.453125
"1778",92.36225,87.46631
"1779",94.91844,87.47949
"1780",96.28565,87.492676
"1781",96.690926,87.50586
"1782",96.39796,87.51904
"1783",95.606926,87.53223
"1784",94.49119,87.54541
"1785",93.19722,87.55859
"1786",91.84711,87.57178
"1787",90.54093,87.58496
"1788",89.3373,87.598145
"1789",88.255745,87.61133
"1790",87.276726,87.62451
"1791",86.346535,87.637695
"1792",85.401695,87.65088
"1793",84.41047,87.66406
"1794",83.3753,87.677246
"1795",82.35233,87.69043
"1796",81.42214,87.70361
"1797",80.67017,87.7168
"1798",80.13794,87.72998
"1799",79.82788,87.743164
"1800",79.691154,87.75635
"1801",79.64721,87.76953
"1802",79.605705,87.782715
"1803",79.48119,87.7959
"1804",79.217514,87.80908
"1805",78.79271,87.822266
"1806",78.2092,87.83545
"1807",77.488976,87.84863
"1808",76.66865,87.86182
"1809",75.78485,87.875
"1810",74.87175,87.88818
"1811",73.95865,87.90137
"1812",73.06508,87.91455
"1813",72.217896,87.927734
"1814",71.431755,87.94092
"1815",70.71641,87.9541
"1816",70.084076,87.967285
"1817",69.539635,87.98047
"1818",69.09041,87.99365
"1819",68.74128,88.006836
"1820",68.492256,88.02002
"1821",68.34089,88.0332
"1822",68.28474,88.04639
"1823",68.30915,88.05957
"1824",68.39216,88.072754
"1825",68.51423,88.08594
"1826",68.71931,88.09912
"1827",69.190506,88.112305
"1828",70.32578,88.12549
"1829",72.56214,88.13867
"1830",76.05829,88.151855
"1831",80.55543,88.16504
"1832",85.47494,88.17822
"1833",90.08194,88.19141
"1834",93.729454,88.20459
"1835",96.08789,88.21777
"1836",97.23537,88.23096
"1837",97.459984,88.24414
"1838",97.025406,88.257324
"1839",96.112305,88.27051
"1840",94.88182,88.28369
"1841",93.47799,88.296875
"1842",92.02777,88.31006
"1843",90.62394,88.32324
"1844",89.33242,88.336426
"1845",88.17029,88.34961
"1846",87.113144,88.36279
"1847",86.10483,88.37598
"1848",85.09163,88.38916
"1849",84.04913,88.40234
"1850",82.98955,88.41553
"1851",81.96658,88.42871
"1852",81.0486,88.441895
"1853",80.308846,88.45508
"1854",79.781494,88.46826
"1855",79.45922,88.481445
"1856",79.29809,88.49463
"1857",79.219955,88.50781
"1858",79.13695,88.520996
"1859",78.975815,88.53418
"1860",78.68284,88.54736
"1861",78.238495,88.56055
"1862",77.65255,88.57373
"1863",76.946976,88.586914
"1864",76.15106,88.6001
"1865",75.29168,88.61328
"1866",74.390785,88.626465
"1867",73.47524,88.63965
"1868",72.57191,88.65283
"1869",71.70031,88.666016
"1870",70.88243,88.6792
"1871",70.14511,88.69238
"1872",69.50301,88.70557
"1873",68.96101,88.71875
"1874",68.523994,88.73193
"1875",68.189514,88.74512
"1876",67.96246,88.7583
"1877",67.83551,88.771484
"1878",67.808655,88.78467
"1879",67.8819,88.79785
"1880",68.033264,88.811035
"1881",68.23834,88.82422
"1882",68.4654,88.8374
"1883",68.70222,88.850586
"1884",68.98299,88.86377
"1885",69.51766,88.87695
"1886",70.71641,88.89014
"1887",73.03822,88.90332
"1888",76.67597,88.916504
"1889",81.373314,88.92969
"1890",86.519875,88.94287
"1891",91.33929,88.956055
"1892",95.14305,88.96924
"1893",97.57473,88.98242
"1894",98.69535,88.995605
"1895",98.82231,89.00879
"1896",98.248566,89.02197
"1897",97.179214,89.03516
"1898",95.77539,89.04834
"1899",94.19333,89.06152
"1900",92.55512,89.07471
"1901",90.9633,89.08789
"1902",89.481346,89.101074
"1903",88.131226,89.11426
"1904",86.89586,89.12744
"1905",85.73617,89.140625
"1906",84.627754,89.15381
"1907",83.57061,89.16699
"1908",82.60868,89.180176
"1909",81.80057,89.19336
"1910",81.21217,89.20654
"1911",80.87526,89.21973
"1912",80.76784,89.23291
"1913",80.82399,89.24609
"1914",80.95094,89.25928
"1915",81.0486,89.27246
"1916",81.02907,89.285645
"1917",80.8362,89.29883
"1918",80.45289,89.31201
"1919",79.88159,89.325195
"1920",79.151596,89.33838
"1921",78.30198,89.35156
"1922",77.366905,89.364746
"1923",76.38056,89.37793
"1924",75.372246,89.39111
"1925",74.373695,89.4043
"1926",73.40688,89.41748
"1927",72.498665,89.430664
"1928",71.67101,89.44385
"1929",70.941025,89.45703
"1930",70.330666,89.470215
"1931",69.85458,89.4834
"1932",69.51522,89.49658
"1933",69.30038,89.509766
"1934",69.19295,89.52295
"1935",69.16121,89.53613
"1936",69.1783,89.54932
"1937",69.24666,89.5625
"1938",69.49325,89.57568
"1939",70.26231,89.58887
"1940",72.00549,89.60205
"1941",74.99382,89.615234
"1942",79.09544,89.62842
"1943",83.82208,89.6416
"1944",88.48768,89.654785
"1945",92.39399,89.66797
"1946",95.08934,89.68115
"1947",96.532234,89.694336
"1948",96.96193,89.70752
"1949",96.66163,89.7207
"1950",95.84131,89.73389
"1951",94.68406,89.74707
"1952",93.348595,89.760254
"1953",91.964294,89.77344
"1954",90.62882,89.78662
"1955",89.40078,89.799805
"1956",88.292366,89.81299
"1957",87.27917,89.82617
"1958",86.30747,89.839355
"1959",85.32113,89.85254
"1960",84.28596,89.86572
"1961",83.20683,89.87891
"1962",82.13748,89.89209
"1963",81.15602,89.90527
"1964",80.34547,89.91846
"1965",79.7522,89.93164
"1966",79.38842,89.944824
"1967",79.21019,89.95801
"1968",79.13451,89.97119
"1969",79.07103,89.984375
"1970",78.941635,89.99756
"1971",78.68772,90.01074
"1972",78.28001,90.023926
"1973",77.72335,90.03711
"1974",77.03731,90.05029
"1975",76.25117,90.06348
"1976",75.39422,90.07666
"1977",74.50065,90.08984
"1978",73.59487,90.10303
"1979",72.706184,90.11621
"1980",71.8468,90.129395
"1981",71.046005,90.14258
"1982",70.3209,90.15576
"1983",69.70565,90.168945
"1984",69.21248,90.18213
"1985",68.85603,90.19531
"1986",68.63142,90.208496
"1987",68.51911,90.22168
"1988",68.492256,90.23486
"1989",68.52155,90.24805
"1990",68.58015,90.26123
"1991",68.67292,90.274414
"1992",68.91463,90.2876
"1993",69.627525,90.30078
"1994",71.24864,90.313965
"1995",74.04166,90.32715
"1996",77.89426,90.34033
"1997",82.35233,90.353516
"1998",86.76402,90.3667
"1999",90.46525,90.37988
"2000",93.014114,90.39307
"2001",94.37156,90.40625
"2002",94.77196,90.41943
"2003",94.483864,90.43262
"2004",93.714806,90.4458
"2005",92.63325,90.458984
"2006",91.39544,90.47217
"2007",90.12344,90.48535
"2008",88.902725,90.498535
"2009",87.78699,90.51172
"2010",86.79332,90.5249
"2011",85.89731,90.538086
"2012",85.050125,90.55127
"2013",84.190735,90.56445
"2014",83.28985,90.57764
"2015",82.34501,90.59082
"2016",81.39529,90.604004
"2017",80.51148,90.61719
"2018",79.766846,90.63037
"2019",79.217514,90.643555
"2020",78.87572,90.65674
"2021",78.712135,90.66992
"2022",78.658424,90.683105
"2023",78.643776,90.69629
"2024",78.59739,90.70947
"2025",78.45335,90.72266
"2026",78.18234,90.73584
"2027",77.77707,90.74902
"2028",77.239944,90.76221
"2029",76.59785,90.77539
"2030",75.877625,90.788574
"2031",75.106125,90.80176
"2032",74.305336,90.81494
"2033",73.50942,90.828125
"2034",72.73548,90.84131
"2035",72.00305,90.85449
"2036",71.3341,90.867676
"2037",70.73594,90.88086
"2038",70.22568,90.89404
"2039",69.80087,90.90723
"2040",69.471275,90.92041
"2041",69.22957,90.93359
"2042",69.0782,90.94678
"2043",69.01228,90.95996
"2044",69.02693,90.973145
"2045",69.102615,90.98633
"2046",69.224686,90.99951
"2047",69.366295,91.012695
"2048",69.522545,91.02588
"2049",69.8082,91.03906
"2050",70.55039,91.052246
"2051",72.19592,91.06543
"2052",75.020676,91.07861
"2053",78.922104,91.0918
"2054",83.438774,91.10498
"2055",87.89929,91.118164
"2056",91.62005,91.13135
"2057",94.15915,91.14453
"2058",95.47509,91.157715
"2059",95.80469,91.1709
"2060",95.433586,91.18408
"2061",94.58396,91.197266
"2062",93.42428,91.21045
"2063",92.10101,91.22363
"2064",90.74357,91.23682
"2065",89.44717,91.25
"2066",88.275276,91.26318
"2067",87.24986,91.27637
"2068",86.35386,91.28955
"2069",85.53109,91.302734
"2070",84.7132,91.31592
"2071",83.861145,91.3291
"2072",82.97246,91.342285
"2073",82.09598,91.35547
"2074",81.304955,91.36865
"2075",80.672615,91.381836
"2076",80.235596,91.39502
"2077",80.00122,91.4082
"2078",79.92554,91.42139
"2079",79.937744,91.43457
"2080",79.95972,91.447754
"2081",79.91577,91.46094
"2082",79.75708,91.47412
"2083",79.45922,91.487305
"2084",79.01976,91.50049
"2085",78.46067,91.51367
"2086",77.806366,91.526855
"2087",77.07881,91.54004
"2088",76.30976,91.55322
"2089",75.526054,91.56641
"2090",74.74967,91.57959
"2091",73.99039,91.59277
"2092",73.26284,91.60596
"2093",72.567024,91.61914
"2094",71.91272,91.632324
"2095",71.30236,91.64551
"2096",70.74326,91.65869
"2097",70.25498,91.671875
"2098",69.86435,91.68506
"2099",69.593346,91.69824
"2100",69.45663,91.711426
"2101",69.454185,91.72461
"2102",69.56405,91.73779
"2103",69.749596,91.75098
"2104",69.96689,91.76416
"2105",70.19394,91.77734
"2106",70.501564,91.79053
"2107",71.150986,91.80371
"2108",72.57435,91.816895
"2109",75.09148,91.83008
"2110",78.68528,91.84326
"2111",82.98222,91.856445
"2112",87.35973,91.86963
"2113",91.1342,91.88281
"2114",93.7905,91.895996
"2115",95.201645,91.90918
"2116",95.56054,91.92236
"2117",95.16014,91.93555
"2118",94.239716,91.94873
"2119",92.997025,91.961914
"2120",91.595634,91.9751
"2121",90.17471,91.98828
"2122",88.831924,92.001465
"2123",87.62829,92.01465
"2124",86.58335,92.02783
"2125",85.67269,92.041016
"2126",84.83528,92.0542
"2127",84.0296,92.06738
"2128",83.23857,92.08057
"2129",82.47196,92.09375
"2130",81.78348,92.10693
"2131",81.23659,92.12012
"2132",80.87038,92.1333
"2133",80.68726,92.146484
"2134",80.6482,92.15967
"2135",80.69215,92.17285
"2136",80.73365,92.186035
"2137",80.70191,92.19922
"2138",80.54566,92.2124
"2139",80.23804,92.225586
"2140",79.781494,92.23877
"2141",79.202866,92.25195
"2142",78.538795,92.26514
"2143",77.82834,92.27832
"2144",77.09834,92.291504
"2145",76.37568,92.30469
"2146",75.67498,92.31787
"2147",75.003586,92.331055
"2148",74.34684,92.34424
"2149",73.704735,92.35742
"2150",73.077286,92.370605
"2151",72.46693,92.38379
"2152",71.89319,92.39697
"2153",71.38293,92.41016
"2154",70.97276,92.42334
"2155",70.677345,92.43652
"2156",70.49912,92.44971
"2157",70.42588,92.46289
"2158",70.45762,92.476074
"2159",70.65049,92.48926
"2160",71.236435,92.50244
"2161",72.601204,92.515625
"2162",75.04997,92.52881
"2163",78.5803,92.54199
"2164",82.8333,92.555176
"2165",87.220566,92.56836
"2166",91.07561,92.58154
"2167",93.89548,92.59473
"2168",95.52148,92.60791
"2169",96.114746,92.62109
"2170",95.94873,92.63428
"2171",95.25536,92.64746
"2172",94.220184,92.660645
"2173",92.999466,92.67383
"2174",91.72259,92.68701
"2175",90.48478,92.700195
"2176",89.34463,92.71338
"2177",88.32166,92.72656
"2178",87.40856,92.739746
"2179",86.54917,92.75293
"2180",85.680016,92.76611
"2181",84.76204,92.7793
"2182",83.792786,92.79248
"2183",82.80644,92.805664
"2184",81.866486,92.81885
"2185",81.06081,92.83203
"2186",80.448006,92.845215
"2187",80.04761,92.8584
"2188",79.82788,92.87158
"2189",79.73022,92.884766
"2190",79.674065,92.89795
"2191",79.57641,92.91113
"2192",79.37377,92.92432
"2193",79.03929,92.9375
"2194",78.57786,92.95068
"2195",78.009,92.96387
"2196",77.3547,92.97705
"2197",76.63203,92.990234
"2198",75.84589,93.00342
"2199",75.003586,93.0166
"2200",74.1149,93.029785
"2201",73.216446,93.04297
"2202",72.359505,93.05615
"2203",71.60021,93.069336
"2204",70.97276,93.08252
"2205",70.48936,93.0957
"2206",70.15732,93.10889
"2207",69.962006,93.12207
"2208",69.874115,93.135254
"2209",69.83505,93.14844
"2210",69.76669,93.16162
"2211",69.66903,93.174805
"2212",69.74471,93.18799
"2213",70.450294,93.20117
"2214",72.256966,93.214355
"2215",75.35027,93.22754
"2216",79.483635,93.24072
"2217",84.071106,93.25391
"2218",88.36561,93.26709
"2219",91.72503,93.28027
"2220",93.86862,93.29346
"2221",94.90135,93.30664
"2222",95.10399,93.319824
"2223",94.70847,93.33301
"2224",93.90036,93.34619
"2225",92.83589,93.359375
"2226",91.663994,93.37256
"2227",90.4921,93.38574
"2228",89.410545,93.398926
"2229",88.45106,93.41211
"2230",87.603874,93.42529
"2231",86.803085,93.43848
"2232",85.9852,93.45166
"2233",85.09407,93.46484
"2234",84.122375,93.47803
"2235",83.11162,93.49121
"2236",82.13016,93.504395
"2237",81.26833,93.51758
"2238",80.59937,93.53076
"2239",80.147705,93.543945
"2240",79.888916,93.55713
"2241",79.77173,93.57031
"2242",79.71313,93.583496
"2243",79.62524,93.59668
"2244",79.429924,93.60986
"2245",79.08812,93.62305
"2246",78.57786,93.63623
"2247",77.92111,93.649414
"2248",77.12764,93.6626
"2249",76.22186,93.67578
"2250",75.23064,93.688965
"2251",74.20523,93.70215
"2252",73.199356,93.71533
"2253",72.26185,93.728516
"2254",71.43664,93.7417
"2255",70.74326,93.75488
"2256",70.18173,93.76807
"2257",69.732506,93.78125
"2258",69.39803,93.79443
"2259",69.18074,93.80762
"2260",69.07332,93.8208
"2261",69.07088,93.833984
"2262",69.14168,93.84717
"2263",69.25155,93.86035
"2264",69.385826,93.873535
"2265",69.627525,93.88672
"2266",70.24521,93.8999
"2267",71.675896,93.913086
"2268",74.27116,93.92627
"2269",78.04074,93.93945
"2270",82.61112,93.95264
"2271",87.34753,93.96582
"2272",91.5346,93.979004
"2273",94.61326,93.99219
"2274",96.39796,94.00537
"2275",97.05226,94.018555
"2276",96.86427,94.03174
"2277",96.08789,94.04492
"2278",94.92088,94.058105
"2279",93.539024,94.07129
"2280",92.08148,94.08447
"2281",90.64835,94.09766
"2282",89.30068,94.11084
"2283",88.06287,94.12402
"2284",86.91539,94.13721
"2285",85.80942,94.15039
"2286",84.70344,94.163574
"2287",83.580376,94.17676
"2288",82.4622,94.18994
"2289",81.41482,94.203125
"2290",80.52369,94.21631
"2291",79.85718,94.22949
"2292",79.43969,94.242676
"2293",79.23949,94.25586
"2294",79.18822,94.26904
"2295",79.1931,94.28223
"2296",79.16136,94.29541
"2297",79.029526,94.30859
"2298",78.75609,94.32178
"2299",78.31907,94.33496
"2300",77.72823,94.348145
"2301",77.00557,94.36133
"2302",76.18768,94.37451
"2303",75.31121,94.387695
"2304",74.40543,94.40088
"2305",73.49966,94.41406
"2306",72.61585,94.427246
"2307",71.77356,94.44043
"2308",70.99718,94.45361
"2309",70.2916,94.4668
"2310",69.67147,94.47998
"2311",69.13924,94.493164
"2312",68.699776,94.50635
"2313",68.36042,94.51953
"2314",68.12848,94.532715
"2315",68.00397,94.5459
"2316",67.97711,94.55908
"2317",68.01129,94.572266
"2318",68.07965,94.58545
"2319",68.15289,94.59863
"2320",68.23834,94.61182
"2321",68.45319,94.625
"2322",69.136795,94.63818
"2323",70.77013,94.65137
"2324",73.66079,94.66455
"2325",77.713585,94.677734
"2326",82.45487,94.69092
"2327",87.183945,94.7041
"2328",91.16106,94.717285
"2329",93.88815,94.73047
"2330",95.29687,94.74365
"2331",95.63378,94.756836
"2332",95.20653,94.77002
"2333",94.24704,94.7832
"2334",92.95064,94.79639
"2335",91.47112,94.80957
"2336",89.94766,94.822754
"2337",88.480354,94.83594
"2338",87.13023,94.84912
"2339",85.907074,94.862305
"2340",84.791336,94.87549
"2341",83.72198,94.88867
"2342",82.66239,94.901855
"2343",81.59304,94.91504
"2344",80.54322,94.92822
"2345",79.58373,94.94141
"2346",78.79759,94.95459
"2347",78.23605,94.96777
"2348",77.92844,94.98096
"2349",77.840546,94.99414
"2350",77.90402,95.007324
"2351",78.02609,95.02051
"2352",78.11154,95.03369
"2353",78.0798,95.046875
"2354",77.88937,95.06006
"2355",77.52804,95.07324
"2356",76.998245,95.086426
"2357",76.33662,95.09961
"2358",75.57488,95.11279
"2359",74.74235,95.12598
"2360",73.87076,95.13916
"2361",72.989395,95.15234
"2362",72.13245,95.16553
"2363",71.326775,95.17871
"2364",70.59922,95.191895
"2365",69.97177,95.20508
"2366",69.451744,95.21826
"2367",69.04646,95.231445
"2368",68.753494,95.24463
"2369",68.56794,95.25781
"2370",68.47517,95.270996
"2371",68.46052,95.28418
"2372",68.51423,95.29736
"2373",68.60944,95.31055
"2374",68.72663,95.32373
"2375",68.8658,95.336914
"2376",69.10506,95.3501
"2377",69.715416,95.36328
"2378",71.150986,95.376465
"2379",73.79996,95.38965
"2380",77.68429,95.40283
"2381",82.388954,95.416016
"2382",87.218124,95.4292
"2383",91.41009,95.44238
"2384",94.36912,95.45557
"2385",95.91211,95.46875
"2386",96.26612,95.48193
"2387",95.79004,95.49512
"2388",94.76463,95.5083
"2389",93.39498,95.521484
"2390",91.84711,95.53467
"2391",90.26261,95.54785
"2392",88.73914,95.561035
"2393",87.34264,95.57422
"2394",86.082855,95.5874
"2395",84.94026,95.600586
"2396",83.86603,95.61377
"2397",82.83574,95.62695
"2398",81.864044,95.64014
"2399",80.99977,95.65332
"2400",80.32105,95.666504
"2401",79.906006,95.67969
"2402",79.77417,95.69287
"2403",79.89136,95.706055
"2404",80.16235,95.71924
"2405",80.47242,95.73242
"2406",80.70435,95.745605
"2407",80.76784,95.75879
"2408",80.61646,95.77197
"2409",80.255135,95.78516
"2410",79.69848,95.79834
"2411",78.992905,95.81152
"2412",78.17502,95.82471
"2413",77.281456,95.83789
"2414",76.35615,95.851074
"2415",75.440605,95.86426
"2416",74.564125,95.87744
"2417",73.760895,95.890625
"2418",73.05287,95.90381
"2419",72.44984,95.91699
"2420",71.95422,95.930176
"2421",71.56359,95.94336
"2422",71.26818,95.95654
"2423",71.05333,95.96973
"2424",70.89708,95.98291
"2425",70.79698,95.99609
"2426",70.83116,96.00928
"2427",71.26574,96.02246
"2428",72.52796,96.035645
"2429",74.94011,96.04883
"2430",78.48264,96.06201
"2431",82.777145,96.075195
"2432",87.19127,96.08838
"2433",91.0341,96.10156
"2434",93.785614,96.114746
"2435",95.30419,96.12793
"2436",95.782715,96.14111
"2437",95.499504,96.1543
"2438",94.693825,96.16748
"2439",93.54879,96.180664
"2440",92.22064,96.19385
"2441",90.84123,96.20703
"2442",89.513084,96.220215
"2443",88.29969,96.2334
"2444",87.21324,96.24658
"2445",86.236664,96.259766
"2446",85.30648,96.27295
"2447",84.368965,96.28613
"2448",83.407036,96.29932
"2449",82.442665,96.3125
"2450",81.532005,96.32568
"2451",80.76051,96.33887
"2452",80.19653,96.35205
"2453",79.86694,96.365234
"2454",79.74975,96.37842
"2455",79.77905,96.3916
"2456",79.85962,96.404785
"2457",79.89868,96.41797
"2458",79.81323,96.43115
"2459",79.5642,96.444336
"2460",79.14427,96.45752
"2461",78.57053,96.4707
"2462",77.872284,96.48389
"2463",77.08125,96.49707
"2464",76.226746,96.510254
"2465",75.34539,96.52344
"2466",74.46647,96.53662
"2467",73.62173,96.549805
"2468",72.84047,96.56299
"2469",72.14465,96.57617
"2470",71.55627,96.589355
"2471",71.07774,96.60254
"2472",70.69932,96.61572
"2473",70.39658,96.62891
"2474",70.14511,96.64209
"2475",69.93759,96.65527
"2476",69.85458,96.66846
"2477",70.17929,96.68164
"2478",71.35851,96.694824
"2479",73.741356,96.70801
"2480",77.30831,96.72119
"2481",81.65896,96.734375
"2482",86.14389,96.74756
"2483",90.05264,96.76074
"2484",92.84566,96.773926
"2485",94.37888,96.78711
"2486",94.854965,96.80029
"2487",94.571754,96.81348
"2488",93.77829,96.82666
"2489",92.662544,96.83984
"2490",91.38567,96.85303
"2491",90.074615,96.86621
"2492",88.82216,96.879395
"2493",87.67956,96.89258
"2494",86.65415,96.90576
"2495",85.70931,96.918945
"2496",84.79866,96.93213
"2497",83.87091,96.94531
"2498",82.90166,96.958496
"2499",81.91287,96.97168
"2500",80.96803,96.98486
"2501",80.147705,96.99805
"2502",79.52758,97.01123
"2503",79.13939,97.024414
"2504",78.96117,97.0376
"2505",78.92943,97.05078
"2506",78.95628,97.063965
"2507",78.95628,97.07715
"2508",78.853745,97.09033
"2509",78.61448,97.103516
"2510",78.23117,97.1167
"2511",77.70626,97.12988
"2512",77.07393,97.14307
"2513",76.35615,97.15625
"2514",75.58953,97.16943
"2515",74.793625,97.18262
"2516",74.00015,97.1958
"2517",73.22865,97.208984
"2518",72.498665,97.22217
"2519",71.83215,97.23535
"2520",71.2462,97.248535
"2521",70.748146,97.26172
"2522",70.33799,97.2749
"2523",70.00839,97.288086
"2524",69.73983,97.30127
"2525",69.51522,97.31445
"2526",69.34676,97.32764
"2527",69.35897,97.34082
"2528",69.879,97.354004
"2529",71.34875,97.36719
"2530",74.02457,97.38037
"2531",77.786835,97.393555
"2532",82.17166,97.40674
"2533",86.51743,97.41992
"2534",90.142975,97.433105
"2535",92.611275,97.44629
"2536",93.88815,97.45947
"2537",94.21042,97.47266
"2538",93.856415,97.48584
"2539",93.04585,97.49902
"2540",91.95941,97.51221
"2541",90.738686,97.52539
"2542",89.50576,97.538574
"2543",88.33387,97.55176
"2544",87.27184,97.56494
"2545",86.30991,97.578125
"2546",85.40414,97.59131
"2547",84.49592,97.60449
"2548",83.53887,97.617676
"2549",82.533,97.63086
"2550",81.5198,97.64404
"2551",80.59937,97.65723
"2552",79.86206,97.67041
"2553",79.37133,97.68359
"2554",79.12962,97.69678
"2555",79.08568,97.70996
"2556",79.14671,97.723145
"2557",79.21019,97.73633
"2558",79.19066,97.74951
"2559",79.03197,97.762695
"2560",78.709694,97.77588
"2561",78.221405,97.78906
"2562",77.59884,97.802246
"2563",76.87862,97.81543
"2564",76.09247,97.82861
"2565",75.26971,97.8418
"2566",74.43473,97.85498
"2567",73.60464,97.868164
"2568",72.79164,97.88135
"2569",72.0177,97.89453
"2570",71.29992,97.907715
"2571",70.66758,97.9209
"2572",70.14511,97.93408
"2573",69.74227,97.947266
"2574",69.454185,97.96045
"2575",69.26864,97.97363
"2576",69.153885,97.98682
"2577",69.0782,98
"2578",69.0367,98.01318
"2579",69.11726,98.02637
"2580",69.62997,98.03955
"2581",71.01671,98.052734
"2582",73.60708,98.06592
"2583",77.349815,98.0791
"2584",81.832306,98.092285
"2585",86.400246,98.10547
"2586",90.338295,98.11865
"2587",93.12642,98.131836
"2588",94.64988,98.14502
"2589",95.113754,98.1582
"2590",94.803696,98.17139
"2591",93.96384,98.18457
"2592",92.79683,98.197754
"2593",91.473564,98.21094
"2594",90.13321,98.22412
"2595",88.868546,98.237305
"2596",87.725945,98.25049
"2597",86.70298,98.26367
"2598",85.748375,98.276855
"2599",84.79866,98.29004
"2600",83.807434,98.30322
"2601",82.78203,98.31641
"2602",81.76639,98.32959
"2603",80.85817,98.34277
"2604",80.14282,98.35596
"2605",79.67895,98.36914
"2606",79.466545,98.382324
"2607",79.45922,98.39551
"2608",79.56664,98.40869
"2609",79.68627,98.421875
"2610",79.727776,98.43506
"2611",79.63256,98.44824
"2612",79.37377,98.461426
"2613",78.96361,98.47461
"2614",78.42649,98.48779
"2615",77.79416,98.50098
"2616",77.100784,98.51416
"2617",76.3708,98.52734
"2618",75.63348,98.54053
"2619",74.90837,98.55371
"2620",74.21988,98.566895
"2621",73.5729,98.58008
"2622",72.972305,98.59326
"2623",72.42542,98.606445
"2624",71.93469,98.61963
"2625",71.500114,98.63281
"2626",71.10948,98.645996
"2627",70.748146,98.65918
"2628",70.39658,98.67236
"2629",70.08896,98.68555
"2630",69.98886,98.69873
"2631",70.47227,98.711914
"2632",71.98596,98.7251
"2633",74.74723,98.73828
"2634",78.58274,98.751465
"2635",82.99687,98.76465
"2636",87.310905,98.77783
"2637",90.85344,98.791016
"2638",93.23384,98.8042
"2639",94.44236,98.81738
"2640",94.70115,98.83057
"2641",94.25193,98.84375
"2642",93.29977,98.85693
"2643",92.03265,98.87012
"2644",90.61173,98.8833
"2645",89.17372,98.896484
"2646",87.816284,98.90967
"2647",86.573586,98.92285
"2648",85.43832,98.936035
"2649",84.368965,98.94922
"2650",83.32403,98.9624
"2651",82.29374,98.975586
"2652",81.31472,98.98877
"2653",80.448006,99.00195
"2654",79.76929,99.01514
"2655",79.32983,99.02832
"2656",79.14427,99.041504
"2657",79.15404,99.05469
"2658",79.273674,99.06787
"2659",79.40795,99.081055
"2660",79.47143,99.09424
"2661",79.39086,99.10742
"2662",79.14427,99.120605
"2663",78.72678,99.13379
"2664",78.153046,99.14697
"2665",77.44991,99.16016
"2666",76.654,99.17334
"2667",75.7995,99.18652
"2668",74.92546,99.19971
"2669",74.07095,99.21289
"2670",73.270164,99.226074
"2671",72.54261,99.23926
"2672",71.90784,99.25244
"2673",71.36828,99.265625
"2674",70.92882,99.27881
"2675",70.5626,99.29199
"2676",70.24765,99.305176
"2677",69.959564,99.31836
"2678",69.70565,99.33154
"2679",69.63729,99.34473
"2680",70.12314,99.35791
"2681",71.622185,99.37109
"2682",74.36393,99.38428
"2683",78.2092,99.39746
"2684",82.6746,99.410645
"2685",87.07652,99.42383
"2686",90.7338,99.43701
"2687",93.241165,99.450195
"2688",94.574196,99.46338
"2689",94.96971,99.47656
"2690",94.68162,99.489746
"2691",93.91989,99.50293
"2692",92.860306,99.51611
"2693",91.65423,99.5293
"2694",90.423744,99.54248
"2695",89.254295,99.555664
"2696",88.18494,99.56885
"2697",87.2108,99.58203
"2698",86.29038,99.595215
"2699",85.36019,99.6084
"2700",84.368965,99.62158
"2701",83.31426,99.634766
"2702",82.23514,99.64795
"2703",81.20729,99.66113
"2704",80.32838,99.67432
"2705",79.66674,99.6875
"2706",79.24437,99.70068
"2707",79.03197,99.71387
"2708",78.9514,99.72705
"2709",78.91234,99.740234
"2710",78.82689,99.75342
"2711",78.624245,99.7666
"2712",78.27512,99.779785
"2713",77.77951,99.79297
"2714",77.154495,99.80615
"2715",76.42695,99.819336
"2716",75.631035,99.83252
"2717",74.80095,99.8457
"2718",73.96597,99.85889
"2719",73.15541,99.87207
"2720",72.40101,99.885254
"2721",71.71984,99.89844
"2722",71.12901,99.91162
"2723",70.63584,99.924805
"2724",70.237885,99.93799
"2725",69.925385,99.95117
"2726",69.66903,99.964355
"2727",69.44686,99.97754
"2728",69.239334,99.99072
"2729",69.1075,100.00391
"2730",69.278404,100.01709
"2731",70.17197,100.03027
"2732",72.17883,100.04346
"2733",75.39666,100.05664
"2734",79.54955,100.069824
"2735",84.07599,100.08301
"2736",88.28748,100.09619
"2737",91.58587,100.109375
"2738",93.69283,100.12256
"2739",94.696266,100.13574
"2740",94.83299,100.148926
"2741",94.34226,100.16211
"2742",93.4316,100.17529
"2743",92.28901,100.18848
"2744",91.06584,100.20166
"2745",89.87442,100.21484
"2746",88.76845,100.22803
"2747",87.767456,100.24121
"2748",86.8275,100.254395
"2749",85.889984,100.26758
"2750",84.89143,100.28076
"2751",83.80499,100.293945
"2752",82.65751,100.30713
"2753",81.52712,100.32031
"2754",80.516365,100.333496
"2755",79.710686,100.34668
"2756",79.1638,100.35986
"2757",78.85863,100.37305
"2758",78.73655,100.38623
"2759",78.70481,100.399414
"2760",78.67307,100.4126
"2761",78.55833,100.42578
"2762",78.311745,100.438965
"2763",77.91623,100.45215
"2764",77.37423,100.46533
"2765",76.70771,100.478516
"2766",75.945984,100.4917
"2767",75.1281,100.50488
"2768",74.285805,100.51807
"2769",73.44839,100.53125
"2770",72.637825,100.54443
"2771",71.86633,100.55762
"2772",71.14366,100.5708
"2773",70.47715,100.583984
"2774",69.88632,100.59717
"2775",69.39071,100.61035
"2776",69.00252,100.623535
"2777",68.731514,100.63672
"2778",68.57038,100.6499
"2779",68.49958,100.663086
"2780",68.47761,100.67627
"2781",68.47761,100.68945
"2782",68.49714,100.70264
"2783",68.61921,100.71582
"2784",69.12459,100.729004
"2785",70.47227,100.74219
"2786",73.02113,100.75537
"2787",76.77852,100.768555
"2788",81.37087,100.78174
"2789",86.16098,100.79492
"2790",90.4213,100.808105
"2791",93.58785,100.82129
"2792",95.47753,100.83447
"2793",96.25147,100.84766
"2794",96.18555,100.86084
"2795",95.5288,100.87402
"2796",94.486305,100.88721
"2797",93.241165,100.90039
"2798",91.949646,100.913574
"2799",90.719154,100.92676
"2800",89.60342,100.93994
"2801",88.602425,100.953125
"2802",87.66979,100.96631
"2803",86.73716,100.97949
"2804",85.74105,100.992676
"2805",84.664375,101.00586
"2806",83.54131,101.01904
"2807",82.44999,101.03223
"2808",81.48318,101.04541
"2809",80.72144,101.05859
"2810",80.19653,101.07178
"2811",79.886475,101.08496
"2812",79.72045,101.098145
"2813",79.61303,101.11133
"2814",79.47387,101.12451
"2815",79.234604,101.137695
"2816",78.85863,101.15088
"2817",78.34104,101.16406
"2818",77.696495,101.177246
"2819",76.9543,101.19043
"2820",76.155945,101.20361
"2821",75.335625,101.2168
"2822",74.5153,101.22998
"2823",73.721825,101.243164
"2824",72.969864,101.25635
"2825",72.26917,101.26953
"2826",71.63195,101.282715
"2827",71.06798,101.2959
"2828",70.58213,101.30908
"2829",70.17685,101.322266
"2830",69.857025,101.33545
"2831",69.62264,101.34863
"2832",69.48104,101.36182
"2833",69.42489,101.375
"2834",69.434654,101.38818
"2835",69.49325,101.40137
"2836",69.57137,101.41455
"2837",69.63973,101.427734
"2838",69.715416,101.44092
"2839",69.93271,101.4541
"2840",70.62852,101.467285
"2841",72.23987,101.48047
"2842",75.003586,101.49365
"2843",78.80003,101.506836
"2844",83.177536,101.52002
"2845",87.47936,101.5332
"2846",91.036545,101.54639
"2847",93.42672,101.55957
"2848",94.623024,101.572754
"2849",94.85008,101.58594
"2850",94.38865,101.59912
"2851",93.47799,101.612305
"2852",92.315865,101.62549
"2853",91.06096,101.63867
"2854",89.84024,101.651855
"2855",88.7367,101.66504
"2856",87.77722,101.67822
"2857",86.93004,101.69141
"2858",86.14145,101.70459
"2859",85.33822,101.71777
"2860",84.46662,101.73096
"2861",83.529106,101.74414
"2862",82.57694,101.757324
"2863",81.69558,101.77051
"2864",80.97536,101.78369
"2865",80.465096,101.796875
"2866",80.15259,101.81006
"2867",79.98901,101.82324
"2868",79.89136,101.836426
"2869",79.77417,101.84961
"2870",79.569084,101.86279
"2871",79.23949,101.87598
"2872",78.77318,101.88916
"2873",78.1799,101.90234
"2874",77.488976,101.91553
"2875",76.732124,101.92871
"2876",75.95331,101.941895
"2877",75.18669,101.95508
"2878",74.46647,101.96826
"2879",73.814606,101.981445
"2880",73.24086,101.99463
"2881",72.740364,102.00781
"2882",72.30091,102.020996
"2883",71.91028,102.03418
"2884",71.553825,102.04736
"2885",71.23399,102.06055
"2886",70.95567,102.07373
"2887",70.73106,102.086914
"2888",70.56016,102.1001
"2889",70.433205,102.11328
"2890",70.330666,102.126465
"2891",70.22812,102.13965
"2892",70.11093,102.15283
"2893",69.996185,102.166016
"2894",70.01572,102.1792
"2895",70.50645,102.19238
"2896",71.92493,102.20557
"2897",74.5568,102.21875
"2898",78.2971,102.23193
"2899",82.69657,102.24512
"2900",87.081406,102.2583
"2901",90.74113,102.271484
"2902",93.21187,102.28467
"2903",94.435036,102.29785
"2904",94.645,102.311035
"2905",94.12985,102.32422
"2906",93.14107,102.3374
"2907",91.87396,102.350586
"2908",90.494545,102.36377
"2909",89.1371,102.37695
"2910",87.89441,102.39014
"2911",86.803085,102.40332
"2912",85.84604,102.416504
"2913",84.95979,102.42969
"2914",84.08331,102.44287
"2915",83.177536,102.456055
"2916",82.252235,102.46924
"2917",81.375755,102.48242
"2918",80.64088,102.495605
"2919",80.13306,102.50879
"2920",79.8938,102.52197
"2921",79.89868,102.53516
"2922",80.076904,102.54834
"2923",80.31617,102.56152
"2924",80.51148,102.57471
"2925",80.570076,102.58789
"2926",80.45045,102.601074
"2927",80.13794,102.61426
"2928",79.65209,102.62744
"2929",79.029526,102.640625
"2930",78.30198,102.65381
"2931",77.50851,102.66699
"2932",76.6833,102.680176
"2933",75.85809,102.69336
"2934",75.06462,102.70654
"2935",74.337074,102.71973
"2936",73.69985,102.73291
"2937",73.162735,102.74609
"2938",72.7306,102.75928
"2939",72.39857,102.77246
"2940",72.15198,102.785645
"2941",71.973755,102.79883
"2942",71.84436,102.81201
"2943",71.766235,102.825195
"2944",71.82971,102.83838
"2945",72.291145,102.85156
"2946",73.514305,102.864746
"2947",75.755554,102.87793
"2948",78.97093,102.89111
"2949",82.82353,102.9043
"2950",86.76158,102.91748
"2951",90.177155,102.930664
"2952",92.62348,102.94385
"2953",93.98337,102.95703
"2954",94.39109,102.970215
"2955",94.0737,102.9834
"2956",93.25094,102.99658
"2957",92.11322,103.009766
"2958",90.8217,103.02295
"2959",89.5082,103.03613
"2960",88.26551,103.04932
"2961",87.14,103.0625
"2962",86.12436,103.07568
"2963",85.172195,103.08887
"2964",84.2298,103.10205
"2965",83.25567,103.115234
"2966",82.26444,103.12842
"2967",81.29763,103.1416
"2968",80.448006,103.154785
"2969",79.798584,103.16797
"2970",79.395744,103.18115
"2971",79.219955,103.194336
"2972",79.21507,103.20752
"2973",79.27856,103.2207
"2974",79.31274,103.23389
"2975",79.23949,103.24707
"2976",79.00755,103.260254
"2977",78.59739,103.27344
"2978",78.030975,103.28662
"2979",77.33517,103.299805
"2980",76.54902,103.31299
"2981",75.71404,103.32617
"2982",74.861984,103.339355
"2983",74.02701,103.35254
"2984",73.24086,103.36572
"2985",72.51331,103.37891
"2986",71.86145,103.39209
"2987",71.292595,103.40527
"2988",70.81651,103.41846
"2989",70.421,103.43164
"2990",70.10361,103.444824
"2991",69.85214,103.45801
"2992",69.65194,103.47119
"2993",69.50057,103.484375
"2994",69.47616,103.49756
"2995",69.857025,103.51074
"2996",71.07042,103.523926
"2997",73.43862,103.53711
"2998",76.964066,103.55029
"2999",81.28054,103.56348
"3000",85.78012,103.57666
"3001",89.762115,103.58984
"3002",92.69184,103.60303
"3003",94.41062,103.61621
"3004",95.08934,103.629395
"3005",94.98436,103.64258
"3006",94.327614,103.65576
"3007",93.331505,103.668945
"3008",92.171814,103.68213
"3009",90.985275,103.69531
"3010",89.87442,103.708496
"3011",88.89784,103.72168
"3012",88.04578,103.73486
"3013",87.26696,103.74805
"3014",86.48081,103.76123
"3015",85.61654,103.774414
"3016",84.63752,103.7876
"3017",83.5584,103.80078
"3018",82.442665,103.813965
"3019",81.39773,103.82715
"3020",80.52369,103.84033
"3021",79.88403,103.853516
"3022",79.48852,103.8667
"3023",79.28344,103.87988
"3024",79.18822,103.89307
"3025",79.10277,103.90625
"3026",78.94652,103.91943
"3027",78.66575,103.93262
"3028",78.23605,103.9458
"3029",77.66476,103.958984
"3030",76.96651,103.97217
"3031",76.175476,103.98535
"3032",75.3283,103.998535
"3033",74.4567,104.01172
"3034",73.59243,104.0249
"3035",72.7599,104.038086
"3036",71.97864,104.05127
"3037",71.258415,104.06445
"3038",70.623634,104.07764
"3039",70.07919,104.09082
"3040",69.627525,104.104004
"3041",69.27352,104.11719
"3042",69.0074,104.13037
"3043",68.81697,104.143555
"3044",68.680244,104.15674
"3045",68.58503,104.16992
"3046",68.54597,104.183105
"3047",68.716866,104.19629
"3048",69.45663,104.20947
"3049",71.199814,104.22266
"3050",74.14664,104.23584
"3051",78.12375,104.24902
"3052",82.64042,104.26221
"3053",87.01793,104.27539
"3054",90.58976,104.288574
"3055",92.97017,104.30176
"3056",94.168915,104.31494
"3057",94.42527,104.328125
"3058",93.995575,104.34131
"3059",93.10445,104.35449
"3060",91.947205,104.367676
"3061",90.67765,104.38086
"3062",89.42519,104.39404
"3063",88.275276,104.40723
"3064",87.2694,104.42041
"3065",86.39048,104.43359
"3066",85.58968,104.44678
"3067",84.78401,104.45996
"3068",83.9173,104.473145
"3069",82.967575,104.48633
"3070",81.97391,104.49951
"3071",81.01442,104.512695
"3072",80.19409,104.52588
"3073",79.59594,104.53906
"3074",79.24681,104.552246
"3075",79.1223,104.56543
"3076",79.13939,104.57861
"3077",79.200424,104.5918
"3078",79.20775,104.60498
"3079",79.08568,104.618164
"3080",78.79515,104.63135
"3081",78.33616,104.64453
"3082",77.733116,104.657715
"3083",77.00801,104.6709
"3084",76.19501,104.68408
"3085",75.32586,104.697266
"3086",74.424965,104.71045
"3087",73.52163,104.72363
"3088",72.65003,104.73682
"3089",71.84192,104.75
"3090",71.131454,104.76318
"3091",70.54307,104.77637
"3092",70.084076,104.78955
"3093",69.747154,104.802734
"3094",69.51522,104.81592
"3095",69.35653,104.8291
"3096",69.241776,104.842285
"3097",69.149,104.85547
"3098",69.119705,104.86865
"3099",69.32479,104.881836
"3100",70.17197,104.89502
"3101",72.10071,104.9082
"3102",75.28924,104.92139
"3103",79.51293,104.93457
"3104",84.2298,104.947754
"3105",88.70985,104.96094
"3106",92.27924,104.97412
"3107",94.56687,104.987305
"3108",95.61669,105.00049
"3109",95.6997,105.01367
"3110",95.09178,105.026855
"3111",94.012665,105.04004
"3112",92.65522,105.05322
"3113",91.18303,105.06641
"3114",89.73037,105.07959
"3115",88.375374,105.09277
"3116",87.149765,105.10596
"3117",86.03403,105.11914
"3118",84.97444,105.132324
"3119",83.91974,105.14551
"3120",82.86015,105.15869
"3121",81.83475,105.171875
"3122",80.91432,105.18506
"3123",80.19653,105.19824
"3124",79.73998,105.211426
"3125",79.54711,105.22461
"3126",79.56176,105.23779
"3127",79.68627,105.25098
"3128",79.80591,105.26416
"3129",79.818115,105.27734
"3130",79.656975,105.29053
"3131",79.30053,105.30371
"3132",78.751205,105.316895
"3133",78.04318,105.33008
"3134",77.21553,105.34326
"3135",76.30732,105.356445
"3136",75.36492,105.36963
"3137",74.41764,105.38281
"3138",73.49966,105.395996
"3139",72.64271,105.40918
"3140",71.87854,105.42236
"3141",71.22667,105.43555
"3142",70.694435,105.44873
"3143",70.28184,105.461914
"3144",69.97421,105.4751
"3145",69.73495,105.48828
"3146",69.542076,105.501465
"3147",69.385826,105.51465
"3148",69.34188,105.52783
"3149",69.68612,105.541016
"3150",70.88243,105.5542
"3151",73.29214,105.56738
"3152",76.93477,105.58057
"3153",81.43435,105.59375
"3154",86.15854,105.60693
"3155",90.36759,105.62012
"3156",93.48531,105.6333
"3157",95.31884,105.646484
"3158",96.0293,105.65967
"3159",95.89502,105.67285
"3160",95.16991,105.686035
"3161",94.0737,105.69922
"3162",92.79439,105.7124
"3163",91.493095,105.725586
"3164",90.27726,105.73877
"3165",89.19081,105.75195
"3166",88.233765,105.76514
"3167",87.34997,105.77832
"3168",86.4564,105.791504
"3169",85.487144,105.80469
"3170",84.403145,105.81787
"3171",83.23369,105.831055
"3172",82.05203,105.84424
"3173",80.96315,105.85742
"3174",80.06958,105.870605
"3175",79.42016,105.88379
"3176",79.01488,105.89697
"3177",78.79027,105.91016
"3178",78.66575,105.92334
"3179",78.538795,105.93652
"3180",78.33372,105.94971
"3181",78.00168,105.96289
"3182",77.51095,105.976074
"3183",76.86641,105.98926
"3184",76.09247,106.00244
"3185",75.23308,106.015625
"3186",74.33463,106.02881
"3187",73.45083,106.04199
"3188",72.60853,106.055176
"3189",71.82239,106.06836
"3190",71.09483,106.08154
"3191",70.42588,106.09473
"3192",69.81308,106.10791
"3193",69.280846,106.12109
"3194",68.841385,106.13428
"3195",68.50446,106.14746
"3196",68.265205,106.160645
"3197",68.11139,106.17383
"3198",68.01373,106.18701
"3199",67.95026,106.200195
"3200",67.964905,106.21338
"3201",68.279854,106.22656
"3202",69.32479,106.239746
"3203",71.52453,106.25293
"3204",75.001144,106.26611
"3205",79.48119,106.2793
"3206",84.368965,106.29248
"3207",88.92226,106.305664
"3208",92.489204,106.31885
"3209",94.767075,106.33203
"3210",95.84863,106.345215
"3211",96.01709,106.3584
"3212",95.53124,106.37158
"3213",94.60349,106.384766
"3214",93.416954,106.39795
"3215",92.12543,106.41113
"3216",90.846115,106.42432
"3217",89.6498,106.4375
"3218",88.56336,106.45068
"3219",87.555046,106.46387
"3220",86.56138,106.47705
"3221",85.50912,106.490234
"3222",84.36408,106.50342
"3223",83.14336,106.5166
"3224",81.917755,106.529785
"3225",80.78981,106.54297
"3226",79.8645,106.55615
"3227",79.20775,106.569336
"3228",78.82689,106.58252
"3229",78.67063,106.5957
"3230",78.64866,106.60889
"3231",78.65598,106.62207
"3232",78.59739,106.635254
"3233",78.40452,106.64844
"3234",78.04562,106.66162
"3235",77.52071,106.674805
"3236",76.84932,106.68799
"3237",76.06561,106.70117
"3238",75.20378,106.714355
"3239",74.305336,106.72754
"3240",73.40444,106.74072
"3241",72.52552,106.75391
"3242",71.6881,106.76709
"3243",70.9044,106.78027
"3244",70.19394,106.79346
"3245",69.55428,106.80664
"3246",69.00252,106.819824
"3247",68.543526,106.83301
"3248",68.17975,106.84619
"3249",67.92096,106.859375
"3250",67.76715,106.87256
"3251",67.70611,106.88574
"3252",67.71343,106.898926
"3253",67.77203,106.91211
"3254",67.90875,106.92529
"3255",68.30915,106.93848
"3256",69.42245,106.95166
"3257",71.744255,106.96484
"3258",75.46258,106.97803
"3259",80.30396,106.99121
"3260",85.628746,107.004395
"3261",90.60441,107.01758
"3262",94.49119,107.03076
"3263",96.89845,107.043945
"3264",97.92142,107.05713
"3265",97.901886,107.07031
"3266",97.15724,107.083496
"3267",95.95117,107.09668
"3268",94.49363,107.10986
"3269",92.9604,107.12305
"3270",91.48333,107.13623
"3271",90.15518,107.149414
"3272",88.9955,107.1626
"3273",87.972534,107.17578
"3274",87.010605,107.188965
"3275",86.0267,107.20215
"3276",84.962234,107.21533
"3277",83.81476,107.228516
"3278",82.633095,107.2417
"3279",81.514915,107.25488
"3280",80.57496,107.26807
"3281",79.886475,107.28125
"3282",79.47387,107.29443
"3283",79.28832,107.30762
"3284",79.24681,107.3208
"3285",79.234604,107.333984
"3286",79.15404,107.34717
"3287",78.92943,107.36035
"3288",78.52415,107.373535
"3289",77.93576,107.38672
"3290",77.188675,107.3999
"3291",76.31953,107.413086
"3292",75.36736,107.42627
"3293",74.37858,107.43945
"3294",73.38979,107.45264
"3295",72.43275,107.46582
"3296",71.536736,107.479004
"3297",70.72373,107.49219
"3298",70.00595,107.50537
"3299",69.39315,107.518555
"3300",68.89021,107.53174
"3301",68.492256,107.54492
"3302",68.19684,107.558105
"3303",68.00397,107.57129
"3304",67.911194,107.58447
"3305",67.90875,107.59766
"3306",67.981995,107.61084
"3307",68.104065,107.62402
"3308",68.243225,107.63721
"3309",68.38239,107.65039
"3310",68.54841,107.663574
"3311",68.95369,107.67676
"3312",70.05234,107.68994
"3313",72.38148,107.703125
"3314",76.15106,107.71631
"3315",81.0901,107.72949
"3316",86.5272,107.742676
"3317",91.6054,107.75586
"3318",95.536125,107.76904
"3319",97.9263,107.78223
"3320",98.861374,107.79541
"3321",98.722206,107.80859
"3322",97.86038,107.82178
"3323",96.52979,107.83496
"3324",94.93797,107.848145
"3325",93.25826,107.86133
"3326",91.62493,107.87451
"3327",90.13077,107.887695
"3328",88.81239,107.90088
"3329",87.64782,107.91406
"3330",86.56382,107.927246
"3331",85.49447,107.94043
"3332",84.39826,107.95361
"3333",83.29473,107.9668
"3334",82.252235,107.97998
"3335",81.38064,107.993164
"3336",80.780045,108.00635
"3337",80.48951,108.01953
"3338",80.479744,108.032715
"3339",80.66041,108.0459
"3340",80.907,108.05908
"3341",81.08766,108.072266
"3342",81.11696,108.08545
"3343",80.94606,108.09863
"3344",80.567635,108.11182
"3345",80.00122,108.125
"3346",79.28344,108.13818
"3347",78.44846,108.15137
"3348",77.53292,108.16455
"3349",76.56855,108.177734
"3350",75.58953,108.19092
"3351",74.634926,108.2041
"3352",73.741356,108.217285
"3353",72.935684,108.23047
"3354",72.24231,108.24365
"3355",71.673454,108.256836
"3356",71.219345,108.27002
"3357",70.872665,108.2832
"3358",70.608986,108.29639
"3359",70.40147,108.30957
"3360",70.22812,108.322754
"3361",70.10849,108.33594
"3362",70.1915,108.34912
"3363",70.85802,108.362305
"3364",72.55482,108.37549
"3365",75.50164,108.38867
"3366",79.517815,108.401855
"3367",84.07843,108.41504
"3368",88.463264,108.42822
"3369",91.97406,108.44141
"3370",94.2153,108.45459
"3371",95.1992,108.46777
"3372",95.20409,108.48096
"3373",94.5156,108.49414
"3374",93.368126,108.507324
"3375",91.95453,108.52051
"3376",90.43351,108.53369
"3377",88.93202,108.546875
"3378",87.535515,108.56006
"3379",86.2855,108.57324
"3380",85.15755,108.586426
"3381",84.102844,108.59961
"3382",83.06279,108.61279
"3383",82.005646,108.62598
"3384",80.938736,108.63916
"3385",79.93042,108.65234
"3386",79.080795,108.66553
"3387",78.48264,108.67871
"3388",78.17502,108.691895
"3389",78.135956,108.70508
"3390",78.28733,108.71826
"3391",78.50706,108.731445
"3392",78.66819,108.74463
"3393",78.675514,108.75781
"3394",78.4802,108.770996
"3395",78.07736,108.78418
"3396",77.48165,108.79736
"3397",76.73701,108.81055
"3398",75.88983,108.82373
"3399",74.986496,108.836914
"3400",74.06119,108.8501
"3401",73.15541,108.86328
"3402",72.29847,108.876465
"3403",71.50744,108.88965
"3404",70.79942,108.90283
"3405",70.18417,108.916016
"3406",69.66659,108.9292
"3407",69.261314,108.94238
"3408",68.96101,108.95557
"3409",68.76326,108.96875
"3410",68.648506,108.98193
"3411",68.58991,108.99512
"3412",68.58259,109.0083
"3413",68.731514,109.021484
"3414",69.366295,109.03467
"3415",71.00694,109.04785
"3416",74.00992,109.061035
"3417",78.29221,109.07422
"3418",83.34356,109.0874
"3419",88.40711,109.100586
"3420",92.67719,109.11377
"3421",95.5996,109.12695
"3422",97.08644,109.14014
"3423",97.425804,109.15332
"3424",96.96437,109.166504
"3425",95.9707,109.17969
"3426",94.66453,109.19287
"3427",93.21675,109.206055
"3428",91.773865,109.21924
"3429",90.443275,109.23242
"3430",89.288475,109.245605
"3431",88.30457,109.25879
"3432",87.450066,109.27197
"3433",86.65171,109.28516
"3434",85.81674,109.29834
"3435",84.88899,109.31152
"3436",83.86603,109.32471
"3437",82.80644,109.33789
"3438",81.80545,109.351074
"3439",80.955826,109.36426
"3440",80.33326,109.37744
"3441",79.94751,109.390625
"3442",79.74731,109.40381
"3443",79.639885,109.41699
"3444",79.52514,109.430176
"3445",79.327385,109.44336
"3446",78.992905,109.45654
"3447",78.519264,109.46973
"3448",77.92355,109.48291
"3449",77.23262,109.49609
"3450",76.46845,109.50928
"3451",75.650566,109.52246
"3452",74.80339,109.535645
"3453",73.94888,109.54883
"3454",73.11635,109.56201
"3455",72.32288,109.575195
"3456",71.59045,109.58838
"3457",70.92882,109.60156
"3458",70.34043,109.614746
"3459",69.83505,109.62793
"3460",69.41268,109.64111
"3461",69.0782,109.6543
"3462",68.841385,109.66748
"3463",68.699776,109.680664
"3464",68.628975,109.69385
"3465",68.61433,109.70703
"3466",68.6778,109.720215
"3467",69.02205,109.7334
"3468",70.08896,109.74658
"3469",72.342415,109.759766
"3470",75.914246,109.77295
"3471",80.50416,109.78613
"3472",85.48226,109.79932
"3473",90.057526,109.8125
"3474",93.541466,109.82568
"3475",95.63378,109.83887
"3476",96.4712,109.85205
"3477",96.39063,109.865234
"3478",95.68505,109.87842
"3479",94.57664,109.8916
"3480",93.25826,109.904785
"3481",91.88129,109.91797
"3482",90.565346,109.93115
"3483",89.38857,109.944336
"3484",88.38026,109.95752
"3485",87.50866,109.9707
"3486",86.6981,109.98389
"3487",85.87045,109.99707
"3488",84.97688,110.010254
"3489",83.99786,110.02344
"3490",82.97734,110.03662
"3491",81.99832,110.049805
"3492",81.15358,110.06299
"3493",80.50172,110.07617
"3494",80.0647,110.089355
"3495",79.818115,110.10254
"3496",79.67895,110.11572
"3497",79.554436,110.12891
"3498",79.35668,110.14209
"3499",79.02464,110.15527
"3500",78.538795,110.16846
"3501",77.91135,110.18164
"3502",77.16914,110.194824
"3503",76.34638,110.20801
"3504",75.47723,110.22119
"3505",74.59342,110.234375
"3506",73.71694,110.24756
"3507",72.87465,110.26074
"3508",72.09827,110.273926
"3509",71.40978,110.28711
"3510",70.82628,110.30029
"3511",70.35752,110.31348
"3512",70.00839,110.32666
"3513",69.75937,110.33984
"3514",69.59823,110.35303
"3515",69.50057,110.36621
"3516",69.44198,110.379395
"3517",69.40536,110.39258
"3518",69.37118,110.40576
"3519",69.32723,110.418945
"3520",69.349205,110.43213
"3521",69.70809,110.44531
"3522",70.853134,110.458496
"3523",73.1725,110.47168
"3524",76.71015,110.48486
"3525",81.126724,110.49805
"3526",85.80698,110.51123
"3527",90.01114,110.524414
"3528",93.16304,110.5376
"3529",95.05028,110.55078
"3530",95.82178,110.563965
"3531",95.76074,110.57715
"3532",95.12108,110.59033
"3533",94.103,110.603516
"3534",92.88716,110.6167
"3535",91.615166,110.62988
"3536",90.39933,110.64307
"3537",89.30312,110.65625
"3538",88.32899,110.66943
"3539",87.430534,110.68262
"3540",86.539406,110.6958
"3541",85.57992,110.708984
"3542",84.52033,110.72217
"3543",83.38262,110.73535
"3544",82.25468,110.748535
"3545",81.24147,110.76172
"3546",80.43824,110.7749
"3547",79.89136,110.788086
"3548",79.588615,110.80127
"3549",79.45922,110.81445
"3550",79.412834,110.82764
"3551",79.35668,110.84082
"3552",79.21263,110.854004
"3553",78.94408,110.86719
"3554",78.536354,110.88037
"3555",78.00656,110.893555
"3556",77.36935,110.90674
"3557",76.64912,110.91992
"3558",75.877625,110.933105
"3559",75.07927,110.94629
"3560",74.2736,110.95947
"3561",73.48257,110.97266
"3562",72.725716,110.98584
"3563",72.010376,110.99902
"3564",71.34875,111.01221
"3565",70.75304,111.02539
"3566",70.223236,111.038574
"3567",69.76181,111.05176
"3568",69.37606,111.06494
"3569",69.08064,111.078125
"3570",68.88289,111.09131
"3571",68.78523,111.10449
"3572",68.78279,111.117676
"3573",68.85115,111.13086
"3574",68.95857,111.14404
"3575",69.09041,111.15723
"3576",69.33944,111.17041
"3577",70.01816,111.18359
"3578",71.588005,111.19678
"3579",74.39567,111.20996
"3580",78.40208,111.223145
"3581",83.1873,111.23633
"3582",88.079956,111.24951
"3583",92.335396,111.262695
"3584",95.396965,111.27588
"3585",97.11818,111.28906
"3586",97.6968,111.302246
"3587",97.4136,111.31543
"3588",96.52247,111.32861
"3589",95.24559,111.3418
"3590",93.77585,111.35498
"3591",92.27192,111.368164
"3592",90.86076,111.38135
"3593",89.6083,111.39453
"3594",88.52674,111.407715
"3595",87.56481,111.4209
"3596",86.641945,111.43408
"3597",85.68978,111.447266
"3598",84.68391,111.46045
"3599",83.65606,111.47363
"3600",82.68925,111.48682
"3601",81.88602,111.5
"3602",81.31716,111.51318
"3603",80.990005,111.52637
"3604",80.86061,111.53955
"3605",80.84352,111.552734
"3606",80.83864,111.56592
"3607",80.762955,111.5791
"3608",80.550545,111.592285
"3609",80.17456,111.60547
"3610",79.63012,111.61865
"3611",78.941635,111.631836
"3612",78.13107,111.64502
"3613",77.239944,111.6582
"3614",76.299995,111.67139
"3615",75.335625,111.68457
"3616",74.373695,111.697754
"3617",73.43862,111.71094
"3618",72.569466,111.72412
"3619",71.79797,111.737305
"3620",71.15343,111.75049
"3621",70.64561,111.76367
"3622",70.28428,111.776855
"3623",70.0621,111.79004
"3624",69.97421,111.80322
"3625",70.00107,111.81641
"3626",70.10605,111.82959
"3627",70.24765,111.84277
"3628",70.37949,111.85596
"3629",70.467384,111.86914
"3630",70.53086,111.882324
"3631",70.73838,111.89551
"3632",71.46105,111.90869
"3633",73.126114,111.921875
"3634",75.94354,111.93506
"3635",79.75708,111.94824
"3636",84.09064,111.961426
"3637",88.2826,111.97461
"3638",91.67864,111.98779
"3639",93.89548,112.00098
"3640",94.92821,112.01416
"3641",94.99901,112.02734
"3642",93.29977,112.05371
"3643",91.964294,112.066895
"3644",90.53605,112.08008
"3645",89.14931,112.09326
"3646",87.87732,112.106445
"3647",86.7396,112.11963
"3648",85.70199,112.13281
"3649",84.698555,112.145996
"3650",83.67071,112.15918
"3651",82.6038,112.17236
"3652",81.53445,112.18555
"3653",80.55543,112.19873
"3654",79.766846,112.211914
"3655",79.24437,112.2251
"3656",78.992905,112.23828
"3657",78.96361,112.251465
"3658",79.05638,112.26465
"3659",79.16136,112.27783
"3660",79.17357,112.291016
"3661",79.03685,112.3042
"3662",78.71946,112.31738
"3663",78.22873,112.33057
"3664",77.58907,112.34375
"3665",76.84444,112.35693
"3666",76.03876,112.37012
"3667",75.20378,112.3833
"3668",74.37858,112.396484
"3669",73.57778,112.40967
"3670",72.81117,112.42285
"3671",72.09094,112.436035
"3672",71.42931,112.44922
"3673",70.84581,112.4624
"3674",70.35264,112.475586
"3675",69.962006,112.48877
"3676",69.67391,112.50195
"3677",69.471275,112.51514
"3678",69.337,112.52832
"3679",69.25155,112.541504
"3680",69.20271,112.55469
"3681",69.173416,112.56787
"3682",69.19295,112.581055
"3683",69.417564,112.59424
"3684",70.22568,112.60742
"3685",72.08606,112.620605
"3686",75.24284,112.63379
"3687",79.54223,112.64697
"3688",84.46174,112.66016
"3689",89.2665,112.67334
"3690",93.22652,112.68652
"3691",95.885254,112.69971
"3692",97.22316,112.71289
"3693",97.50393,112.726074
"3694",97.025406,112.73926
"3695",96.05371,112.75244
"3696",94.803696,112.765625
"3697",93.45846,112.77881
"3698",92.14252,112.79199
"3699",90.94133,112.805176
"3700",89.881744,112.81836
"3701",88.94179,112.83154
"3702",88.04822,112.84473
"3703",87.132675,112.85791
"3704",86.13901,112.87109
"3705",85.06477,112.88428
"3706",83.97101,112.89746
"3707",82.95781,112.910645
"3708",82.1326,112.92383
"3709",81.57107,112.93701
"3710",81.290306,112.950195
"3711",81.24391,112.96338
"3712",81.339134,112.97656
"3713",81.463646,112.989746
"3714",81.50027,113.00293
"3715",81.36843,113.01611
"3716",81.01686,113.0293
"3717",80.448006,113.04248
"3718",79.68383,113.055664
"3719",78.77318,113.06885
"3720",77.76486,113.08203
"3721",76.70771,113.095215
"3722",75.63348,113.1084
"3723",74.58366,113.12158
"3724",73.58022,113.134766
"3725",72.65003,113.14795
"3726",71.81262,113.16113
"3727",71.08751,113.17432
"3728",70.48203,113.1875
"3729",70.00351,113.20068
"3730",69.661705,113.21387
"3731",69.46639,113.22705
"3732",69.42245,113.240234
"3733",69.5079,113.25342
"3734",69.67635,113.2666
"3735",69.86435,113.279785
"3736",70.04501,113.29297
"3737",70.30625,113.30615
"3738",70.963,113.319336
"3739",72.44984,113.33252
"3740",75.04509,113.3457
"3741",78.677956,113.35889
"3742",82.94316,113.37207
"3743",87.218124,113.385254
"3744",90.84123,113.39844
"3745",93.36324,113.41162
"3746",94.70603,113.424805
"3747",95.06004,113.43799
"3748",94.67185,113.45117
"3749",93.77341,113.464355
"3750",92.57954,113.47754
"3751",91.268486,113.49072
"3752",89.98184,113.50391
"3753",88.81239,113.51709
"3754",87.80408,113.53027
"3755",86.942245,113.54346
"3756",86.16586,113.55664
"3757",85.38949,113.569824
"3758",84.53498,113.58301
"3759",83.56573,113.59619
"3760",82.50858,113.609375
"3761",81.43679,113.62256
"3762",80.45289,113.63574
"3763",79.656975,113.648926
"3764",79.11009,113.66211
"3765",78.79759,113.67529
"3766",78.660866,113.68848
"3767",78.60471,113.70166
"3768",78.52903,113.71484
"3769",78.345924,113.72803
"3770",78.00168,113.74121
"3771",77.47433,113.754395
"3772",76.7834,113.76758
"3773",75.96063,113.78076
"3774",75.04997,113.793945
"3775",74.110016,113.80713
"3776",73.17494,113.82031
"3777",72.2765,113.833496
"3778",71.43908,113.84668
"3779",70.66758,113.85986
"3780",69.96933,113.87305
"3781",69.35653,113.88623
"3782",68.8365,113.899414
"3783",68.419014,113.9126
"3784",68.11139,113.92578
"3785",67.91852,113.938965
"3786",67.845276,113.95215
"3787",67.8819,113.96533
"3788",68.00885,113.978516
"3789",68.18463,113.9917
"3790",68.370186,114.00488
"3791",68.53132,114.01807
"3792",68.697334,114.03125
"3793",69.068436,114.04443
"3794",70.07919,114.05762
"3795",72.22034,114.0708
"3796",75.70428,114.083984
"3797",80.2942,114.09717
"3798",85.39193,114.11035
"3799",90.20889,114.123535
"3800",94.01755,114.13672
"3801",96.41993,114.1499
"3802",97.479515,114.163086
"3803",97.50393,114.17627
"3804",96.815445,114.18945
"3805",95.66308,114.20264
"3806",94.25437,114.21582
"3807",92.75777,114.229004
"3808",91.30999,114.24219
"3809",89.98917,114.25537
"3810",88.8246,114.268555
"3811",87.78699,114.28174
"3812",86.803085,114.29492
"3813",85.785,114.308105
"3814",84.698555,114.32129
"3815",83.543755,114.33447
"3816",82.38651,114.34766
"3817",81.32937,114.36084
"3818",80.479744,114.37402
"3819",79.89624,114.38721
"3820",79.57397,114.40039
"3821",79.4519,114.413574
"3822",79.42504,114.42676
"3823",79.38842,114.43994
"3824",79.24925,114.453125
"3825",78.95384,114.46631
"3826",78.48264,114.47949
"3827",77.84787,114.492676
"3828",77.07149,114.50586
"3829",76.19745,114.51904
"3830",75.25506,114.53223
"3831",74.285805,114.54541
"3832",73.32632,114.55859
"3833",72.40589,114.57178
"3834",71.54406,114.58496
"3835",70.76036,114.598145
"3836",70.066986,114.61133
"3837",69.46395,114.62451
"3838",68.95857,114.637695
"3839",68.55573,114.65088
"3840",68.253,114.66406
"3841",68.052795,114.677246
"3842",67.95758,114.69043
"3843",67.95758,114.70361
"3844",68.04303,114.7168
"3845",68.19684,114.72998
"3846",68.39948,114.743164
"3847",68.62653,114.75635
"3848",68.86824,114.76953
"3849",69.14656,114.782715
"3850",69.63485,114.7959
"3851",70.750595,114.80908
"3852",72.989395,114.822266
"3853",76.592964,114.83545
"3854",81.34646,114.84863
"3855",86.65171,114.86182
"3856",91.70306,114.875
"3857",95.72167,114.88818
"3858",98.27299,114.90137
"3859",99.39605,114.91455
"3860",99.42779,114.927734
"3861",98.719765,114.94092
"3862",97.55276,114.9541
"3863",96.131836,114.967285
"3864",94.625465,114.98047
"3865",93.15083,114.99365
"3866",91.793396,115.006836
"3867",90.57267,115.02002
"3868",89.45937,115.0332
"3869",88.37293,115.04639
"3870",87.23033,115.05957
"3871",85.99008,115.072754
"3872",84.664375,115.08594
"3873",83.35088,115.09912
"3874",82.178986,115.112305
"3875",81.26589,115.12549
"3876",80.66285,115.13867
"3877",80.35279,115.151855
"3878",80.255135,115.16504
"3879",80.255135,115.17822
"3880",80.24536,115.19141
"3881",80.1355,115.20459
"3882",79.8645,115.21777
"3883",79.41039,115.23096
"3884",78.765854,115.24414
"3885",77.95773,115.257324
"3886",77.0251,115.27051
"3887",76.00946,115.28369
"3888",74.95476,115.296875
"3889",73.90738,115.31006
"3890",72.90639,115.32324
"3891",71.98352,115.336426
"3892",71.15587,115.34961
"3893",70.43076,115.36279
"3894",69.79599,115.37598
"3895",69.24666,115.38916
"3896",68.7657,115.40234
"3897",68.35554,115.41553
"3898",68.02106,115.42871
"3899",67.77692,115.441895
"3900",67.62554,115.45508
"3901",67.57671,115.46826
"3902",67.62554,115.481445
"3903",67.757385,115.49463
"3904",67.94293,115.50781
"3905",68.172424,115.520996
"3906",68.49714,115.53418
"3907",69.170975,115.54736
"3908",70.66758,115.56055
"3909",73.45083,115.57373
"3910",77.6379,115.586914
"3911",82.862595,115.6001
"3912",88.40467,115.61328
"3913",93.402306,115.626465
"3914",97.13527,115.63965
"3915",99.303276,115.65283
"3916",100.069885,115.666016
"3917",99.8111,115.6792
"3918",98.863815,115.69238
"3919",97.47463,115.70557
"3920",95.84131,115.71875
"3921",94.12741,115.73193
"3922",92.46479,115.74512
"3923",90.93645,115.7583
"3924",89.56191,115.771484
"3925",88.30457,115.78467
"3926",87.08629,115.79785
"3927",85.82895,115.811035
"3928",84.51057,115.82422
"3929",83.16777,115.8374
"3930",81.898224,115.850586
"3931",80.82155,115.86377
"3932",80.03052,115.87695
"3933",79.56664,115.89014
"3934",79.38842,115.90332
"3935",79.40551,115.916504
"3936",79.51049,115.92969
"3937",79.58129,115.94287
"3938",79.52758,115.956055
"3939",79.28588,115.96924
"3940",78.836655,115.98242
"3941",78.19699,115.995605
"3942",77.401085,116.00879
"3943",76.49287,116.02197
"3944",75.52361,116.03516
"3945",74.527504,116.04834
"3946",73.531395,116.06152
"3947",72.55482,116.07471
"3948",71.60754,116.08789
"3949",70.711525,116.101074
"3950",69.88632,116.11426
"3951",69.15877,116.12744
"3952",68.55573,116.140625
"3953",68.09918,116.15381
"3954",67.78912,116.16699
"3955",67.60845,116.180176
"3956",67.54009,116.19336
"3957",67.55474,116.20654
"3958",67.62554,116.21973
"3959",67.735405,116.23291
"3960",67.88922,116.24609
"3961",68.1944,116.25928
"3962",68.980545,116.27246
"3963",70.77989,116.285645
"3964",74.019684,116.29883
"3965",78.69016,116.31201
"3966",84.27619,116.325195
"3967",89.94766,116.33838
"3968",94.78172,116.35156
"3969",98.106964,116.364746
"3970",99.73296,116.37793
"3971",99.94537,116.39111
"3972",99.18364,116.4043
"3973",97.82132,116.41748
"3974",96.11963,116.430664
"3975",94.29099,116.44385
"3976",92.50385,116.45703
"3977",90.86809,116.470215
"3978",89.427635,116.4834
"3979",88.17029,116.49658
"3980",87.027695,116.509766
"3981",85.91928,116.52295
"3982",84.78401,116.53613
"3983",83.61944,116.54932
"3984",82.476845,116.5625
"3985",81.45388,116.57568
"3986",80.65308,116.58887
"3987",80.1355,116.60205
"3988",79.8938,116.615234
"3989",79.869385,116.62842
"3990",79.94751,116.6416
"3991",80.01587,116.654785
"3992",79.96948,116.66797
"3993",79.7351,116.68115
"3994",79.281,116.694336
"3995",78.607155,116.70752
"3996",77.74288,116.7207
"3997",76.72724,116.73389
"3998",75.61883,116.74707
"3999",74.476234,116.760254
"4000",73.34829,116.77344
"4001",72.274055,116.78662
"4002",71.28771,116.799805
"4003",70.41856,116.81299
"4004",69.67635,116.82617
"4005",69.0782,116.839355
"4006",68.63142,116.85254
"4007",68.34333,116.86572
"4008",68.206604,116.87891
"4009",68.20416,116.89209
"4010",68.30915,116.90527
"4011",68.48005,116.91846
"4012",68.67536,116.93164
"4013",68.88533,116.944824
"4014",69.21492,116.95801
"4015",69.993744,116.97119
"4016",71.73449,116.984375
"4017",74.81804,116.99756
"4018",79.21263,117.01074
"4019",84.43,117.023926
"4020",89.688866,117.03711
"4021",94.14694,117.05029
"4022",97.20363,117.06348
"4023",98.719765,117.07666
"4024",98.968796,117.08984
"4025",98.338905,117.10303
"4026",97.14748,117.11621
"4027",95.6289,117.129395
"4028",93.958954,117.14258
"4029",92.28901,117.15576
"4030",90.73136,117.168945
"4031",89.3373,117.18213
"4032",88.10925,117.19531
"4033",86.98375,117.208496
"4034",85.88266,117.22168
"4035",84.732735,117.23486
"4036",83.529106,117.24805
"4037",82.31327,117.26123
"4038",81.18532,117.274414
"4039",80.255135,117.2876
"4040",79.605705,117.30078
"4041",79.2517,117.313965
"4042",79.149155,117.32715
"4043",79.200424,117.34033
"4044",79.28588,117.353516
"4045",79.293205,117.3667
"4046",79.13695,117.37988
"4047",78.77318,117.39307
"4048",78.20187,117.40625
"4049",77.44991,117.41943
"4050",76.55634,117.43262
"4051",75.56512,117.4458
"4052",74.53239,117.458984
"4053",73.49966,117.47217
"4054",72.50843,117.48535
"4055",71.59289,117.498535
"4056",70.77745,117.51172
"4057",70.07675,117.5249
"4058",69.505455,117.538086
"4059",69.065994,117.55127
"4060",68.755936,117.56445
"4061",68.55573,117.57764
"4062",68.436104,117.59082
"4063",68.37507,117.604004
"4064",68.353096,117.61719
"4065",68.421455,117.63037
"4066",68.81209,117.643555
"4067",69.98642,117.65674
"4068",72.42298,117.66992
"4069",76.30244,117.683105
"4070",81.31472,117.69629
"4071",86.76402,117.70947
"4072",91.78851,117.72266
"4073",95.6289,117.73584
"4074",97.92386,117.74902
"4075",98.78569,117.76221
"4076",98.59281,117.77539
"4077",97.6968,117.788574
"4078",96.34669,117.80176
"4079",94.73777,117.81494
"4080",93.019,117.828125
"4081",91.317314,117.84131
"4082",89.71328,117.85449
"4083",88.24597,117.867676
"4084",86.89586,117.88086
"4085",85.62386,117.89404
"4086",84.39826,117.90723
"4087",83.23125,117.92041
"4088",82.1741,117.93359
"4089",81.307396,117.94678
"4090",80.709236,117.95996
"4091",80.41627,117.973145
"4092",80.396736,117.98633
"4093",80.56031,117.99951
"4094",80.782486,118.012695
"4095",80.95094,118.02588
"4096",80.97536,118.03906
"4097",80.80202,118.052246
"4098",80.42359,118.06543
"4099",79.84985,118.07861
"4100",79.097885,118.0918
"4101",78.20187,118.10498
"4102",77.205765,118.118164
"4103",76.15839,118.13135
"4104",75.11345,118.14453
"4105",74.11978,118.157715
"4106",73.2018,118.1709
"4107",72.376595,118.18408
"4108",71.64416,118.197266
"4109",71.0045,118.21045
"4110",70.44541,118.22363
"4111",69.9498,118.23682
"4112",69.5201,118.25
"4113",69.205154,118.26318
"4114",69.19295,118.27637
"4115",69.89609,118.28955
"4116",71.78088,118.302734
"4117",75.04753,118.31592
"4118",79.466545,118.3291
"4119",84.45197,118.342285
"4120",89.22255,118.35547
"4121",93.04341,118.36865
"4122",95.50439,118.381836
"4123",96.63233,118.39502
"4124",96.72022,118.4082
"4125",96.08057,118.42139
"4126",94.96483,118.43457
"4127",93.58541,118.447754
"4128",92.122986,118.46094
"4129",90.721596,118.47412
"4130",89.46426,118.487305
"4131",88.37293,118.50049
"4132",87.40124,118.51367
"4133",86.46372,118.526855
"4134",85.472496,118.54004
"4135",84.38117,118.55322
"4136",83.20439,118.56641
"4137",82.022736,118.57959
"4138",80.94362,118.59277
"4139",80.07202,118.60596
"4140",79.46166,118.61914
"4141",79.10521,118.632324
"4142",78.93431,118.64551
"4143",78.86107,118.65869
"4144",78.7805,118.671875
"4145",78.607155,118.68506
"4146",78.28977,118.69824
"4147",77.80881,118.711426
"4148",77.1667,118.72461
"4149",76.38056,118.73779
"4150",75.48943,118.75098
"4151",74.53483,118.76416
"4152",73.565575,118.77734
"4153",72.62806,118.79053
"4154",71.75891,118.80371
"4155",70.98741,118.816895
"4156",70.330666,118.83008
"4157",69.79111,118.84326
"4158",69.35165,118.856445
"4159",68.99519,118.86963
"4160",68.680244,118.88281
"4161",68.3946,118.895996
"4162",68.17731,118.90918
"4163",68.24078,118.92236
"4164",69.00984,118.93555
"4165",70.90929,118.94873
"4166",74.08804,118.961914
"4167",78.2971,118.9751
"4168",82.984665,118.98828
"4169",87.42565,119.001465
"4170",90.9633,119.01465
"4171",93.27291,119.02783
"4172",94.41062,119.041016
"4173",94.63767,119.0542
"4174",94.22995,119.06738
"4175",93.419395,119.08057
"4176",92.39643,119.09375
"4177",91.302666,119.10693
"4178",90.22354,119.12012
"4179",89.195694,119.1333
"4180",88.22644,119.146484
"4181",87.29626,119.15967
"4182",86.35142,119.17285
"4183",85.347984,119.186035
"4184",84.24933,119.19922
"4185",83.05791,119.2124
"4186",81.82498,119.225586
"4187",80.64332,119.23877
"4188",79.62035,119.25195
"4189",78.8513,119.26514
"4190",78.35325,119.27832
"4191",78.08469,119.291504
"4192",77.95773,119.30469
"4193",77.86008,119.31787
"4194",77.69161,119.331055
"4195",77.38888,119.34424
"4196",76.92012,119.35742
"4197",76.29267,119.370605
"4198",75.52117,119.38379
"4199",74.64225,119.39697
"4200",73.69253,119.41016
"4201",72.7013,119.42334
"4202",71.707634,119.43652
"4203",70.75792,119.44971
"4204",69.88632,119.46289
"4205",69.12947,119.476074
"4206",68.51179,119.48926
"4207",68.05524,119.50244
"4208",67.757385,119.515625
"4209",67.60357,119.52881
"4210",67.55474,119.54199
"4211",67.58404,119.555176
"4212",67.667046,119.56836
"4213",67.86725,119.58154
"4214",68.41657,119.59473
"4215",69.7203,119.60791
"4216",72.13977,119.62109
"4217",75.72625,119.63428
"4218",80.16724,119.64746
"4219",84.86214,119.660645
"4220",89.10536,119.67383
"4221",92.31342,119.68701
"4222",94.24704,119.700195
"4223",95.01854,119.71338
"4224",94.89891,119.72656
"4225",94.15427,119.739746
"4226",93.00923,119.75293
"4227",91.65423,119.76611
"4228",90.250404,119.7793
"4229",88.91493,119.79248
"4230",87.70397,119.805664
"4231",86.61753,119.81885
"4232",85.609215,119.83203
"4233",84.60578,119.845215
"4234",83.57061,119.8584
"4235",82.50614,119.87158
"4236",81.47097,119.884766
"4237",80.567635,119.89795
"4238",79.89868,119.91113
"4239",79.51537,119.92432
"4240",79.412834,119.9375
"4241",79.52758,119.95068
"4242",79.742424,119.96387
"4243",79.940186,119.97705
"4244",80.01831,119.990234
"4245",79.90845,120.00342
"4246",79.57885,120.0166
"4247",79.03441,120.029785
"4248",78.294655,120.04297
"4249",77.39864,120.05615
"4250",76.39521,120.069336
"4251",75.338066,120.08252
"4252",74.285805,120.0957
"4253",73.289696,120.10889
"4254",72.39857,120.12207
"4255",71.64416,120.135254
"4256",71.046005,120.14844
"4257",70.60166,120.16162
"4258",70.28672,120.174805
"4259",70.05966,120.18799
"4260",69.87656,120.20117
"4261",69.73739,120.214355
"4262",69.73983,120.22754
"4263",70.1915,120.24072
"4264",71.48791,120.25391
"4265",73.90982,120.26709
"4266",77.41329,120.28027
"4267",81.634544,120.29346
"4268",85.980316,120.30664
"4269",89.80362,120.319824
"4270",92.63325,120.33301
"4271",94.34226,120.34619
"4272",95.07225,120.359375
"4273",95.064926,120.37256
"4274",94.54978,120.38574
"4275",93.72701,120.398926
"4276",92.76265,120.41211
"4277",91.77875,120.42529
"4278",90.83879,120.43848
"4279",89.96719,120.45166
"4280",89.144424,120.46484
"4281",88.29725,120.47803
"4282",87.35485,120.49121
"4283",86.261086,120.504395
"4284",85.015945,120.51758
"4285",83.665825,120.53076
"4286",82.320595,120.543945
"4287",81.09743,120.55713
"4288",80.096436,120.57031
"4289",79.364006,120.583496
"4290",78.890366,120.59668
"4291",78.60471,120.60986
"4292",78.41428,120.62305
"4293",78.22385,120.63623
"4294",77.95285,120.649414
"4295",77.55978,120.6626
"4296",77.02754,120.67578
"4297",76.37324,120.688965
"4298",75.62127,120.70215
"4299",74.80583,120.71533
"4300",73.95621,120.728516
"4301",73.09682,120.7417
"4302",72.24719,120.75488
"4303",71.42443,120.76807
"4304",70.62852,120.78125
"4305",69.874115,120.79443
"4306",69.17586,120.80762
"4307",68.55573,120.8208
"4308",68.04303,120.833984
"4309",67.67193,120.84717
"4310",67.46197,120.86035
"4311",67.405815,120.873535
"4312",67.48394,120.88672
"4313",67.63531,120.8999
"4314",67.80133,120.913086
"4315",67.94293,120.92627
"4316",68.08453,120.93945
"4317",68.43122,120.95264
"4318",69.402916,120.96582
"4319",71.45373,120.979004
"4320",74.76189,120.99219
"4321",79.11253,121.00537
"4322",83.95392,121.018555
"4323",88.5658,121.03174
"4324",92.264595,121.04492
"4325",94.693825,121.058105
"4326",95.8999,121.07129
"4327",96.15869,121.08447
"4328",95.7583,121.09766
"4329",94.957504,121.11084
"4330",93.97604,121.12402
"4331",92.97261,121.13721
"4332",92.04242,121.15039
"4333",91.226974,121.163574
"4334",90.50431,121.17676
"4335",89.81094,121.18994
"4336",89.06386,121.203125
"4337",88.18494,121.21631
"4338",87.12779,121.22949
"4339",85.91196,121.242676
"4340",84.60578,121.25586
"4341",83.32159,121.26904
"4342",82.16678,121.28223
"4343",81.2195,121.29541
"4344",80.50904,121.30859
"4345",79.99878,121.32178
"4346",79.605705,121.33496
"4347",79.24437,121.348145
"4348",78.84398,121.36133
"4349",78.34348,121.37451
"4350",77.72823,121.387695
"4351",77.00069,121.40088
"4352",76.18524,121.41406
"4353",75.301445,121.427246
"4354",74.3859,121.44043
"4355",73.494774,121.45361
"4356",72.66468,121.4668
"4357",71.91272,121.47998
"4358",71.24132,121.493164
"4359",70.640724,121.50635
"4360",70.084076,121.51953
"4361",69.56161,121.532715
"4362",69.083084,121.5459
"4363",68.6778,121.55908
"4364",68.370186,121.572266
"4365",68.17975,121.58545
"4366",68.11139,121.59863
"4367",68.155334,121.61182
"4368",68.279854,121.625
"4369",68.43366,121.63818
"4370",68.58015,121.65137
"4371",68.69245,121.66455
"4372",68.76326,121.677734
"4373",68.795,121.69092
"4374",68.81209,121.7041
"4375",68.81941,121.717285
"4376",68.807205,121.73047
"4377",68.75838,121.74365
"4378",68.680244,121.756836
"4379",68.665596,121.77002
"4380",69.00252,121.7832
"4381",70.20859,121.79639
"4382",72.762344,121.80957
"4383",76.77852,121.822754
"4384",81.88846,121.83594
"4385",87.38415,121.84912
"4386",92.41596,121.862305
"4387",96.27833,121.87549
"4388",98.67338,121.88867
"4389",99.76227,121.901855
"4390",99.90143,121.91504
"4391",99.40337,121.92822
"4392",98.512245,121.94141
"4393",97.41604,121.95459
"4394",96.26368,121.96777
"4395",95.147934,121.98096
"4396",94.117645,121.99414
"4397",93.16548,122.007324
"4398",92.23041,122.02051
"4399",91.22209,122.03369
"4400",90.074615,122.046875
"4401",88.75868,122.06006
"4402",87.31335,122.07324
"4403",85.8436,122.086426
"4404",84.473946,122.09961
"4405",83.319145,122.11279
"4406",82.44022,122.12598
"4407",81.83963,122.13916
"4408",81.45632,122.15234
"4409",81.20485,122.16553
"4410",80.99977,122.17871
"4411",80.75563,122.191895
"4412",80.413826,122.20508
"4413",79.93286,122.21826
"4414",79.29565,122.231445
"4415",78.5095,122.24463
"4416",77.59884,122.25781
"4417",76.60273,122.270996
"4418",75.56512,122.28418
"4419",74.53239,122.29736
"4420",73.5436,122.31055
"4421",72.62806,122.32373
"4422",71.80774,122.336914
"4423",71.09483,122.3501
"4424",70.4918,122.36328
"4425",69.98642,122.376465
"4426",69.57137,122.38965
"4427",69.23201,122.40283
"4428",68.963455,122.416016
"4429",68.75838,122.4292
"4430",68.607,122.44238
"4431",68.50202,122.45557
"4432",68.43366,122.46875
"4433",68.401924,122.48193
"4434",68.40925,122.49512
"4435",68.46296,122.5083
"4436",68.56794,122.521484
"4437",68.714424,122.53467
"4438",68.875565,122.54785
"4439",69.02937,122.561035
"4440",69.16121,122.57422
"4441",69.33456,122.5874
"4442",69.78134,122.600586
"4443",70.98009,122.61377
"4444",73.426414,122.62695
"4445",77.29122,122.64014
"4446",82.27665,122.65332
"4447",87.711296,122.666504
"4448",92.74555,122.67969
"4449",96.62501,122.69287
"4450",99.000534,122.706055
"4451",99.97223,122.71924
"4452",99.911194,122.73242
"4453",99.17143,122.745605
"4454",98.0264,122.75879
"4455",96.67628,122.77197
"4456",95.2871,122.78516
"4457",93.978485,122.79834
"4458",92.80171,122.81152
"4459",91.756775,122.82471
"4460",90.78752,122.83789
"4461",89.8085,122.851074
"4462",88.73914,122.86426
"4463",87.5404,122.87744
"4464",86.236664,122.890625
"4465",84.92073,122.90381
"4466",83.70489,122.91699
"4467",82.69413,122.930176
"4468",81.94949,122.94336
"4469",81.46609,122.95654
"4470",81.17799,122.96973
"4471",80.990005,122.98291
"4472",80.799576,122.99609
"4473",80.52857,123.00928
"4474",80.113525,123.02246
"4475",79.53979,123.035645
"4476",78.81468,123.04883
"4477",77.96994,123.06201
"4478",77.03975,123.075195
"4479",76.05829,123.08838
"4480",75.06462,123.10156
"4481",74.08804,123.114746
"4482",73.15297,123.12793
"4483",72.2765,123.14111
"4484",71.48058,123.1543
"4485",70.767685,123.16748
"4486",70.14511,123.180664
"4487",69.61288,123.19385
"4488",69.1783,123.20703
"4489",68.8365,123.220215
"4490",68.58991,123.2334
"4491",68.42878,123.24658
"4492",68.34089,123.259766
"4493",68.29694,123.27295
"4494",68.25788,123.28613
"4495",68.21393,123.29932
"4496",68.172424,123.3125
"4497",68.2359,123.32568
"4498",68.70222,123.33887
"4499",70.047455,123.35205
"4500",72.66956,123.365234
"4501",76.60273,123.37842
"4502",81.47097,123.3916
"4503",86.59312,123.404785
"4504",91.18547,123.41797
"4505",94.623024,123.43115
"4506",96.673836,123.444336
"4507",97.48928,123.45752
"4508",97.3843,123.4707
"4509",96.6421,123.48389
"4510",95.49218,123.49707
"4511",94.13229,123.510254
"4512",92.72114,123.52344
"4513",91.37347,123.53662
"4514",90.15518,123.549805
"4515",89.06142,123.56299
"4516",88.03601,123.57617
"4517",86.99107,123.589355
"4518",85.858246,123.60254
"4519",84.613106,123.61572
"4520",83.29717,123.62891
"4521",82.01785,123.64209
"4522",80.89723,123.65527
"4523",80.0354,123.66846
"4524",79.46899,123.68164
"4525",79.17845,123.694824
"4526",79.07591,123.70801
"4527",79.046616,123.72119
"4528",78.98314,123.734375
"4529",78.80492,123.74756
"4530",78.46067,123.76074
"4531",77.943085,123.773926
