"","ppg","time"
"1",78.79027,443.43652
"2",78.52659,443.4497
"3",78.30198,443.4629
"4",78.118866,443.47607
"5",77.97238,443.48926
"6",77.855194,443.50244
"7",77.75998,443.51562
"8",77.68673,443.5288
"9",77.625694,443.542
"10",77.576866,443.55518
"11",77.53292,443.56836
"12",77.49142,443.58154
"13",77.454796,443.59473
"14",77.4255,443.6079
"15",77.401085,443.6211
"16",77.38155,443.63428
"17",77.37179,443.64746
"18",77.35958,443.66064
"19",77.34493,443.67383
"20",77.32052,443.687
"21",77.281456,443.7002
"22",77.22774,443.71338
"23",77.15938,443.72656
"24",77.08125,443.73975
"25",77.03975,443.75293
"26",77.14717,443.7661
"27",77.56222,443.7793
"28",78.42649,443.79248
"29",79.79126,443.80566
"30",81.57351,443.81885
"31",83.563286,443.83203
"32",85.48226,443.8452
"33",87.07164,443.8584
"34",88.16785,443.87158
"35",88.73914,443.88477
"36",88.83681,443.89795
"37",88.55848,443.91113
"38",88.026245,443.92432
"39",87.3695,443.9375
"40",86.693214,443.95068
"41",86.07553,443.96387
"42",85.55306,443.97705
"43",85.135574,443.99023
"44",84.79378,444.00342
"45",84.47639,444.0166
"46",84.13214,444.0298
"47",83.73907,444.04297
"48",83.29473,444.05615
"49",82.82109,444.06934
"50",82.36698,444.08252
"51",81.971466,444.0957
"52",81.65896,444.1089
"53",81.43435,444.12207
"54",81.2781,444.13525
"55",81.16823,444.14844
"56",81.06569,444.16162
"57",80.936295,444.1748
"58",80.76051,444.188
"59",80.52369,444.20117
"60",80.23071,444.21436
"61",79.8938,444.22754
"62",79.53002,444.24072
"63",79.151596,444.2539
"64",78.77562,444.2671
"65",78.416725,444.28027
"66",78.082245,444.29346
"67",77.786835,444.30664
"68",77.52804,444.31982
"69",77.30831,444.333
"70",77.13008,444.3462
"71",76.98848,444.35938
"72",76.86885,444.37256
"73",76.76631,444.38574
"74",76.67597,444.39893
"75",76.592964,444.4121
"76",76.51728,444.4253
"77",76.44892,444.43848
"78",76.39521,444.45166
"79",76.34882,444.46484
"80",76.30732,444.47803
"81",76.265816,444.4912
"82",76.224304,444.5044
"83",76.18524,444.51758
"84",76.14862,444.53076
"85",76.10956,444.54395
"86",76.070496,444.55713
"87",76.02167,444.5703
"88",75.96063,444.5835
"89",75.88739,444.59668
"90",75.809265,444.60986
"91",75.75311,444.62305
"92",75.83612,444.63623
"93",76.23651,444.6494
"94",77.137405,444.6626
"95",78.6096,444.67578
"96",80.57252,444.68896
"97",82.81865,444.70215
"98",85.02815,444.71533
"99",86.89342,444.72852
"100",88.21179,444.7417
"101",88.94179,444.75488
"102",89.13466,444.76807
"103",88.8954,444.78125
"104",88.35584,444.79443
"105",87.6527,444.80762
"106",86.908066,444.8208
"107",86.21469,444.83398
"108",85.628746,444.84717
"109",85.16731,444.86035
"110",84.81087,444.87354
"111",84.51057,444.88672
"112",84.20538,444.8999
"113",83.844055,444.9131
"114",83.41924,444.92627
"115",82.95293,444.93945
"116",82.48417,444.95264
"117",82.0618,444.96582
"118",81.71511,444.979
"119",81.449,444.9922
"120",81.24391,445.00537
"121",81.077896,445.01855
"122",80.91676,445.03174
"123",80.72877,445.04492
"124",80.49195,445.0581
"125",80.19653,445.0713
"126",79.84253,445.08447
"127",79.44213,445.09766
"128",79.012436,445.11084
"129",78.57542,445.12402
"130",78.14816,445.1372
"131",77.74532,445.1504
"132",77.37423,445.16357
"133",77.04463,445.17676
"134",76.754105,445.18994
"135",76.50019,445.20312
"136",76.29511,445.2163
"137",76.13153,445.2295
"138",76.00214,445.24268
"139",75.90448,445.25586
"140",75.8288,445.26904
"141",75.757996,445.28223
"142",75.684746,445.2954
"143",75.60906,445.3086
"144",75.526054,445.32178
"145",75.43816,445.33496
"146",75.352715,445.34814
"147",75.27947,445.36133
"148",75.21599,445.3745
"149",75.17204,445.3877
"150",75.140305,445.40088
"151",75.11833,445.41406
"152",75.09636,445.42725
"153",75.07439,445.44043
"154",75.037766,445.4536
"155",74.984055,445.4668
"156",74.94011,445.47998
"157",74.97429,445.49316
"158",75.2575,445.50635
"159",75.99237,445.51953
"160",77.3254,445.5327
"161",79.24193,445.5459
"162",81.57107,445.55908
"163",84.01251,445.57227
"164",86.21713,445.58545
"165",87.91394,445.59863
"166",88.97597,445.61182
"167",89.427635,445.625
"168",89.3666,445.63818
"169",88.92226,445.65137
"170",88.24841,445.66455
"171",87.481804,445.67773
"172",86.73228,445.69092
"173",86.07309,445.7041
"174",85.53353,445.7173
"175",85.10628,445.73047
"176",84.73762,445.74365
"177",84.37873,445.75684
"178",83.97589,445.77002
"179",83.5169,445.7832
"180",83.00908,445.7964
"181",82.493935,445.80957
"182",82.022736,445.82275
"183",81.6321,445.83594
"184",81.33669,445.84912
"185",81.13161,445.8623
"186",80.99245,445.8755
"187",80.88258,445.88867
"188",80.762955,445.90186
"189",80.601814,445.91504
"190",80.36988,445.92822
"191",80.059814,445.9414
"192",79.67162,445.9546
"193",79.22728,445.96777
"194",78.74387,445.98096
"195",78.24826,445.99414
"196",77.76486,446.00732
"197",77.313194,446.0205
"198",76.895706,446.0337
"199",76.52705,446.04688
"200",76.20477,446.06006
"201",75.92645,446.07324
"202",75.69695,446.08643
"203",75.51629,446.0996
"204",75.37713,446.1128
"205",75.26971,446.12598
"206",75.18425,446.13916
"207",75.11589,446.15234
"208",75.05974,446.16553
"209",75.01335,446.1787
"210",74.97673,446.1919
"211",74.94743,446.20508
"212",74.92546,446.21826
"213",74.90593,446.23145
"214",74.88396,446.24463
"215",74.8571,446.2578
"216",74.82536,446.271
"217",74.78142,446.28418
"218",74.71793,446.29736
"219",74.634926,446.31055
"220",74.54459,446.32373
"221",74.50065,446.3369
"222",74.64469,446.3501
"223",75.1989,446.36328
"224",76.36347,446.37646
"225",78.18234,446.38965
"226",80.52857,446.40283
"227",83.1165,446.41602
"228",85.56527,446.4292
"229",87.54284,446.44238
"230",88.86122,446.45557
"231",89.52285,446.46875
"232",89.618065,446.48193
"233",89.28359,446.49512
"234",88.65125,446.5083
"235",87.86267,446.52148
"236",87.03746,446.53467
"237",86.27085,446.54785
"238",85.61654,446.56104
"239",85.09163,446.57422
"240",84.66682,446.5874
"241",84.27863,446.6006
"242",83.86359,446.61377
"243",83.387505,446.62695
"244",82.85283,446.64014
"245",82.2913,446.65332
"246",81.75906,446.6665
"247",81.304955,446.6797
"248",80.96071,446.69287
"249",80.71656,446.70605
"250",80.55543,446.71924
"251",80.43824,446.73242
"252",80.32105,446.7456
"253",80.164795,446.7588
"254",79.94507,446.77197
"255",79.65453,446.78516
"256",79.293205,446.79834
"257",78.87816,446.81152
"258",78.42405,446.8247
"259",77.94797,446.8379
"260",77.471886,446.85107
"261",77.01289,446.86426
"262",76.58076,446.87744
"263",76.18036,446.89062
"264",75.809265,446.9038
"265",75.46014,446.917
"266",75.13298,446.93018
"267",74.84245,446.94336
"268",74.598305,446.95654
"269",74.407875,446.96973
"270",74.27604,446.9829
"271",74.195465,446.9961
"272",74.15152,447.00928
"273",74.127106,447.02246
"274",74.124664,447.03564
"275",74.13199,447.04883
"276",74.14908,447.062
"277",74.175934,447.0752
"278",74.20035,447.08838
"279",74.212555,447.10156
"280",74.19791,447.11475
"281",74.144196,447.12793
"282",74.04898,447.1411
"283",73.94644,447.1543
"284",73.96597,447.16748
"285",74.33463,447.18066
"286",75.31121,447.19385
"287",77.02754,447.20703
"288",79.40795,447.2202
"289",82.19119,447.2334
"290",84.98421,447.24658
"291",87.38659,447.25977
"292",89.13466,447.27295
"293",90.15518,447.28613
"294",90.51652,447.29932
"295",90.34074,447.3125
"296",89.77432,447.32568
"297",88.96376,447.33887
"298",88.05554,447.35205
"299",87.1693,447.36523
"300",86.38804,447.37842
"301",85.748375,447.3916
"302",85.240555,447.4048
"303",84.808426,447.41797
"304",84.3885,447.43115
"305",83.931946,447.44434
"306",83.41192,447.45752
"307",82.84306,447.4707
"308",82.266884,447.4839
"309",81.74197,447.49707
"310",81.307396,447.51025
"311",80.98268,447.52344
"312",80.762955,447.53662
"313",80.61646,447.5498
"314",80.49683,447.563
"315",80.360115,447.57617
"316",80.15991,447.58936
"317",79.87915,447.60254
"318",79.51049,447.61572
"319",79.06859,447.6289
"320",78.57053,447.6421
"321",78.03342,447.65527
"322",77.47921,447.66846
"323",76.93477,447.68164
"324",76.419624,447.69482
"325",75.95819,447.708
"326",75.560234,447.7212
"327",75.23064,447.73438
"328",74.96208,447.74756
"329",74.74723,447.76074
"330",74.57633,447.77393
"331",74.45182,447.7871
"332",74.371254,447.8003
"333",74.32975,447.81348
"334",74.31754,447.82666
"335",74.32487,447.83984
"336",74.337074,447.85303
"337",74.356606,447.8662
"338",74.36881,447.8794
"339",74.373695,447.89258
"340",74.36637,447.90576
"341",74.339516,447.91895
"342",74.285805,447.93213
"343",74.195465,447.9453
"344",74.06851,447.9585
"345",73.93912,447.97168
"346",73.93912,447.98486
"347",74.319984,447.99805
"348",75.372246,448.01123
"349",77.239944,448.0244
"350",79.84009,448.0376
"351",82.879684,448.05078
"352",85.91684,448.06396
"353",88.51209,448.07715
"354",90.374916,448.09033
"355",91.441826,448.10352
"356",91.810486,448.1167
"357",91.62005,448.12988
"358",91.02434,448.14307
"359",90.179596,448.15625
"360",89.22499,448.16943
"361",88.28016,448.18262
"362",87.430534,448.1958
"363",86.72007,448.20898
"364",86.14145,448.22217
"365",85.645836,448.23535
"366",85.15999,448.24854
"367",84.63264,448.26172
"368",84.03204,448.2749
"369",83.36553,448.2881
"370",82.684364,448.30127
"371",82.04227,448.31445
"372",81.48318,448.32764
"373",81.02663,448.34082
"374",80.67506,448.354
"375",80.4065,448.3672
"376",80.18677,448.38037
"377",79.96704,448.39355
"378",79.71801,448.40674
"379",79.40307,448.41992
"380",79.009995,448.4331
"381",78.54368,448.4463
"382",78.01877,448.45947
"383",77.454796,448.47266
"384",76.86641,448.48584
"385",76.280464,448.49902
"386",75.7116,448.5122
"387",75.17204,448.5254
"388",74.67887,448.53857
"389",74.23941,448.55176
"390",73.85367,448.56494
"391",73.52407,448.57812
"392",73.25063,448.5913
"393",73.03334,448.6045
"394",72.87465,448.61768
"395",72.764786,448.63086
"396",72.69398,448.64404
"397",72.66224,448.65723
"398",72.65736,448.6704
"399",72.68177,448.6836
"400",72.7306,448.69678
"401",72.796524,448.70996
"402",72.86488,448.72314
"403",72.91615,448.73633
"404",72.9308,448.7495
"405",72.90639,448.7627
"406",72.87953,448.77588
"407",72.97719,448.78906
"408",73.46792,448.80225
"409",74.6569,448.81543
"410",76.70771,448.8286
"411",79.52758,448.8418
"412",82.791794,448.85498
"413",86.01938,448.86816
"414",88.72694,448.88135
"415",90.60441,448.89453
"416",91.60784,448.9077
"417",91.86664,448.9209
"418",91.54925,448.93408
"419",90.81926,448.94727
"420",89.82315,448.96045
"421",88.69276,448.97363
"422",87.535515,448.98682
"423",86.451515,449
"424",85.487144,449.01318
"425",84.65705,449.02637
"426",83.93439,449.03955
"427",83.28008,449.05273
"428",82.66483,449.06592
"429",82.08621,449.0791
"430",81.56374,449.0923
"431",81.13893,449.10547
"432",80.850845,449.11865
"433",80.706795,449.13184
"434",80.68482,449.14502
"435",80.740974,449.1582
"436",80.816666,449.1714
"437",80.850845,449.18457
"438",80.79225,449.19775
"439",80.61158,449.21094
"440",80.29908,449.22412
"441",79.8645,449.2373
"442",79.327385,449.2505
"443",78.70481,449.26367
"444",78.02365,449.27686
"445",77.313194,449.29004
"446",76.595406,449.30322
"447",75.90204,449.3164
"448",75.25994,449.3296
"449",74.686195,449.34277
"450",74.20279,449.35596
"451",73.82193,449.36914
"452",73.548485,449.38232
"453",73.38735,449.3955
"454",73.33364,449.4087
"455",73.358055,449.42188
"456",73.43618,449.43506
"457",73.53628,449.44824
"458",73.62905,449.46143
"459",73.69497,449.4746
"460",73.763336,449.4878
"461",73.970856,449.50098
"462",74.57389,449.51416
"463",75.85077,449.52734
"464",77.925995,449.54053
"465",80.68726,449.5537
"466",83.80499,449.5669
"467",86.81529,449.58008
"468",89.28359,449.59326
"469",90.951096,449.60645
"470",91.790955,449.61963
"471",91.932556,449.6328
"472",91.5346,449.646
"473",90.74357,449.65918
"474",89.69863,449.67236
"475",88.516975,449.68555
"476",87.30602,449.69873
"477",86.14877,449.7119
"478",85.103836,449.7251
"479",84.173645,449.73828
"480",83.346,449.75146
"481",82.58427,449.76465
"482",81.87625,449.77783
"483",81.234146,449.79102
"484",80.69459,449.8042
"485",80.31129,449.81738
"486",80.11597,449.83057
"487",80.10864,449.84375
"488",80.23804,449.85693
"489",80.44068,449.87012
"490",80.62867,449.8833
"491",80.723885,449.89648
"492",80.67017,449.90967
"493",80.445564,449.92285
"494",80.042725,449.93604
"495",79.48852,449.94922
"496",78.81712,449.9624
"497",78.05783,449.9756
"498",77.25216,449.98877
"499",76.43427,450.00195
"500",75.64568,450.01514
"501",74.92302,450.02832
"502",74.29557,450.0415
"503",73.78287,450.0547
"504",73.39468,450.06787
"505",73.126114,450.08105
"506",72.9601,450.09424
"507",72.87953,450.10742
"508",72.86,450.1206
"509",72.87709,450.1338
"510",72.92836,450.14697
"511",73.040665,450.16016
"512",73.35561,450.17334
"513",74.12222,450.18652
"514",75.60174,450.1997
"515",77.88937,450.2129
"516",80.833755,450.22607
"517",84.07843,450.23926
"518",87.16197,450.25244
"519",89.652245,450.26562
"520",91.317314,450.2788
"521",92.157166,450.292
"522",92.31098,450.30518
"523",91.949646,450.31836
"524",91.21721,450.33154
"525",90.247955,450.34473
"526",89.161514,450.3579
"527",88.06531,450.3711
"528",87.03502,450.38428
"529",86.11459,450.39746
"530",85.29916,450.41064
"531",84.54719,450.42383
"532",83.81232,450.437
"533",83.06035,450.4502
"534",82.29862,450.46338
"535",81.57595,450.47656
"536",80.96315,450.48975
"537",80.52613,450.50293
"538",80.289314,450.5161
"539",80.24292,450.5293
"540",80.323494,450.54248
"541",80.445564,450.55566
"542",80.52857,450.56885
"543",80.499275,450.58203
"544",80.31861,450.5952
"545",79.96948,450.6084
"546",79.46899,450.62158
"547",78.839096,450.63477
"548",78.116425,450.64795
"549",77.33761,450.66113
"550",76.53925,450.67432
"551",75.755554,450.6875
"552",75.028,450.70068
"553",74.38834,450.71387
"554",73.85367,450.72705
"555",73.4313,450.74023
"556",73.12367,450.75342
"557",72.90639,450.7666
"558",72.75258,450.7798
"559",72.64027,450.79297
"560",72.56458,450.80615
"561",72.57191,450.81934
"562",72.816055,450.83252
"563",73.55581,450.8457
"564",75.04265,450.8589
"565",77.34005,450.87207
"566",80.27711,450.88525
"567",83.492485,450.89844
"568",86.5272,450.91162
"569",88.973526,450.9248
"570",90.6215,450.938
"571",91.490654,450.95117
"572",91.71526,450.96436
"573",91.44671,450.97754
"574",90.83635,450.99072
"575",90.023346,451.0039
"576",89.12245,451.0171
"577",88.24353,451.03027
"578",87.4403,451.04346
"579",86.74204,451.05664
"580",86.1268,451.06982
"581",85.538414,451.083
"582",84.910965,451.0962
"583",84.19562,451.10938
"584",83.38506,451.12256
"585",82.511024,451.13574
"586",81.64431,451.14893
"587",80.86061,451.1621
"588",80.22827,451.1753
"589",79.77905,451.18848
"590",79.50317,451.20166
"591",79.35668,451.21484
"592",79.273674,451.22803
"593",79.17357,451.2412
"594",78.98802,451.2544
"595",78.6804,451.26758
"596",78.238495,451.28076
"597",77.67208,451.29395
"598",77.00557,451.30713
"599",76.2707,451.3203
"600",75.50408,451.3335
"601",74.73014,451.34668
"602",73.99039,451.35986
"603",73.30923,451.37305
"604",72.71351,451.38623
"605",72.22522,451.3994
"606",71.84924,451.4126
"607",71.59289,451.42578
"608",71.44396,451.43896
"609",71.380486,451.45215
"610",71.378044,451.46533
"611",71.40246,451.47852
"612",71.42687,451.4917
"613",71.44396,451.50488
"614",71.48791,451.51807
"615",71.724724,451.53125
"616",72.44251,451.54443
"617",73.92935,451.55762
"618",76.28535,451.5708
"619",79.35424,451.58398
"620",82.77226,451.59717
"621",86.04379,451.61035
"622",88.72938,451.62354
"623",90.58732,451.63672
"624",91.629814,451.6499
"625",91.998474,451.6631
"626",91.861755,451.67627
"627",91.37835,451.68945
"628",90.69474,451.70264
"629",89.93057,451.71582
"630",89.18593,451.729
"631",88.51209,451.7422
"632",87.92859,451.75537
"633",87.415886,451.76855
"634",86.91539,451.78174
"635",86.3563,451.79492
"636",85.680016,451.8081
"637",84.857254,451.8213
"638",83.90753,451.83447
"639",82.89189,451.84766
"640",81.900665,451.86084
"641",81.02663,451.87402
"642",80.323494,451.8872
"643",79.815674,451.9004
"644",79.47387,451.91357
"645",79.234604,451.92676
"646",79.03197,451.93994
"647",78.79759,451.95312
"648",78.47776,451.9663
"649",78.04562,451.9795
"650",77.503624,451.99268
"651",76.86397,452.00586
"652",76.155945,452.01904
"653",75.41131,452.03223
"654",74.66422,452.0454
"655",73.951324,452.0586
"656",73.29702,452.07178
"657",72.72083,452.08496
"658",72.23987,452.09814
"659",71.85901,452.11133
"660",71.58068,452.1245
"661",71.380486,452.1377
"662",71.25353,452.15088
"663",71.1754,452.16406
"664",71.131454,452.17725
"665",71.1046,452.19043
"666",71.09239,452.2036
"667",71.08507,452.2168
"668",71.080185,452.22998
"669",71.0753,452.24316
"670",71.07042,452.25635
"671",71.06554,452.26953
"672",71.05577,452.2827
"673",71.046005,452.2959
"674",71.03136,452.30908
"675",71.01915,452.32227
"676",71.01671,452.33545
"677",71.02403,452.34863
"678",71.03624,452.36182
"679",71.046005,452.375
"680",71.043564,452.38818
"681",71.03624,452.40137
"682",71.1046,452.41455
"683",71.49523,452.42773
"684",72.61585,452.44092
"685",74.80095,452.4541
"686",78.08957,452.4673
"687",82.18143,452.48047
"688",86.51499,452.49365
"689",90.43595,452.50684
"690",93.42916,452.52002
"691",95.29931,452.5332
"692",96.16846,452.5464
"693",96.28077,452.55957
"694",95.86084,452.57275
"695",95.0869,452.58594
"696",94.117645,452.59912
"697",93.09468,452.6123
"698",92.12543,452.6255
"699",91.27825,452.63867
"700",90.57511,452.65186
"701",89.9794,452.66504
"702",89.42519,452.67822
"703",88.8246,452.6914
"704",88.11902,452.7046
"705",87.276726,452.71777
"706",86.32212,452.73096
"707",85.316246,452.74414
"708",84.33967,452.75732
"709",83.47051,452.7705
"710",82.757614,452.7837
"711",82.21805,452.79688
"712",81.82254,452.81006
"713",81.5198,452.82324
"714",81.24391,452.83643
"715",80.93385,452.8496
"716",80.54322,452.8628
"717",80.04761,452.87598
"718",79.447014,452.88916
"719",78.75853,452.90234
"720",78.00656,452.91553
"721",77.22041,452.9287
"722",76.43427,452.9419
"723",75.68719,452.95508
"724",75.001144,452.96826
"725",74.39811,452.98145
"726",73.89517,452.99463
"727",73.48989,453.0078
"728",73.17738,453.021
"729",72.95033,453.03418
"730",72.78676,453.04736
"731",72.66956,453.06055
"732",72.586555,453.07373
"733",72.52064,453.0869
"734",72.46204,453.1001
"735",72.40345,453.11328
"736",72.3473,453.12646
"737",72.291145,453.13965
"738",72.23987,453.15283
"739",72.18616,453.16602
"740",72.130005,453.1792
"741",72.07141,453.19238
"742",72.010376,453.20557
"743",71.95422,453.21875
"744",71.902954,453.23193
"745",71.85901,453.24512
"746",71.82727,453.2583
"747",71.79797,453.27148
"748",71.77112,453.28467
"749",71.73449,453.29785
"750",71.6881,453.31104
"751",71.641716,453.32422
"752",71.66369,453.3374
"753",71.97864,453.3506
"754",72.98207,453.36377
"755",75.028,453.37695
"756",78.19699,453.39014
"757",82.21561,453.40332
"758",86.539406,453.4165
"759",90.52384,453.4297
"760",93.62203,453.44287
"761",95.59472,453.45605
"762",96.54444,453.46924
"763",96.708015,453.48242
"764",96.307625,453.4956
"765",95.5288,453.5088
"766",94.52537,453.52197
"767",93.436485,453.53516
"768",92.37934,453.54834
"769",91.439384,453.56152
"770",90.65324,453.5747
"771",89.99893,453.5879
"772",89.41787,453.60107
"773",88.82704,453.61426
"774",88.15076,453.62744
"775",87.34997,453.64062
"776",86.434425,453.6538
"777",85.45541,453.667
"778",84.49348,453.68018
"779",83.62676,453.69336
"780",82.9041,453.70654
"781",82.354774,453.71973
"782",81.9617,453.7329
"783",81.67605,453.7461
"784",81.43679,453.75928
"785",81.17555,453.77246
"786",80.84108,453.78564
"787",80.396736,453.79883
"788",79.84009,453.812
"789",79.18089,453.8252
"790",78.44358,453.83838
"791",77.65743,453.85156
"792",76.859085,453.86475
"793",76.07538,453.87793
"794",75.338066,453.8911
"795",74.669106,453.9043
"796",74.0856,453.91748
"797",73.59487,453.93066
"798",73.199356,453.94385
"799",72.8893,453.95703
"800",72.64759,453.9702
"801",72.4596,453.9834
"802",72.31312,453.99658
"803",72.200806,454.00977
"804",72.11047,454.02295
"805",72.042114,454.03613
"806",71.98352,454.04932
"807",71.93713,454.0625
"808",71.89319,454.07568
"809",71.84924,454.08887
"810",71.80286,454.10205
"811",71.75647,454.11523
"812",71.70519,454.12842
"813",71.64904,454.1416
"814",71.59533,454.1548
"815",71.54162,454.16797
"816",71.500114,454.18115
"817",71.468376,454.19434
"818",71.45129,454.20752
"819",71.43664,454.2207
"820",71.42687,454.2339
"821",71.40734,454.24707
"822",71.38781,454.26025
"823",71.412224,454.27344
"824",71.65392,454.28662
"825",72.47181,454.2998
"826",74.28092,454.313
"827",77.26681,454.32617
"828",81.26345,454.33936
"829",85.77768,454.35254
"830",90.142975,454.36572
"831",93.73434,454.3789
"832",96.18799,454.3921
"833",97.50149,454.40527
"834",97.901886,454.41846
"835",97.64553,454.43164
"836",96.92775,454.44482
"837",95.91455,454.458
"838",94.75975,454.4712
"839",93.590294,454.48438
"840",92.50385,454.49756
"841",91.561455,454.51074
"842",90.77287,454.52393
"843",90.10147,454.5371
"844",89.47158,454.5503
"845",88.80263,454.56348
"846",88.03845,454.57666
"847",87.15465,454.58984
"848",86.18295,454.60303
"849",85.189285,454.6162
"850",84.24933,454.6294
"851",83.43145,454.64258
"852",82.78447,454.65576
"853",82.30839,454.66895
"854",81.96658,454.68213
"855",81.71023,454.6953
"856",81.46609,454.7085
"857",81.17067,454.72168
"858",80.782486,454.73486
"859",80.28443,454.74805
"860",79.67895,454.76123
"861",78.9807,454.7744
"862",78.21896,454.7876
"863",77.4255,454.80078
"864",76.629585,454.81396
"865",75.860535,454.82715
"866",75.142746,454.84033
"867",74.49821,454.85352
"868",73.936676,454.8667
"869",73.47036,454.87988
"870",73.091934,454.89307
"871",72.80141,454.90625
"872",72.57923,454.91943
"873",72.4181,454.93262
"874",72.30091,454.9458
"875",72.21057,454.95898
"876",72.13489,454.97217
"877",72.06897,454.98535
"878",72.00305,454.99854
"879",71.94202,455.01172
"880",71.88098,455.0249
"881",71.817505,455.0381
"882",71.744255,455.05127
"883",71.65392,455.06445
"884",71.551384,455.07764
"885",71.4342,455.09082
"886",71.3048,455.104
"887",71.17296,455.1172
"888",71.05333,455.13037
"889",70.95323,455.14355
"890",70.87755,455.15674
"891",70.836044,455.16992
"892",70.82628,455.1831
"893",70.836044,455.1963
"894",70.86778,455.20947
"895",70.97276,455.22266
"896",71.35363,455.23584
"897",72.40589,455.24902
"898",74.5568,455.2622
"899",77.95285,455.2754
"900",82.357216,455.28857
"901",87.20592,455.30176
"902",91.773865,455.31494
"903",95.41161,455.32812
"904",97.79202,455.3413
"905",98.97368,455.3545
"906",99.23247,455.36768
"907",98.8394,455.38086
"908",97.99954,455.39404
"909",96.88136,455.40723
"910",95.63378,455.4204
"911",94.381325,455.4336
"912",93.224075,455.44678
"913",92.21576,455.45996
"914",91.36614,455.47314
"915",90.633705,455.48633
"916",89.94522,455.4995
"917",89.215225,455.5127
"918",88.377815,455.52588
"919",87.413445,455.53906
"920",86.348976,455.55225
"921",85.25033,455.56543
"922",84.19562,455.5786
"923",83.267876,455.5918
"924",82.511024,455.60498
"925",81.934845,455.61816
"926",81.512474,455.63135
"927",81.19264,455.64453
"928",80.89967,455.6577
"929",80.57252,455.6709
"930",80.15747,455.68408
"931",79.63012,455.69727
"932",78.98558,455.71045
"933",78.238495,455.72363
"934",77.418175,455.73682
"935",76.55634,455.75
"936",75.68963,455.76318
"937",74.85222,455.77637
"938",74.06851,455.78955
"939",73.358055,455.80273
"940",72.73548,455.81592
"941",72.20813,455.8291
"942",71.783325,455.8423
"943",71.45617,455.85547
"944",71.21446,455.86865
"945",71.043564,455.88184
"946",70.923935,455.89502
"947",70.84093,455.9082
"948",70.784775,455.9214
"949",70.748146,455.93457
"950",70.72617,455.94775
"951",70.71641,455.96094
"952",70.711525,455.97412
"953",70.70664,455.9873
"954",70.7042,456.0005
"955",70.69932,456.01367
"956",70.694435,456.02686
"957",70.68467,456.04004
"958",70.67979,456.05322
"959",70.674904,456.0664
"960",70.67979,456.0796
"961",70.70176,456.09277
"962",70.745705,456.10596
"963",70.804306,456.11914
"964",70.872665,456.13232
"965",70.93858,456.1455
"966",71.01427,456.1587
"967",71.2047,456.17188
"968",71.81018,456.18506
"969",73.289696,456.19824
"970",76.00702,456.21143
"971",79.971924,456.2246
"972",84.78645,456.2378
"973",89.76456,456.25098
"974",94.151825,456.26416
"975",97.37942,456.27734
"976",99.2691,456.29053
"977",99.99664,456.3037
"978",99.8819,456.3169
"979",99.18364,456.33008
"980",98.092316,456.34326
"981",96.76662,456.35645
"982",95.3579,456.36963
"983",93.98093,456.3828
"984",92.72602,456.396
"985",91.63958,456.40918
"986",90.71671,456.42236
"987",89.90616,456.43555
"988",89.12245,456.44873
"989",88.292366,456.4619
"990",87.36462,456.4751
"991",86.346535,456.48828
"992",85.27474,456.50146
"993",84.22003,456.51465
"994",83.26299,456.52783
"995",82.46464,456.54102
"996",81.84451,456.5542
"997",81.392845,456.56738
"998",81.07301,456.58057
"999",80.814224,456.59375
"1000",80.54322,456.60693
"1001",80.198975,456.62012
"1002",79.742424,456.6333
"1003",79.15404,456.64648
"1004",78.44358,456.65967
"1005",77.6379,456.67285
"1006",76.76875,456.68604
"1007",75.87518,456.69922
"1008",74.98894,456.7124
"1009",74.141754,456.7256
"1010",73.35561,456.73877
"1011",72.65003,456.75195
"1012",72.042114,456.76514
"1013",71.52941,456.77832
"1014",71.12169,456.7915
"1015",70.804306,456.8047
"1016",70.572365,456.81787
"1017",70.41123,456.83105
"1018",70.311134,456.84424
"1019",70.259865,456.85742
"1020",70.24521,456.8706
"1021",70.26231,456.8838
"1022",70.296486,456.89697
"1023",70.33799,456.91016
"1024",70.381935,456.92334
"1025",70.42588,456.93652
"1026",70.4625,456.9497
"1027",70.49668,456.9629
"1028",70.52842,456.97607
"1029",70.55772,456.98926
"1030",70.59434,457.00244
"1031",70.640724,457.01562
"1032",70.69688,457.0288
"1033",70.75548,457.042
"1034",70.81163,457.05518
"1035",70.85069,457.06836
"1036",70.91661,457.08154
"1037",71.17784,457.09473
"1038",72.010376,457.1079
"1039",73.9147,457.1211
"1040",77.19844,457.13428
"1041",81.7322,457.14746
"1042",86.96422,457.16064
"1043",92.10101,457.17383
"1044",96.34913,457.187
"1045",99.20561,457.2002
"1046",100.61921,457.21338
"1047",100.88045,457.22656
"1048",100.34821,457.23975
"1049",99.29595,457.25293
"1050",97.918976,457.2661
"1051",96.375984,457.2793
"1052",94.80614,457.29248
"1053",93.31686,457.30566
"1054",91.98627,457.31885
"1055",90.83879,457.33203
"1056",89.85977,457.3452
"1057",88.97841,457.3584
"1058",88.11902,457.37158
"1059",87.2108,457.38477
"1060",86.22934,457.39795
"1061",85.19173,457.41113
"1062",84.16388,457.42432
"1063",83.2166,457.4375
"1064",82.41825,457.45068
"1065",81.80789,457.46387
"1066",81.38064,457.47705
"1067",81.0901,457.49023
"1068",80.87038,457.50342
"1069",80.64088,457.5166
"1070",80.33814,457.5298
"1071",79.920654,457.54297
"1072",79.37377,457.55615
"1073",78.70481,457.56934
"1074",77.94064,457.58252
"1075",77.11055,457.5957
"1076",76.25605,457.6089
"1077",75.406425,457.62207
"1078",74.59098,457.63525
"1079",73.831696,457.64844
"1080",73.14076,457.66162
"1081",72.52796,457.6748
"1082",71.99817,457.688
"1083",71.56115,457.70117
"1084",71.20958,457.71436
"1085",70.93858,457.72754
"1086",70.73838,457.74072
"1087",70.59922,457.7539
"1088",70.504005,457.7671
"1089",70.44785,457.78027
"1090",70.421,457.79346
"1091",70.42344,457.80664
"1092",70.44541,457.81982
"1093",70.48203,457.833
"1094",70.53086,457.8462
"1095",70.58701,457.85938
"1096",70.65293,457.87256
"1097",70.72373,457.88574
"1098",70.79698,457.89893
"1099",70.87511,457.9121
"1100",70.94347,457.9253
"1101",70.992294,457.93848
"1102",71.02159,457.95166
"1103",71.08507,457.96484
"1104",71.378044,457.97803
"1105",72.31068,457.9912
"1106",74.36637,458.0044
"1107",77.7966,458.01758
"1108",82.41825,458.03076
"1109",87.63561,458.04395
"1110",92.63325,458.05713
"1111",96.64942,458.0703
"1112",99.23735,458.0835
"1113",100.39948,458.09668
"1114",99.74761,458.12305
"1115",98.54887,458.13623
"1116",97.04494,458.1494
"1117",95.39208,458.1626
"1118",93.71969,458.17578
"1119",92.140076,458.18896
"1120",90.72648,458.20215
"1121",89.5082,458.21533
"1122",88.45594,458.22852
"1123",87.50866,458.2417
"1124",86.590675,458.25488
"1125",85.65804,458.26807
"1126",84.70588,458.28125
"1127",83.76837,458.29443
"1128",82.9041,458.30762
"1129",82.178986,458.3208
"1130",81.62966,458.33398
"1131",81.26101,458.34717
"1132",81.02907,458.36035
"1133",80.88258,458.37354
"1134",80.740974,458.38672
"1135",80.52857,458.3999
"1136",80.19653,458.4131
"1137",79.71313,458.42627
"1138",79.09056,458.43945
"1139",78.348366,458.45264
"1140",77.51583,458.46582
"1141",76.627144,458.479
"1142",75.72625,458.4922
"1143",74.83269,458.50537
"1144",73.98306,458.51855
"1145",73.199356,458.53174
"1146",72.50355,458.54492
"1147",71.89807,458.5581
"1148",71.397575,458.5713
"1149",70.994736,458.58447
"1150",70.68955,458.59766
"1151",70.467384,458.61084
"1152",70.31846,458.62402
"1153",70.23056,458.6372
"1154",70.19638,458.6504
"1155",70.20615,458.66357
"1156",70.25498,458.67676
"1157",70.330666,458.68994
"1158",70.433205,458.70312
"1159",70.55283,458.7163
"1160",70.68711,458.7295
"1161",70.836044,458.74268
"1162",70.98985,458.75586
"1163",71.13878,458.76904
"1164",71.27062,458.78223
"1165",71.378044,458.7954
"1166",71.519646,458.8086
"1167",71.87854,458.82178
"1168",72.85512,458.83496
"1169",74.90837,458.84814
"1170",78.28245,458.86133
"1171",82.79668,458.8745
"1172",87.87244,458.8877
"1173",92.71381,458.90088
"1174",96.57862,458.91406
"1175",99.02495,458.92725
"1176",100.065,458.94043
"1177",99.999084,458.9536
"1178",99.18608,458.9668
"1179",97.897,458.97998
"1180",96.324715,458.99316
"1181",94.6157,459.00635
"1182",92.90425,459.01953
"1183",91.302666,459.0327
"1184",89.884186,459.0459
"1185",88.67567,459.05908
"1186",87.640495,459.07227
"1187",86.710304,459.08545
"1188",85.821625,459.09863
"1189",84.93294,459.11182
"1190",84.04669,459.125
"1191",83.21416,459.13818
"1192",82.493935,459.15137
"1193",81.934845,459.16455
"1194",81.549095,459.17773
"1195",81.30984,459.19092
"1196",81.16579,459.2041
"1197",81.0486,459.2173
"1198",80.885025,459.23047
"1199",80.621346,459.24365
"1200",80.22339,459.25684
"1201",79.68871,459.27002
"1202",79.027084,459.2832
"1203",78.25803,459.2964
"1204",77.418175,459.30957
"1205",76.53925,459.32275
"1206",75.65301,459.33594
"1207",74.79607,459.34912
"1208",73.99527,459.3623
"1209",73.270164,459.3755
"1210",72.62806,459.38867
"1211",72.07385,459.40186
"1212",71.61242,459.41504
"1213",71.23399,459.42822
"1214",70.93858,459.4414
"1215",70.72129,459.4546
"1216",70.57725,459.46777
"1217",70.49668,459.48096
"1218",70.47227,459.49414
"1219",70.49912,459.50732
"1220",70.572365,459.5205
"1221",70.68467,459.5337
"1222",70.82384,459.54688
"1223",70.97276,459.56006
"1224",71.116806,459.57324
"1225",71.23399,459.58643
"1226",71.33898,459.5996
"1227",71.54406,459.6128
"1228",72.12756,459.62598
"1229",73.51675,459.63916
"1230",76.06561,459.65234
"1231",79.801025,459.66553
"1232",84.351875,459.6787
"1233",89.05653,459.6919
"1234",93.17769,459.70508
"1235",96.15137,459.71826
"1236",97.78714,459.73145
"1237",98.246124,459.74463
"1238",97.84573,459.7578
"1239",96.87404,459.771
"1240",95.536125,459.78418
"1241",93.99802,459.79736
"1242",92.39399,459.81055
"1243",90.84123,459.82373
"1244",89.42519,459.8369
"1245",88.182495,459.8501
"1246",87.09117,459.86328
"1247",86.10727,459.87646
"1248",85.172195,459.88965
"1249",84.25178,459.90283
"1250",83.34112,459.91602
"1251",82.48417,459.9292
"1252",81.72976,459.94238
"1253",81.129166,459.95557
"1254",80.69459,459.96875
"1255",80.411385,459.98193
"1256",80.23071,459.99512
"1257",80.08667,460.0083
"1258",79.90845,460.02148
"1259",79.639885,460.03467
"1260",79.24437,460.04785
"1261",78.709694,460.06104
"1262",78.0383,460.07422
"1263",77.25948,460.0874
"1264",76.402534,460.1006
"1265",75.50652,460.11377
"1266",74.60319,460.12695
"1267",73.71694,460.14014
"1268",72.87465,460.15332
"1269",72.09827,460.1665
"1270",71.40246,460.1797
"1271",70.79454,460.19287
"1272",70.28672,460.20605
"1273",69.891205,460.21924
"1274",69.59823,460.23242
"1275",69.41024,460.2456
"1276",69.31747,460.2588
"1277",69.3077,460.27197
"1278",69.36385,460.28516
"1279",69.4786,460.29834
"1280",69.62997,460.31152
"1281",69.8082,460.3247
"1282",69.98642,460.3379
"1283",70.149994,460.35107
"1284",70.294044,460.36426
"1285",70.48203,460.37744
"1286",70.91173,460.39062
"1287",71.94446,460.4038
"1288",73.985504,460.417
"1289",77.22041,460.43018
"1290",81.45388,460.44336
"1291",86.14145,460.45654
"1292",90.57023,460.46973
"1293",94.07614,460.4829
"1294",96.29298,460.4961
"1295",97.22804,460.50928
"1296",97.145035,460.52246
"1297",96.358894,460.53564
"1298",95.10399,460.54883
"1299",93.57076,460.562
"1300",91.90326,460.5752
"1301",90.22598,460.58838
"1302",88.64149,460.60156
"1303",87.20836,460.61475
"1304",85.93637,460.62793
"1305",84.79378,460.6411
"1306",83.75372,460.6543
"1307",82.791794,460.66748
"1308",81.9202,460.68066
"1309",81.18288,460.69385
"1310",80.63355,460.70703
"1311",80.291756,460.7202
"1312",80.15259,460.7334
"1313",80.17456,460.74658
"1314",80.28443,460.75977
"1315",80.396736,460.77295
"1316",80.43824,460.78613
"1317",80.34547,460.79932
"1318",80.079346,460.8125
"1319",79.639885,460.82568
"1320",79.04173,460.83887
"1321",78.31663,460.85205
"1322",77.50851,460.86523
"1323",76.65644,460.87842
"1324",75.78485,460.8916
"1325",74.93034,460.9048
"1326",74.11734,460.91797
"1327",73.36538,460.93115
"1328",72.68421,460.94434
"1329",72.09827,460.95752
"1330",71.61242,460.9707
"1331",71.23399,460.9839
"1332",70.95567,460.99707
"1333",70.76524,461.01025
"1334",70.643166,461.02344
"1335",70.56992,461.03662
"1336",70.52354,461.0498
"1337",70.51133,461.063
"1338",70.6041,461.07617
"1339",71.01671,461.08936
"1340",72.10315,461.10254
"1341",74.21011,461.11572
"1342",77.44015,461.1289
"1343",81.53445,461.1421
"1344",85.93637,461.15527
"1345",89.96719,461.16846
"1346",93.04341,461.18164
"1347",94.88182,461.19482
"1348",95.55077,461.208
"1349",95.3164,461.2212
"1350",94.45457,461.23438
"1351",93.18257,461.24756
"1352",91.66888,461.26074
"1353",90.03555,461.27393
"1354",88.39735,461.2871
"1355",86.83238,461.3003
"1356",85.384605,461.31348
"1357",84.0589,461.32666
"1358",82.85283,461.33984
"1359",81.76639,461.35303
"1360",80.82887,461.3662
"1361",80.076904,461.3794
"1362",79.55932,461.39258
"1363",79.30541,461.40576
"1364",79.30785,461.41895
"1365",79.51049,461.43213
"1366",79.823,461.4453
"1367",80.14038,461.4585
"1368",80.36744,461.47168
"1369",80.428474,461.48486
"1370",80.274666,461.49805
"1371",79.90845,461.51123
"1372",79.35424,461.5244
"1373",77.855194,461.55078
"1374",77.00069,461.56396
"1375",76.12421,461.57715
"1376",75.2575,461.59033
"1377",74.42741,461.60352
"1378",73.66567,461.6167
"1379",72.989395,461.62988
"1380",72.410774,461.64307
"1381",71.93469,461.65625
"1382",71.55871,461.66943
"1383",71.27062,461.68262
"1384",71.05333,461.6958
"1385",70.8922,461.70898
"1386",70.81163,461.72217
"1387",70.92149,461.73535
"1388",71.502556,461.74854
"1389",72.921036,461.76172
"1390",75.44549,461.7749
"1391",79.0222,461.7881
"1392",83.26055,461.80127
"1393",87.535515,461.81445
"1394",91.192795,461.82764
"1395",93.76608,461.84082
"1396",95.13817,461.854
"1397",95.47997,461.8672
"1398",95.07225,461.88037
"1399",94.16159,461.89355
"1400",92.93599,461.90674
"1401",91.54681,461.91992
"1402",90.121,461.9331
"1403",88.75136,461.9463
"1404",87.50622,461.95947
"1405",86.39536,461.97266
"1406",85.38949,461.98584
"1407",84.44709,461.99902
"1408",83.53155,462.0122
"1409",82.64286,462.0254
"1410",81.81766,462.03857
"1411",81.112076,462.05176
"1412",80.57984,462.06494
"1413",80.2478,462.07812
"1414",80.1062,462.0913
"1415",80.09888,462.1045
"1416",80.15015,462.11768
"1417",80.177,462.13086
"1418",80.10132,462.14404
"1419",79.87915,462.15723
"1420",79.483635,462.1704
"1421",78.92943,462.1836
"1422",78.24094,462.19678
"1423",77.452354,462.20996
"1424",76.60273,462.22314
"1425",75.733574,462.23633
"1426",74.8864,462.2495
"1427",74.092926,462.2627
"1428",73.38003,462.27588
"1429",72.764786,462.28906
"1430",72.24475,462.30225
"1431",71.81262,462.31543
"1432",71.448845,462.3286
"1433",71.15343,462.3418
"1434",70.95323,462.35498
"1435",70.992294,462.36816
"1436",71.553825,462.38135
"1437",72.97475,462.39453
"1438",75.423515,462.4077
"1439",78.77806,462.4209
"1440",82.62577,462.43408
"1441",86.40269,462.44727
"1442",89.54238,462.46045
"1443",91.70794,462.47363
"1444",92.857864,462.48682
"1445",93.17769,462.5
"1446",92.90181,462.51318
"1447",92.22797,462.52637
"1448",91.32464,462.53955
"1449",90.32365,462.55273
"1450",89.32754,462.56592
"1451",88.40955,462.5791
"1452",87.59411,462.5923
"1453",86.84703,462.60547
"1454",86.10483,462.61865
"1455",85.30648,462.63184
"1456",84.41047,462.64502
"1457",83.42657,462.6582
"1458",82.41581,462.6714
"1459",81.45144,462.68457
"1460",80.62379,462.69775
"1461",79.99634,462.71094
"1462",79.58373,462.72412
"1463",79.3518,462.7373
"1464",79.24437,462.7505
"1465",79.17113,462.76367
"1466",79.05394,462.77686
"1467",78.82201,462.79004
"1468",78.44846,462.80322
"1469",77.93332,462.8164
"1470",77.29366,462.8296
"1471",76.5539,462.84277
"1472",75.757996,462.85596
"1473",74.94743,462.86914
"1474",74.1564,462.88232
"1475",73.42153,462.8955
"1476",72.76967,462.9087
"1477",72.217896,462.92188
"1478",71.76135,462.93506
"1479",71.39025,462.94824
"1480",71.08751,462.96143
"1481",70.8629,462.9746
"1482",70.801865,462.9878
"1483",71.131454,463.00098
"1484",72.15686,463.01416
"1485",74.09537,463.02734
"1486",76.90791,463.04053
"1487",80.308846,463.0537
"1488",83.81964,463.0669
"1489",86.93004,463.08008
"1490",89.2665,463.09326
"1491",90.72648,463.10645
"1492",91.41985,463.11963
"1493",91.54192,463.1328
"1494",91.266045,463.146
"1495",90.74357,463.15918
"1496",90.08682,463.17236
"1497",89.38125,463.18555
"1498",88.68543,463.19873
"1499",88.026245,463.2119
"1500",87.396355,463.2251
"1501",86.744484,463.23828
"1502",86.014496,463.25146
"1503",85.15999,463.26465
"1504",84.16632,463.27783
"1505",83.06523,463.29102
"1506",81.93729,463.3042
"1507",80.87282,463.31738
"1508",79.9646,463.33057
"1509",79.26635,463.34375
"1510",78.78783,463.35693
"1511",78.49485,463.37012
"1512",78.32395,463.3833
"1513",78.18234,463.39648
"1514",77.994354,463.40967
"1515",77.70626,463.42285
"1516",77.29366,463.43604
"1517",76.75899,463.44922
"1518",76.11688,463.4624
"1519",75.39178,463.4756
"1520",74.62516,463.48877
"1521",73.85123,463.50195
"1522",73.111465,463.51514
"1523",72.44007,463.52832
"1524",71.868774,463.5415
"1525",71.40734,463.5547
"1526",71.05333,463.56787
"1527",70.78233,463.58105
"1528",70.56992,463.59424
"1529",70.38926,463.60742
"1530",70.233,463.6206
"1531",70.14267,463.6338
"1532",70.28428,463.64697
"1533",70.94347,463.66016
"1534",72.40101,463.67334
"1535",74.75212,463.68652
"1536",77.840546,463.6997
"1537",81.29275,463.7129
"1538",84.63264,463.72607
"1539",87.42077,463.73926
"1540",89.42519,463.75244
"1541",90.64591,463.76562
"1542",91.229416,463.7788
"1543",91.33196,463.792
"1544",91.104904,463.80518
"1545",90.67033,463.81836
"1546",90.13565,463.83154
"1547",89.57412,463.84473
"1548",89.02968,463.8579
"1549",88.49256,463.8711
"1550",87.93591,463.88428
"1551",87.30114,463.89746
"1552",86.539406,463.91064
"1553",85.61166,463.92383
"1554",84.5301,463.937
"1555",83.346,463.9502
"1556",82.144806,463.96338
"1557",81.024185,463.97656
"1558",80.06714,463.98975
"1559",79.31762,464.00293
"1560",78.77806,464.0161
"1561",78.40696,464.0293
"1562",78.14572,464.04248
"1563",77.908905,464.05566
"1564",77.63302,464.06885
"1565",77.26681,464.08203
"1566",76.79317,464.0952
"1567",76.209656,464.1084
"1568",75.53826,464.12158
"1569",74.80827,464.13477
"1570",74.056305,464.14795
"1571",73.31655,464.16113
"1572",72.61341,464.17432
"1573",71.98108,464.1875
"1574",71.4342,464.20068
"1575",70.98985,464.21387
"1576",70.63828,464.22705
"1577",70.37705,464.24023
"1578",70.18906,464.25342
"1579",70.05722,464.2666
"1580",69.962006,464.2798
"1581",69.89609,464.29297
"1582",69.8497,464.30615
"1583",69.820404,464.31934
"1584",69.803314,464.33252
"1585",69.79599,464.3457
"1586",69.79843,464.3589
"1587",69.81064,464.37207
"1588",69.82529,464.38525
"1589",69.84482,464.39844
"1590",69.87656,464.41162
"1591",69.9205,464.4248
"1592",69.979095,464.438
"1593",70.05722,464.45117
"1594",70.15732,464.46436
"1595",70.26231,464.47754
"1596",70.35752,464.49072
"1597",70.433205,464.5039
"1598",70.49424,464.5171
"1599",70.64805,464.53027
"1600",71.17052,464.54346
"1601",72.47913,464.55664
"1602",74.90105,464.56982
"1603",78.44602,464.583
"1604",82.77226,464.5962
"1605",87.28649,464.60938
"1606",91.33196,464.62256
"1607",94.41306,464.63574
"1608",96.3711,464.64893
"1609",97.355,464.6621
"1610",97.62356,464.6753
"1611",97.39895,464.68848
"1612",96.85451,464.70166
"1613",96.131836,464.71484
"1614",95.343254,464.72803
"1615",94.57664,464.7412
"1616",93.86862,464.7544
"1617",93.224075,464.76758
"1618",92.594185,464.78076
"1619",91.90814,464.79395
"1620",91.10002,464.80713
"1621",90.12344,464.8203
"1622",88.98329,464.8335
"1623",87.73571,464.84668
"1624",86.46616,464.85986
"1625",85.27474,464.87305
"1626",84.23712,464.88623
"1627",83.39971,464.8994
"1628",82.75273,464.9126
"1629",82.25712,464.92578
"1630",81.84207,464.93896
"1631",81.444115,464.95215
"1632",80.99489,464.96533
"1633",80.45777,464.97852
"1634",79.82056,464.9917
"1635",79.093,465.00488
"1636",78.28245,465.01807
"1637",77.420616,465.03125
"1638",76.53925,465.04443
"1639",75.67742,465.05762
"1640",74.86687,465.0708
"1641",74.13687,465.08398
"1642",73.50454,465.09717
"1643",72.97963,465.11035
"1644",72.55726,465.12354
"1645",72.22278,465.13672
"1646",71.96887,465.1499
"1647",71.77356,465.1631
"1648",71.62707,465.17627
"1649",71.50988,465.18945
"1650",71.40978,465.20264
"1651",71.329216,465.21582
"1652",71.2633,465.229
"1653",71.21202,465.2422
"1654",71.17052,465.25537
"1655",71.13878,465.26855
"1656",71.10948,465.28174
"1657",71.08263,465.29492
"1658",71.05333,465.3081
"1659",71.026474,465.3213
"1660",70.99962,465.33447
"1661",70.977646,465.34766
"1662",70.963,465.36084
"1663",70.96544,465.37402
"1664",70.98741,465.3872
"1665",71.028915,465.4004
"1666",71.08751,465.41357
"1667",71.15343,465.42676
"1668",71.2169,465.43994
"1669",71.27306,465.45312
"1670",71.35607,465.4663
"1671",71.622185,465.4795
"1672",72.39857,465.49268
"1673",74.092926,465.50586
"1674",76.925,465.51904
"1675",80.77516,465.53223
"1676",85.19417,465.5454
"1677",89.549706,465.5586
"1678",93.204544,465.57178
"1679",95.77539,465.58496
"1680",97.22804,465.59814
"1681",97.77249,465.61133
"1682",97.6675,465.6245
"1683",97.127945,465.6377
"1684",96.324715,465.65088
"1685",95.40185,465.66406
"1686",94.469215,465.67725
"1687",93.6025,465.69043
"1688",92.83589,465.7036
"1689",92.15228,465.7168
"1690",91.50042,465.72998
"1691",90.811935,465.74316
"1692",90.01602,465.75635
"1693",89.076065,465.76953
"1694",88.006714,465.7827
"1695",86.86168,465.7959
"1696",85.72396,465.80908
"1697",84.681465,465.82227
"1698",83.80255,465.83545
"1699",83.106735,465.84863
"1700",82.58427,465.86182
"1701",82.18875,465.875
"1702",81.85428,465.88818
"1703",81.514915,465.90137
"1704",81.11696,465.91455
"1705",80.62623,465.92773
"1706",80.03052,465.94092
"1707",79.33715,465.9541
"1708",78.57542,465.9673
"1709",77.7673,465.98047
"1710",76.93965,465.99365
"1711",76.13397,466.00684
"1712",75.37713,466.02002
"1713",74.69352,466.0332
"1714",74.10025,466.0464
"1715",73.60708,466.05957
"1716",73.20912,466.07275
"1717",72.89418,466.08594
"1718",72.654915,466.09912
"1719",72.47669,466.1123
"1720",72.34974,466.1255
"1721",72.254524,466.13867
"1722",72.17639,466.15186
"1723",72.10803,466.16504
"1724",72.042114,466.17822
"1725",71.97864,466.1914
"1726",71.9176,466.2046
"1727",71.86633,466.21777
"1728",71.81995,466.23096
"1729",71.78577,466.24414
"1730",71.75891,466.25732
"1731",71.73693,466.2705
"1732",71.724724,466.2837
"1733",71.71984,466.29688
"1734",71.71984,466.31006
"1735",71.72228,466.32324
"1736",71.71984,466.33643
"1737",71.707634,466.3496
"1738",71.69543,466.3628
"1739",71.75647,466.37598
"1740",72.12756,466.38916
"1741",73.17006,466.40234
"1742",75.18181,466.41553
"1743",78.204315,466.4287
"1744",81.9617,466.4419
"1745",85.94614,466.45508
"1746",89.566795,466.46826
"1747",92.352486,466.48145
"1748",94.12497,466.49463
"1749",94.97948,466.5078
"1750",95.12352,466.521
"1751",94.75975,466.53418
"1752",94.046844,466.54736
"1753",93.13374,466.56055
"1754",92.14984,466.57373
"1755",91.192795,466.5869
"1756",90.321205,466.6001
"1757",89.55459,466.61328
"1758",88.87099,466.62646
"1759",88.216675,466.63965
"1760",87.53063,466.65283
"1761",86.766464,466.66602
"1762",85.90219,466.6792
"1763",84.96956,466.69238
"1764",84.017395,466.70557
"1765",83.123825,466.71875
"1766",82.354774,466.73193
"1767",81.75662,466.74512
"1768",81.339134,466.7583
"1769",81.06813,466.77148
"1770",80.88747,466.78467
"1771",80.73609,466.79785
"1772",80.54078,466.81104
"1773",80.25269,466.82422
"1774",79.852295,466.8374
"1775",79.344475,466.8506
"1776",78.73899,466.86377
"1777",78.07248,466.87695
"1778",77.37179,466.89014
"1779",76.67597,466.90332
"1780",76.00702,466.9165
"1781",75.39666,466.9297
"1782",74.85954,466.94287
"1783",74.41276,466.95605
"1784",74.05875,466.96924
"1785",73.79019,466.98242
"1786",73.59731,466.9956
"1787",73.47036,467.0088
"1788",73.38735,467.02197
"1789",73.32632,467.03516
"1790",73.28237,467.04834
"1791",73.2433,467.06152
"1792",73.2018,467.0747
"1793",73.16029,467.0879
"1794",73.12123,467.10107
"1795",73.077286,467.11426
"1796",73.02846,467.12744
"1797",72.97963,467.14062
"1798",72.92836,467.1538
"1799",72.87465,467.167
"1800",72.82826,467.18018
"1801",72.7892,467.19336
"1802",72.764786,467.20654
"1803",72.75502,467.21973
"1804",72.75258,467.2329
"1805",72.75014,467.2461
"1806",72.740364,467.25928
"1807",72.71107,467.27246
"1808",72.68177,467.28564
"1809",72.75746,467.29883
"1810",73.20424,467.312
"1811",74.39567,467.3252
"1812",76.58564,467.33838
"1813",79.73266,467.35156
"1814",83.51446,467.36475
"1815",87.396355,467.37793
"1816",90.79729,467.3911
"1817",93.30221,467.4043
"1818",94.79881,467.41748
"1819",95.4165,467.43066
"1820",95.36523,467.44385
"1821",94.820786,467.45703
"1822",93.94675,467.4702
"1823",92.892044,467.4834
"1824",91.78119,467.49658
"1825",90.70695,467.50977
"1826",89.74502,467.52295
"1827",88.92226,467.53613
"1828",88.22156,467.54932
"1829",87.589226,467.5625
"1830",86.959335,467.57568
"1831",86.27329,467.58887
"1832",85.504234,467.60205
"1833",84.66926,467.61523
"1834",83.81232,467.62842
"1835",82.99931,467.6416
"1836",82.29618,467.6548
"1837",81.73708,467.66797
"1838",81.33425,467.68115
"1839",81.075455,467.69434
"1840",80.90944,467.70752
"1841",80.77028,467.7207
"1842",80.58961,467.7339
"1843",80.32105,467.74707
"1844",79.940186,467.76025
"1845",79.449455,467.77344
"1846",78.870834,467.78662
"1847",78.23117,467.7998
"1848",77.55978,467.813
"1849",76.876175,467.82617
"1850",76.2121,467.83936
"1851",75.58709,467.85254
"1852",75.018234,467.86572
"1853",74.51774,467.8789
"1854",74.09781,467.8921
"1855",73.75845,467.90527
"1856",73.494774,467.91846
"1857",73.29702,467.93164
"1858",73.15541,467.94482
"1859",73.05287,467.958
"1860",72.97719,467.9712
"1861",72.91615,467.98438
"1862",72.86244,467.99756
"1863",72.81117,468.01074
"1864",72.7599,468.02393
"1865",72.708626,468.0371
"1866",72.65736,468.0503
"1867",72.60853,468.06348
"1868",72.569466,468.07666
"1869",72.532845,468.08984
"1870",72.50111,468.10303
"1871",72.46937,468.1162
"1872",72.44251,468.1294
"1873",72.4181,468.14258
"1874",72.40101,468.15576
"1875",72.39857,468.16895
"1876",72.413216,468.18213
"1877",72.43763,468.1953
"1878",72.45716,468.2085
"1879",72.47181,468.22168
"1880",72.51087,468.23486
"1881",72.75258,468.24805
"1882",73.55337,468.26123
"1883",75.299,468.2744
"1884",78.14328,468.2876
"1885",81.898224,468.30078
"1886",86.08774,468.31396
"1887",90.08194,468.32715
"1888",93.29977,468.34033
"1889",95.433586,468.35352
"1890",96.51026,468.3667
"1891",96.74952,468.37988
"1892",96.3711,468.39307
"1893",95.56054,468.40625
"1894",94.47166,468.41943
"1895",93.24605,468.43262
"1896",92.015564,468.4458
"1897",90.86809,468.45898
"1898",89.86221,468.47217
"1899",89.01503,468.48535
"1900",88.29725,468.49854
"1901",87.6527,468.51172
"1902",87.00572,468.5249
"1903",86.30503,468.5381
"1904",85.53353,468.55127
"1905",84.701,468.56445
"1906",83.85138,468.57764
"1907",83.04326,468.59082
"1908",82.340126,468.604
"1909",81.78104,468.6172
"1910",81.38064,468.63037
"1911",81.11452,468.64355
"1912",80.94362,468.65674
"1913",80.797134,468.66992
"1914",80.60914,468.6831
"1915",80.33814,468.6963
"1916",79.94751,468.70947
"1917",79.43725,468.72266
"1918",78.819565,468.73584
"1919",78.12619,468.74902
"1920",77.38888,468.7622
"1921",76.646675,468.7754
"1922",75.928894,468.78857
"1923",75.264824,468.80176
"1924",74.67155,468.81494
"1925",74.16861,468.82812
"1926",73.75601,468.8413
"1927",73.43862,468.8545
"1928",73.214005,468.86768
"1929",73.06996,468.88086
"1930",72.98451,468.89404
"1931",72.938126,468.90723
"1932",72.92348,468.9204
"1933",72.921036,468.9336
"1934",72.92348,468.94678
"1935",72.92592,468.95996
"1936",72.918594,468.97314
"1937",72.90883,468.98633
"1938",72.89174,468.9995
"1939",72.86488,469.0127
"1940",72.833145,469.02588
"1941",72.80141,469.03906
"1942",72.764786,469.05225
"1943",72.723274,469.06543
"1944",72.68421,469.0786
"1945",72.64271,469.0918
"1946",72.61097,469.10498
"1947",72.59388,469.11816
"1948",72.59144,469.13135
"1949",72.60609,469.14453
"1950",72.63538,469.1577
"1951",72.674446,469.1709
"1952",72.71351,469.18408
"1953",72.73304,469.19727
"1954",72.80141,469.21045
"1955",73.19203,469.22363
"1956",74.356606,469.23682
"1957",76.65888,469.25
"1958",80.12329,469.26318
"1959",84.4007,469.27637
"1960",88.87099,469.28955
"1961",92.81392,469.30273
"1962",95.68749,469.31592
"1963",97.33791,469.3291
"1964",97.94095,469.3423
"1965",97.75784,469.35547
"1966",97.0132,469.36865
"1967",95.87549,469.38184
"1968",94.49851,469.39502
"1969",93.016556,469.4082
"1970",91.561455,469.4214
"1971",90.230865,469.43457
"1972",89.08583,469.44775
"1973",88.145874,469.46094
"1974",87.37682,469.47412
"1975",86.70542,469.4873
"1976",86.06088,469.5005
"1977",85.37728,469.51367
"1978",84.63996,469.52686
"1979",83.87091,469.54004
"1980",83.11406,469.55322
"1981",82.4329,469.5664
"1982",81.87625,469.5796
"1983",81.461205,469.59277
"1984",81.18288,469.60596
"1985",81.004654,469.61914
"1986",80.87282,469.63232
"1987",80.71412,469.6455
"1988",80.47486,469.6587
"1989",80.11841,469.67188
"1990",79.63012,469.68506
"1991",79.01488,469.69824
"1992",78.30686,469.71143
"1993",77.53536,469.7246
"1994",76.72968,469.7378
"1995",75.92645,469.75098
"1996",75.15251,469.76416
"1997",74.43717,469.77734
"1998",73.797516,469.79053
"1999",73.24574,469.8037
"2000",72.78676,469.8169
"2001",72.43763,469.83008
"2002",72.17883,469.84326
"2003",72.010376,469.85645
"2004",71.9176,469.86963
"2005",71.8761,469.8828
"2006",71.868774,469.896
"2007",71.88342,469.90918
"2008",71.90784,469.92236
"2009",71.93469,469.93555
"2010",71.956665,469.94873
"2011",71.96643,469.9619
"2012",71.96399,469.9751
"2013",71.9469,469.98828
"2014",71.9176,470.00146
"2015",71.88098,470.01465
"2016",71.8468,470.02783
"2017",71.817505,470.04102
"2018",71.8053,470.0542
"2019",71.81018,470.06738
"2020",71.81995,470.08057
"2021",71.81262,470.09375
"2022",71.77112,470.10693
"2023",71.71984,470.12012
"2024",71.78088,470.1333
"2025",72.27894,470.14648
"2026",73.70229,470.15967
"2027",76.40742,470.17285
"2028",80.36256,470.18604
"2029",85.1136,470.19922
"2030",89.95743,470.2124
"2031",94.14694,470.2256
"2032",97.13283,470.23877
"2033",98.78081,470.25195
"2034",99.31304,470.26514
"2035",99.03471,470.27832
"2036",98.18509,470.2915
"2037",96.9424,470.3047
"2038",95.46288,470.31787
"2039",93.88815,470.33105
"2040",92.332954,470.34424
"2041",90.89006,470.35742
"2042",89.62295,470.3706
"2043",88.53651,470.3838
"2044",87.60143,470.39697
"2045",86.751816,470.41016
"2046",85.924164,470.42334
"2047",85.07698,470.43652
"2048",84.207825,470.4497
"2049",83.35577,470.4629
"2050",82.579384,470.47607
"2051",81.92996,470.48926
"2052",81.44167,470.50244
"2053",81.11452,470.51562
"2054",80.91188,470.5288
"2055",80.78493,470.542
"2056",80.66529,470.55518
"2057",80.48707,470.56836
"2058",80.20386,470.58154
"2059",79.783936,470.59473
"2060",79.22972,470.6079
"2061",78.553444,470.6211
"2062",77.786835,470.63428
"2063",76.96895,470.64746
"2064",76.12909,470.66064
"2065",75.299,470.67383
"2066",74.5153,470.687
"2067",73.795074,470.7002
"2068",73.15541,470.71338
"2069",72.60853,470.72656
"2070",72.166626,470.73975
"2071",71.82239,470.75293
"2072",71.570915,470.7661
"2073",71.395134,470.7793
"2074",71.28039,470.79248
"2075",71.21202,470.80566
"2076",71.17784,470.81885
"2077",71.18028,470.83203
"2078",71.21202,470.8452
"2079",71.26574,470.8584
"2080",71.33898,470.87158
"2081",71.42199,470.88477
"2082",71.505,470.89795
"2083",71.59045,470.91113
"2084",71.67834,470.92432
"2085",71.76868,470.9375
"2086",71.851685,470.95068
"2087",71.922485,470.96387
"2088",71.96887,470.97705
"2089",71.98352,470.99023
"2090",72.02258,471.00342
"2091",72.29847,471.0166
"2092",73.23598,471.0298
"2093",75.31609,471.04297
"2094",78.75853,471.05615
"2095",83.33135,471.06934
"2096",88.42664,471.08252
"2097",93.25094,471.0957
"2098",97.08156,471.1089
"2099",99.53033,471.12207
"2100",100.648506,471.13525
"2101",100.74616,471.14844
"2102",100.1358,471.16162
"2103",99.037155,471.1748
"2104",97.626,471.188
"2105",96.04883,471.20117
"2106",94.435036,471.21436
"2107",92.90181,471.22754
"2108",91.527275,471.24072
"2109",90.34074,471.2539
"2110",89.31777,471.2671
"2111",88.39979,471.28027
"2112",87.5111,471.29346
"2113",86.59556,471.30664
"2114",85.643394,471.31982
"2115",84.67658,471.333
"2116",83.75372,471.3462
"2117",82.94072,471.35938
"2118",82.28153,471.37256
"2119",81.78836,471.38574
"2120",81.446556,471.39893
"2121",81.21706,471.4121
"2122",81.02907,471.4253
"2123",80.814224,471.43848
"2124",80.51392,471.45166
"2125",80.093994,471.46484
"2126",79.537346,471.47803
"2127",78.853745,471.4912
"2128",78.07004,471.5044
"2129",77.22774,471.51758
"2130",76.35859,471.53076
"2131",75.49676,471.54395
"2132",74.669106,471.55713
"2133",73.900055,471.5703
"2134",73.20668,471.5835
"2135",72.60609,471.59668
"2136",72.11047,471.60986
"2137",71.7174,471.62305
"2138",71.19005,471.6494
"2139",71.028915,471.6626
"2140",70.92149,471.67578
"2141",70.85802,471.68896
"2142",70.83116,471.70215
"2143",70.838486,471.71533
"2144",70.870224,471.72852
"2145",70.923935,471.7417
"2146",70.994736,471.75488
"2147",71.08507,471.76807
"2148",71.19249,471.78125
"2149",71.312126,471.79443
"2150",71.42931,471.80762
"2151",71.534294,471.8208
"2152",71.61486,471.83398
"2153",71.69787,471.84717
"2154",71.91516,471.86035
"2155",72.60853,471.87354
"2156",74.246735,471.88672
"2157",77.13985,471.8999
"2158",81.20241,471.9131
"2159",85.960785,471.92627
"2160",90.70695,471.93945
"2161",94.70847,471.95264
"2162",97.46731,471.96582
"2163",98.91264,471.979
"2164",99.283745,471.9922
"2165",98.88823,472.00537
"2166",97.96048,472.01855
"2167",96.6836,472.03174
"2168",95.21141,472.04492
"2169",93.6733,472.0581
"2170",92.191345,472.0713
"2171",90.85344,472.08447
"2172",89.69131,472.09766
"2173",88.687874,472.11084
"2174",87.782104,472.12402
"2175",86.90074,472.1372
"2176",85.994965,472.1504
"2177",85.05501,472.16357
"2178",84.11749,472.17676
"2179",83.25567,472.18994
"2180",82.52567,472.20312
"2181",81.96658,472.2163
"2182",81.57595,472.2295
"2183",81.322044,472.24268
"2184",81.143814,472.25586
"2185",80.9778,472.26904
"2186",80.75563,472.28223
"2187",80.428474,472.2954
"2188",79.971924,472.3086
"2189",79.378654,472.32178
"2190",78.66819,472.33496
"2191",77.8674,472.34814
"2192",77.015335,472.36133
"2193",76.14618,472.3745
"2194",75.29656,472.3877
"2195",74.495766,472.40088
"2196",73.76578,472.41406
"2197",73.12123,472.42725
"2198",72.569466,472.44043
"2199",72.11047,472.4536
"2200",71.74181,472.4668
"2201",71.45617,472.47998
"2202",71.24864,472.49316
"2203",71.10948,472.50635
"2204",71.03868,472.51953
"2205",71.02403,472.5327
"2206",71.06554,472.5459
"2207",71.15343,472.55908
"2208",71.27062,472.57227
"2209",71.40246,472.58545
"2210",71.52697,472.59863
"2211",71.622185,472.61182
"2212",71.68566,472.625
"2213",71.766235,472.63818
"2214",72.03235,472.65137
"2215",72.83803,472.66455
"2216",74.57389,472.67773
"2217",77.40841,472.69092
"2218",81.17311,472.7041
"2219",85.39193,472.7173
"2220",89.43252,472.73047
"2221",92.70161,472.74365
"2222",94.85985,472.75684
"2223",95.91699,472.77002
"2224",96.08789,472.7832
"2225",95.61181,472.7964
"2226",94.67918,472.80957
"2227",93.45602,472.82275
"2228",92.09125,472.83594
"2229",90.71427,472.84912
"2230",89.43496,472.8623
"2231",88.309456,472.8755
"2232",87.33776,472.88867
"2233",86.46616,472.90186
"2234",85.63363,472.91504
"2235",84.791336,472.92822
"2236",83.929504,472.9414
"2237",83.089645,472.9546
"2238",82.33524,472.96777
"2239",81.72976,472.98096
"2240",81.29519,472.99414
"2241",81.02174,473.00732
"2242",80.86549,473.0205
"2243",80.762955,473.0337
"2244",80.64332,473.04688
"2245",80.45289,473.06006
"2246",80.147705,473.07324
"2247",79.71313,473.08643
"2248",79.14671,473.0996
"2249",78.47288,473.1128
"2250",77.72579,473.12598
"2251",76.93477,473.13916
"2252",76.13397,473.15234
"2253",75.352715,473.16553
"2254",74.61295,473.1787
"2255",73.934235,473.1919
"2256",73.3312,473.20508
"2257",72.81117,473.21826
"2258",72.38392,473.23145
"2259",72.042114,473.24463
"2260",71.79065,473.2578
"2261",71.61974,473.271
"2262",71.52453,473.28418
"2263",71.485466,473.29736
"2264",71.500114,473.31055
"2265",71.5465,473.32373
"2266",71.605095,473.3369
"2267",71.658806,473.3501
"2268",71.70275,473.36328
"2269",71.81506,473.37646
"2270",72.19104,473.38965
"2271",73.16762,473.40283
"2272",75.03044,473.41602
"2273",77.83322,473.4292
"2274",81.341576,473.44238
"2275",85.09407,473.45557
"2276",88.53895,473.46875
"2277",91.20744,473.48193
"2278",92.89937,473.49512
"2279",93.66598,473.5083
"2280",93.69283,473.52148
"2281",93.17525,473.53467
"2282",92.29145,473.54785
"2283",91.20012,473.56104
"2284",90.03555,473.57422
"2285",88.91005,473.5874
"2286",87.87488,473.6006
"2287",86.939804,473.61377
"2288",86.07065,473.62695
"2289",85.223465,473.64014
"2290",84.36652,473.65332
"2291",83.49981,473.6665
"2292",82.65751,473.6797
"2293",81.90311,473.69287
"2294",81.29275,473.70605
"2295",80.850845,473.71924
"2296",80.56519,473.73242
"2297",80.39185,473.7456
"2298",80.26978,473.7588
"2299",80.130615,473.77197
"2300",79.92554,473.78516
"2301",79.61547,473.79834
"2302",79.19066,473.81152
"2303",78.65354,473.8247
"2304",78.02365,473.8379
"2305",77.3254,473.85107
"2306",76.5832,473.86426
"2307",75.826355,473.87744
"2308",75.09148,473.89062
"2309",74.39811,473.9038
"2310",73.76578,473.917
"2311",73.21156,473.93018
"2312",72.74525,473.94336
"2313",72.36439,473.95654
"2314",72.07141,473.96973
"2315",71.85901,473.9829
"2316",71.72228,473.9961
"2317",71.64904,474.00928
"2318",71.62707,474.02246
"2319",71.62951,474.03564
"2320",71.639275,474.04883
"2321",71.65148,474.062
"2322",71.69787,474.0752
"2323",71.9176,474.08838
"2324",72.57679,474.10156
"2325",73.9733,474.11475
"2326",76.24872,474.12793
"2327",79.29565,474.1411
"2328",82.76494,474.1543
"2329",86.17563,474.16748
"2330",89.04433,474.18066
"2331",91.070724,474.19385
"2332",92.208435,474.20703
"2333",92.58686,474.2202
"2334",92.37446,474.2334
"2335",91.73968,474.24658
"2336",90.83635,474.25977
"2337",89.813385,474.27295
"2338",88.77577,474.28613
"2339",87.801636,474.29932
"2340",86.91051,474.3125
"2341",86.07797,474.32568
"2342",85.25521,474.33887
"2343",84.39338,474.35205
"2344",83.4876,474.36523
"2345",82.56962,474.37842
"2346",81.705345,474.3916
"2347",80.972916,474.4048
"2348",80.413826,474.41797
"2349",80.03784,474.43115
"2350",79.80835,474.44434
"2351",79.67162,474.45752
"2352",79.54955,474.4707
"2353",79.378654,474.4839
"2354",79.11742,474.49707
"2355",78.74387,474.51025
"2356",78.260475,474.52344
"2357",77.68185,474.53662
"2358",77.03487,474.5498
"2359",76.3415,474.563
"2360",75.631035,474.57617
"2361",74.932785,474.58936
"2362",74.26627,474.60254
"2363",73.64858,474.61572
"2364",73.09682,474.6289
"2365",72.62562,474.6421
"2366",72.232544,474.65527
"2367",71.92493,474.66846
"2368",71.70275,474.68164
"2369",71.553825,474.69482
"2370",71.465935,474.708
"2371",71.42687,474.7212
"2372",71.42199,474.73438
"2373",71.42931,474.74756
"2374",71.44152,474.76074
"2375",71.47814,474.77393
"2376",71.64416,474.7871
"2377",72.17395,474.8003
"2378",73.375145,474.81348
"2379",75.44305,474.82666
"2380",78.331276,474.83984
"2381",81.75662,474.85303
"2382",85.25277,474.8662
"2383",88.326546,474.8794
"2384",90.614174,474.89258
"2385",92.00824,474.90576
"2386",92.59174,474.91895
"2387",92.53315,474.93213
"2388",92.0058,474.9453
"2389",91.17815,474.9585
"2390",90.196686,474.97168
"2391",89.181046,474.98486
"2392",88.22156,474.99805
"2393",87.33776,475.01123
"2394",86.51743,475.0244
"2395",85.711754,475.0376
"2396",84.86946,475.05078
"2397",83.97101,475.06396
"2398",83.038376,475.07715
"2399",82.13748,475.09033
"2400",81.339134,475.10352
"2401",80.70435,475.1167
"2402",80.25025,475.12988
"2403",79.957275,475.14307
"2404",79.766846,475.15625
"2405",79.60815,475.16943
"2406",79.41772,475.18262
"2407",79.14671,475.1958
"2408",78.77318,475.20898
"2409",78.28977,475.22217
"2410",77.70626,475.23535
"2411",77.03975,475.24854
"2412",76.317085,475.26172
"2413",75.562675,475.2749
"2414",74.80583,475.2881
"2415",74.06851,475.30127
"2416",73.3727,475.31445
"2417",72.73304,475.32764
"2418",72.1593,475.34082
"2419",71.656364,475.354
"2420",71.23888,475.3672
"2421",70.91417,475.38037
"2422",70.68711,475.39355
"2423",70.54795,475.40674
"2424",70.48936,475.41992
"2425",70.486916,475.4331
"2426",70.51377,475.4463
"2427",70.54551,475.45947
"2428",70.56992,475.47266
"2429",70.62119,475.48584
"2430",70.85069,475.49902
"2431",71.5465,475.5122
"2432",73.02113,475.5254
"2433",75.423515,475.53857
"2434",78.63645,475.55176
"2435",82.28397,475.56494
"2436",85.85092,475.57812
"2437",88.834366,475.5913
"2438",90.92668,475.6045
"2439",92.088806,475.61768
"2440",92.46235,475.63086
"2441",92.23529,475.64404
"2442",91.580986,475.65723
"2443",90.66544,475.6704
"2444",89.63027,475.6836
"2445",88.5951,475.69678
"2446",87.63317,475.70996
"2447",86.75914,475.72314
"2448",85.943695,475.73633
"2449",85.12581,475.7495
"2450",84.266426,475.7627
"2451",83.35821,475.77588
"2452",82.43046,475.78906
"2453",81.55642,475.80225
"2454",80.81178,475.81543
"2455",80.24292,475.8286
"2456",79.86206,475.8418
"2457",79.64477,475.85498
"2458",79.53246,475.86816
"2459",79.45678,475.88135
"2460",79.33959,475.89453
"2461",79.13451,475.9077
"2462",78.80736,475.9209
"2463",78.35325,475.93408
"2464",77.78439,475.94727
"2465",77.13008,475.96045
"2466",76.40742,475.97363
"2467",75.65301,475.98682
"2468",74.89372,476
"2469",74.158844,476.01318
"2470",73.480125,476.02637
"2471",72.86977,476.03955
"2472",72.3473,476.05273
"2473",71.92493,476.06592
"2474",71.61242,476.0791
"2475",71.40246,476.0923
"2476",71.28527,476.10547
"2477",71.236435,476.11865
"2478",71.21446,476.13184
"2479",71.182724,476.14502
"2480",71.11925,476.1582
"2481",71.06065,476.1714
"2482",71.14122,476.18457
"2483",71.64904,476.19775
"2484",72.921036,476.21094
"2485",75.140305,476.22412
"2486",78.22385,476.2373
"2487",81.81033,476.2505
"2488",85.37972,476.26367
"2489",88.40223,476.27686
"2490",90.53361,476.29004
"2491",91.69817,476.30322
"2492",92.02777,476.3164
"2493",91.717705,476.3296
"2494",90.948654,476.34277
"2495",89.88663,476.35596
"2496",88.673225,476.36914
"2497",87.42077,476.38232
"2498",86.202484,476.3955
"2499",85.04524,476.4087
"2500",83.94415,476.42188
"2501",82.88701,476.43506
"2502",81.883575,476.44824
"2503",80.96803,476.46143
"2504",80.201416,476.4746
"2505",79.64721,476.4878
"2506",79.344475,476.50098
"2507",79.281,476.51416
"2508",79.398186,476.52734
"2509",79.605705,476.54053
"2510",79.81079,476.5537
"2511",79.92798,476.5669
"2512",79.89868,476.58008
"2513",79.70336,476.59326
"2514",79.34203,476.60645
"2515",78.84154,476.61963
"2516",78.22385,476.6328
"2517",77.51827,476.646
"2518",76.76143,476.65918
"2519",75.98749,476.67236
"2520",75.21843,476.68555
"2521",74.48844,476.69873
"2522",73.82681,476.7119
"2523",73.2433,476.7251
"2524",72.74525,476.73828
"2525",72.342415,476.75146
"2526",72.02991,476.76465
"2527",71.79065,476.77783
"2528",71.61242,476.79102
"2529",71.47814,476.8042
"2530",71.40978,476.81738
"2531",71.51232,476.83057
"2532",72.05676,476.84375
"2533",73.38003,476.85693
"2534",75.69207,476.87012
"2535",78.91966,476.8833
"2536",82.7161,476.89648
"2537",86.54429,476.90967
"2538",89.85245,476.92285
"2539",92.25239,476.93604
"2540",93.64645,476.94922
"2541",94.17136,476.9624
"2542",94.03464,476.9756
"2543",93.419395,476.98877
"2544",92.49653,477.00195
"2545",91.41009,477.01514
"2546",90.27482,477.02832
"2547",89.17128,477.0415
"2548",88.131226,477.0547
"2549",87.13756,477.06787
"2550",86.14145,477.08105
"2551",85.11604,477.09424
"2552",84.04669,477.10742
"2553",82.97734,477.1206
"2554",81.98367,477.1338
"2555",81.15602,477.14697
"2556",80.550545,477.16016
"2557",80.18677,477.17334
"2558",80.03052,477.18652
"2559",80.01099,477.1997
"2560",80.04028,477.2129
"2561",80.03296,477.22607
"2562",79.90845,477.23926
"2563",79.63256,477.25244
"2564",79.19066,477.26562
"2565",78.59495,477.2788
"2566",77.86496,477.292
"2567",77.04707,477.30518
"2568",76.17792,477.31836
"2569",75.30389,477.33154
"2570",74.4567,477.34473
"2571",73.67544,477.3579
"2572",72.98695,477.3711
"2573",72.40345,477.38428
"2574",71.920044,477.39746
"2575",71.52453,477.41064
"2576",71.199814,477.42383
"2577",70.93614,477.437
"2578",70.77257,477.4502
"2579",70.870224,477.46338
"2580",71.53185,477.47656
"2581",73.06752,477.48975
"2582",75.60662,477.50293
"2583",78.98802,477.5161
"2584",82.80888,477.5293
"2585",86.5272,477.54248
"2586",89.63027,477.55566
"2587",91.82269,477.56885
"2588",93.08736,477.58203
"2589",93.573204,477.5952
"2590",93.46578,477.6084
"2591",92.93599,477.62158
"2592",92.137634,477.63477
"2593",91.19768,477.64795
"2594",90.230865,477.66113
"2595",89.2958,477.67432
"2596",88.411995,477.6875
"2597",87.54772,477.70068
"2598",86.6395,477.71387
"2599",85.63607,477.72705
"2600",84.525215,477.74023
"2601",83.33868,477.75342
"2602",82.159454,477.7666
"2603",81.092545,477.7798
"2604",80.23071,477.79297
"2605",79.62035,477.80615
"2606",79.24925,477.81934
"2607",79.07347,477.83252
"2608",79.00023,477.8457
"2609",78.92943,477.8589
"2610",78.77074,477.87207
"2611",78.47776,477.88525
"2612",78.02609,477.89844
"2613",77.420616,477.91162
"2614",76.69306,477.9248
"2615",75.88495,477.938
"2616",75.04021,477.95117
"2617",74.195465,477.96436
"2618",73.39712,477.97754
"2619",72.672005,477.99072
"2620",72.04944,478.0039
"2621",71.52941,478.0171
"2622",71.1046,478.03027
"2623",70.75792,478.04346
"2624",70.469826,478.05664
"2625",70.23056,478.06982
"2626",70.098724,478.083
"2627",70.25498,478.0962
"2628",71.02159,478.10938
"2629",72.691536,478.12256
"2630",75.34295,478.13574
"2631",78.77318,478.14893
"2632",82.547646,478.1621
"2633",86.11459,478.1753
"2634",89.00038,478.18848
"2635",90.97307,478.20166
"2636",92.07416,478.21484
"2637",92.474556,478.22803
"2638",92.369576,478.2412
"2639",91.91547,478.2544
"2640",91.26116,478.26758
"2641",90.51652,478.28076
"2642",89.762115,478.29395
"2643",89.039444,478.30713
"2644",88.34608,478.3203
"2645",87.638054,478.3335
"2646",86.84947,478.34668
"2647",85.91928,478.35986
"2648",84.823074,478.37305
"2649",83.595024,478.38623
"2650",82.303505,478.3994
"2651",81.05592,478.4126
"2652",79.96704,478.42578
"2653",79.114975,478.43896
"2654",78.52659,478.45215
"2655",78.17502,478.46533
"2656",77.98947,478.47852
"2657",77.86984,478.4917
"2658",77.72579,478.50488
"2659",77.48409,478.51807
"2660",77.10567,478.53125
"2661",76.59052,478.54443
"2662",75.95575,478.55762
"2663",75.23064,478.5708
"2664",74.45426,478.58398
"2665",73.66811,478.59717
"2666",72.90883,478.61035
"2667",72.215454,478.62354
"2668",71.61974,478.63672
"2669",71.13878,478.6499
"2670",70.77745,478.6631
"2671",70.518654,478.67627
"2672",70.33555,478.68945
"2673",70.20126,478.70264
"2674",70.08896,478.71582
"2675",69.9913,478.729
"2676",69.96689,478.7422
"2677",70.21591,478.75537
"2678",71.06065,478.76855
"2679",72.76723,478.78174
"2680",75.3991,478.79492
"2681",78.74143,478.8081
"2682",82.36698,478.8213
"2683",85.750824,478.83447
"2684",88.45838,478.84766
"2685",90.29679,478.86084
"2686",91.319756,478.87402
"2687",91.70794,478.8872
"2688",91.64202,478.9004
"2689",91.29046,478.91357
"2690",90.78508,478.92676
"2691",90.228424,478.93994
"2692",89.67666,478.95312
"2693",89.14931,478.9663
"2694",88.621956,478.9795
"2695",88.043335,478.99268
"2696",87.35729,479.00586
"2697",86.51011,479.01904
"2698",85.4847,479.03223
"2699",84.29572,479.0454
"2700",83.02373,479.0586
"2701",81.76883,479.07178
"2702",80.63111,479.08496
"2703",79.69848,479.09814
"2704",79.012436,479.11133
"2705",78.56077,479.1245
"2706",78.28245,479.1377
"2707",78.101776,479.15088
"2708",77.92844,479.16406
"2709",77.69405,479.17725
"2710",77.347374,479.19043
"2711",76.876175,479.2036
"2712",76.29023,479.2168
"2713",75.61883,479.22998
"2714",74.89128,479.24316
"2715",74.14664,479.25635
"2716",73.426414,479.26953
"2717",72.75746,479.2827
"2718",72.164185,479.2959
"2719",71.658806,479.30908
"2720",71.24864,479.32227
"2721",70.92882,479.33545
"2722",70.69199,479.34863
"2723",70.52354,479.36182
"2724",70.416115,479.375
"2725",70.3502,479.38818
"2726",70.31846,479.40137
"2727",70.30625,479.41455
"2728",70.30869,479.42773
"2729",70.32578,479.44092
"2730",70.35752,479.4541
"2731",70.40635,479.4673
"2732",70.47959,479.48047
"2733",70.56992,479.49365
"2734",70.66758,479.50684
"2735",70.767685,479.52002
"2736",70.853134,479.5332
"2737",70.91173,479.5464
"2738",70.93614,479.55957
"2739",70.94591,479.57275
"2740",71.06554,479.58594
"2741",71.605095,479.59912
"2742",72.95766,479.6123
"2743",75.39178,479.6255
"2744",78.84398,479.63867
"2745",82.94316,479.65186
"2746",87.10094,479.66504
"2747",90.70695,479.67822
"2748",93.33883,479.6914
"2749",94.91844,479.7046
"2750",95.61425,479.71777
"2751",95.66552,479.73096
"2752",95.277336,479.74414
"2753",94.625465,479.75732
"2754",93.85397,479.7705
"2755",93.07027,479.7837
"2756",92.34516,479.79688
"2757",91.69817,479.81006
"2758",91.11223,479.82324
"2759",90.53361,479.83643
"2760",89.884186,479.8496
"2761",89.10536,479.8628
"2762",88.162964,479.87598
"2763",87.07164,479.88916
"2764",85.8851,479.90234
"2765",84.701,479.91553
"2766",83.60967,479.9287
"2767",82.68192,479.9419
"2768",81.9617,479.95508
"2769",81.43435,479.96826
"2770",81.058365,479.98145
"2771",80.76051,479.99463
"2772",80.47242,480.0078
"2773",80.130615,480.021
"2774",79.69848,480.03418
"2775",79.15404,480.04736
"2776",78.51682,480.06055
"2777",77.803925,480.07373
"2778",77.04463,480.0869
"2779",76.27558,480.1001
"2780",75.52361,480.11328
"2781",74.810715,480.12646
"2782",74.16373,480.13965
"2783",73.59731,480.15283
"2784",73.12123,480.16602
"2785",72.73792,480.1792
"2786",72.44007,480.19238
"2787",72.215454,480.20557
"2788",72.044556,480.21875
"2789",71.91028,480.23193
"2790",71.80286,480.24512
"2791",71.71496,480.2583
"2792",71.641716,480.27148
"2793",71.58312,480.28467
"2794",71.53918,480.29785
"2795",71.50988,480.31104
"2796",71.49279,480.32422
"2797",71.483025,480.3374
"2798",71.47814,480.3506
"2799",71.48058,480.36377
"2800",71.49035,480.37695
"2801",71.50744,480.39014
"2802",71.534294,480.40332
"2803",71.57336,480.4165
"2804",71.60998,480.4297
"2805",71.64416,480.44287
"2806",71.68078,480.45605
"2807",71.71984,480.46924
"2808",71.766235,480.48242
"2809",71.82239,480.4956
"2810",71.8761,480.5088
"2811",71.93469,480.52197
"2812",72.042114,480.53516
"2813",72.38636,480.54834
"2814",73.36294,480.56152
"2815",75.36492,480.5747
"2816",78.53391,480.5879
"2817",82.64042,480.60107
"2818",87.15953,480.61426
"2819",91.41985,480.62744
"2820",94.81346,480.64062
"2821",97.04738,480.6538
"2822",98.18021,480.667
"2823",98.46586,480.68018
"2824",98.15091,480.69336
"2825",97.43557,480.70654
"2826",96.47608,480.71973
"2827",95.41894,480.7329
"2828",94.37888,480.7461
"2829",93.42916,480.75928
"2830",92.59663,480.77246
"2831",91.8642,480.78564
"2832",91.16838,480.79883
"2833",90.43107,480.812
"2834",89.58633,480.8252
"2835",88.61219,480.83838
"2836",87.52575,480.85156
"2837",86.39536,480.86475
"2838",85.30404,480.87793
"2839",84.334785,480.8911
"2840",83.546196,480.9043
"2841",82.95293,480.91748
"2842",82.53544,480.93066
"2843",82.230255,480.94385
"2844",81.96414,480.95703
"2845",81.65652,480.9702
"2846",81.26101,480.9834
"2847",80.7483,480.99658
"2848",80.113525,481.00977
"2849",79.38354,481.02295
"2850",78.58518,481.03613
"2851",77.752655,481.04932
"2852",76.92256,481.0625
"2853",76.121765,481.07568
"2854",75.38201,481.08887
"2855",74.72282,481.10205
"2856",74.1564,481.11523
"2857",73.6852,481.12842
"2858",73.306786,481.1416
"2859",73.00893,481.1548
"2860",72.77699,481.16797
"2861",72.601204,481.18115
"2862",72.464485,481.19434
"2863",72.359505,481.20752
"2864",72.26673,481.2207
"2865",72.166626,481.2339
"2866",72.05432,481.24707
"2867",71.93225,481.26025
"2868",71.8053,481.27344
"2869",71.68322,481.28662
"2870",71.57336,481.2998
"2871",71.4757,481.313
"2872",71.38537,481.32617
"2873",71.29504,481.33936
"2874",71.21202,481.35254
"2875",71.133896,481.36572
"2876",71.07042,481.3789
"2877",71.02159,481.3921
"2878",70.98985,481.40527
"2879",70.96788,481.41846
"2880",70.95323,481.43164
"2881",70.93858,481.44482
"2882",70.94347,481.458
"2883",71.097275,481.4712
"2884",71.73205,481.48438
"2885",73.29946,481.49756
"2886",76.09247,481.51074
"2887",80.02075,481.52393
"2888",84.627754,481.5371
"2889",89.232315,481.5503
"2890",93.12642,481.56348
"2891",95.83887,481.57666
"2892",97.303734,481.58984
"2893",97.7554,481.60303
"2894",97.49172,481.6162
"2895",96.74708,481.6294
"2896",95.71191,481.64258
"2897",94.540016,481.65576
"2898",93.368126,481.66895
"2899",92.28657,481.68213
"2900",91.351494,481.6953
"2901",90.565346,481.7085
"2902",89.89151,481.72168
"2903",89.254295,481.73486
"2904",88.58045,481.74805
"2905",87.80408,481.76123
"2906",86.90318,481.7744
"2907",85.89975,481.7876
"2908",84.85237,481.80078
"2909",83.844055,481.81396
"2910",82.95293,481.82715
"2911",82.230255,481.84033
"2912",81.69558,481.85352
"2913",81.33181,481.8667
"2914",81.08034,481.87988
"2915",80.87038,481.89307
"2916",80.638435,481.90625
"2917",80.33082,481.91943
"2918",79.91333,481.93262
"2919",79.381096,481.9458
"2920",78.74387,481.95898
"2921",78.02121,481.97217
"2922",77.24483,481.98535
"2923",76.44892,481.99854
"2924",75.67498,482.01172
"2925",74.9572,482.0249
"2926",74.31754,482.0381
"2927",73.77554,482.05127
"2928",73.33364,482.06445
"2929",72.989395,482.07764
"2930",72.740364,482.09082
"2931",72.567024,482.104
"2932",72.45716,482.1172
"2933",72.39124,482.13037
"2934",72.34974,482.14355
"2935",72.31068,482.15674
"2936",72.26673,482.16992
"2937",72.215454,482.1831
"2938",72.15686,482.1963
"2939",72.08606,482.20947
"2940",72.007935,482.22266
"2941",71.92981,482.23584
"2942",71.8468,482.24902
"2943",71.763794,482.2622
"2944",71.692986,482.2754
"2945",71.63195,482.28857
"2946",71.58312,482.30176
"2947",71.54406,482.31494
"2948",71.505,482.32812
"2949",71.46349,482.3413
"2950",71.41955,482.3545
"2951",71.3756,482.36768
"2952",71.326775,482.38086
"2953",71.29748,482.39404
"2954",71.40246,482.40723
"2955",71.95178,482.4204
"2956",73.42397,482.4336
"2957",76.16571,482.44678
"2958",80.13794,482.45996
"2959",84.88655,482.47314
"2960",89.71328,482.48633
"2961",93.85153,482.4995
"2962",96.76906,482.5127
"2963",98.34135,482.52588
"2964",98.810104,482.53906
"2965",98.495155,482.55225
"2966",97.65041,482.56543
"2967",96.46876,482.5786
"2968",95.113754,482.5918
"2969",93.731895,482.60498
"2970",92.42817,482.61816
"2971",91.27825,482.63135
"2972",90.31144,482.64453
"2973",89.50332,482.6577
"2974",88.79042,482.6709
"2975",88.094604,482.68408
"2976",87.3402,482.69727
"2977",86.48814,482.71045
"2978",85.54818,482.72363
"2979",84.56916,482.73682
"2980",83.62432,482.75
"2981",82.78691,482.76318
"2982",82.12039,482.77637
"2983",81.64675,482.78955
"2984",81.34402,482.80273
"2985",81.160904,482.81592
"2986",81.024185,482.8291
"2987",80.85573,482.8423
"2988",80.59205,482.85547
"2989",80.198975,482.86865
"2990",79.67162,482.88184
"2991",79.01732,482.89502
"2992",78.27024,482.9082
"2993",77.46212,482.9214
"2994",76.63447,482.93457
"2995",75.82147,482.94775
"2996",75.054855,482.96094
"2997",74.35905,482.97412
"2998",73.75357,482.9873
"2999",73.248184,483.0005
"3000",72.850235,483.01367
"3001",72.552376,483.02686
"3002",72.34486,483.04004
"3003",72.21301,483.05322
"3004",72.13489,483.0664
"3005",72.095825,483.0796
"3006",72.076294,483.09277
"3007",72.061646,483.10596
"3008",72.047,483.11914
"3009",72.025024,483.13232
"3010",71.99573,483.1455
"3011",71.95422,483.1587
"3012",71.905396,483.17188
"3013",71.8468,483.18506
"3014",71.783325,483.19824
"3015",71.71496,483.21143
"3016",71.65148,483.2246
"3017",71.58068,483.2378
"3018",71.50744,483.25098
"3019",71.431755,483.26416
"3020",71.35851,483.27734
"3021",71.28039,483.29053
"3022",71.20714,483.3037
"3023",71.13634,483.3169
"3024",71.08751,483.33008
"3025",71.165634,483.34326
"3026",71.70031,483.35645
"3027",73.20424,483.36963
"3028",76.07782,483.3828
"3029",80.289314,483.396
"3030",85.35775,483.40918
"3031",90.511635,483.42236
"3032",94.93309,483.43555
"3033",98.01907,483.44873
"3034",99.63531,483.4619
"3035",100.04547,483.4751
"3036",99.62554,483.48828
"3037",98.64164,483.50146
"3038",97.289085,483.51465
"3039",95.73388,483.52783
"3040",94.115204,483.54102
"3041",92.560005,483.5542
"3042",91.15617,483.56738
"3043",89.95743,483.58057
"3044",88.95888,483.59375
"3045",88.10193,483.60693
"3046",87.310905,483.62012
"3047",86.51499,483.6333
"3048",85.6556,483.64648
"3049",84.74494,483.65967
"3050",83.82941,483.67285
"3051",82.97978,483.68604
"3052",82.262,483.69922
"3053",81.72488,483.7124
"3054",81.375755,483.7256
"3055",81.17555,483.73877
"3056",81.06081,483.75195
"3057",80.9485,483.76514
"3058",80.765396,483.77832
"3059",80.45533,483.7915
"3060",79.99878,483.8047
"3061",79.40063,483.81787
"3062",78.68284,483.83105
"3063",77.8674,483.84424
"3064",76.995804,483.85742
"3065",76.09491,483.8706
"3066",75.20134,483.8838
"3067",74.356606,483.89697
"3068",73.59243,483.91016
"3069",72.9308,483.92334
"3070",72.379036,483.93652
"3071",71.9469,483.9497
"3072",71.61974,483.9629
"3073",71.38293,483.97607
"3074",71.23155,483.98926
"3075",71.148544,484.00244
"3076",71.12169,484.01562
"3077",71.13634,484.0288
"3078",71.17296,484.042
"3079",71.21446,484.05518
"3080",71.25353,484.06836
"3081",71.28283,484.08154
"3082",71.29992,484.09473
"3083",71.312126,484.1079
"3084",71.312126,484.1211
"3085",71.30236,484.13428
"3086",71.28283,484.14746
"3087",71.2633,484.16064
"3088",71.2462,484.17383
"3089",71.23888,484.187
"3090",71.23399,484.2002
"3091",71.2169,484.21338
"3092",71.168076,484.22656
"3093",71.08263,484.23975
"3094",70.96544,484.25293
"3095",70.887314,484.2661
"3096",71.07774,484.2793
"3097",72.00305,484.29248
"3098",74.22232,484.30566
"3099",77.98703,484.31885
"3100",83.038376,484.33203
"3101",88.66834,484.3452
"3102",93.96628,484.3584
"3103",98.09476,484.37158
"3104",100.594795,484.38477
"3105",101.54452,484.39795
"3106",101.349205,484.41113
"3107",100.401924,484.42432
"3108",98.97124,484.4375
"3109",97.23781,484.45068
"3110",95.3579,484.46387
"3111",93.46334,484.47705
"3112",91.67376,484.49023
"3113",90.072174,484.50342
"3114",88.70496,484.5166
"3115",87.55993,484.5298
"3116",86.573586,484.54297
"3117",85.67269,484.55615
"3118",84.79378,484.56934
"3119",83.9173,484.58252
"3120",83.06035,484.5957
"3121",82.27909,484.6089
"3122",81.636986,484.62207
"3123",81.17555,484.63525
"3124",80.907,484.64844
"3125",80.79469,484.66162
"3126",80.77516,484.6748
"3127",80.75319,484.688
"3128",80.64576,484.70117
"3129",80.38697,484.71436
"3130",79.94751,484.72754
"3131",79.33227,484.74072
"3132",78.57053,484.7539
"3133",77.69894,484.7671
"3134",76.75166,484.78027
"3135",75.7702,484.79346
"3136",74.78874,484.80664
"3137",73.848785,484.81982
"3138",72.99184,484.833
"3139",72.24231,484.8462
"3140",71.6173,484.85938
"3141",71.12413,484.87256
"3142",70.75548,484.88574
"3143",70.49668,484.89893
"3144",70.33555,484.9121
"3145",70.25498,484.9253
"3146",70.23544,484.93848
"3147",70.26719,484.95166
"3148",70.328224,484.96484
"3149",70.40635,484.97803
"3150",70.49424,484.9912
"3151",70.58213,485.0044
"3152",70.67246,485.01758
"3153",70.76524,485.03076
"3154",70.86046,485.04395
"3155",70.958115,485.05713
"3156",71.05577,485.0703
"3157",71.148544,485.0835
"3158",71.22667,485.09668
"3159",71.28283,485.10986
"3160",71.31457,485.12305
"3161",71.360954,485.13623
"3162",71.59777,485.1494
"3163",72.44251,485.1626
"3164",74.459145,485.17578
"3165",78.009,485.18896
"3166",82.950485,485.20215
"3167",88.64637,485.21533
"3168",94.19089,485.22852
"3169",98.685585,485.2417
"3170",101.56893,485.25488
"3171",102.801865,485.26807
"3172",102.745705,485.28125
"3173",101.83261,485.29443
"3174",100.35798,485.30762
"3175",98.52445,485.3208
"3176",96.483406,485.33398
"3177",94.381325,485.34717
"3178",92.34028,485.36035
"3179",90.457924,485.37354
"3180",88.78554,485.38672
"3181",87.32311,485.3999
"3182",86.03403,485.4131
"3183",84.86458,485.42627
"3184",83.78546,485.43945
"3185",82.78935,485.45264
"3186",81.90799,485.46582
"3187",81.19264,485.479
"3188",80.68482,485.4922
"3189",80.39918,485.50537
"3190",80.306404,485.51855
"3191",80.35035,485.53174
"3192",80.45045,485.54492
"3193",80.50172,485.5581
"3194",80.430916,485.5713
"3195",80.177,485.58447
"3196",79.72289,485.59766
"3197",79.07591,485.61084
"3198",78.2678,485.62402
"3199",77.34249,485.6372
"3200",76.33662,485.6504
"3201",75.29656,485.66357
"3202",74.27116,485.67676
"3203",73.29214,485.68994
"3204",72.39124,485.70312
"3205",71.588005,485.7163
"3206",70.89952,485.7295
"3207",70.330666,485.74268
"3208",69.88144,485.75586
"3209",69.5494,485.76904
"3210",69.31991,485.78223
"3211",69.18318,485.7954
"3212",69.12215,485.8086
"3213",69.12215,485.82178
"3214",69.173416,485.83496
"3215",69.27108,485.84814
"3216",69.40536,485.86133
"3217",69.56893,485.8745
"3218",69.752045,485.8877
"3219",69.95468,485.90088
"3220",70.169525,485.91406
"3221",70.381935,485.92725
"3222",70.57725,485.94043
"3223",70.728615,485.9536
"3224",70.84581,485.9668
"3225",71.05333,485.97998
"3226",71.7174,485.99316
"3227",73.426414,486.00635
"3228",76.69062,486.01953
"3229",81.54421,486.0327
"3230",87.4403,486.0459
"3231",93.46334,486.05908
"3232",98.62211,486.07227
"3233",102.18906,486.08545
"3234",103.96155,486.09863
"3235",104.24719,486.11182
"3236",103.52697,486.125
"3237",102.17441,486.13818
"3238",100.41657,486.15137
"3239",98.42924,486.16455
"3240",96.361336,486.17773
"3241",94.34959,486.19092
"3242",92.49653,486.2041
"3243",90.87053,486.2173
"3244",89.478905,486.23047
"3245",88.27039,486.24365
"3246",87.16441,486.25684
"3247",86.09018,486.27002
"3248",85.00618,486.2832
"3249",83.92218,486.2964
"3250",82.896774,486.30957
"3251",82.00809,486.32275
"3252",81.31716,486.33594
"3253",80.850845,486.34912
"3254",80.587166,486.3623
"3255",80.465096,486.3755
"3256",80.396736,486.38867
"3257",80.289314,486.40186
"3258",80.062256,486.41504
"3259",79.66674,486.42822
"3260",79.09056,486.4414
"3261",78.34104,486.4546
"3262",77.452354,486.46777
"3263",76.46357,486.48096
"3264",75.421074,486.49414
"3265",74.37614,486.50732
"3266",73.3605,486.5205
"3267",72.40589,486.5337
"3268",71.53918,486.54688
"3269",70.77989,486.56006
"3270",70.13779,486.57324
"3271",69.6202,486.58643
"3272",69.222244,486.5996
"3273",68.94148,486.6128
"3274",68.75838,486.62598
"3275",68.65339,486.63916
"3276",68.61433,486.65234
"3277",68.63142,486.66553
"3278",68.697334,486.6787
"3279",68.81453,486.6919
"3280",68.97566,486.70508
"3281",69.173416,486.71826
"3282",69.39315,486.73145
"3283",69.610435,486.74463
"3284",69.79843,486.7578
"3285",69.94736,486.771
"3286",70.10849,486.78418
"3287",70.49668,486.79736
"3288",71.58312,486.81055
"3289",73.94156,486.82373
"3290",77.872284,486.8369
"3291",83.15312,486.8501
"3292",89.06142,486.86328
"3293",94.65476,486.87646
"3294",99.04692,486.88965
"3295",101.74471,486.90283
"3296",102.79698,486.91602
"3297",102.61387,486.9292
"3298",101.627525,486.94238
"3299",100.138245,486.95557
"3300",98.336464,486.96875
"3301",96.37354,486.98193
"3302",94.39353,486.99512
"3303",92.5185,487.0083
"3304",90.829025,487.02148
"3305",89.356834,487.03467
"3306",88.077515,487.04785
"3307",86.91783,487.06104
"3308",85.8143,487.07422
"3309",84.715645,487.0874
"3310",83.62432,487.1006
"3311",82.58915,487.11377
"3312",81.68337,487.12695
"3313",80.96803,487.14014
"3314",80.46998,487.15332
"3315",80.184326,487.1665
"3316",80.05737,487.1797
"3317",80.00122,487.19287
"3318",79.92798,487.20605
"3319",79.7522,487.21924
"3320",79.41772,487.23242
"3321",78.905014,487.2456
"3322",78.21896,487.2588
"3323",77.39132,487.27197
"3324",76.45869,487.28516
"3325",75.46746,487.29834
"3326",74.4567,487.31152
"3327",73.46548,487.3247
"3328",72.52796,487.3379
"3329",71.67101,487.35107
"3330",70.91417,487.36426
"3331",70.26475,487.37744
"3332",69.73495,487.39062
"3333",69.315025,487.4038
"3334",69.00252,487.417
"3335",68.790115,487.43018
"3336",68.663155,487.44336
"3337",68.61433,487.45654
"3338",68.63386,487.46973
"3339",68.714424,487.4829
"3340",68.84383,487.4961
"3341",69.017166,487.50928
"3342",69.21492,487.52246
"3343",69.42245,487.53564
"3344",69.61532,487.54883
"3345",69.803314,487.562
"3346",70.09384,487.5752
"3347",70.79698,487.58838
"3348",72.43763,487.60156
"3349",75.48455,487.61475
"3350",80.00122,487.62793
"3351",85.52865,487.6411
"3352",91.244064,487.6543
"3353",96.22705,487.66748
"3354",99.76227,487.68066
"3355",101.6202,487.69385
"3356",102.03525,487.70703
"3357",101.44686,487.7202
"3358",100.21393,487.7334
"3359",98.57572,487.74658
"3360",96.708015,487.75977
"3361",94.769516,487.77295
"3362",92.89937,487.78613
"3363",91.20012,487.79932
"3364",89.720604,487.8125
"3365",88.43885,487.82568
"3366",87.28649,487.83887
"3367",86.185394,487.85205
"3368",85.08675,487.86523
"3369",83.97833,487.87842
"3370",82.9041,487.8916
"3371",81.93973,487.9048
"3372",81.15114,487.91797
"3373",80.57984,487.93115
"3374",80.22339,487.94434
"3375",80.03784,487.95752
"3376",79.94507,487.9707
"3377",79.85962,487.9839
"3378",79.70092,487.99707
"3379",79.40063,488.01025
"3380",78.92699,488.02344
"3381",78.28001,488.03662
"3382",77.48409,488.0498
"3383",76.575874,488.063
"3384",75.60174,488.07617
"3385",74.60807,488.08936
"3386",73.63149,488.10254
"3387",72.708626,488.11572
"3388",71.86145,488.1289
"3389",71.10948,488.1421
"3390",70.452736,488.15527
"3391",69.90585,488.16846
"3392",69.46151,488.18164
"3393",69.12459,488.19482
"3394",68.88533,488.208
"3395",68.733955,488.2212
"3396",68.66804,488.23438
"3397",68.680244,488.24756
"3398",68.76326,488.26074
"3399",68.90486,488.27393
"3400",69.08797,488.2871
"3401",69.28573,488.3003
"3402",69.471275,488.31348
"3403",69.644615,488.32666
"3404",69.86923,488.33984
"3405",70.39414,488.35303
"3406",71.67834,488.3662
"3407",74.21744,488.3794
"3408",78.19699,488.39258
"3409",83.31426,488.40576
"3410",88.85634,488.41895
"3411",93.93942,488.43213
"3412",97.79202,488.4453
"3413",100.04547,488.4585
"3414",100.81697,488.47168
"3415",100.492256,488.48486
"3416",99.459526,488.49805
"3417",97.98001,488.51123
"3418",96.24658,488.5244
"3419",94.415504,488.5376
"3420",92.630806,488.55078
"3421",90.99748,488.56396
"3422",89.564354,488.57715
"3423",88.324104,488.59033
"3424",87.21568,488.60352
"3425",86.15854,488.6167
"3426",85.09407,488.62988
"3427",84.01007,488.64307
"3428",82.93584,488.65625
"3429",81.94461,488.66943
"3430",81.112076,488.68262
"3431",80.48463,488.6958
"3432",80.062256,488.70898
"3433",79.82056,488.72217
"3434",79.68627,488.73535
"3435",79.571526,488.74854
"3436",79.39086,488.76172
"3437",79.08568,488.7749
"3438",78.6218,488.7881
"3439",77.996796,488.80127
"3440",77.23262,488.81445
"3441",76.368355,488.82764
"3442",75.43572,488.84082
"3443",74.48356,488.854
"3444",73.5436,488.8672
"3445",72.65247,488.88037
"3446",71.83215,488.89355
"3447",71.097275,488.90674
"3448",70.46006,488.91992
"3449",69.92294,488.9331
"3450",69.48592,488.9463
"3451",69.149,488.95947
"3452",68.912186,488.97266
"3453",68.770584,488.98584
"3454",68.71198,488.99902
"3455",68.731514,489.0122
"3456",68.80965,489.0254
"3457",68.93172,489.03857
"3458",69.083084,489.05176
"3459",69.241776,489.06494
"3460",69.39559,489.07812
"3461",69.539635,489.0913
"3462",69.76181,489.1045
"3463",70.31602,489.11768
"3464",71.66857,489.13086
"3465",74.27848,489.14404
"3466",78.28733,489.15723
"3467",83.35088,489.1704
"3468",88.74891,489.1836
"3469",93.62203,489.19678
"3470",97.25735,489.20996
"3471",99.34234,489.22314
"3472",100.02106,489.23633
"3473",99.681694,489.2495
"3474",98.6807,489.2627
"3475",97.26711,489.27588
"3476",95.624016,489.28906
"3477",93.910126,489.30225
"3478",92.25239,489.31543
"3479",90.738686,489.3286
"3480",89.40566,489.3418
"3481",88.224,489.35498
"3482",87.132675,489.36816
"3483",86.056,489.38135
"3484",84.9427,489.39453
"3485",83.79767,489.4077
"3486",82.66483,489.4209
"3487",81.6321,489.43408
"3488",80.77272,489.44727
"3489",80.13794,489.46045
"3490",79.727776,489.47363
"3491",79.49584,489.48682
"3492",79.37133,489.5
"3493",79.26147,489.51318
"3494",79.080795,489.52637
"3495",78.77074,489.53955
"3496",78.29954,489.55273
"3497",77.659874,489.56592
"3498",76.88106,489.5791
"3499",75.99725,489.5923
"3500",75.0573,489.60547
"3501",74.107574,489.61865
"3502",73.17738,489.63184
"3503",72.30091,489.64502
"3504",71.500114,489.6582
"3505",70.784775,489.6714
"3506",70.16464,489.68457
"3507",69.64706,489.69775
"3508",69.22957,489.71094
"3509",68.91707,489.72412
"3510",68.697334,489.7373
"3511",68.560616,489.7505
"3512",68.506905,489.76367
"3513",68.52155,489.77686
"3514",68.60212,489.79004
"3515",68.7364,489.80322
"3516",68.90486,489.8164
"3517",69.083084,489.8296
"3518",69.25643,489.84277
"3519",69.42733,489.85596
"3520",69.7203,489.86914
"3521",70.452736,489.88232
"3522",72.12756,489.8955
"3523",75.14519,489.9087
"3524",79.51293,489.92188
"3525",84.76204,489.93506
"3526",90.10391,489.94824
"3527",94.68162,489.96143
"3528",97.87747,489.9746
"3529",99.51568,489.9878
"3530",99.845276,490.00098
"3531",99.2691,490.01416
"3532",98.11185,490.02734
"3533",96.59815,490.04053
"3534",94.89891,490.0537
"3535",93.15816,490.0669
"3536",91.493095,490.08008
"3537",89.97452,490.09326
"3538",88.63172,490.10645
"3539",87.41833,490.11963
"3540",86.26597,490.1328
"3541",85.1136,490.146
"3542",83.93927,490.15918
"3543",82.757614,490.17236
"3544",81.636986,490.18555
"3545",80.66285,490.19873
"3546",79.903564,490.2119
"3547",79.38598,490.2251
"3548",79.10033,490.23828
"3549",78.98802,490.25146
"3550",78.96605,490.26465
"3551",78.93187,490.27783
"3552",78.802475,490.29102
"3553",78.51438,490.3042
"3554",78.05295,490.31738
"3555",77.4255,490.33057
"3556",76.663765,490.34375
"3557",75.80682,490.35693
"3558",74.89372,490.37012
"3559",73.95621,490.3833
"3560",73.02846,490.39648
"3561",72.147095,490.40967
"3562",71.3341,490.42285
"3563",70.608986,490.43604
"3564",69.98642,490.44922
"3565",69.47616,490.4624
"3566",69.08064,490.4756
"3567",68.79988,490.48877
"3568",68.628975,490.50195
"3569",68.56306,490.51514
"3570",68.58259,490.52832
"3571",68.665596,490.5415
"3572",68.790115,490.5547
"3573",68.929276,490.56787
"3574",69.05379,490.58105
"3575",69.16609,490.59424
"3576",69.31747,490.60742
"3577",69.71786,490.6206
"3578",70.7628,490.6338
"3579",72.92592,490.64697
"3580",76.46357,490.66016
"3581",81.19508,490.67334
"3582",86.49546,490.68652
"3583",91.53216,490.6997
"3584",95.52148,490.7129
"3585",98.00198,490.72607
"3586",98.97368,490.73926
"3587",98.77104,490.75244
"3588",97.7847,490.76562
"3589",96.31495,490.7788
"3590",94.557106,490.792
"3591",92.66987,490.80518
"3592",90.777756,490.81836
"3593",88.98085,490.83154
"3594",87.33288,490.84473
"3595",85.83383,490.8579
"3596",84.45197,490.8711
"3597",83.16289,490.88428
"3598",81.96414,490.89746
"3599",80.885025,490.91064
"3600",79.9939,490.92383
"3601",79.35424,490.937
"3602",79.00023,490.9502
"3603",78.91478,490.96338
"3604",79.03441,490.97656
"3605",79.26391,490.98975
"3606",79.4934,491.00293
"3607",79.61547,491.0161
"3608",79.5642,491.0293
"3609",79.30785,491.04248
"3610",78.839096,491.05566
"3611",78.184784,491.06885
"3612",77.3962,491.08203
"3613",76.5124,491.0952
"3614",75.579765,491.1084
"3615",74.632484,491.12158
"3616",73.70718,491.13477
"3617",72.82338,491.14795
"3618",72.010376,491.16113
"3619",71.28771,491.17432
"3620",70.67002,491.1875
"3621",70.169525,491.20068
"3622",69.78378,491.21387
"3623",69.51034,491.22705
"3624",69.32723,491.24023
"3625",69.21248,491.25342
"3626",69.136795,491.2666
"3627",69.09285,491.2798
"3628",69.15144,491.29297
"3629",69.54452,491.30615
"3630",70.68955,491.31934
"3631",73.05043,491.33252
"3632",76.81026,491.3457
"3633",81.69314,491.3589
"3634",87.027695,491.37207
"3635",91.95941,491.38525
"3636",95.74853,491.39844
"3637",98.01419,491.41162
"3638",98.829636,491.4248
"3639",98.55375,491.438
"3640",97.57229,491.45117
"3641",96.15137,491.46436
"3642",94.4741,491.47754
"3643",92.6894,491.49072
"3644",90.90959,491.5039
"3645",89.22255,491.5171
"3646",87.66735,491.53027
"3647",86.239105,491.54346
"3648",84.89632,491.55664
"3649",83.60235,491.56982
"3650",82.34989,491.583
"3651",81.17799,491.5962
"3652",80.15991,491.60938
"3653",79.37621,491.62256
"3654",78.88548,491.63574
"3655",78.69016,491.64893
"3656",78.74143,491.6621
"3657",78.94408,491.6753
"3658",79.185776,491.68848
"3659",79.33715,491.70166
"3660",79.31518,491.71484
"3661",79.07347,491.72803
"3662",78.60471,491.7412
"3663",77.93576,491.7544
"3664",77.11299,491.76758
"3665",76.18768,491.78076
"3666",75.20622,491.79395
"3667",74.20767,491.80713
"3668",73.23598,491.8203
"3669",72.32044,491.8335
"3670",71.49035,491.84668
"3671",70.767685,491.85986
"3672",70.1622,491.87305
"3673",69.66903,491.88623
"3674",69.28573,491.8994
"3675",68.98787,491.9126
"3676",68.76814,491.92578
"3677",68.65339,491.93896
"3678",68.78523,491.95215
"3679",69.5079,491.96533
"3680",71.292595,491.97852
"3681",74.44938,491.9917
"3682",78.890366,492.00488
"3683",84.08087,492.01807
"3684",89.22011,492.03125
"3685",93.507286,492.04443
"3686",96.410164,492.05762
"3687",97.83841,492.0708
"3688",98.07034,492.08398
"3689",97.496605,492.09717
"3690",96.42237,492.11035
"3691",95.04051,492.12354
"3692",93.51217,492.13672
"3693",91.964294,492.1499
"3694",90.48722,492.1631
"3695",89.13222,492.17627
"3696",87.90173,492.18945
"3697",86.74204,492.20264
"3698",85.592125,492.21582
"3699",84.403145,492.229
"3700",83.16533,492.2422
"3701",81.92996,492.25537
"3702",80.780045,492.26855
"3703",79.81079,492.28174
"3704",79.09544,492.29492
"3705",78.66575,492.3081
"3706",78.49485,492.3213
"3707",78.504616,492.33447
"3708",78.58518,492.34766
"3709",78.624245,492.36084
"3710",78.51682,492.37402
"3711",78.21164,492.3872
"3712",77.696495,492.4004
"3713",77.00069,492.41357
"3714",76.16571,492.42676
"3715",75.24284,492.43994
"3716",74.27848,492.45312
"3717",73.31655,492.4663
"3718",72.396126,492.4795
"3719",71.54162,492.49268
"3720",70.78233,492.50586
"3721",70.135345,492.51904
"3722",69.59579,492.53223
"3723",69.153885,492.5454
"3724",68.79256,492.5586
"3725",68.526436,492.57178
"3726",68.45075,492.58496
"3727",68.85115,492.59814
"3728",70.169525,492.61133
"3729",72.76967,492.6245
"3730",76.66132,492.6377
"3731",81.42214,492.65088
"3732",86.346535,492.66406
"3733",90.663,492.67725
"3734",93.79294,492.69043
"3735",95.5581,492.7036
"3736",96.15625,492.7168
"3737",95.94385,492.72998
"3738",95.21141,492.74316
"3739",94.16159,492.75635
"3740",92.95796,492.76953
"3741",91.72259,492.7827
"3742",90.548256,492.7959
"3743",89.481346,492.80908
"3744",88.514534,492.82227
"3745",87.58434,492.83545
"3746",86.61265,492.84863
"3747",85.52621,492.86182
"3748",84.30549,492.875
"3749",82.98222,492.88818
"3750",81.64187,492.90137
"3751",80.396736,492.91455
"3752",79.35424,492.92773
"3753",78.57786,492.94092
"3754",78.08713,492.9541
"3755",77.84787,492.9673
"3756",77.7673,492.98047
"3757",77.738,492.99365
"3758",77.65011,493.00684
"3759",77.4255,493.02002
"3760",77.02022,493.0332
"3761",76.43183,493.0464
"3762",75.68963,493.05957
"3763",74.83513,493.07275
"3764",73.919586,493.08594
"3765",72.989395,493.09912
"3766",72.09094,493.1123
"3767",71.26086,493.1255
"3768",70.52842,493.13867
"3769",69.90585,493.15186
"3770",69.39559,493.16504
"3771",68.98543,493.17822
"3772",68.65827,493.1914
"3773",68.40681,493.2046
"3774",68.2945,493.21777
"3775",68.54597,493.23096
"3776",69.55184,493.24414
"3777",71.69543,493.25732
"3778",75.07927,493.2705
"3779",79.412834,493.2837
"3780",84.09552,493.29688
"3781",88.41688,493.31006
"3782",91.76166,493.32324
"3783",93.86618,493.33643
"3784",94.837875,493.3496
"3785",94.97948,493.3628
"3786",94.574196,493.37598
"3787",93.83688,493.38916
"3788",92.92378,493.40234
"3789",91.95209,493.41553
"3790",91.00969,493.4287
"3791",90.13565,493.4419
"3792",89.325096,493.45508
"3793",88.52186,493.46826
"3794",87.6527,493.48145
"3795",86.641945,493.49463
"3796",85.45541,493.5078
"3797",84.11261,493.521
"3798",82.686806,493.53418
"3799",81.28054,493.54736
"3800",80.025635,493.56055
"3801",79.012436,493.57373
"3802",78.28733,493.5869
"3803",77.84299,493.6001
"3804",77.611046,493.61328
"3805",77.48165,493.62646
"3806",77.35226,493.63965
"3807",77.12764,493.65283
"3808",76.75166,493.66602
"3809",76.21698,493.6792
"3810",75.53338,493.69238
"3811",74.73502,493.70557
"3812",73.85855,493.71875
"3813",72.94545,493.73193
"3814",72.044556,493.74512
"3815",71.19493,493.7583
"3816",70.433205,493.77148
"3817",69.79111,493.78467
"3818",69.27596,493.79785
"3819",68.895096,493.81104
"3820",68.62653,493.82422
"3821",68.44343,493.8374
"3822",68.31892,493.8506
"3823",68.223694,493.86377
"3824",68.15289,493.87695
"3825",68.18219,493.89014
"3826",68.57038,493.90332
"3827",69.73983,493.9165
"3828",72.05432,493.9297
"3829",75.57244,493.94287
"3830",79.96216,493.95605
"3831",84.613106,493.96924
"3832",88.81239,493.98242
"3833",91.998474,493.9956
"3834",93.96872,494.0088
"3835",94.8745,494.02197
"3836",95.01854,494.03516
"3837",94.67429,494.04834
"3838",94.032196,494.06152
"3839",93.241165,494.0747
"3840",92.40864,494.0879
"3841",91.60296,494.10107
"3842",90.84856,494.11426
"3843",90.125885,494.12744
"3844",89.38613,494.14062
"3845",88.56092,494.1538
"3846",87.59167,494.167
"3847",86.44663,494.18018
"3848",85.155106,494.19336
"3849",83.77814,494.20654
"3850",82.425575,494.21973
"3851",81.19997,494.2329
"3852",80.19409,494.2461
"3853",79.449455,494.25928
"3854",78.958725,494.27246
"3855",78.658424,494.28564
"3856",78.46067,494.29883
"3857",78.2678,494.312
"3858",77.99191,494.3252
"3859",77.58419,494.33838
"3860",77.032425,494.35156
"3861",76.351265,494.36475
"3862",75.57,494.37793
"3863",74.73258,494.3911
"3864",73.87076,494.4043
"3865",73.023575,494.41748
"3866",72.21301,494.43066
"3867",71.47082,494.44385
"3868",70.81651,494.45703
"3869",70.26963,494.4702
"3870",69.82773,494.4834
"3871",69.49081,494.49658
"3872",69.24666,494.50977
"3873",69.08064,494.52295
"3874",68.97566,494.53613
"3875",68.929276,494.54932
"3876",68.93416,494.5625
"3877",68.98299,494.57568
"3878",69.06111,494.58887
"3879",69.149,494.60205
"3880",69.224686,494.61523
"3881",69.28329,494.62842
"3882",69.39071,494.6416
"3883",69.786224,494.6548
"3884",70.89464,494.66797
"3885",73.11879,494.68115
"3886",76.544136,494.69434
"3887",80.8777,494.70752
"3888",85.53353,494.7207
"3889",89.8085,494.7339
"3890",93.12154,494.74707
"3891",95.23338,494.76025
"3892",96.271,494.77344
"3893",96.52247,494.78662
"3894",96.24414,494.7998
"3895",95.63134,494.813
"3896",94.84764,494.82617
"3897",94.01511,494.83936
"3898",93.21187,494.85254
"3899",92.47944,494.86572
"3900",91.80316,494.8789
"3901",91.12932,494.8921
"3902",90.389565,494.90527
"3903",89.515526,494.91846
"3904",88.463264,494.93164
"3905",87.23277,494.94482
"3906",85.872894,494.958
"3907",84.46906,494.9712
"3908",83.12871,494.98438
"3909",81.94217,494.99756
"3910",80.9778,495.01074
"3911",80.25269,495.02393
"3912",79.73266,495.0371
"3913",79.35668,495.0503
"3914",79.03929,495.06348
"3915",78.695045,495.07666
"3916",78.26292,495.08984
"3917",77.713585,495.10303
"3918",77.04463,495.1162
"3919",76.27558,495.1294
"3920",75.43328,495.14258
"3921",74.547035,495.15576
"3922",73.65835,495.16895
"3923",72.798965,495.18213
"3924",72.00061,495.1953
"3925",71.29504,495.2085
"3926",70.694435,495.22168
"3927",70.19882,495.23486
"3928",69.805756,495.24805
"3929",69.50301,495.26123
"3930",69.28329,495.2744
"3931",69.12459,495.2876
"3932",69.01961,495.30078
"3933",68.96101,495.31396
"3934",68.93172,495.32715
"3935",68.91951,495.34033
"3936",68.91707,495.35352
"3937",68.92195,495.3667
"3938",68.93172,495.37988
"3939",68.94881,495.39307
"3940",68.980545,495.40625
"3941",69.031815,495.41943
"3942",69.10994,495.43262
"3943",69.20271,495.4458
"3944",69.30038,495.45898
"3945",69.39071,495.47217
"3946",69.488365,495.48535
"3947",69.70565,495.49854
"3948",70.38438,495.51172
"3949",72.025024,495.5249
"3950",74.984055,495.5381
"3951",79.21507,495.55127
"3952",84.24933,495.56445
"3953",89.3666,495.57764
"3954",93.79782,495.59082
"3955",97.00343,495.604
"3956",98.87114,495.6172
"3957",99.649956,495.63037
"3958",99.649956,495.64355
"3959",99.122604,495.65674
"3960",98.248566,495.66992
"3961",97.19142,495.6831
"3962",96.08301,495.6963
"3963",95.02342,495.70947
"3964",94.06149,495.72266
"3965",93.19478,495.73584
"3966",92.37202,495.74902
"3967",91.52239,495.7622
"3968",90.56779,495.7754
"3969",89.45937,495.78857
"3970",88.19226,495.80176
"3971",86.81773,495.81494
"3972",85.42367,495.82812
"3973",84.102844,495.8413
"3974",82.95781,495.8545
"3975",82.04227,495.86768
"3976",81.36843,495.88086
"3977",80.88991,495.89404
"3978",80.53834,495.90723
"3979",80.218506,495.9204
"3980",79.85474,495.9336
"3981",79.38842,495.94678
"3982",78.79515,495.95996
"3983",78.07492,495.97314
"3984",77.2546,495.98633
"3985",76.35615,495.9995
"3986",75.423515,496.0127
"3987",74.49088,496.02588
"3988",73.599754,496.03906
"3989",72.77699,496.05225
"3990",72.042114,496.06543
"3991",71.40978,496.0786
"3992",70.88487,496.0918
"3993",70.4625,496.10498
"3994",70.13046,496.11816
"3995",69.879,496.13135
"3996",69.695885,496.14453
"3997",69.56405,496.1577
"3998",69.47372,496.1709
"3999",69.417564,496.18408
"4000",69.383385,496.19727
"4001",69.366295,496.21045
"4002",69.35897,496.22363
"4003",69.35653,496.23682
"4004",69.35653,496.25
"4005",69.35409,496.26318
"4006",69.35653,496.27637
"4007",69.36874,496.28955
"4008",69.39315,496.30273
"4009",69.434654,496.31592
"4010",69.49325,496.3291
"4011",69.56161,496.3423
"4012",69.62264,496.35547
"4013",69.67635,496.36865
"4014",69.805756,496.38184
"4015",70.27451,496.39502
"4016",71.5758,496.4082
"4017",74.178375,496.4214
"4018",78.1799,496.43457
"4019",83.211716,496.44775
"4020",88.57801,496.46094
"4021",93.46334,496.47412
"4022",97.19142,496.4873
"4023",99.491264,496.5005
"4024",100.526436,496.51367
"4025",100.64362,496.52686
"4026",100.11871,496.54004
"4027",99.16411,496.55322
"4028",97.950714,496.5664
"4029",96.63477,496.5796
"4030",95.33837,496.59277
"4031",94.13962,496.60596
"4032",93.067825,496.61914
"4033",92.09613,496.63232
"4034",91.158615,496.6455
"4035",90.177155,496.6587
"4036",89.08339,496.67188
"4037",87.86267,496.68506
"4038",86.539406,496.69824
"4039",85.19173,496.71143
"4040",83.912415,496.7246
"4041",82.794235,496.7378
"4042",81.89334,496.75098
"4043",81.234146,496.76416
"4044",80.78493,496.77734
"4045",80.47486,496.79053
"4046",80.21362,496.8037
"4047",79.91577,496.8169
"4048",79.520256,496.83008
"4049",78.98314,496.84326
"4050",78.30442,496.85645
"4051",77.503624,496.86963
"4052",76.612495,496.8828
"4053",75.667656,496.896
"4054",74.70573,496.90918
"4055",73.76822,496.92236
"4056",72.88197,496.93555
"4057",72.07385,496.94873
"4058",71.36584,496.9619
"4059",70.77257,496.9751
"4060",70.294044,496.98828
"4061",69.925385,497.00146
"4062",69.65682,497.01465
"4063",69.46639,497.02783
"4064",69.34188,497.04102
"4065",69.263756,497.0542
"4066",69.21736,497.06738
"4067",69.19539,497.08057
"4068",69.18562,497.09375
"4069",69.18318,497.10693
"4070",69.18074,497.12012
"4071",69.18318,497.1333
"4072",69.188065,497.14648
"4073",69.205154,497.15967
"4074",69.23445,497.17285
"4075",69.278404,497.18604
"4076",69.33944,497.19922
"4077",69.41268,497.2124
"4078",69.49569,497.2256
"4079",69.57137,497.23877
"4080",69.644615,497.25195
"4081",69.754486,497.26514
"4082",70.115814,497.27832
"4083",71.19493,497.2915
"4084",73.53872,497.3047
"4085",77.3962,497.31787
"4086",82.51591,497.33105
"4087",88.20935,497.34424
"4088",93.6025,497.35742
"4089",97.88724,497.3706
"4090",100.63386,497.3838
"4091",101.91562,497.39697
"4092",102.10605,497.41016
"4093",101.55428,497.42334
"4094",100.492256,497.43652
"4095",99.09331,497.4497
"4096",97.51125,497.4629
"4097",95.89014,497.47607
"4098",94.33982,497.48926
"4099",92.92622,497.50244
"4100",91.663994,497.51562
"4101",90.50675,497.5288
"4102",89.38613,497.542
"4103",88.22888,497.55518
"4104",87.00084,497.56836
"4105",85.72396,497.58154
"4106",84.44953,497.59473
"4107",83.27276,497.6079
"4108",82.27177,497.6211
"4109",81.50271,497.63428
"4110",80.972916,497.64746
"4111",80.655525,497.66064
"4112",80.46754,497.67383
"4113",80.31373,497.687
"4114",80.093994,497.7002
"4115",79.73998,497.71338
"4116",79.21263,497.72656
"4117",78.51438,497.73975
"4118",77.67208,497.75293
"4119",76.71992,497.7661
"4120",75.701836,497.7793
"4121",74.66422,497.79248
"4122",73.64614,497.80566
"4123",72.67933,497.81885
"4124",71.80286,497.83203
"4125",71.04112,497.8452
"4126",70.40147,497.8584
"4127",69.891205,497.87158
"4128",69.50057,497.88477
"4129",69.21492,497.89795
"4130",69.017166,497.91113
"4131",68.892654,497.92432
"4132",68.824295,497.9375
"4133",68.807205,497.95068
"4134",68.82674,497.96387
"4135",68.878006,497.97705
"4136",68.95125,497.99023
"4137",69.04158,498.00342
"4138",69.14168,498.0166
"4139",69.25399,498.0298
"4140",69.3785,498.04297
"4141",69.505455,498.05615
"4142",69.63241,498.06934
"4143",69.749596,498.08252
"4144",69.84482,498.0957
"4145",69.92294,498.1089
"4146",70.07675,498.12207
"4147",70.58701,498.13525
"4148",71.9884,498.14844
"4149",74.82292,498.16162
"4150",79.23949,498.1748
"4151",84.83284,498.188
"4152",90.79729,498.20117
"4153",96.18799,498.21436
"4154",100.21637,498.22754
"4155",102.55039,498.24072
"4156",103.38293,498.2539
"4157",103.14366,498.2671
"4158",102.19638,498.28027
"4159",100.7657,498.29346
"4160",99.02495,498.30664
"4161",97.127945,498.31982
"4162",95.218735,498.333
"4163",93.40719,498.3462
"4164",91.76898,498.35938
"4165",90.30656,498.37256
"4166",88.97841,498.38574
"4167",87.71618,498.39893
"4168",86.4564,498.4121
"4169",85.1844,498.4253
"4170",83.929504,498.43848
"4171",82.76982,498.45166
"4172",81.78592,498.46484
"4173",81.03639,498.47803
"4174",80.53834,498.4912
"4175",80.272224,498.5044
"4176",80.15991,498.51758
"4177",80.10864,498.53076
"4178",80.01343,498.54395
"4179",79.783936,498.55713
"4180",79.364006,498.5703
"4181",78.74876,498.5835
"4182",77.95041,498.59668
"4183",77.00801,498.60986
"4184",75.96307,498.62305
"4185",74.864426,498.63623
"4186",73.75601,498.6494
"4187",72.68665,498.6626
"4188",71.692986,498.67578
"4189",70.801865,498.68896
"4190",70.04013,498.70215
"4191",69.4078,498.71533
"4192",68.912186,498.72852
"4193",68.53864,498.7417
"4194",68.279854,498.75488
"4195",68.11627,498.76807
"4196",68.03082,498.78125
"4197",68.01129,498.79443
"4198",68.04791,498.80762
"4199",68.13092,498.8208
"4200",68.25056,498.83398
"4201",68.404366,498.84717
"4202",68.58015,498.86035
"4203",68.77547,498.87354
"4204",68.98543,498.88672
"4205",69.19539,498.8999
"4206",69.39315,498.9131
"4207",69.56405,498.92627
"4208",69.70565,498.93945
"4209",69.87656,498.95264
"4210",70.33555,498.96582
"4211",71.588005,498.979
"4212",74.229645,498.9922
"4213",78.538795,499.00537
"4214",84.21271,499.01855
"4215",90.45548,499.03174
"4216",96.26368,499.04492
"4217",100.74616,499.0581
"4218",103.43664,499.0713
"4219",104.44251,499.08447
"4220",104.21057,499.09766
"4221",103.17784,499.11084
"4222",101.607994,499.12402
"4223",99.69146,499.1372
"4224",97.584496,499.1504
"4225",95.4287,499.16357
"4226",93.351036,499.17676
"4227",91.439384,499.18994
"4228",89.72549,499.20312
"4229",88.19226,499.2163
"4230",86.78111,499.2295
"4231",85.44564,499.24268
"4232",84.16632,499.25586
"4233",82.95537,499.26904
"4234",81.87625,499.28223
"4235",81.007095,499.2954
"4236",80.39918,499.3086
"4237",80.062256,499.32178
"4238",79.954834,499.33496
"4239",79.991455,499.34814
"4240",80.0647,499.36133
"4241",80.062256,499.3745
"4242",79.8938,499.3877
"4243",79.50561,499.40088
"4244",78.89281,499.41406
"4245",78.08469,499.42725
"4246",77.1252,499.44043
"4247",76.06317,499.4536
"4248",74.94743,499.4668
"4249",73.829254,499.47998
"4250",72.74525,499.49316
"4251",71.73205,499.50635
"4252",70.81651,499.51953
"4253",70.02792,499.5327
"4254",69.37118,499.5459
"4255",68.84627,499.55908
"4256",68.44587,499.57227
"4257",68.1651,499.58545
"4258",67.984436,499.59863
"4259",67.88678,499.61182
"4260",67.862366,499.625
"4261",67.894104,499.63818
"4262",67.97467,499.65137
"4263",68.10162,499.66455
"4264",68.265205,499.67773
"4265",68.45808,499.69092
"4266",68.663155,499.7041
"4267",68.83894,499.7173
"4268",68.95857,499.73047
"4269",69.017166,499.74365
"4270",69.034256,499.75684
"4271",69.083084,499.77002
"4272",69.402916,499.7832
"4273",70.46494,499.7964
"4274",72.87221,499.80957
"4275",77.00801,499.82275
"4276",82.69901,499.83594
"4277",89.21034,499.84912
"4278",95.499504,499.8623
"4279",100.57038,499.8755
"4280",103.79553,499.88867
"4281",105.13344,499.90186
"4282",105.00404,499.91504
"4283",103.91516,499.92822
"4284",102.21347,499.9414
"4285",100.104065,499.9546
"4286",97.7554,499.96777
"4287",95.31884,499.98096
"4288",92.94087,499.99414
"4289",90.73136,500.00732
"4290",88.75624,500.0205
"4291",87.02037,500.0337
"4292",85.489586,500.04688
"4293",84.11505,500.06006
"4294",82.86748,500.07324
"4295",81.761505,500.08643
"4296",80.84108,500.0996
"4297",80.15015,500.1128
"4298",79.73022,500.12598
"4299",79.56664,500.13916
"4300",79.603264,500.15234
"4301",79.73998,500.16553
"4302",79.869385,500.1787
"4303",79.88403,500.1919
"4304",79.7058,500.20508
"4305",79.30297,500.21826
"4306",78.677956,500.23145
"4307",77.855194,500.24463
"4308",76.88106,500.2578
"4309",75.80438,500.271
"4310",74.67887,500.28418
"4311",73.55337,500.29736
"4312",72.47913,500.31055
"4313",71.49035,500.32373
"4314",70.61875,500.3369
"4315",69.874115,500.3501
"4316",69.261314,500.36328
"4317",68.77791,500.37646
"4318",68.41657,500.38965
"4319",68.16022,500.40283
"4320",68.00641,500.41602
"4321",67.93805,500.4292
"4322",67.94293,500.44238
"4323",68.016174,500.45557
"4324",68.14801,500.46875
"4325",68.33112,500.48193
"4326",68.55085,500.49512
"4327",68.80232,500.5083
"4328",69.065994,500.52148
"4329",69.32723,500.53467
"4330",69.57137,500.54785
"4331",69.79599,500.56104
"4332",70.081635,500.57422
"4333",70.67979,500.5874
"4334",72.08118,500.6006
"4335",74.8571,500.61377
"4336",79.30541,500.62695
"4337",85.152664,500.64014
"4338",91.595634,500.65332
"4339",97.59426,500.6665
"4340",102.21103,500.6797
"4341",104.935684,500.69287
"4342",105.81949,500.70605
"4343",105.31411,500.71924
"4344",103.91028,500.73242
"4345",101.93515,500.7456
"4346",99.60357,500.7588
"4347",97.07912,500.77197
"4348",94.5156,500.78516
"4349",92.04974,500.79834
"4350",89.76944,500.81152
"4351",87.708855,500.8247
"4352",85.86557,500.8379
"4353",84.22247,500.85107
"4354",82.76982,500.86426
"4355",81.53445,500.87744
"4356",80.56519,500.89062
"4357",79.91577,500.9038
"4358",79.603264,500.917
"4359",79.603264,500.93018
"4360",79.835205,500.94336
"4361",80.17944,500.95654
"4362",80.50416,500.96973
"4363",80.68482,500.9829
"4364",80.638435,500.9961
"4365",80.31617,501.00928
"4366",79.73266,501.02246
"4367",78.92699,501.03564
"4368",77.960175,501.04883
"4369",76.89082,501.062
"4370",75.77997,501.0752
"4371",74.67399,501.08838
"4372",73.616844,501.10156
"4373",72.637825,501.11475
"4374",71.766235,501.12793
"4375",71.00694,501.1411
"4376",70.36729,501.1543
"4377",69.837494,501.16748
"4378",69.41512,501.18066
"4379",69.09285,501.19385
"4380",68.86336,501.20703
"4381",68.71931,501.2202
"4382",68.66071,501.2334
"4383",68.67536,501.24658
"4384",68.76082,501.25977
"4385",68.909744,501.27295
"4386",69.11238,501.28613
"4387",69.35165,501.29932
"4388",69.60311,501.3125
"4389",69.84482,501.32568
"4390",70.07187,501.33887
"4391",70.3502,501.35205
"4392",70.93858,501.36523
"4393",72.33021,501.37842
"4394",75.11345,501.3916
"4395",79.56664,501.4048
"4396",85.40658,501.41797
"4397",91.82025,501.43115
"4398",97.76517,501.44434
"4399",102.313576,501.45752
"4400",104.96742,501.4707
"4401",105.81949,501.4839
"4402",105.3312,501.49707
"4403",104.00061,501.51025
"4404",102.149994,501.52344
"4405",99.984436,501.53662
"4406",97.672386,501.5498
"4407",95.35302,501.563
"4408",93.16304,501.57617
"4409",91.17815,501.58936
"4410",89.42519,501.60254
"4411",87.86023,501.61572
"4412",86.41978,501.6289
"4413",85.04524,501.6421
"4414",83.72686,501.65527
"4415",82.5037,501.66846
"4416",81.449,501.68164
"4417",80.62867,501.69482
"4418",80.08667,501.708
"4419",79.80347,501.7212
"4420",79.71557,501.73438
"4421",79.73022,501.74756
"4422",79.7351,501.76074
"4423",79.635,501.77393
"4424",79.361565,501.7871
"4425",78.89525,501.8003
"4426",78.22873,501.81348
"4427",77.39132,501.82666
"4428",76.42939,501.83984
"4429",75.386894,501.85303
"4430",74.30778,501.8662
"4431",73.24086,501.8794
"4432",72.2301,501.89258
"4433",71.30236,501.90576
"4434",70.47471,501.91895
"4435",69.754486,501.93213
"4436",69.14656,501.9453
"4437",68.65583,501.9585
"4438",68.27497,501.97168
"4439",68.001526,501.98486
"4440",67.8233,501.99805
"4441",67.7232,502.01123
"4442",67.701225,502.0244
"4443",67.74761,502.0376
"4444",67.859924,502.05078
"4445",68.03082,502.06396
"4446",68.25056,502.07715
"4447",68.4947,502.09033
"4448",68.731514,502.10352
"4449",68.95857,502.1167
"4450",69.239334,502.12988
"4451",69.80087,502.14307
"4452",71.116806,502.15625
"4453",73.75113,502.16943
"4454",77.99924,502.18262
"4455",83.617,502.1958
"4456",89.84512,502.20898
"4457",95.68993,502.22217
"4458",100.24078,502.23535
"4459",102.99718,502.24854
"4460",104.00549,502.26172
"4461",103.70031,502.2749
"4462",102.555275,502.2881
"4463",100.892654,502.30127
"4464",98.92241,502.31445
"4465",96.81056,502.32764
"4466",94.70847,502.34082
"4467",92.73823,502.354
"4468",90.97551,502.3672
"4469",89.42031,502.38037
"4470",88.01404,502.39355
"4471",86.68833,502.40674
"4472",85.384605,502.41992
"4473",84.09796,502.4331
"4474",82.87236,502.4463
"4475",81.78592,502.45947
"4476",80.91432,502.47266
"4477",80.30396,502.48584
"4478",79.94507,502.49902
"4479",79.79126,502.5122
"4480",79.75464,502.5254
"4481",79.7351,502.53857
"4482",79.63256,502.55176
"4483",79.378654,502.56494
"4484",78.93675,502.57812
"4485",78.30198,502.5913
"4486",77.4963,502.6045
"4487",76.56611,502.61768
"4488",75.562675,502.63086
"4489",74.53239,502.64404
"4490",73.51675,502.65723
"4491",72.549934,502.6704
"4492",71.658806,502.6836
"4493",70.86534,502.69678
"4494",70.17685,502.70996
"4495",69.60067,502.72314
"4496",69.13191,502.73633
"4497",68.770584,502.7495
"4498",68.509346,502.7627
"4499",68.34089,502.77588
"4500",68.262764,502.78906
"4501",68.27253,502.80225
"4502",68.35798,502.81543
"4503",68.50202,502.8286
"4504",68.68757,502.8418
"4505",68.878006,502.85498
"4506",69.065994,502.86816
"4507",69.24666,502.88135
"4508",69.505455,502.89453
"4509",70.10361,502.9077
"4510",71.51476,502.9209
"4511",74.23453,502.93408
