"","ppg","time"
"1",82.984665,703.1929
"2",84.42756,703.20605
"3",85.470055,703.21924
"4",86.056,703.2324
"5",86.22446,703.2456
"6",86.065765,703.2588
"7",85.70199,703.272
"8",85.24788,703.28516
"9",84.79622,703.29834
"10",84.40559,703.3115
"11",84.102844,703.3247
"12",83.888,703.3379
"13",83.72198,703.3511
"14",83.563286,703.36426
"15",83.370415,703.37744
"16",83.104294,703.3906
"17",82.757614,703.4038
"18",82.354774,703.417
"19",81.92508,703.4302
"20",81.51736,703.44336
"21",81.16579,703.45654
"22",80.89967,703.4697
"23",80.71656,703.4829
"24",80.59937,703.4961
"25",80.52613,703.5093
"26",80.465096,703.52246
"27",80.38453,703.53564
"28",80.2649,703.5488
"29",80.1062,703.562
"30",79.91089,703.5752
"31",79.68871,703.5884
"32",79.45434,703.60156
"33",79.2224,703.61475
"34",78.995346,703.6279
"35",78.77562,703.6411
"36",78.56565,703.6543
"37",78.380104,703.6675
"38",78.21164,703.68066
"39",78.06271,703.69385
"40",77.925995,703.70703
"41",77.80148,703.7202
"42",77.679405,703.7334
"43",77.557335,703.7466
"44",77.44259,703.75977
"45",77.33517,703.77295
"46",77.24483,703.78613
"47",77.16182,703.7993
"48",77.08858,703.8125
"49",77.02754,703.8257
"50",76.97627,703.83887
"51",76.929886,703.85205
"52",76.893265,703.86523
"53",76.87129,703.8784
"54",76.859085,703.8916
"55",76.84932,703.9048
"56",76.84688,703.91797
"57",76.83711,703.93115
"58",76.824905,703.94434
"59",76.822464,703.9575
"60",76.90547,703.9707
"61",77.188675,703.9839
"62",77.80881,703.9971
"63",78.82933,704.01025
"64",80.216064,704.02344
"65",81.83719,704.0366
"66",83.46807,704.0498
"67",84.88167,704.063
"68",85.9144,704.0762
"69",86.519875,704.08936
"70",86.72007,704.10254
"71",86.60044,704.1157
"72",86.26597,704.1289
"73",85.81918,704.1421
"74",85.35531,704.1553
"75",84.93294,704.16846
"76",84.58381,704.18164
"77",84.31037,704.1948
"78",84.08331,704.208
"79",83.87091,704.2212
"80",83.62676,704.2344
"81",83.32159,704.24756
"82",82.96025,704.26074
"83",82.55741,704.2739
"84",82.144806,704.2871
"85",81.76395,704.3003
"86",81.44167,704.3135
"87",81.19997,704.32666
"88",81.03639,704.33984
"89",80.94118,704.353
"90",80.88014,704.3662
"91",80.82887,704.3794
"92",80.75319,704.3926
"93",80.635994,704.40576
"94",80.47486,704.41895
"95",80.274666,704.4321
"96",80.04028,704.4453
"97",79.78638,704.4585
"98",79.52514,704.4717
"99",79.26391,704.48486
"100",79.012436,704.49805
"101",78.7805,704.5112
"102",78.56809,704.5244
"103",78.37766,704.5376
"104",78.21164,704.5508
"105",78.06271,704.56396
"106",77.93088,704.57715
"107",77.81613,704.59033
"108",77.713585,704.6035
"109",77.62081,704.6167
"110",77.54513,704.6299
"111",77.47677,704.64307
"112",77.420616,704.65625
"113",77.37423,704.66943
"114",77.33761,704.6826
"115",77.30587,704.6958
"116",77.279015,704.709
"117",77.2546,704.72217
"118",77.225296,704.73535
"119",77.19112,704.74854
"120",77.14961,704.7617
"121",77.134964,704.7749
"122",77.239944,704.7881
"123",77.59884,704.8013
"124",78.328835,704.81445
"125",79.47143,704.82764
"126",80.96315,704.8408
"127",82.633095,704.854
"128",84.242004,704.8672
"129",85.57748,704.8804
"130",86.50034,704.89355
"131",86.98375,704.90674
"132",87.07164,704.9199
"133",86.854355,704.9331
"134",86.44419,704.9463
"135",85.93881,704.9595
"136",85.42855,704.97266
"137",84.97444,704.98584
"138",84.59846,704.999
"139",84.300606,705.0122
"140",84.054016,705.0254
"141",83.81232,705.0386
"142",83.53155,705.05176
"143",83.192184,705.06494
"144",82.80156,705.0781
"145",82.38163,705.0913
"146",81.969025,705.1045
"147",81.600365,705.1177
"148",81.30007,705.13086
"149",81.075455,705.14404
"150",80.91432,705.1572
"151",80.799576,705.1704
"152",80.706795,705.1836
"153",80.604256,705.1968
"154",80.46998,705.20996
"155",80.29664,705.22314
"156",80.08667,705.2363
"157",79.84741,705.2495
"158",79.586174,705.2627
"159",79.31274,705.2759
"160",79.03685,705.28906
"161",78.76097,705.30225
"162",78.48997,705.3154
"163",78.23361,705.3286
"164",77.994354,705.3418
"165",77.78195,705.355
"166",77.59884,705.36816
"167",77.44991,705.38135
"168",77.3254,705.39453
"169",77.21797,705.4077
"170",77.12764,705.4209
"171",77.04707,705.4341
"172",76.97627,705.44727
"173",76.91768,705.46045
"174",76.86153,705.47363
"175",76.807816,705.4868
"176",76.749214,705.5
"177",76.69306,705.5132
"178",76.663765,705.52637
"179",76.756546,705.53955
"180",77.09834,705.55273
"181",77.81369,705.5659
"182",78.941635,705.5791
"183",80.428474,705.5923
"184",82.11795,705.60547
"185",83.76837,705.61865
"186",85.15999,705.63184
"187",86.136566,705.645
"188",86.659035,705.6582
"189",86.7567,705.6714
"190",86.5272,705.6846
"191",86.07797,705.69775
"192",85.53109,705.71094
"193",84.96956,705.7241
"194",84.456856,705.7373
"195",84.02472,705.7505
"196",83.67071,705.7637
"197",83.36797,705.77686
"198",83.075,705.79004
"199",82.75029,705.8032
"200",82.37675,705.8164
"201",81.95682,705.8296
"202",81.50759,705.8428
"203",81.075455,705.85596
"204",80.69703,705.86914
"205",80.39918,705.8823
"206",80.184326,705.8955
"207",80.04028,705.9087
"208",79.937744,705.9219
"209",79.84741,705.93506
"210",79.73998,705.94824
"211",79.60082,705.9614
"212",79.41772,705.9746
"213",79.19554,705.9878
"214",78.941635,706.001
"215",78.66819,706.01416
"216",78.382545,706.02734
"217",78.101776,706.0405
"218",77.82834,706.0537
"219",77.57198,706.0669
"220",77.332726,706.0801
"221",77.117874,706.09326
"222",76.929886,706.10645
"223",76.771194,706.1196
"224",76.64423,706.1328
"225",76.54658,706.146
"226",76.473335,706.1592
"227",76.41718,706.17236
"228",76.37324,706.18555
"229",76.334175,706.1987
"230",76.30244,706.2119
"231",76.2707,706.2251
"232",76.24872,706.2383
"233",76.29023,706.25146
"234",76.51484,706.26465
"235",77.049515,706.27783
"236",77.99191,706.291
"237",79.33471,706.3042
"238",80.96315,706.3174
"239",82.667274,706.33057
"240",84.2005,706.34375
"241",85.367516,706.35693
"242",86.080414,706.3701
"243",86.348976,706.3833
"244",86.24643,706.3965
"245",85.88022,706.40967
"246",85.365074,706.42285
"247",84.80354,706.43604
"248",84.27375,706.4492
"249",83.81476,706.4624
"250",83.43633,706.4756
"251",83.123825,706.4888
"252",82.83574,706.50195
"253",82.530556,706.51514
"254",82.176544,706.5283
"255",81.778595,706.5415
"256",81.35134,706.5547
"257",80.93141,706.5679
"258",80.55543,706.58105
"259",80.25025,706.59424
"260",80.025635,706.6074
"261",79.87915,706.6206
"262",79.78638,706.6338
"263",79.71557,706.647
"264",79.639885,706.66016
"265",79.53002,706.67334
"266",79.37133,706.6865
"267",79.168686,706.6997
"268",78.92943,706.7129
"269",78.67063,706.7261
"270",78.40208,706.73926
"271",78.133514,706.75244
"272",77.87717,706.7656
"273",77.63302,706.7788
"274",77.41329,706.792
"275",77.21797,706.8052
"276",77.04707,706.81836
"277",76.90547,706.83154
"278",76.790726,706.8447
"279",76.697945,706.8579
"280",76.62226,706.8711
"281",76.56367,706.8843
"282",76.51484,706.89746
"283",76.470894,706.91064
"284",76.42695,706.9238
"285",76.404976,706.937
"286",76.473335,706.9502
"287",76.75166,706.9634
"288",77.36446,706.97656
"289",78.37034,706.98975
"290",79.742424,707.0029
"291",81.339134,707.0161
"292",82.933395,707.0293
"293",84.300606,707.0425
"294",85.279625,707.05566
"295",85.8143,707.06885
"296",85.93393,707.08203
"297",85.7264,707.0952
"298",85.31136,707.1084
"299",84.79378,707.1216
"300",84.26887,707.13477
"301",83.80499,707.14795
"302",83.41924,707.16113
"303",83.09941,707.1743
"304",82.81865,707.1875
"305",82.528114,707.2007
"306",82.196075,707.21387
"307",81.80789,707.22705
"308",81.38308,707.24023
"309",80.95094,707.2534
"310",80.55543,707.2666
"311",80.22583,707.2798
"312",79.98169,707.29297
"313",79.818115,707.30615
"314",79.71801,707.31934
"315",79.65942,707.3325
"316",79.603264,707.3457
"317",79.5227,707.3589
"318",79.40551,707.3721
"319",79.23216,707.38525
"320",79.012436,707.39844
"321",78.76097,707.4116
"322",78.487526,707.4248
"323",78.21652,707.438
"324",77.95773,707.4512
"325",77.71603,707.46436
"326",77.4963,707.47754
"327",77.30099,707.4907
"328",77.13252,707.5039
"329",76.99092,707.5171
"330",76.88106,707.5303
"331",76.790726,707.54346
"332",76.715034,707.55664
"333",76.646675,707.5698
"334",76.58076,707.583
"335",76.52705,707.5962
"336",76.53437,707.6094
"337",76.70283,707.62256
"338",77.152054,707.63574
"339",77.962616,707.6489
"340",79.13695,707.6621
"341",80.567635,707.6753
"342",82.0618,707.6885
"343",83.39727,707.70166
"344",84.39582,707.71484
"345",84.979324,707.728
"346",85.15755,707.7412
"347",85.01106,707.7544
"348",84.647285,707.7676
"349",84.16876,707.78076
"350",83.66827,707.79395
"351",83.20683,707.8071
"352",82.81621,707.8203
"353",82.48661,707.8335
"354",82.18631,707.8467
"355",81.883575,707.85986
"356",81.55154,707.87305
"357",81.180435,707.8862
"358",80.78737,707.8994
"359",80.40894,707.9126
"360",80.08667,707.9258
"361",79.84253,707.93896
"362",79.68871,707.95215
"363",79.61303,707.96533
"364",79.586174,707.9785
"365",79.56664,707.9917
"366",79.5227,708.0049
"367",79.432365,708.01807
"368",79.28344,708.03125
"369",79.08812,708.04443
"370",78.86107,708.0576
"371",78.61692,708.0708
"372",78.37278,708.084
"373",78.133514,708.09717
"374",77.90158,708.11035
"375",77.68673,708.12354
"376",77.49386,708.1367
"377",77.3254,708.1499
"378",77.17891,708.1631
"379",77.0544,708.1763
"380",76.93965,708.18945
"381",76.83467,708.20264
"382",76.74677,708.2158
"383",76.71015,708.229
"384",76.807816,708.2422
"385",77.152054,708.2554
"386",77.83566,708.26855
"387",78.887924,708.28174
"388",80.233154,708.2949
"389",81.70779,708.3081
"390",83.09697,708.3213
"391",84.207825,708.3345
"392",84.93294,708.34766
"393",85.25277,708.36084
"394",85.23323,708.374
"395",84.97444,708.3872
"396",84.58625,708.4004
"397",84.16144,708.4136
"398",83.76593,708.42676
"399",83.42657,708.43994
"400",83.14824,708.4531
"401",82.89433,708.4663
"402",82.62821,708.4795
"403",82.31571,708.4927
"404",81.93729,708.50586
"405",81.50759,708.51904
"406",81.058365,708.5322
"407",80.63355,708.5454
"408",80.27711,708.5586
"409",80.01343,708.5718
"410",79.835205,708.58496
"411",79.73266,708.59814
"412",79.66674,708.6113
"413",79.60815,708.6245
"414",79.52514,708.6377
"415",79.398186,708.6509
"416",79.2224,708.66406
"417",79.00755,708.67725
"418",78.76341,708.6904
"419",78.504616,708.7036
"420",78.24826,708.7168
"421",77.99924,708.73
"422",77.76486,708.74316
"423",77.55001,708.75635
"424",77.35958,708.76953
"425",77.188675,708.7827
"426",77.03975,708.7959
"427",76.90791,708.8091
"428",76.788284,708.82227
"429",76.6833,708.83545
"430",76.61738,708.84863
"431",76.66621,708.8618
"432",76.93477,708.875
"433",77.54269,708.8882
"434",78.52659,708.90137
"435",79.84253,708.91455
"436",81.339134,708.92773
"437",82.804,708.9409
"438",84.02716,708.9541
"439",84.88167,708.9673
"440",85.3431,708.98047
"441",85.45785,708.99365
"442",85.330894,709.00684
"443",85.05989,709.02
"444",84.749825,709.0332
"445",84.454414,709.0464
"446",84.20538,709.0596
"447",83.99542,709.07275
"448",83.80011,709.08594
"449",83.57061,709.0991
"450",83.265434,709.1123
"451",82.86992,709.1255
"452",82.38407,709.1387
"453",81.83963,709.15186
"454",81.28542,709.16504
"455",80.77516,709.1782
"456",80.35279,709.1914
"457",80.04028,709.2046
"458",79.823,709.2178
"459",79.68139,709.23096
"460",79.57397,709.24414
"461",79.46166,709.2573
"462",79.32006,709.2705
"463",79.13939,709.2837
"464",78.91722,709.2969
"465",78.660866,709.31006
"466",78.38499,709.32324
"467",78.09689,709.3364
"468",77.803925,709.3496
"469",77.51827,709.3628
"470",77.25216,709.376
"471",77.00557,709.38916
"472",76.788284,709.40234
"473",76.60517,709.4155
"474",76.46113,709.4287
"475",76.34394,709.4419
"476",76.24872,709.4551
"477",76.16571,709.46826
"478",76.085144,709.48145
"479",76.00458,709.4946
"480",75.9411,709.5078
"481",75.95575,709.521
"482",76.15839,709.5342
"483",76.66621,709.54736
"484",77.55245,709.56055
"485",78.79759,709.5737
"486",80.28443,709.5869
"487",81.812775,709.6001
"488",83.160446,709.6133
"489",84.16144,709.62646
"490",84.76204,709.63965
"491",84.99153,709.65283
"492",84.93782,709.666
"493",84.70832,709.6792
"494",84.40803,709.6924
"495",84.11017,709.70557
"496",83.85626,709.71875
"497",83.64385,709.73193
"498",83.46075,709.7451
"499",83.25811,709.7583
"500",82.99443,709.7715
"501",82.63065,709.78467
"502",82.16678,709.79785
"503",81.62234,709.81104
"504",81.04372,709.8242
"505",80.48951,709.8374
"506",80.008545,709.8506
"507",79.635,709.8638
"508",79.36889,709.87695
"509",79.19066,709.89014
"510",79.06615,709.9033
"511",78.958725,709.9165
"512",78.83421,709.9297
"513",78.66575,709.9429
"514",78.450905,709.95605
"515",78.19699,709.96924
"516",77.91867,709.9824
"517",77.63058,709.9956
"518",77.35226,710.0088
"519",77.083694,710.022
"520",76.82735,710.03516
"521",76.58564,710.04834
"522",76.36591,710.0615
"523",76.16815,710.0747
"524",75.99481,710.0879
"525",75.84589,710.1011
"526",75.72137,710.11426
"527",75.62371,710.12744
"528",75.545586,710.1406
"529",75.48455,710.1538
"530",75.440605,710.167
"531",75.41131,710.1802
"532",75.39178,710.19336
"533",75.38201,710.20654
"534",75.37957,710.2197
"535",75.38201,710.2329
"536",75.37713,710.2461
"537",75.36248,710.2593
"538",75.35027,710.27246
"539",75.38201,710.28564
"540",75.562675,710.2988
"541",76.02899,710.312
"542",76.87862,710.3252
"543",78.11154,710.3384
"544",79.62035,710.35156
"545",81.20973,710.36475
"546",82.63798,710.3779
"547",83.72198,710.3911
"548",84.37873,710.4043
"549",84.63752,710.4175
"550",84.58869,710.43066
"551",84.34699,710.44385
"552",84.01984,710.45703
"553",83.69512,710.4702
"554",83.4168,710.4834
"555",83.20439,710.4966
"556",83.038376,710.50977
"557",82.882126,710.52295
"558",82.686806,710.53613
"559",82.42069,710.5493
"560",82.06668,710.5625
"561",81.634544,710.5757
"562",81.163345,710.58887
"563",80.70435,710.60205
"564",80.30152,710.61523
"565",79.98169,710.6284
"566",79.75708,710.6416
"567",79.61059,710.6548
"568",79.51049,710.66797
"569",79.42504,710.68115
"570",79.32494,710.69434
"571",79.19554,710.7075
"572",79.02464,710.7207
"573",78.82201,710.7339
"574",78.59251,710.7471
"575",78.35325,710.76025
"576",78.11154,710.77344
"577",77.87717,710.7866
"578",77.65255,710.7998
"579",77.44259,710.813
"580",77.24483,710.8262
"581",77.06416,710.83936
"582",76.90547,710.85254
"583",76.773636,710.8657
"584",76.66865,710.8789
"585",76.5832,710.8921
"586",76.5124,710.9053
"587",76.456245,710.91846
"588",76.404976,710.93164
"589",76.35859,710.9448
"590",76.31953,710.958
"591",76.28779,710.9712
"592",76.25849,710.9844
"593",76.23895,710.99756
"594",76.22919,711.01074
"595",76.22919,711.0239
"596",76.23407,711.0371
"597",76.241394,711.0503
"598",76.24628,711.0635
"599",76.243835,711.07666
"600",76.23651,711.08984
"601",76.23895,711.103
"602",76.317085,711.1162
"603",76.578316,711.1294
"604",77.14961,711.1426
"605",78.09689,711.15576
"606",79.395744,711.16895
"607",80.91432,711.1821
"608",82.43534,711.1953
"609",83.73907,711.2085
"610",84.664375,711.2217
"611",85.16731,711.23486
"612",85.28695,711.24805
"613",85.120926,711.2612
"614",84.78401,711.2744
"615",84.3885,711.2876
"616",84.017395,711.3008
"617",83.717094,711.31396
"618",83.49981,711.32715
"619",83.336235,711.34033
"620",83.18486,711.3535
"621",82.99443,711.3667
"622",82.72831,711.3799
"623",82.38407,711.39307
"624",81.98123,711.40625
"625",81.55642,711.41943
"626",81.16579,711.4326
"627",80.83864,711.4458
"628",80.59449,711.459
"629",80.430916,711.47217
"630",80.33326,711.48535
"631",80.2649,711.49854
"632",80.201416,711.5117
"633",80.11597,711.5249
"634",79.991455,711.5381
"635",79.83032,711.5513
"636",79.63744,711.56445
"637",79.4226,711.57764
"638",79.1931,711.5908
"639",78.96605,711.604
"640",78.73899,711.6172
"641",78.521706,711.6304
"642",78.31907,711.64355
"643",78.13107,711.65674
"644",77.962616,711.6699
"645",77.81613,711.6831
"646",77.69161,711.6963
"647",77.58907,711.7095
"648",77.503624,711.72266
"649",77.435265,711.73584
"650",77.37911,711.749
"651",77.3254,711.7622
"652",77.27657,711.7754
"653",77.23262,711.7886
"654",77.196,711.80176
"655",77.16426,711.81494
"656",77.13985,711.8281
"657",77.12276,711.8413
"658",77.120316,711.8545
"659",77.120316,711.8677
"660",77.11543,711.88086
"661",77.100784,711.89404
"662",77.07637,711.9072
"663",77.049515,711.9204
"664",77.07637,711.9336
"665",77.2546,711.9468
"666",77.70626,711.95996
"667",78.5095,711.97314
"668",79.66674,711.9863
"669",81.075455,711.9995
"670",82.55741,712.0127
"671",83.888,712.0259
"672",84.89876,712.03906
"673",85.50912,712.05225
"674",85.73373,712.0654
"675",85.64095,712.0786
"676",85.333336,712.0918
"677",84.92317,712.105
"678",84.5008,712.11816
"679",84.12726,712.13135
"680",83.83429,712.14453
"681",83.612114,712.1577
"682",83.42901,712.1709
"683",83.23613,712.1841
"684",82.99199,712.19727
"685",82.68192,712.21045
"686",82.31083,712.22363
"687",81.91287,712.2368
"688",81.529564,712.25
"689",81.20729,712.2632
"690",80.96071,712.27637
"691",80.79469,712.28955
"692",80.69703,712.30273
"693",80.64332,712.3159
"694",80.601814,712.3291
"695",80.53834,712.3423
"696",80.43824,712.35547
"697",80.291756,712.36865
"698",80.10132,712.38184
"699",79.87427,712.395
"700",79.63012,712.4082
"701",79.37621,712.4214
"702",79.12474,712.4346
"703",78.88548,712.44775
"704",78.65598,712.46094
"705",78.44114,712.4741
"706",78.24826,712.4873
"707",78.0798,712.5005
"708",77.93088,712.5137
"709",77.81125,712.52686
"710",77.713585,712.54004
"711",77.63302,712.5532
"712",77.56466,712.5664
"713",77.51339,712.5796
"714",77.471886,712.5928
"715",77.44747,712.60596
"716",77.4255,712.61914
"717",77.40353,712.6323
"718",77.37667,712.6455
"719",77.34005,712.6587
"720",77.29366,712.6719
"721",77.24483,712.68506
"722",77.22041,712.69824
"723",77.296104,712.7114
"724",77.574425,712.7246
"725",78.16037,712.7378
"726",79.097885,712.751
"727",80.33814,712.76416
"728",81.74685,712.77734
"729",83.1165,712.7905
"730",84.25178,712.8037
"731",85.02327,712.8169
"732",85.40658,712.8301
"733",85.435875,712.84326
"734",85.19905,712.85645
"735",84.8011,712.8696
"736",84.334785,712.8828
"737",83.87091,712.896
"738",83.44854,712.9092
"739",83.08476,712.92236
"740",82.76738,712.93555
"741",82.46708,712.9487
"742",82.16434,712.9619
"743",81.849396,712.9751
"744",81.532005,712.9883
"745",81.24147,713.00146
"746",81.004654,713.01465
"747",80.84596,713.02783
"748",80.765396,713.041
"749",80.7483,713.0542
"750",80.77028,713.0674
"751",80.79469,713.08057
"752",80.79225,713.09375
"753",80.73609,713.10693
"754",80.618904,713.1201
"755",80.445564,713.1333
"756",80.22339,713.1465
"757",79.96948,713.15967
"758",79.693596,713.17285
"759",79.41039,713.18604
"760",79.12718,713.1992
"761",78.856186,713.2124
"762",78.60227,713.2256
"763",78.37278,713.2388
"764",78.17258,713.25195
"765",78.00168,713.26514
"766",77.86984,713.2783
"767",77.7673,713.2915
"768",77.69894,713.3047
"769",77.64767,713.3179
"770",77.611046,713.33105
"771",77.574425,713.34424
"772",77.53048,713.3574
"773",77.488976,713.3706
"774",77.49142,713.3838
"775",77.63058,713.397
"776",78.01877,713.41016
"777",78.74143,713.42334
"778",79.81079,713.4365
"779",81.1487,713.4497
"780",82.59159,713.4629
"781",83.94171,713.4761
"782",85.02815,713.48926
"783",85.750824,713.50244
"784",86.10239,713.5156
"785",86.11948,713.5288
"786",85.88022,713.542
"787",85.489586,713.5552
"788",85.033035,713.56836
"789",84.576485,713.58154
"790",84.16876,713.5947
"791",83.81476,713.6079
"792",83.49737,713.6211
"793",83.177536,713.6343
"794",82.83818,713.64746
"795",82.4744,713.66064
"796",82.10574,713.6738
"797",81.76395,713.687
"798",81.48318,713.7002
"799",81.2781,713.7134
"800",81.15358,713.72656
"801",81.0901,713.73975
"802",81.06569,713.7529
"803",81.04372,713.7661
"804",80.99245,713.7793
"805",80.885025,713.7925
"806",80.719,713.80566
"807",80.48951,713.81885
"808",80.21118,713.83203
"809",79.89868,713.8452
"810",79.571526,713.8584
"811",79.234604,713.8716
"812",78.907455,713.88477
"813",78.59495,713.89795
"814",78.3093,713.91113
"815",78.05783,713.9243
"816",77.840546,713.9375
"817",77.65743,713.9507
"818",77.50118,713.96387
"819",77.36202,713.97705
"820",77.2375,713.99023
"821",77.134964,714.0034
"822",77.11543,714.0166
"823",77.279015,714.0298
"824",77.747765,714.04297
"825",78.59251,714.05615
"826",79.818115,714.06934
"827",81.324486,714.0825
"828",82.92607,714.0957
"829",84.403145,714.1089
"830",85.5848,714.1221
"831",86.36851,714.13525
"832",86.74937,714.14844
"833",86.78111,714.1616
"834",86.556496,714.1748
"835",86.18295,714.188
"836",85.75815,714.2012
"837",85.347984,714.21436
"838",84.981766,714.22754
"839",84.65949,714.2407
"840",84.351875,714.2539
"841",84.01007,714.2671
"842",83.60235,714.2803
"843",83.1165,714.29346
"844",82.57206,714.30664
"845",82.00809,714.3198
"846",81.480736,714.333
"847",81.03395,714.3462
"848",80.69459,714.3594
"849",80.45045,714.37256
"850",80.27955,714.38574
"851",80.14526,714.3989
"852",80.01099,714.4121
"853",79.84497,714.4253
"854",79.63012,714.4385
"855",79.364006,714.45166
"856",79.046616,714.46484
"857",78.69749,714.478
"858",78.331276,714.4912
"859",77.960175,714.5044
"860",77.59884,714.5176
"861",77.261925,714.53076
"862",76.95186,714.54395
"863",76.67597,714.5571
"864",76.43183,714.5703
"865",76.21454,714.5835
"866",76.02167,714.5967
"867",75.84589,714.60986
"868",75.701836,714.62305
"869",75.65301,714.6362
"870",75.81171,714.6494
"871",76.30732,714.6626
"872",77.21797,714.6758
"873",78.538795,714.68896
"874",80.15259,714.70215
"875",81.85428,714.71533
"876",83.41192,714.7285
"877",84.644844,714.7417
"878",85.46273,714.7549
"879",85.86313,714.76807
"880",85.92172,714.78125
"881",85.748375,714.79443
"882",85.44808,714.8076
"883",85.118484,714.8208
"884",84.808426,714.834
"885",84.53986,714.84717
"886",84.29328,714.86035
"887",84.034485,714.87354
"888",83.717094,714.8867
"889",83.3045,714.8999
"890",82.777145,714.9131
"891",82.142365,714.9263
"892",81.43923,714.93945
"893",80.73121,714.95264
"894",80.076904,714.9658
"895",79.53002,714.979
"896",79.114975,714.9922
"897",78.81712,715.0054
"898",78.59739,715.01855
"899",78.41917,715.03174
"900",78.24338,715.0449
"901",78.03586,715.0581
"902",77.786835,715.0713
"903",77.4963,715.0845
"904",77.17403,715.09766
"905",76.82979,715.11084
"906",76.47578,715.124
"907",76.121765,715.1372
"908",75.77753,715.1504
"909",75.45281,715.1636
"910",75.157394,715.17676
"911",74.90105,715.18994
"912",74.69352,715.2031
"913",74.53727,715.2163
"914",74.424965,715.2295
"915",74.34684,715.2427
"916",74.29557,715.25586
"917",74.251625,715.26904
"918",74.20523,715.2822
"919",74.16617,715.2954
"920",74.19058,715.3086
"921",74.38834,715.3218
"922",74.896164,715.33496
"923",75.80438,715.34814
"924",77.11543,715.3613
"925",78.72434,715.3745
"926",80.428474,715.3877
"927",81.99832,715.4009
"928",83.245895,715.41406
"929",84.088196,715.42725
"930",84.53254,715.4404
"931",84.65217,715.4536
"932",84.55695,715.4668
"933",84.34699,715.48
"934",84.105286,715.49316
"935",83.88556,715.50635
"936",83.70489,715.51953
"937",83.54131,715.5327
"938",83.370415,715.5459
"939",83.14336,715.5591
"940",82.81865,715.57227
"941",82.371864,715.58545
"942",81.8201,715.59863
"943",81.19508,715.6118
"944",80.552986,715.625
"945",79.95239,715.6382
"946",79.44213,715.65137
"947",79.04173,715.66455
"948",78.74876,715.67773
"949",78.54124,715.6909
"950",78.380104,715.7041
"951",78.23361,715.7173
"952",78.06271,715.73047
"953",77.855194,715.74365
"954",77.608604,715.75684
"955",77.32784,715.77
"956",77.02266,715.7832
"957",76.715034,715.7964
"958",76.40986,715.8096
"959",76.11688,715.82275
"960",75.841,715.83594
"961",75.596855,715.8491
"962",75.38201,715.8623
"963",75.20134,715.8755
"964",75.052414,715.8887
"965",74.93523,715.90186
"966",74.84245,715.91504
"967",74.76921,715.9282
"968",74.71549,715.9414
"969",74.67643,715.9546
"970",74.65446,715.9678
"971",74.64713,715.98096
"972",74.649574,715.99414
"973",74.66422,716.0073
"974",74.683754,716.0205
"975",74.70817,716.0337
"976",74.73014,716.0469
"977",74.74723,716.06006
"978",74.79118,716.07324
"979",74.94255,716.0864
"980",75.33318,716.0996
"981",76.0827,716.1128
"982",77.2375,716.126
"983",78.73411,716.13916
"984",80.39918,716.15234
"985",82.003204,716.1655
"986",83.33135,716.1787
"987",84.25178,716.1919
"988",84.75227,716.2051
"989",84.89632,716.21826
"990",84.79378,716.23145
"991",84.56428,716.2446
"992",84.30305,716.2578
"993",84.07843,716.271
"994",83.912415,716.2842
"995",83.792786,716.29736
"996",83.69024,716.31055
"997",83.560844,716.3237
"998",83.36309,716.3369
"999",83.06523,716.3501
"1000",82.67216,716.3633
"1001",82.196075,716.37646
"1002",81.68093,716.38965
"1003",81.17311,716.40283
"1004",80.723885,716.416
"1005",80.36744,716.4292
"1006",80.10864,716.4424
"1007",79.93286,716.45557
"1008",79.80835,716.46875
"1009",79.70336,716.48193
"1010",79.58373,716.4951
"1011",79.429924,716.5083
"1012",79.23949,716.5215
"1013",79.01488,716.53467
"1014",78.765854,716.54785
"1015",78.502174,716.56104
"1016",78.23605,716.5742
"1017",77.98215,716.5874
"1018",77.738,716.6006
"1019",77.51827,716.6138
"1020",77.32296,716.62695
"1021",77.152054,716.64014
"1022",77.00557,716.6533
"1023",76.87862,716.6665
"1024",76.771194,716.6797
"1025",76.68818,716.6929
"1026",76.627144,716.70605
"1027",76.5832,716.71924
"1028",76.558784,716.7324
"1029",76.54658,716.7456
"1030",76.53437,716.7588
"1031",76.51972,716.772
"1032",76.50019,716.78516
"1033",76.473335,716.79834
"1034",76.45136,716.8115
"1035",76.49531,716.8247
"1036",76.71015,716.8379
"1037",77.21309,716.8511
"1038",78.07492,716.86426
"1039",79.27856,716.87744
"1040",80.709236,716.8906
"1041",82.16678,716.9038
"1042",83.43633,716.917
"1043",84.36652,716.9302
"1044",84.90852,716.94336
"1045",85.103836,716.95654
"1046",85.0428,716.9697
"1047",84.83284,716.9829
"1048",84.578926,716.9961
"1049",84.349434,717.0093
"1050",84.1712,717.02246
"1051",84.051575,717.03564
"1052",83.95636,717.0488
"1053",83.8465,717.062
"1054",83.68047,717.0752
"1055",83.42657,717.0884
"1056",83.070114,717.10156
"1057",82.63554,717.11475
"1058",82.15701,717.1279
"1059",81.6907,717.1411
"1060",81.28054,717.1543
"1061",80.955826,717.1675
"1062",80.72877,717.18066
"1063",80.584724,717.19385
"1064",80.48463,717.20703
"1065",80.40162,717.2202
"1066",80.30152,717.2334
"1067",80.164795,717.2466
"1068",79.98413,717.25977
"1069",79.764404,717.27295
"1070",79.517815,717.28613
"1071",79.256584,717.2993
"1072",78.995346,717.3125
"1073",78.74143,717.3257
"1074",78.504616,717.33887
"1075",78.28733,717.35205
"1076",78.09445,717.36523
"1077",77.92355,717.3784
"1078",77.77707,717.3916
"1079",77.65011,717.4048
"1080",77.54269,717.41797
"1081",77.454796,717.43115
"1082",77.38155,717.44434
"1083",77.330284,717.4575
"1084",77.29122,717.4707
"1085",77.26681,717.4839
"1086",77.242386,717.4971
"1087",77.21309,717.51025
"1088",77.171585,717.52344
"1089",77.120316,717.5366
"1090",77.07393,717.5498
"1091",77.08858,717.563
"1092",77.25948,717.5762
"1093",77.70382,717.58936
"1094",78.48264,717.60254
"1095",79.586174,717.6157
"1096",80.907,717.6289
"1097",82.26444,717.6421
"1098",83.455864,717.6553
"1099",84.32746,717.66846
"1100",84.823074,717.68164
"1101",84.98909,717.6948
"1102",84.90608,717.708
"1103",84.68635,717.7212
"1104",84.43,717.7344
"1105",84.20538,717.74756
"1106",84.04181,717.76074
"1107",83.92706,717.7739
"1108",83.83429,717.7871
"1109",83.71465,717.8003
"1110",83.53399,717.8135
"1111",83.25567,717.82666
"1112",82.87724,717.83984
"1113",82.423134,717.853
"1114",81.93973,717.8662
"1115",81.478294,717.8794
"1116",81.08522,717.8926
"1117",80.782486,717.90576
"1118",80.570076,717.91895
"1119",80.428474,717.9321
"1120",80.325935,717.9453
"1121",80.22583,717.9585
"1122",80.111084,717.9717
"1123",79.957275,717.98486
"1124",79.764404,717.99805
"1125",79.534904,718.0112
"1126",79.28344,718.0244
"1127",79.01976,718.0376
"1128",78.75609,718.0508
"1129",78.50706,718.06396
"1130",78.27268,718.07715
"1131",78.06027,718.09033
"1132",77.86252,718.1035
"1133",77.68917,718.1167
"1134",77.53048,718.1299
"1135",77.39376,718.14307
"1136",77.27169,718.15625
"1137",77.171585,718.16943
"1138",77.09346,718.1826
"1139",77.03731,718.1958
"1140",76.99336,718.209
"1141",76.961624,718.22217
"1142",76.929886,718.23535
"1143",76.893265,718.24854
"1144",76.84932,718.2617
"1145",76.79317,718.2749
"1146",76.734566,718.2881
"1147",76.70283,718.3013
"1148",76.75899,718.31445
"1149",77.00557,718.32764
"1150",77.53292,718.3408
"1151",78.380104,718.354
"1152",79.49096,718.3672
"1153",80.73365,718.3804
"1154",81.9202,718.39355
"1155",82.879684,718.40674
"1156",83.50713,718.4199
"1157",83.79523,718.4331
"1158",83.809875,718.4463
"1159",83.64629,718.4595
"1160",83.407036,718.47266
"1161",83.17021,718.48584
"1162",82.97246,718.499
"1163",82.828415,718.5122
"1164",82.720985,718.5254
"1165",82.60868,718.5386
"1166",82.45731,718.55176
"1167",82.24002,718.56494
"1168",81.94217,718.5781
"1169",81.57107,718.5913
"1170",81.163345,718.6045
"1171",80.75807,718.6177
"1172",80.4065,718.63086
"1173",80.128174,718.64404
"1174",79.9353,718.6572
"1175",79.815674,718.6704
"1176",79.742424,718.6836
"1177",79.68139,718.6968
"1178",79.60815,718.70996
"1179",79.500725,718.72314
"1180",79.35424,718.7363
"1181",79.168686,718.7495
"1182",78.95628,718.7627
"1183",78.729225,718.7759
"1184",78.49973,718.78906
"1185",78.28245,718.80225
"1186",78.07736,718.8154
"1187",77.88693,718.8286
"1188",77.71114,718.8418
"1189",77.55245,718.855
"1190",77.41329,718.86816
"1191",77.28878,718.88135
"1192",77.18379,718.89453
"1193",77.0959,718.9077
"1194",77.02022,718.9209
"1195",76.95186,718.9341
"1196",76.893265,718.94727
"1197",76.841995,718.96045
"1198",76.79805,718.97363
"1199",76.76387,718.9868
"1200",76.73701,719
"1201",76.70527,719.0132
"1202",76.67597,719.02637
"1203",76.63935,719.03955
"1204",76.61738,719.05273
"1205",76.65644,719.0659
"1206",76.839554,719.0791
"1207",77.25948,719.0923
"1208",77.96506,719.10547
"1209",78.93187,719.11865
"1210",80.05249,719.13184
"1211",81.17311,719.145
"1212",82.11307,719.1582
"1213",82.760056,719.1714
"1214",83.08476,719.1846
"1215",83.13603,719.19775
"1216",82.99199,719.21094
"1217",82.75029,719.2241
"1218",82.496376,719.2373
"1219",82.27909,719.2505
"1220",82.12283,719.2637
"1221",82.020294,719.27686
"1222",81.94217,719.29004
"1223",81.849396,719.3032
"1224",81.705345,719.3164
"1225",81.48562,719.3296
"1226",81.197525,719.3428
"1227",80.86549,719.35596
"1228",80.53101,719.36914
"1229",80.23071,719.3823
"1230",79.99634,719.3955
"1231",79.835205,719.4087
"1232",79.73754,719.4219
"1233",79.68139,719.43506
"1234",79.64477,719.44824
"1235",79.60082,719.4614
"1236",79.52758,719.4746
"1237",79.41772,719.4878
"1238",79.273674,719.501
"1239",79.10521,719.51416
"1240",78.91722,719.52734
"1241",78.72434,719.5405
"1242",78.53147,719.5537
"1243",78.348366,719.5669
"1244",78.1799,719.5801
"1245",78.028534,719.59326
"1246",77.89426,719.60645
"1247",77.769745,719.6196
"1248",77.65499,719.6328
"1249",77.55245,719.646
"1250",77.46212,719.6592
"1251",77.38155,719.67236
"1252",77.32052,719.68555
"1253",77.26925,719.6987
"1254",77.22774,719.7119
"1255",77.196,719.7251
"1256",77.171585,719.7383
"1257",77.152054,719.75146
"1258",77.134964,719.76465
"1259",77.11055,719.77783
"1260",77.08125,719.791
"1261",77.0544,719.8042
"1262",77.051956,719.8174
"1263",77.14473,719.83057
"1264",77.420616,719.84375
"1265",77.94797,719.85693
"1266",78.74143,719.8701
"1267",79.73754,719.8833
"1268",80.80446,719.8965
"1269",81.778595,719.90967
"1270",82.51591,719.92285
"1271",82.95537,719.93604
"1272",83.104294,719.9492
"1273",83.03349,719.9624
"1274",82.82353,719.9756
"1275",82.562294,719.9888
"1276",82.31083,720.00195
"1277",82.11063,720.01514
"1278",81.971466,720.0283
"1279",81.87625,720.0415
"1280",81.79324,720.0547
"1281",81.685814,720.0679
"1282",81.52468,720.08105
"1283",81.30251,720.09424
"1284",81.02907,720.1074
"1285",80.73853,720.1206
"1286",80.46998,720.1338
"1287",80.2478,720.147
"1288",80.08667,720.16016
"1289",79.991455,720.17334
"1290",79.94507,720.1865
"1291",79.920654,720.1997
"1292",79.89624,720.2129
"1293",79.84985,720.2261
"1294",79.77661,720.23926
"1295",79.674065,720.25244
"1296",79.54223,720.2656
"1297",79.39086,720.2788
"1298",79.234604,720.292
"1299",79.078354,720.3052
"1300",78.924545,720.31836
"1301",78.77806,720.33154
"1302",78.64622,720.3447
"1303",78.52659,720.3579
"1304",78.41917,720.3711
"1305",78.32151,720.3843
"1306",78.23605,720.39746
"1307",78.15793,720.41064
"1308",78.08957,720.4238
"1309",78.028534,720.437
"1310",77.98459,720.4502
"1311",77.95285,720.4634
"1312",77.9382,720.47656
"1313",77.92844,720.48975
"1314",77.92355,720.5029
"1315",77.91379,720.5161
"1316",77.89914,720.5293
"1317",77.872284,720.5425
"1318",77.84543,720.55566
"1319",77.85275,720.56885
"1320",77.95773,720.58203
"1321",78.24826,720.5952
"1322",78.79027,720.6084
"1323",79.57885,720.6216
"1324",80.550545,720.63477
"1325",81.5613,720.64795
"1326",82.45731,720.66113
"1327",83.11406,720.6743
"1328",83.47295,720.6875
"1329",83.55352,720.7007
"1330",83.421684,720.71387
"1331",83.17021,720.72705
"1332",82.88457,720.74023
"1333",82.62089,720.7534
"1334",82.41093,720.7666
"1335",82.25956,720.7798
"1336",82.15457,720.79297
"1337",82.04959,720.80615
"1338",81.917755,720.81934
"1339",81.7322,720.8325
"1340",81.49294,720.8457
"1341",81.20973,720.8589
"1342",80.91676,720.8721
"1343",80.65064,720.88525
"1344",80.4358,720.89844
"1345",80.289314,720.9116
"1346",80.198975,720.9248
"1347",80.15259,720.938
"1348",80.12573,720.9512
"1349",80.09888,720.96436
"1350",80.05493,720.97754
"1351",79.98169,720.9907
"1352",79.87915,721.0039
"1353",79.75708,721.0171
"1354",79.61303,721.0303
"1355",79.45678,721.04346
"1356",79.30053,721.05664
"1357",79.149155,721.0698
"1358",79.00267,721.083
"1359",78.86839,721.0962
"1360",78.751205,721.1094
"1361",78.64622,721.12256
"1362",78.54856,721.13574
"1363",78.46555,721.1489
"1364",78.38743,721.1621
"1365",78.32639,721.1753
"1366",78.277565,721.1885
"1367",78.24338,721.20166
"1368",78.221405,721.21484
"1369",78.21164,721.228
"1370",78.20676,721.2412
"1371",78.20187,721.2544
"1372",78.19699,721.2676
"1373",78.184784,721.28076
"1374",78.16037,721.29395
"1375",78.12619,721.3071
"1376",78.099335,721.3203
"1377",78.12375,721.3335
"1378",78.27268,721.3467
"1379",78.624245,721.35986
"1380",79.22972,721.37305
"1381",80.05737,721.3862
"1382",81.02174,721.3994
"1383",81.97391,721.4126
"1384",82.76494,721.4258
"1385",83.28741,721.43896
"1386",83.51446,721.45215
"1387",83.4876,721.46533
"1388",83.28008,721.4785
"1389",82.97978,721.4917
"1390",82.66483,721.5049
"1391",82.38407,721.51807
"1392",82.159454,721.53125
"1393",81.99588,721.54443
"1394",81.87137,721.5576
"1395",81.75662,721.5708
"1396",81.62478,721.584
"1397",81.449,721.59717
"1398",81.22926,721.61035
"1399",80.98512,721.62354
"1400",80.7483,721.6367
"1401",80.550545,721.6499
"1402",80.411385,721.6631
"1403",80.34058,721.6763
"1404",80.32105,721.68945
"1405",80.323494,721.70264
"1406",80.325935,721.7158
"1407",80.306404,721.729
"1408",80.257576,721.7422
"1409",80.17456,721.7554
"1410",80.062256,721.76855
"1411",79.93042,721.78174
"1412",79.783936,721.7949
"1413",79.63256,721.8081
"1414",79.48119,721.8213
"1415",79.33959,721.8345
"1416",79.20775,721.84766
"1417",79.08568,721.86084
"1418",78.97337,721.874
"1419",78.87572,721.8872
"1420",78.78783,721.9004
"1421",78.709694,721.9136
"1422",78.6511,721.92676
"1423",78.60471,721.93994
"1424",78.572975,721.9531
"1425",78.54368,721.9663
"1426",78.521706,721.9795
"1427",78.49485,721.9927
"1428",78.46067,722.00586
"1429",78.42649,722.01904
"1430",78.416725,722.0322
"1431",78.485085,722.0454
"1432",78.709694,722.0586
"1433",79.151596,722.0718
"1434",79.82544,722.08496
"1435",80.672615,722.09814
"1436",81.58083,722.1113
"1437",82.39872,722.1245
"1438",83.00664,722.1377
"1439",83.33868,722.1509
"1440",83.40948,722.16406
"1441",83.2752,722.17725
"1442",83.01152,722.1904
"1443",82.69413,722.2036
"1444",82.38407,722.2168
"1445",82.11063,722.23
"1446",81.89334,722.24316
"1447",81.722435,722.25635
"1448",81.57351,722.26953
"1449",81.4197,722.2827
"1450",81.24147,722.2959
"1451",81.03395,722.3091
"1452",80.814224,722.32227
"1453",80.60914,722.33545
"1454",80.44312,722.34863
"1455",80.33814,722.3618
"1456",80.289314,722.375
"1457",80.28687,722.3882
"1458",80.30396,722.40137
"1459",80.32838,722.41455
"1460",80.33814,722.42773
"1461",80.31617,722.4409
"1462",80.255135,722.4541
"1463",80.15259,722.4673
"1464",80.02075,722.48047
"1465",79.869385,722.49365
"1466",79.708244,722.50684
"1467",79.54467,722.52
"1468",79.3933,722.5332
"1469",79.2517,722.5464
"1470",79.12474,722.5596
"1471",79.012436,722.57275
"1472",78.91966,722.58594
"1473",78.84886,722.5991
"1474",78.79515,722.6123
"1475",78.751205,722.6255
"1476",78.71458,722.6387
"1477",78.68284,722.65186
"1478",78.64622,722.66504
"1479",78.61204,722.6782
"1480",78.59983,722.6914
"1481",78.660866,722.7046
"1482",78.86595,722.7178
"1483",79.28588,722.73096
"1484",79.937744,722.74414
"1485",80.782486,722.7573
"1486",81.71023,722.7705
"1487",82.579384,722.7837
"1488",83.25323,722.7969
"1489",83.66338,722.81006
"1490",83.80011,722.82324
"1491",83.717094,722.8364
"1492",83.49004,722.8496
"1493",83.18974,722.8628
"1494",82.882126,722.876
"1495",82.61112,722.88916
"1496",82.39628,722.90234
"1497",82.230255,722.9155
"1498",82.09598,722.9287
"1499",81.95682,722.9419
"1500",81.78592,722.9551
"1501",81.57351,722.96826
"1502",81.32693,722.98145
"1503",81.075455,722.9946
"1504",80.850845,723.0078
"1505",80.68238,723.021
"1506",80.5774,723.0342
"1507",80.53834,723.04736
"1508",80.54078,723.06055
"1509",80.56031,723.0737
"1510",80.57252,723.0869
"1511",80.55543,723.1001
"1512",80.49439,723.1133
"1513",80.38453,723.12646
"1514",80.24292,723.13965
"1515",80.07446,723.15283
"1516",79.89136,723.166
"1517",79.7058,723.1792
"1518",79.52514,723.1924
"1519",79.35912,723.20557
"1520",79.21263,723.21875
"1521",79.08324,723.23193
"1522",78.96605,723.2451
"1523",78.86839,723.2583
"1524",78.7805,723.2715
"1525",78.70725,723.28467
"1526",78.63889,723.29785
"1527",78.5803,723.31104
"1528",78.538795,723.3242
"1529",78.555885,723.3374
"1530",78.69749,723.3506
"1531",79.04173,723.3638
"1532",79.62524,723.37695
"1533",80.430916,723.39014
"1534",81.37087,723.4033
"1535",82.31815,723.4165
"1536",83.123825,723.4297
"1537",83.700005,723.4429
"1538",84.01251,723.45605
"1539",84.07599,723.46924
"1540",83.95636,723.4824
"1541",83.73174,723.4956
"1542",83.46563,723.5088
"1543",83.209274,723.522
"1544",82.99931,723.53516
"1545",82.83818,723.54834
"1546",82.70878,723.5615
"1547",82.57694,723.5747
"1548",82.408485,723.5879
"1549",82.18875,723.6011
"1550",81.91287,723.61426
"1551",81.600365,723.62744
"1552",81.28542,723.6406
"1553",81.01442,723.6538
"1554",80.80934,723.667
"1555",80.6775,723.6802
"1556",80.61646,723.69336
"1557",80.59693,723.70654
"1558",80.59205,723.7197
"1559",80.570076,723.7329
"1560",80.50904,723.7461
"1561",80.40894,723.7593
"1562",80.26734,723.77246
"1563",80.08911,723.78564
"1564",79.89136,723.7988
"1565",79.68627,723.812
"1566",79.47875,723.8252
"1567",79.276115,723.8384
"1568",79.08568,723.85156
"1569",78.91722,723.86475
"1570",78.643776,723.8911
"1571",78.53147,723.9043
"1572",78.433815,723.9175
"1573",78.34104,723.93066
"1574",78.26292,723.94385
"1575",78.24094,723.95703
"1576",78.348366,723.9702
"1577",78.658424,723.9834
"1578",79.22484,723.9966
"1579",80.042725,724.00977
"1580",81.03639,724.02295
"1581",82.074005,724.03613
"1582",83.00664,724.0493
"1583",83.717094,724.0625
"1584",84.156555,724.0757
"1585",84.3299,724.08887
"1586",84.300606,724.10205
"1587",84.137024,724.11523
"1588",83.914856,724.1284
"1589",83.69268,724.1416
"1590",83.50225,724.1548
"1591",83.34844,724.16797
"1592",83.2166,724.18115
"1593",83.07744,724.19434
"1594",82.89433,724.2075
"1595",82.6453,724.2207
"1596",82.32304,724.2339
"1597",81.94949,724.2471
"1598",81.55642,724.26025
"1599",81.18532,724.27344
"1600",80.867935,724.2866
"1601",80.62623,724.2998
"1602",80.462654,724.313
"1603",80.365,724.3262
"1604",80.30396,724.33936
"1605",80.25269,724.35254
"1606",80.181885,724.3657
"1607",80.07446,724.3789
"1608",79.91577,724.3921
"1609",79.71557,724.4053
"1610",79.48852,724.41846
"1611",79.2517,724.43164
"1612",79.009995,724.4448
"1613",78.77562,724.458
"1614",78.553444,724.4712
"1615",78.348366,724.4844
"1616",78.16525,724.49756
"1617",78.00168,724.51074
"1618",77.855194,724.5239
"1619",77.72335,724.5371
"1620",77.60616,724.5503
"1621",77.53048,724.5635
"1622",77.55489,724.57666
"1623",77.7673,724.58984
"1624",78.23117,724.603
"1625",78.975815,724.6162
"1626",79.954834,724.6294
"1627",81.05348,724.6426
"1628",82.12039,724.65576
"1629",83.0164,724.66895
"1630",83.65362,724.6821
"1631",84.017395,724.6953
"1632",84.14679,724.7085
"1633",84.11261,724.7217
"1634",83.9881,724.73486
"1635",83.83185,724.74805
"1636",83.68047,724.7612
"1637",83.55108,724.7744
"1638",83.43389,724.7876
"1639",83.30694,724.8008
"1640",83.13847,724.81396
"1641",82.9041,724.82715
"1642",82.581825,724.84033
"1643",82.176544,724.8535
"1644",81.71023,724.8667
"1645",81.22926,724.8799
"1646",80.7776,724.89307
"1647",80.396736,724.90625
"1648",80.1062,724.91943
"1649",79.90112,724.9326
"1650",79.75952,724.9458
"1651",79.65209,724.959
"1652",79.54955,724.97217
"1653",79.4226,724.98535
"1654",79.26147,724.99854
"1655",79.063705,725.0117
"1656",78.836655,725.0249
"1657",78.58762,725.0381
"1658",78.32395,725.0513
"1659",78.05539,725.06445
"1660",77.786835,725.07764
"1661",77.53292,725.0908
"1662",77.30587,725.104
"1663",77.10811,725.1172
"1664",76.93965,725.1304
"1665",76.79805,725.14355
"1666",76.67353,725.15674
"1667",76.558784,725.1699
"1668",76.44892,725.1831
"1669",76.351265,725.1963
"1670",76.29023,725.2095
"1671",76.32197,725.22266
"1672",76.53925,725.23584
"1673",77.01778,725.249
"1674",77.79416,725.2622
"1675",78.82933,725.2754
"1676",80.008545,725.2886
"1677",81.17067,725.30176
"1678",82.15701,725.31494
"1679",82.86992,725.3281
"1680",83.28008,725.3413
"1681",83.43145,725.3545
"1682",83.39727,725.3677
"1683",83.26055,725.38086
"1684",83.09941,725.39404
"1685",82.95537,725.4072
"1686",82.84306,725.4204
"1687",82.75273,725.4336
"1688",82.65507,725.4468
"1689",82.50858,725.45996
"1690",82.27421,725.47314
"1691",81.93973,725.4863
"1692",81.50515,725.4995
"1693",81.004654,725.5127
"1694",80.48463,725.5259
"1695",79.99634,725.53906
"1696",79.57641,725.55225
"1697",79.2517,725.5654
"1698",79.01488,725.5786
"1699",78.856186,725.5918
"1700",78.73899,725.605
"1701",78.63889,725.61816
"1702",78.521706,725.63135
"1703",78.37522,725.64453
"1704",78.18967,725.6577
"1705",77.97238,725.6709
"1706",77.73556,725.6841
"1707",77.486534,725.69727
"1708",77.2375,725.71045
"1709",76.998245,725.72363
"1710",76.77608,725.7368
"1711",76.56855,725.75
"1712",76.385445,725.7632
"1713",76.224304,725.77637
"1714",76.085144,725.78955
"1715",75.96796,725.80273
"1716",75.87518,725.8159
"1717",75.80438,725.8291
"1718",75.75311,725.8423
"1719",75.71404,725.85547
"1720",75.68963,725.86865
"1721",75.67742,725.88184
"1722",75.67498,725.895
"1723",75.682304,725.9082
"1724",75.69695,725.9214
"1725",75.71404,725.9346
"1726",75.72625,725.94775
"1727",75.733574,725.96094
"1728",75.73846,725.9741
"1729",75.77997,725.9873
"1730",75.92401,726.0005
"1731",76.2707,726.0137
"1732",76.893265,726.02686
"1733",77.80148,726.04004
"1734",78.92943,726.0532
"1735",80.14282,726.0664
"1736",81.27566,726.0796
"1737",82.17166,726.0928
"1738",82.76494,726.10596
"1739",83.055466,726.11914
"1740",83.09941,726.1323
"1741",82.97734,726.1455
"1742",82.78447,726.1587
"1743",82.58915,726.1719
"1744",82.43534,726.18506
"1745",82.33524,726.19824
"1746",82.27665,726.2114
"1747",82.230255,726.2246
"1748",82.15213,726.2378
"1749",82.005646,726.251
"1750",81.77615,726.26416
"1751",81.46609,726.27734
"1752",81.094986,726.2905
"1753",80.709236,726.3037
"1754",80.35279,726.3169
"1755",80.05493,726.3301
"1756",79.84009,726.34326
"1757",79.69848,726.35645
"1758",79.61059,726.3696
"1759",79.554436,726.3828
"1760",79.500725,726.396
"1761",79.42504,726.4092
"1762",79.310295,726.42236
"1763",79.16136,726.43555
"1764",78.97826,726.4487
"1765",78.77562,726.4619
"1766",78.55833,726.4751
"1767",78.348366,726.4883
"1768",78.14816,726.50146
"1769",77.962616,726.51465
"1770",77.79904,726.52783
"1771",77.65255,726.541
"1772",77.5256,726.5542
"1773",77.418175,726.5674
"1774",77.332726,726.58057
"1775",77.264366,726.59375
"1776",77.21065,726.60693
"1777",77.16182,726.6201
"1778",77.11543,726.6333
"1779",77.069046,726.6465
"1780",77.02266,726.65967
"1781",76.9836,726.67285
"1782",76.95674,726.68604
"1783",76.93965,726.6992
"1784",76.929886,726.7124
"1785",76.92256,726.7256
"1786",76.91768,726.7388
"1787",76.910355,726.75195
"1788",76.90547,726.76514
"1789",76.893265,726.7783
"1790",76.88594,726.7915
"1791",76.912796,726.8047
"1792",77.03975,726.8179
"1793",77.366905,726.83105
"1794",77.97238,726.84424
"1795",78.870834,726.8574
"1796",79.991455,726.8706
"1797",81.19264,726.8838
"1798",82.30106,726.897
"1799",83.16533,726.91016
"1800",83.70733,726.92334
"1801",83.93927,726.9365
"1802",83.92218,726.9497
"1803",83.74151,726.9629
"1804",83.4876,726.9761
"1805",83.23613,726.98926
"1806",83.02617,727.00244
"1807",82.879684,727.0156
"1808",82.791794,727.0288
"1809",82.72587,727.042
"1810",82.64774,727.0552
"1811",82.52323,727.06836
"1812",82.32548,727.08154
"1813",82.04959,727.0947
"1814",81.71511,727.1079
"1815",81.35378,727.1211
"1816",81.00221,727.1343
"1817",80.70191,727.14746
"1818",80.46998,727.16064
"1819",80.31617,727.1738
"1820",80.22583,727.187
"1821",80.17212,727.2002
"1822",80.12573,727.2134
"1823",80.062256,727.22656
"1824",79.9646,727.23975
"1825",79.83276,727.2529
"1826",79.66918,727.2661
"1827",79.483635,727.2793
"1828",79.28344,727.2925
"1829",79.078354,727.30566
"1830",78.8806,727.31885
"1831",78.695045,727.33203
"1832",78.536354,727.3452
"1833",78.399635,727.3584
"1834",78.28733,727.3716
"1835",78.18967,727.38477
"1836",78.10422,727.39795
"1837",78.028534,727.41113
"1838",77.962616,727.4243
"1839",77.90646,727.4375
"1840",77.857635,727.4507
"1841",77.81369,727.46387
"1842",77.76486,727.47705
"1843",77.713585,727.49023
"1844",77.6672,727.5034
"1845",77.61837,727.5166
"1846",77.576866,727.5298
"1847",77.540245,727.54297
"1848",77.50851,727.55615
"1849",77.48165,727.56934
"1850",77.45968,727.5825
"1851",77.44503,727.5957
"1852",77.435265,727.6089
"1853",77.42794,727.6221
"1854",77.418175,727.63525
"1855",77.41329,727.64844
"1856",77.41329,727.6616
"1857",77.41573,727.6748
"1858",77.42306,727.688
"1859",77.44991,727.7012
"1860",77.53292,727.71436
"1861",77.75998,727.72754
"1862",78.221405,727.7407
"1863",78.97337,727.7539
"1864",80.008545,727.7671
"1865",81.22194,727.7803
"1866",82.459755,727.79346
"1867",83.53643,727.80664
"1868",84.32502,727.8198
"1869",84.76692,727.833
"1870",84.88655,727.8462
"1871",84.754715,727.8594
"1872",84.46906,727.87256
"1873",84.119934,727.88574
"1874",83.78058,727.8989
"1875",83.49981,727.9121
"1876",83.29473,727.9253
"1877",83.15068,727.9385
"1878",83.038376,727.95166
"1879",82.92363,727.96484
"1880",82.77226,727.978
"1881",82.562294,727.9912
"1882",82.28886,728.0044
"1883",81.96658,728.0176
"1884",81.62234,728.03076
"1885",81.290306,728.04395
"1886",81.00221,728.0571
"1887",80.780045,728.0703
"1888",80.63111,728.0835
"1889",80.54078,728.0967
"1890",80.482185,728.10986
"1891",80.430916,728.12305
"1892",80.360115,728.1362
"1893",80.24536,728.1494
"1894",80.08911,728.1626
"1895",79.89868,728.1758
"1896",79.68139,728.18896
"1897",79.4519,728.20215
"1898",79.22972,728.21533
"1899",79.0222,728.2285
"1900",78.836655,728.2417
"1901",78.67307,728.2549
"1902",78.538795,728.26807
"1903",78.43137,728.28125
"1904",78.345924,728.29443
"1905",78.27512,728.3076
"1906",78.21896,728.3208
"1907",78.17746,728.334
"1908",78.14572,728.34717
"1909",78.11398,728.36035
"1910",78.08713,728.37354
"1911",78.06027,728.3867
"1912",78.02609,728.3999
"1913",77.98703,728.4131
"1914",77.95041,728.4263
"1915",77.91379,728.43945
"1916",77.87961,728.45264
"1917",77.85031,728.4658
"1918",77.821014,728.479
"1919",77.7966,728.4922
"1920",77.77219,728.5054
"1921",77.75754,728.51855
"1922",77.747765,728.53174
"1923",77.74044,728.5449
"1924",77.738,728.5581
"1925",77.74288,728.5713
"1926",77.74532,728.5845
"1927",77.74288,728.59766
"1928",77.738,728.61084
"1929",77.7551,728.624
"1930",77.85031,728.6372
"1931",78.1091,728.6504
"1932",78.61448,728.6636
"1933",79.40307,728.67676
"1934",80.430916,728.68994
"1935",81.58083,728.7031
"1936",82.69657,728.7163
"1937",83.617,728.7295
"1938",84.244446,728.7427
"1939",84.54719,728.75586
"1940",84.559395,728.76904
"1941",84.351875,728.7822
"1942",84.01251,728.7954
"1943",83.612114,728.8086
"1944",83.21904,728.8218
"1945",82.87236,728.83496
"1946",82.58427,728.84814
"1947",82.354774,728.8613
"1948",82.16434,728.8745
"1949",81.986115,728.8877
"1950",81.79813,728.9009
"1951",81.58572,728.91406
"1952",81.35378,728.92725
"1953",81.12428,728.9404
"1954",80.91676,728.9536
"1955",80.7483,728.9668
"1956",80.63355,728.98
"1957",80.570076,728.99316
"1958",80.54078,729.00635
"1959",80.52613,729.01953
"1960",80.50172,729.0327
"1961",80.448006,729.0459
"1962",80.35523,729.0591
"1963",80.22827,729.07227
"1964",80.06958,729.08545
"1965",79.8938,729.09863
"1966",79.708244,729.1118
"1967",79.5227,729.125
"1968",79.344475,729.1382
"1969",79.17845,729.15137
"1970",79.027084,729.16455
"1971",78.89281,729.17773
"1972",78.77806,729.1909
"1973",78.6804,729.2041
"1974",78.59495,729.2173
"1975",78.52415,729.23047
"1976",78.46067,729.24365
"1977",78.40696,729.25684
"1978",78.35813,729.27
"1979",78.314186,729.2832
"1980",78.27268,729.2964
"1981",78.23361,729.3096
"1982",78.19455,729.32275
"1983",78.15793,729.33594
"1984",78.12375,729.3491
"1985",78.09201,729.3623
"1986",78.065155,729.3755
"1987",78.048065,729.3887
"1988",78.0383,729.40186
"1989",78.03342,729.41504
"1990",78.028534,729.4282
"1991",78.02365,729.4414
"1992",78.013885,729.4546
"1993",78.028534,729.4678
"1994",78.1384,729.48096
"1995",78.42893,729.49414
"1996",78.98802,729.5073
"1997",79.84009,729.5205
"1998",80.93385,729.5337
"1999",82.142365,729.5469
"2000",83.302055,729.56006
"2001",84.24933,729.57324
"2002",84.89143,729.5864
"2003",85.20882,729.5996
"2004",85.23567,729.6128
"2005",85.03792,729.626
"2006",84.70344,729.63916
"2007",84.30793,729.65234
"2008",83.92462,729.6655
"2009",83.595024,729.6787
"2010",83.34356,729.6919
"2011",83.16289,729.7051
"2012",83.018845,729.71826
"2013",82.8748,729.73145
"2014",82.701454,729.7446
"2015",82.47929,729.7578
"2016",82.20584,729.771
"2017",81.90799,729.7842
"2018",81.60769,729.79736
"2019",81.33425,729.81055
"2020",81.10719,729.8237
"2021",80.93141,729.8369
"2022",80.814224,729.8501
"2023",80.73121,729.8633
"2024",80.67017,729.87646
"2025",80.604256,729.88965
"2026",80.51881,729.90283
"2027",80.40162,729.916
"2028",80.25025,729.9292
"2029",80.07202,729.9424
"2030",79.88159,729.95557
"2031",79.68139,729.96875
"2032",79.483635,729.98193
"2033",79.29565,729.9951
"2034",79.114975,730.0083
"2035",78.94408,730.0215
"2036",78.79027,730.03467
"2037",78.6511,730.04785
"2038",78.52659,730.06104
"2039",78.42405,730.0742
"2040",78.34104,730.0874
"2041",78.27268,730.1006
"2042",78.21164,730.1138
"2043",78.16281,730.12695
"2044",78.11398,730.14014
"2045",78.06271,730.1533
"2046",78.013885,730.1665
"2047",77.9675,730.1797
"2048",77.92844,730.1929
"2049",77.89914,730.20605
"2050",77.87961,730.21924
"2051",77.8674,730.2324
"2052",77.857635,730.2456
"2053",77.84543,730.2588
"2054",77.8259,730.272
"2055",77.81857,730.28516
"2056",77.8674,730.29834
"2057",78.06271,730.3115
"2058",78.502174,730.3247
"2059",79.24193,730.3379
"2060",80.26734,730.3511
"2061",81.48806,730.36426
"2062",82.75029,730.37744
"2063",83.88068,730.3906
"2064",84.749825,730.4038
"2065",85.296715,730.417
"2066",85.53109,730.4302
"2067",85.49935,730.44336
"2068",85.28939,730.45654
"2069",84.98421,730.4697
"2070",84.65949,730.4829
"2071",84.368965,730.4961
"2072",84.137024,730.5093
"2073",83.9588,730.52246
"2074",83.8172,730.53564
"2075",83.682915,730.5488
"2076",83.52178,730.562
"2077",83.31182,730.5752
"2078",83.04814,730.5884
"2079",82.735634,730.60156
"2080",82.40116,730.61475
"2081",82.07645,730.6279
"2082",81.7908,730.6411
"2083",81.56374,730.6543
"2084",81.40017,730.6675
"2085",81.287865,730.68066
"2086",81.20729,730.69385
"2087",81.129166,730.70703
"2088",81.03639,730.7202
"2089",80.91432,730.7334
"2090",80.75563,730.7466
"2091",80.567635,730.75977
"2092",80.360115,730.77295
"2093",80.14282,730.78613
"2094",79.92798,730.7993
"2095",79.72045,730.8125
"2096",79.5227,730.8257
"2097",79.33959,730.83887
"2098",79.168686,730.85205
"2099",79.012436,730.86523
"2100",78.873276,730.8784
"2101",78.751205,730.8916
"2102",78.64622,730.9048
"2103",78.555885,730.91797
"2104",78.46555,730.93115
"2105",78.382545,730.94434
"2106",78.29954,730.9575
"2107",78.21652,730.9707
"2108",78.14572,730.9839
"2109",78.08469,730.9971
"2110",78.02609,731.01025
"2111",77.97238,731.02344
"2112",77.93332,731.0366
"2113",77.95285,731.0498
"2114",78.12131,731.063
"2115",78.52903,731.0762
"2116",79.22728,731.08936
"2117",80.201416,731.10254
"2118",81.36111,731.1157
"2119",82.55497,731.1289
"2120",83.61944,731.1421
"2121",84.439766,731.1553
"2122",84.95491,731.16846
"2123",85.18196,731.18164
"2124",85.17708,731.1948
"2125",85.02327,731.208
"2126",84.79378,731.2212
"2127",84.55207,731.2344
"2128",84.33723,731.24756
"2129",84.16388,731.26074
"2130",84.02228,731.2739
"2131",83.89288,731.2871
"2132",83.736626,731.3003
"2133",83.52422,731.3135
"2134",83.23857,731.32666
"2135",82.879684,731.33984
"2136",82.47196,731.353
"2137",82.054474,731.3662
"2138",81.66384,731.3794
"2139",81.32693,731.3926
"2140",81.0486,731.40576
"2141",80.82399,731.41895
"2142",80.638435,731.4321
"2143",80.465096,731.4453
"2144",80.27711,731.4585
"2145",80.0647,731.4717
"2146",79.815674,731.48486
"2147",79.534904,731.49805
"2148",79.237045,731.5112
"2149",78.93675,731.5244
"2150",78.63645,731.5376
"2151",78.3386,731.5508
"2152",78.04562,731.56396
"2153",77.75998,731.57715
"2154",77.486534,731.59033
"2155",77.23262,731.6035
"2156",77.032425,731.6167
"2157",76.912796,731.6299
"2158",76.859085,731.64307
"2159",76.841995,731.65625
"2160",76.84688,731.66943
"2161",76.8542,731.6826
"2162",76.82979,731.6958
"2163",76.771194,731.709
"2164",76.70771,731.72217
"2165",76.65888,731.73535
"2166",76.61738,731.74854
"2167",76.60761,731.7617
"2168",76.715034,731.7749
"2169",77.02266,731.7881
"2170",77.58907,731.8013
"2171",78.42649,731.81445
"2172",79.48852,731.82764
"2173",80.66041,731.8408
"2174",81.77371,731.854
"2175",82.686806,731.8672
"2176",83.319145,731.8804
"2177",83.66094,731.89355
"2178",83.74151,731.90674
"2179",83.63409,731.9199
"2180",83.438774,731.9331
"2181",83.245895,731.9463
"2182",83.09453,731.9595
"2183",82.99199,731.97266
"2184",82.92851,731.98584
"2185",82.85771,731.999
"2186",82.735634,732.0122
"2187",82.533,732.0254
"2188",82.25468,732.0386
"2189",81.9202,732.05176
"2190",81.55398,732.06494
"2191",81.1902,732.0781
"2192",80.867935,732.0913
"2193",80.601814,732.1045
"2194",80.38697,732.1177
"2195",80.22583,732.13086
"2196",80.10376,732.14404
"2197",80.00122,732.1572
"2198",79.886475,732.1704
"2199",79.744865,732.1836
"2200",79.571526,732.1968
"2201",79.36645,732.20996
"2202",79.13451,732.22314
"2203",78.890366,732.2363
"2204",78.64866,732.2495
"2205",78.41184,732.2627
"2206",78.184784,732.2759
"2207",77.97238,732.28906
"2208",77.77707,732.30225
"2209",77.59884,732.3154
"2210",77.437706,732.3286
"2211",77.30099,732.3418
"2212",77.18379,732.355
"2213",77.083694,732.36816
"2214",77.00069,732.38135
"2215",76.929886,732.39453
"2216",76.86397,732.4077
"2217",76.79561,732.4209
"2218",76.72724,732.4341
"2219",76.65888,732.44727
"2220",76.60517,732.46045
"2221",76.60761,732.47363
"2222",76.73701,732.4868
"2223",77.07393,732.5
"2224",77.67452,732.5132
"2225",78.53391,732.52637
"2226",79.57885,732.53955
"2227",80.67506,732.55273
"2228",81.668724,732.5659
"2229",82.442665,732.5791
"2230",82.930954,732.5923
"2231",83.14824,732.60547
"2232",83.1458,732.61865
"2233",83.01152,732.63184
"2234",82.81865,732.645
"2235",82.62577,732.6582
"2236",82.4622,732.6714
"2237",82.3328,732.6846
"2238",82.22049,732.69775
"2239",82.091095,732.71094
"2240",81.917755,732.7241
"2241",81.68337,732.7373
"2242",81.375755,732.7505
"2243",81.01442,732.7637
"2244",80.63111,732.77686
"2245",80.26734,732.79004
"2246",79.95239,732.8032
"2247",79.710686,732.8164
"2248",79.537346,732.8296
"2249",79.40795,732.8428
"2250",79.30541,732.85596
"2251",79.20531,732.86914
"2252",79.08568,732.8823
"2253",78.93919,732.8955
"2254",78.765854,732.9087
"2255",78.572975,732.9219
"2256",78.36057,732.93506
"2257",78.14328,732.94824
"2258",77.93332,732.9614
"2259",77.730675,732.9746
"2260",77.54269,732.9878
"2261",77.37423,733.001
"2262",77.22774,733.01416
"2263",77.0959,733.02734
"2264",76.978714,733.0405
"2265",76.87129,733.0537
"2266",76.77608,733.0669
"2267",76.69306,733.0801
"2268",76.62226,733.09326
"2269",76.56367,733.10645
"2270",76.52216,733.1196
"2271",76.490425,733.1328
"2272",76.46845,733.146
"2273",76.456245,733.1592
"2274",76.45136,733.17236
"2275",76.4416,733.18555
"2276",76.42695,733.1987
"2277",76.40742,733.2119
"2278",76.39277,733.2251
"2279",76.43183,733.2383
"2280",76.60029,733.25146
"2281",76.98604,733.26465
"2282",77.63302,733.27783
"2283",78.53391,733.291
"2284",79.60082,733.3042
"2285",80.689705,733.3174
"2286",81.64431,733.33057
"2287",82.35233,733.34375
"2288",82.77226,733.35693
"2289",82.92119,733.3701
"2290",82.8748,733.3833
"2291",82.7161,733.3965
"2292",82.52567,733.40967
"2293",82.3621,733.42285
"2294",82.2449,733.43604
"2295",82.16678,733.4492
"2296",82.108185,733.4624
"2297",82.0325,733.4756
"2298",81.900665,733.4888
"2299",81.69802,733.50195
"2300",81.42214,733.51514
"2301",81.092545,733.5283
"2302",80.7483,733.5415
"2303",80.430916,733.5547
"2304",80.17212,733.5679
"2305",79.98413,733.58105
"2306",79.86206,733.59424
"2307",79.78638,733.6074
"2308",79.727776,733.6206
"2309",79.66918,733.6338
"2310",79.586174,733.647
"2311",79.47387,733.66016
"2312",79.33227,733.67334
"2313",79.166245,733.6865
"2314",78.9807,733.6997
"2315",78.79271,733.7129
"2316",78.6096,733.7261
"2317",78.4387,733.73926
"2318",78.28489,733.75244
"2319",78.14816,733.7656
"2320",78.02121,733.7788
"2321",77.908905,733.792
"2322",77.803925,733.8052
"2323",77.71114,733.81836
"2324",77.63546,733.83154
"2325",77.576866,733.8447
"2326",77.53536,733.8579
"2327",77.506065,733.8711
"2328",77.48409,733.8843
"2329",77.469444,733.89746
"2330",77.452354,733.91064
"2331",77.437706,733.9238
"2332",77.420616,733.937
"2333",77.39864,733.9502
"2334",77.38888,733.9634
"2335",77.4255,733.97656
"2336",77.58419,733.98975
"2337",77.94064,734.0029
"2338",78.54368,734.0161
"2339",79.381096,734.0293
"2340",80.36744,734.0425
"2341",81.36111,734.05566
"2342",82.22049,734.06885
"2343",82.83818,734.08203
"2344",83.18242,734.0952
"2345",83.28008,734.1084
"2346",83.19951,734.1216
"2347",83.021286,734.13477
"2348",82.82109,734.14795
"2349",82.6453,734.16113
"2350",82.513466,734.1743
"2351",82.425575,734.1875
"2352",82.35233,734.2007
"2353",82.25712,734.21387
"2354",82.11307,734.22705
"2355",81.8909,734.24023
"2356",81.602806,734.2534
"2357",81.27322,734.2666
"2358",80.93385,734.2798
"2359",80.62867,734.29297
"2360",80.38453,734.30615
"2361",80.21362,734.31934
"2362",80.111084,734.3325
"2363",80.04761,734.3457
"2364",79.99878,734.3589
"2365",79.94263,734.3721
"2366",79.85718,734.38525
"2367",79.73266,734.39844
"2368",79.57641,734.4116
"2369",79.398186,734.4248
"2370",79.21019,734.438
"2371",79.0222,734.4512
"2372",78.84642,734.46436
"2373",78.68528,734.47754
"2374",78.538795,734.4907
"2375",78.40452,734.5039
"2376",78.28245,734.5171
"2377",78.17258,734.5303
"2378",78.07736,734.54346
"2379",77.996796,734.55664
"2380",77.9382,734.5698
"2381",77.8967,734.583
"2382",77.872284,734.5962
"2383",77.86008,734.6094
"2384",77.85275,734.62256
"2385",77.84299,734.63574
"2386",77.83322,734.6489
"2387",77.821014,734.6621
"2388",77.79904,734.6753
"2389",77.77463,734.6885
"2390",77.74288,734.70166
"2391",77.72091,734.71484
"2392",77.7551,734.728
"2393",77.92844,734.7412
"2394",78.311745,734.7544
"2395",78.9514,734.7676
"2396",79.823,734.78076
"2397",80.83864,734.79395
"2398",81.84207,734.8071
"2399",82.69657,734.8203
"2400",83.299614,734.8335
"2401",83.61944,734.8467
"2402",83.6878,734.85986
"2403",83.58526,734.87305
"2404",83.389946,734.8862
"2405",83.177536,734.8994
"2406",82.99199,734.9126
"2407",82.85527,734.9258
"2408",82.760056,734.93896
"2409",82.68192,734.95215
"2410",82.58427,734.96533
"2411",82.43046,734.9785
"2412",82.20584,734.9917
"2413",81.917755,735.0049
"2414",81.58816,735.01807
"2415",81.25124,735.03125
"2416",80.953384,735.04443
"2417",80.719,735.0576
"2418",80.550545,735.0708
"2419",80.43824,735.084
"2420",80.36256,735.09717
"2421",80.30152,735.11035
"2422",80.22827,735.12354
"2423",80.1355,735.1367
"2424",80.01587,735.1499
"2425",79.86694,735.1631
"2426",79.69604,735.1763
"2427",79.50805,735.18945
"2428",79.3225,735.20264
"2429",79.14427,735.2158
"2430",78.99046,735.229
"2431",78.856186,735.2422
"2432",78.73655,735.2554
"2433",78.61936,735.26855
"2434",78.50706,735.28174
"2435",78.39475,735.2949
"2436",78.28977,735.3081
"2437",78.19699,735.3213
"2438",78.12131,735.3345
"2439",78.06027,735.34766
"2440",78.013885,735.36084
"2441",77.977264,735.374
"2442",77.95041,735.3872
"2443",77.92844,735.4004
"2444",77.90646,735.4136
"2445",77.88449,735.42676
"2446",77.857635,735.43994
"2447",77.823456,735.4531
"2448",77.79172,735.4663
"2449",77.81369,735.4795
"2450",77.95285,735.4927
"2451",78.29221,735.50586
"2452",78.88548,735.51904
"2453",79.72045,735.5322
"2454",80.719,735.5454
"2455",81.739525,735.5586
"2456",82.63554,735.5718
"2457",83.28985,735.58496
"2458",83.6585,735.59814
"2459",83.76105,735.6113
"2460",83.665825,735.6245
"2461",83.458305,735.6377
"2462",83.22392,735.6509
"2463",83.018845,735.66406
"2464",82.862595,735.67725
"2465",82.75273,735.6904
"2466",82.66483,735.7036
"2467",82.55741,735.7168
"2468",82.39872,735.73
"2469",82.176544,735.74316
"2470",81.89334,735.75635
"2471",81.57351,735.76953
"2472",81.248795,735.7827
"2473",80.955826,735.7959
"2474",80.71412,735.8091
"2475",80.53101,735.82227
"2476",80.40162,735.83545
"2477",80.306404,735.84863
"2478",80.22095,735.8618
"2479",80.1355,735.875
"2480",80.0354,735.8882
"2481",79.903564,735.90137
"2482",79.74975,735.91455
"2483",79.58373,735.92773
"2484",79.40795,735.9409
"2485",79.22972,735.9541
"2486",79.05882,735.9673
"2487",78.89525,735.98047
"2488",78.73655,735.99365
"2489",78.58274,736.00684
"2490",78.42893,736.02
"2491",78.28245,736.0332
"2492",78.14328,736.0464
"2493",78.01877,736.0596
"2494",77.90402,736.07275
"2495",77.80881,736.08594
"2496",77.72823,736.0991
"2497",77.66476,736.1123
"2498",77.61837,736.1255
"2499",77.58663,736.1387
"2500",77.56466,736.15186
"2501",77.54513,736.16504
"2502",77.523155,736.1782
"2503",77.49142,736.1914
"2504",77.452354,736.2046
"2505",77.42794,736.2178
"2506",77.469444,736.23096
"2507",77.65255,736.24414
"2508",78.05295,736.2573
"2509",78.70725,736.2705
"2510",79.586174,736.2837
"2511",80.59449,736.2969
"2512",81.58816,736.31006
"2513",82.41337,736.32324
"2514",82.984665,736.3364
"2515",83.26299,736.3496
"2516",83.29717,736.3628
"2517",83.15312,736.376
"2518",82.92363,736.38916
"2519",82.669716,736.40234
"2520",82.442665,736.4155
"2521",82.266884,736.4287
"2522",82.13504,736.4419
"2523",82.01785,736.4551
"2524",81.88846,736.46826
"2525",81.71511,736.48145
"2526",81.48318,736.4946
"2527",81.20241,736.5078
"2528",80.902115,736.521
"2529",80.61646,736.5342
"2530",80.377205,736.54736
"2531",80.201416,736.56055
"2532",80.09155,736.5737
"2533",80.03052,736.5869
"2534",80.00366,736.6001
"2535",79.98169,736.6133
"2536",79.94507,736.62646
"2537",79.87915,736.63965
"2538",79.77173,736.65283
"2539",79.63256,736.666
"2540",79.46899,736.6792
"2541",79.293205,736.6924
"2542",79.114975,736.70557
"2543",78.941635,736.71875
"2544",78.7805,736.73193
"2545",78.626686,736.7451
"2546",78.485085,736.7583
"2547",78.35569,736.7715
"2548",78.24338,736.78467
"2549",78.150604,736.79785
"2550",78.07736,736.81104
"2551",78.01877,736.8242
"2552",77.97238,736.8374
"2553",77.93332,736.8506
"2554",77.891815,736.8638
"2555",77.84543,736.87695
"2556",77.803925,736.89014
"2557",77.806366,736.9033
"2558",77.91379,736.9165
"2559",78.20187,736.9297
"2560",78.7219,736.9429
"2561",79.47143,736.95605
"2562",80.37232,736.96924
"2563",81.304955,736.9824
"2564",82.12283,736.9956
"2565",82.720985,737.0088
"2566",83.0457,737.022
"2567",83.11894,737.03516
"2568",82.99687,737.04834
"2569",82.75517,737.0615
"2570",82.46708,737.0747
"2571",82.19852,737.0879
"2572",81.971466,737.1011
"2573",81.79324,737.11426
"2574",81.654076,737.12744
"2575",81.512474,737.1406
"2576",81.34402,737.1538
"2577",81.13405,737.167
"2578",80.88258,737.1802
"2579",80.621346,737.19336
"2580",80.37476,737.20654
"2581",80.17456,737.2197
"2582",80.03784,737.2329
"2583",79.957275,737.2461
"2584",79.920654,737.2593
"2585",79.903564,737.27246
"2586",79.888916,737.28564
"2587",79.85474,737.2988
"2588",79.7937,737.312
"2589",79.69848,737.3252
"2590",79.57885,737.3384
"2591",79.432365,737.35156
"2592",79.276115,737.36475
"2593",79.11253,737.3779
"2594",78.9514,737.3911
"2595",78.80003,737.4043
"2596",78.658424,737.4175
"2597",78.53391,737.43066
"2598",78.42649,737.44385
"2599",78.33616,737.45703
"2600",78.25803,737.4702
"2601",78.19211,737.4834
"2602",78.12375,737.4966
"2603",78.06027,737.50977
"2604",78.01633,737.52295
"2605",78.04318,737.53613
"2606",78.21408,737.5493
"2607",78.60471,737.5625
"2608",79.23949,737.5757
"2609",80.08911,737.58887
"2610",81.04616,737.60205
"2611",81.97391,737.61523
"2612",82.73075,737.6284
"2613",83.23369,737.6416
"2614",83.46563,737.6548
"2615",83.46807,737.66797
"2616",83.30938,737.68115
"2617",83.06767,737.69434
"2618",82.81377,737.7075
"2619",82.58427,737.7207
"2620",82.4036,737.7339
"2621",82.269325,737.7471
"2622",82.15213,737.76025
"2623",82.01785,737.77344
"2624",81.83475,737.7866
"2625",81.58572,737.7998
"2626",81.28298,737.813
"2627",80.95827,737.8262
"2628",80.64576,737.83936
"2629",80.38453,737.85254
"2630",80.19653,737.8657
"2631",80.08911,737.8789
"2632",80.04028,737.8921
"2633",80.03052,737.9053
"2634",80.028076,737.91846
"2635",80.00366,737.93164
"2636",79.940186,737.9448
"2637",79.83276,737.958
"2638",79.68627,737.9712
"2639",79.51293,737.9844
"2640",79.32983,737.99756
"2641",79.149155,738.01074
"2642",78.97093,738.0239
"2643",78.80003,738.0371
"2644",78.63889,738.0503
"2645",78.487526,738.0635
"2646",78.34348,738.07666
"2647",78.21164,738.08984
"2648",78.09445,738.103
"2649",77.99924,738.1162
"2650",77.945526,738.1294
"2651",77.98947,738.1426
"2652",78.20187,738.15576
"2653",78.641335,738.16895
"2654",79.33227,738.1821
"2655",80.22095,738.1953
"2656",81.197525,738.2085
"2657",82.12283,738.2217
"2658",82.862595,738.23486
"2659",83.33868,738.24805
"2660",83.546196,738.2612
"2661",83.53643,738.2744
"2662",83.38262,738.2876
"2663",83.16289,738.3008
"2664",82.94072,738.31396
"2665",82.75029,738.32715
"2666",82.60624,738.34033
"2667",82.493935,738.3535
"2668",82.374306,738.3667
"2669",82.210724,738.3799
"2670",81.97879,738.39307
"2671",81.67361,738.40625
"2672",81.31228,738.41943
"2673",80.94118,738.4326
"2674",80.59693,738.4458
"2675",80.32105,738.459
"2676",80.12085,738.47217
"2677",79.991455,738.48535
"2678",79.923096,738.49854
"2679",79.886475,738.5117
"2680",79.85474,738.5249
"2681",79.80347,738.5381
"2682",79.71557,738.5513
"2683",79.58373,738.56445
"2684",79.412834,738.57764
"2685",79.2224,738.5908
"2686",79.01976,738.604
"2687",78.81468,738.6172
"2688",78.61448,738.6304
"2689",78.42405,738.64355
"2690",78.24338,738.65674
"2691",78.07248,738.6699
"2692",77.90646,738.6831
"2693",77.7551,738.6963
"2694",77.628136,738.7095
"2695",77.55001,738.72266
"2696",77.593956,738.73584
"2697",77.83078,738.749
"2698",78.32639,738.7622
"2699",79.07591,738.7754
"2700",80.01343,738.7886
"2701",81.01442,738.80176
"2702",81.92264,738.81494
"2703",82.616005,738.8281
"2704",83.03349,738.8413
"2705",83.18974,738.8545
"2706",83.14336,738.8677
"2707",82.98222,738.88086
"2708",82.777145,738.89404
"2709",82.579384,738.9072
"2710",82.41581,738.9204
"2711",82.286415,738.9336
"2712",82.17166,738.9468
"2713",82.04227,738.95996
"2714",81.86893,738.97314
"2715",81.62722,738.9863
"2716",81.31228,738.9995
"2717",80.94362,739.0127
"2718",80.5481,739.0259
"2719",80.17212,739.03906
"2720",79.852295,739.05225
"2721",79.61547,739.0654
"2722",79.45434,739.0786
"2723",79.35424,739.0918
"2724",79.28588,739.105
"2725",79.219955,739.11816
"2726",79.12962,739.13135
"2727",79.009995,739.14453
"2728",78.85863,739.1577
"2729",78.68772,739.1709
"2730",78.502174,739.1841
"2731",78.30686,739.19727
"2732",78.1091,739.21045
"2733",77.91623,739.22363
"2734",77.738,739.2368
"2735",77.57931,739.25
"2736",77.44991,739.2632
"2737",77.349815,739.27637
"2738",77.264366,739.28955
"2739",77.18379,739.30273
"2740",77.10811,739.3159
"2741",77.06172,739.3291
"2742",77.0959,739.3423
"2743",77.29366,739.35547
"2744",77.72823,739.36865
"2745",78.42893,739.38184
"2746",79.33959,739.395
"2747",80.34547,739.4082
"2748",81.29275,739.4214
"2749",82.04227,739.4346
"2750",82.52079,739.44775
"2751",82.72831,739.46094
"2752",82.72831,739.4741
"2753",82.60624,739.4873
"2754",82.44022,739.5005
"2755",82.28886,739.5137
"2756",82.18387,739.52686
"2757",82.11795,739.54004
"2758",82.074005,739.5532
"2759",82.01785,739.5664
"2760",81.91531,739.5796
"2761",81.73708,739.5928
"2762",81.478294,739.60596
"2763",81.14137,739.61914
"2764",80.75319,739.6323
"2765",80.35523,739.6455
"2766",79.98169,739.6587
"2767",79.6643,739.6719
"2768",79.42504,739.68506
"2769",79.25414,739.69824
"2770",79.14427,739.7114
"2771",79.063705,739.7246
"2772",78.995346,739.7378
"2773",78.91234,739.751
"2774",78.80492,739.76416
"2775",78.67063,739.77734
"2776",78.5095,739.7905
"2777",78.331276,739.8037
"2778",78.14572,739.8169
"2779",77.9675,739.8301
"2780",77.79904,739.84326
"2781",77.642784,739.85645
"2782",77.503624,739.8696
"2783",77.383995,739.8828
"2784",77.28634,739.896
"2785",77.205765,739.9092
"2786",77.14717,739.92236
"2787",77.100784,739.93555
"2788",77.05684,739.9487
"2789",77.01045,739.9619
"2790",76.97627,739.9751
"2791",76.98848,739.9883
"2792",77.12764,740.00146
"2793",77.47677,740.01465
"2794",78.07248,740.02783
"2795",78.89525,740.041
"2796",79.852295,740.0542
"2797",80.8069,740.0674
"2798",81.60525,740.08057
"2799",82.161896,740.09375
"2800",82.44755,740.10693
"2801",82.511024,740.1201
"2802",82.425575,740.1333
"2803",82.27177,740.1465
"2804",82.11307,740.15967
"2805",81.991,740.17285
"2806",81.917755,740.18604
"2807",81.87381,740.1992
"2808",81.83475,740.2124
"2809",81.77127,740.2256
"2810",81.651634,740.2388
"2811",81.461205,740.25195
"2812",81.19264,740.26514
"2813",80.86305,740.2783
"2814",80.49683,740.2915
"2815",80.1355,740.3047
"2816",79.81323,740.3179
"2817",79.55688,740.33105
"2818",79.37621,740.34424
"2819",79.26147,740.3574
"2820",79.19066,740.3706
"2821",79.13695,740.3838
"2822",79.07347,740.397
"2823",78.992905,740.41016
"2824",78.88548,740.42334
"2825",78.751205,740.4365
"2826",78.60227,740.4497
"2827",78.44358,740.4629
"2828",78.28001,740.4761
"2829",78.12375,740.48926
"2830",77.979706,740.50244
"2831",77.85031,740.5156
"2832",77.738,740.5288
"2833",77.64767,740.542
"2834",77.576866,740.5552
"2835",77.52071,740.56836
"2836",77.47433,740.58154
"2837",77.437706,740.5947
"2838",77.41329,740.6079
"2839",77.39132,740.6211
"2840",77.37667,740.6343
"2841",77.36202,740.64746
"2842",77.347374,740.66064
"2843",77.3254,740.6738
"2844",77.32296,740.687
"2845",77.3962,740.7002
"2846",77.63058,740.7134
"2847",78.08713,740.72656
"2848",78.79271,740.73975
"2849",79.69848,740.7529
"2850",80.67994,740.7661
"2851",81.58572,740.7793
"2852",82.28397,740.7925
"2853",82.71122,740.80566
"2854",82.8748,740.81885
"2855",82.83818,740.83203
"2856",82.684364,740.8452
"2857",82.493935,740.8584
"2858",82.32548,740.8716
"2859",82.210724,740.88477
"2860",82.144806,740.89795
"2861",82.11795,740.91113
"2862",82.091095,740.9243
"2863",82.02762,740.9375
"2864",81.898224,740.9507
"2865",81.6907,740.96387
"2866",81.409935,740.97705
"2867",81.08278,740.99023
"2868",80.743416,741.0034
"2869",80.43336,741.0166
"2870",80.17944,741.0298
"2871",79.9939,741.04297
"2872",79.871826,741.05615
"2873",79.798584,741.06934
"2874",79.744865,741.0825
"2875",79.691154,741.0957
"2876",79.62035,741.1089
"2877",79.5227,741.1221
"2878",79.395744,741.13525
"2879",79.24681,741.14844
"2880",79.08324,741.1616
"2881",78.91478,741.1748
"2882",78.75365,741.188
"2883",78.607155,741.2012
"2884",78.47532,741.21436
"2885",78.35813,741.22754
"2886",78.25315,741.2407
"2887",78.16525,741.2539
"2888",78.09201,741.2671
"2889",78.03342,741.2803
"2890",77.98459,741.29346
"2891",77.945526,741.30664
"2892",77.91379,741.3198
"2893",77.89426,741.333
"2894",77.87961,741.3462
"2895",77.8674,741.3594
"2896",77.857635,741.37256
"2897",77.85031,741.38574
"2898",77.83322,741.3989
"2899",77.81369,741.4121
"2900",77.7966,741.4253
"2901",77.81613,741.4385
"2902",77.93576,741.45166
"2903",78.23605,741.46484
"2904",78.7805,741.478
"2905",79.56176,741.4912
"2906",80.49439,741.5044
"2907",81.45388,741.5176
"2908",82.28397,741.53076
"2909",82.8748,741.54395
"2910",83.1873,741.5571
"2911",83.25567,741.5703
"2912",83.15068,741.5835
"2913",82.95293,741.5967
"2914",82.7454,741.60986
"2915",82.57206,741.62305
"2916",82.4622,741.6362
"2917",82.40116,741.6494
"2918",82.36942,741.6626
"2919",82.3328,741.6758
"2920",82.24979,741.68896
"2921",82.09842,741.70215
"2922",81.87137,741.71533
"2923",81.57839,741.7285
"2924",81.25124,741.7417
"2925",80.92653,741.7549
"2926",80.64332,741.76807
"2927",80.428474,741.78125
"2928",80.289314,741.79443
"2929",80.2063,741.8076
"2930",80.15991,741.8208
"2931",80.12573,741.834
"2932",80.076904,741.84717
"2933",79.99634,741.86035
"2934",79.88403,741.87354
"2935",79.742424,741.8867
"2936",79.58129,741.8999
"2937",79.412834,741.9131
"2938",79.24193,741.9263
"2939",79.08324,741.93945
"2940",78.93919,741.95264
"2941",78.802475,741.9658
"2942",78.677956,741.979
"2943",78.56565,741.9922
"2944",78.46555,742.0054
"2945",78.37766,742.01855
"2946",78.2971,742.03174
"2947",78.23605,742.0449
"2948",78.187225,742.0581
"2949",78.14816,742.0713
"2950",78.116425,742.0845
"2951",78.09201,742.09766
"2952",78.07004,742.11084
"2953",78.05051,742.124
"2954",78.02121,742.1372
"2955",77.98703,742.1504
"2956",77.95041,742.1636
"2957",77.91135,742.17676
"2958",77.88693,742.18994
"2959",77.92355,742.2031
"2960",78.09201,742.2163
"2961",78.46067,742.2295
"2962",79.06615,742.2427
"2963",79.87915,742.25586
"2964",80.80202,742.26904
"2965",81.69802,742.2822
"2966",82.42802,742.2954
"2967",82.913864,742.3086
"2968",83.13847,742.3218
"2969",83.1458,742.33496
"2970",83.00664,742.34814
"2971",82.804,742.3613
"2972",82.59647,742.3745
"2973",82.43046,742.3877
"2974",82.31571,742.4009
"2975",82.2449,742.41406
"2976",82.196075,742.42725
"2977",82.13016,742.4404
"2978",82.01297,742.4536
"2979",81.82254,742.4668
"2980",81.57107,742.48
"2981",81.27322,742.49316
"2982",80.96315,742.50635
"2983",80.67994,742.51953
"2984",80.45533,742.5327
"2985",80.29664,742.5459
"2986",80.198975,742.5591
"2987",80.14282,742.57227
"2988",80.111084,742.58545
"2989",80.076904,742.59863
"2990",80.01831,742.6118
"2991",79.93286,742.625
"2992",79.82056,742.6382
"2993",79.68139,742.65137
"2994",79.52758,742.66455
"2995",79.36889,742.67773
"2996",79.21019,742.6909
"2997",79.05394,742.7041
"2998",78.907455,742.7173
"2999",78.77562,742.73047
"3000",78.658424,742.74365
"3001",78.555885,742.75684
"3002",78.470436,742.77
"3003",78.39475,742.7832
"3004",78.331276,742.7964
"3005",78.27268,742.8096
"3006",78.221405,742.82275
"3007",78.17502,742.83594
"3008",78.12619,742.8491
"3009",78.0798,742.8623
"3010",78.04318,742.8755
"3011",78.013885,742.8887
"3012",77.99191,742.90186
"3013",77.98215,742.91504
"3014",77.97482,742.9282
"3015",77.9675,742.9414
"3016",77.95773,742.9546
"3017",77.94064,742.9678
"3018",77.91867,742.98096
"3019",77.908905,742.99414
"3020",77.94797,743.0073
"3021",78.1091,743.0205
"3022",78.47288,743.0337
"3023",79.080795,743.0469
"3024",79.89868,743.06006
"3025",80.84108,743.07324
"3026",81.75662,743.0864
"3027",82.50614,743.0996
"3028",82.99931,743.1128
"3029",83.22392,743.126
"3030",83.2166,743.13916
"3031",83.053024,743.15234
"3032",82.804,743.1655
"3033",82.547646,743.1787
"3034",82.32304,743.1919
"3035",82.15701,743.2051
"3036",82.04959,743.21826
"3037",81.97391,743.23145
"3038",81.900665,743.2446
"3039",81.79324,743.2578
"3040",81.62722,743.271
"3041",81.40017,743.2842
"3042",81.13161,743.29736
"3043",80.85573,743.31055
"3044",80.601814,743.3237
"3045",80.40406,743.3369
"3046",80.26978,743.3501
"3047",80.19409,743.3633
"3048",80.15747,743.37646
"3049",80.1355,743.38965
"3050",80.09888,743.40283
"3051",80.0354,743.416
"3052",79.937744,743.4292
"3053",79.81323,743.4424
"3054",79.66918,743.45557
"3055",79.51293,743.46875
"3056",79.35668,743.48193
"3057",79.20775,743.4951
"3058",79.07103,743.5083
"3059",78.94896,743.5215
"3060",78.839096,743.53467
"3061",78.74143,743.54785
"3062",78.65598,743.56104
"3063",78.5803,743.5742
"3064",78.51194,743.5874
"3065",78.450905,743.6006
"3066",78.399635,743.6138
"3067",78.35081,743.62695
"3068",78.30686,743.64014
"3069",78.25803,743.6533
"3070",78.2092,743.6665
"3071",78.15549,743.6797
"3072",78.10422,743.6929
"3073",78.06271,743.70605
"3074",78.030975,743.71924
"3075",78.009,743.7324
"3076",77.996796,743.7456
"3077",77.979706,743.7588
"3078",77.960175,743.772
"3079",77.9382,743.78516
"3080",77.92111,743.79834
"3081",77.93332,743.8115
"3082",78.0383,743.8247
"3083",78.30198,743.8379
"3084",78.79027,743.8511
"3085",79.50805,743.86426
"3086",80.396736,743.87744
"3087",81.33669,743.8906
"3088",82.18143,743.9038
"3089",82.80644,743.917
"3090",83.15068,743.9302
"3091",83.228806,743.94336
"3092",83.106735,743.95654
"3093",82.865036,743.9697
"3094",82.581825,743.9829
"3095",82.32548,743.9961
"3096",82.125275,744.0093
"3097",81.988556,744.02246
"3098",81.898224,744.03564
"3099",81.8201,744.0488
"3100",81.72732,744.062
"3101",81.59304,744.0752
"3102",81.40261,744.0884
"3103",81.160904,744.10156
"3104",80.89479,744.11475
"3105",80.63355,744.1279
"3106",80.40894,744.1411
"3107",80.24048,744.1543
"3108",80.130615,744.1675
"3109",80.06958,744.18066
"3110",80.03784,744.19385
"3111",80.01343,744.20703
"3112",79.971924,744.2202
"3113",79.906006,744.2334
"3114",79.81079,744.2466
"3115",79.691154,744.25977
"3116",79.551994,744.27295
"3117",79.40551,744.28613
"3118",79.26147,744.2993
"3119",79.1223,744.3125
"3120",78.995346,744.3257
"3121",78.87816,744.33887
"3122",78.768295,744.35205
"3123",78.67063,744.36523
"3124",78.58518,744.3784
"3125",78.51194,744.3916
"3126",78.44846,744.4048
"3127",78.39475,744.41797
"3128",78.348366,744.43115
"3129",78.3093,744.44434
"3130",78.28001,744.4575
"3131",78.25803,744.4707
"3132",78.24582,744.4839
"3133",78.24094,744.4971
"3134",78.23605,744.51025
"3135",78.23361,744.52344
"3136",78.22629,744.5366
"3137",78.21164,744.5498
"3138",78.187225,744.563
"3139",78.15549,744.5762
"3140",78.133514,744.58936
"3141",78.16281,744.60254
"3142",78.31663,744.6157
"3143",78.67307,744.6289
"3144",79.26391,744.6421
"3145",80.0647,744.6553
"3146",80.98512,744.66846
"3147",81.88602,744.68164
"3148",82.62333,744.6948
"3149",83.10185,744.708
"3150",83.302055,744.7212
"3151",83.26055,744.7344
"3152",83.05058,744.74756
"3153",82.75517,744.76074
"3154",82.44999,744.7739
"3155",82.18387,744.7871
"3156",81.98367,744.8003
"3157",81.849396,744.8135
"3158",81.75906,744.82666
"3159",81.671165,744.83984
"3160",81.55642,744.853
"3161",81.392845,744.8662
"3162",81.17799,744.8794
"3163",80.93385,744.8926
"3164",80.68726,744.90576
"3165",80.46998,744.91895
"3166",80.30152,744.9321
"3167",80.18677,744.9453
"3168",80.12085,744.9585
"3169",80.08667,744.9717
"3170",80.06714,744.98486
"3171",80.04028,744.99805
"3172",79.9939,745.0112
"3173",79.91821,745.0244
"3174",79.815674,745.0376
"3175",79.68871,745.0508
"3176",79.54711,745.06396
"3177",79.398186,745.07715
"3178",79.25414,745.09033
"3179",79.11742,745.1035
"3180",79.00023,745.1167
"3181",78.89525,745.1299
"3182",78.8098,745.14307
"3183",78.73167,745.15625
"3184",78.66331,745.16943
"3185",78.60227,745.1826
"3186",78.553444,745.1958
"3187",78.51682,745.209
"3188",78.49241,745.22217
"3189",78.47532,745.23535
"3190",78.46311,745.24854
"3191",78.45335,745.2617
"3192",78.44846,745.2749
"3193",78.44602,745.2881
"3194",78.44358,745.3013
"3195",78.43626,745.31445
"3196",78.42405,745.32764
"3197",78.40696,745.3408
"3198",78.39231,745.354
"3199",78.433815,745.3672
"3200",78.59983,745.3804
"3201",78.96849,745.39355
"3202",79.56664,745.40674
"3203",80.36744,745.4199
"3204",81.27566,745.4331
"3205",82.15213,745.4463
"3206",82.862595,745.4595
"3207",83.3167,745.47266
"3208",83.49981,745.48584
"3209",83.45342,745.499
"3210",83.24834,745.5122
"3211",82.96269,745.5254
"3212",82.66483,745.5386
"3213",82.406044,745.55176
"3214",82.20584,745.56494
"3215",82.06668,745.5781
"3216",81.96658,745.5913
"3217",81.87381,745.6045
"3218",81.75906,745.6177
"3219",81.600365,745.63086
"3220",81.3904,745.64404
"3221",81.15114,745.6572
"3222",80.907,745.6704
"3223",80.689705,745.6836
"3224",80.52125,745.6968
"3225",80.411385,745.70996
"3226",80.34791,745.72314
"3227",80.31861,745.7363
"3228",80.29664,745.7495
"3229",80.2649,745.7627
"3230",80.2063,745.7759
"3231",80.11841,745.78906
"3232",80.008545,745.80225
"3233",79.88159,745.8154
"3234",79.74975,745.8286
"3235",79.61547,745.8418
"3236",79.483635,745.855
"3237",79.35912,745.86816
"3238",79.237045,745.88135
"3239",79.11986,745.89453
"3240",79.012436,745.9077
"3241",78.91966,745.9209
"3242",78.83421,745.9341
"3243",78.765854,745.94727
"3244",78.71458,745.96045
"3245",78.675514,745.97363
"3246",78.64622,745.9868
"3247",78.624245,746
"3248",78.607155,746.0132
"3249",78.59739,746.02637
"3250",78.59251,746.03955
"3251",78.58518,746.05273
"3252",78.57542,746.0659
"3253",78.55833,746.0791
"3254",78.52659,746.0923
"3255",78.49485,746.10547
"3256",78.49729,746.11865
"3257",78.60471,746.13184
"3258",78.89525,746.145
"3259",79.415276,746.1582
"3260",80.15991,746.1714
"3261",81.05592,746.1846
"3262",81.969025,746.19775
"3263",82.76494,746.21094
"3264",83.33379,746.2241
"3265",83.6292,746.2373
"3266",83.67559,746.2505
"3267",83.53155,746.2637
"3268",83.27276,746.27686
"3269",82.98222,746.29004
"3270",82.7161,746.3032
"3271",82.50126,746.3164
"3272",82.34989,746.3296
"3273",82.24979,746.3428
"3274",82.17166,746.35596
"3275",82.07156,746.36914
"3276",81.9202,746.3823
"3277",81.71511,746.3955
"3278",81.463646,746.4087
"3279",81.1902,746.4219
"3280",80.936295,746.43506
"3281",80.73121,746.44824
"3282",80.58228,746.4614
"3283",80.49439,746.4746
"3284",80.45045,746.4878
"3285",80.42603,746.501
"3286",80.39918,746.51416
"3287",80.35279,746.52734
"3288",80.26978,746.5405
"3289",80.14526,746.5537
"3290",79.99634,746.5669
"3291",79.83765,746.5801
"3292",79.68139,746.59326
"3293",79.53246,746.60645
"3294",79.40063,746.6196
"3295",79.273674,746.6328
"3296",79.151596,746.646
"3297",79.03197,746.6592
"3298",78.924545,746.67236
"3299",78.82201,746.68555
"3300",78.73167,746.6987
"3301",78.658424,746.7119
"3302",78.60227,746.7251
"3303",78.55833,746.7383
"3304",78.52903,746.75146
"3305",78.5095,746.76465
"3306",78.48997,746.77783
"3307",78.46555,746.791
"3308",78.43137,746.8042
"3309",78.38743,746.8174
"3310",78.345924,746.83057
"3311",78.33616,746.84375
"3312",78.42161,746.85693
"3313",78.677956,746.8701
"3314",79.1638,746.8833
"3315",79.87915,746.8965
"3316",80.762955,746.90967
"3317",81.6907,746.92285
"3318",82.52567,746.93604
"3319",83.14824,746.9492
"3320",83.50469,746.9624
"3321",83.60723,746.9756
"3322",83.51934,746.9888
"3323",83.31426,747.00195
"3324",83.06035,747.01514
"3325",82.82109,747.0283
"3326",82.62821,747.0415
"3327",82.48417,747.0547
"3328",82.38163,747.0679
"3329",82.286415,747.08105
"3330",82.17166,747.09424
"3331",82.00809,747.1074
"3332",81.78836,747.1206
"3333",81.52468,747.1338
"3334",81.24391,747.147
"3335",80.9778,747.16016
"3336",80.75563,747.17334
"3337",80.59693,747.1865
"3338",80.48951,747.1997
"3339",80.430916,747.2129
"3340",80.38941,747.2261
"3341",80.35279,747.23926
"3342",80.29908,747.25244
"3343",80.21362,747.2656
"3344",80.093994,747.2788
"3345",79.94995,747.292
"3346",79.78882,747.3052
"3347",79.61791,747.31836
"3348",79.4519,747.33154
"3349",79.293205,747.3447
"3350",79.14671,747.3579
"3351",79.00511,747.3711
"3352",78.87572,747.3843
"3353",78.75609,747.39746
"3354",78.65354,747.41064
"3355",78.56077,747.4238
"3356",78.485085,747.437
"3357",78.416725,747.4502
"3358",78.363014,747.4634
"3359",78.3093,747.47656
"3360",78.2678,747.48975
"3361",78.22873,747.5029
"3362",78.19699,747.5161
"3363",78.16281,747.5293
"3364",78.12863,747.5425
"3365",78.08469,747.55566
"3366",78.06271,747.56885
"3367",78.1091,747.58203
"3368",78.30686,747.5952
"3369",78.72678,747.6084
"3370",79.39086,747.6216
"3371",80.26002,747.63477
"3372",81.22438,747.64795
"3373",82.14725,747.66113
"3374",82.89189,747.6743
"3375",83.389946,747.6875
"3376",83.6292,747.7007
"3377",83.64385,747.71387
"3378",83.50225,747.72705
"3379",83.28008,747.74023
"3380",83.0457,747.7534
"3381",82.84306,747.7666
"3382",82.69169,747.7798
"3383",82.58671,747.79297
"3384",82.50614,747.80615
"3385",82.41093,747.81934
"3386",82.269325,747.8325
"3387",82.06424,747.8457
"3388",81.80545,747.8589
"3389",81.512474,747.8721
"3390",81.22926,747.88525
"3391",80.98268,747.89844
"3392",80.797134,747.9116
"3393",80.672615,747.9248
"3394",80.59205,747.938
"3395",80.5359,747.9512
"3396",80.48463,747.96436
"3397",80.41871,747.97754
"3398",80.325935,747.9907
"3399",80.198975,748.0039
"3400",80.04028,748.0171
"3401",79.85962,748.0303
"3402",79.66186,748.04346
"3403",79.45922,748.05664
"3404",79.26391,748.0698
"3405",79.078354,748.083
"3406",78.9099,748.0962
"3407",78.75365,748.1094
"3408",78.6096,748.12256
"3409",78.47776,748.13574
"3410",78.35569,748.1489
"3411",78.25071,748.1621
"3412",78.16525,748.1753
"3413",78.09445,748.1885
"3414",78.04074,748.20166
"3415",77.996796,748.21484
"3416",77.95529,748.228
"3417",77.91379,748.2412
"3418",77.8674,748.2544
"3419",77.80881,748.2676
"3420",77.747765,748.28076
"3421",77.713585,748.29395
"3422",77.769745,748.3071
"3423",77.99924,748.3203
"3424",78.467995,748.3335
"3425",79.18822,748.3467
"3426",80.11597,748.35986
"3427",81.129166,748.37305
"3428",82.08621,748.3862
"3429",82.85527,748.3994
"3430",83.36553,748.4126
"3431",83.612114,748.4258
"3432",83.63653,748.43896
"3433",83.50713,748.45215
"3434",83.29717,748.46533
"3435",83.072556,748.4785
"3436",82.879684,748.4917
"3437",82.73319,748.5049
"3438",82.633095,748.51807
"3439",82.55741,748.53125
"3440",82.46708,748.54443
"3441",82.32548,748.5576
"3442",82.11795,748.5708
"3443",81.85184,748.584
"3444",81.549095,748.59717
"3445",81.24147,748.61035
"3446",80.970474,748.62354
"3447",80.75807,748.6367
"3448",80.601814,748.6499
"3449",80.49439,748.6631
"3450",80.41871,748.6763
"3451",80.35035,748.68945
"3452",80.272224,748.70264
"3453",80.16724,748.7158
"3454",80.03784,748.729
"3455",79.88159,748.7422
"3456",79.69848,748.7554
"3457",79.500725,748.76855
"3458",79.30053,748.78174
"3459",79.097885,748.7949
"3460",78.90013,748.8081
"3461",78.709694,748.8213
"3462",78.53147,748.8345
"3463",78.36057,748.84766
"3464",78.2092,748.86084
"3465",78.0798,748.874
"3466",77.977264,748.8872
"3467",77.89914,748.9004
"3468",77.83566,748.9136
"3469",77.77463,748.92676
"3470",77.7087,748.93994
"3471",77.63302,748.9531
"3472",77.55489,748.9663
"3473",77.506065,748.9795
"3474",77.54757,748.9927
"3475",77.75998,749.00586
"3476",78.20676,749.01904
"3477",78.89769,749.0322
"3478",79.7937,749.0454
"3479",80.782486,749.0586
"3480",81.72976,749.0718
"3481",82.5037,749.08496
"3482",83.03349,749.09814
"3483",83.29717,749.1113
"3484",83.33135,749.1245
"3485",83.19707,749.1377
"3486",82.9749,749.1509
"3487",82.73075,749.16406
"3488",82.511024,749.17725
"3489",82.32548,749.1904
"3490",82.1741,749.2036
"3491",82.022736,749.2168
"3492",81.84207,749.23
"3493",81.61257,749.24316
"3494",81.341576,749.25635
"3495",81.05104,749.26953
"3496",80.765396,749.2827
"3497",80.51881,749.2959
"3498",80.33082,749.3091
"3499",80.20386,749.32227
"3500",80.128174,749.33545
"3501",80.079346,749.34863
"3502",80.0354,749.3618
"3503",79.97681,749.375
"3504",79.888916,749.3882
"3505",79.764404,749.40137
"3506",79.60815,749.41455
"3507",79.42748,749.42773
"3508",79.234604,749.4409
"3509",79.03197,749.4541
"3510",78.82933,749.4673
"3511",78.63401,749.48047
"3512",78.44602,749.49365
"3513",78.27268,749.50684
"3514",78.11398,749.52
"3515",77.97482,749.5332
"3516",77.84543,749.5464
"3517",77.73556,749.5596
"3518",77.63302,749.57275
"3519",77.5378,749.58594
"3520",77.47433,749.5991
"3521",77.49874,749.6123
"3522",77.68917,749.6255
"3523",78.116425,749.6387
"3524",78.802475,749.65186
"3525",79.710686,749.66504
"3526",80.73853,749.6782
"3527",81.74441,749.6914
"3528",82.59647,749.7046
"3529",83.20683,749.7178
"3530",83.55108,749.73096
"3531",83.65606,749.74414
"3532",83.58526,749.7573
"3533",83.40948,749.7705
"3534",83.19951,749.7837
"3535",83.001755,749.7969
"3536",82.83818,749.81006
"3537",82.69413,749.82324
"3538",82.55009,749.8364
"3539",82.36698,749.8496
"3540",82.127716,749.8628
"3541",81.829865,749.876
"3542",81.495384,749.88916
"3543",81.15846,749.90234
"3544",80.85573,749.9155
"3545",80.61158,749.9287
"3546",80.430916,749.9419
"3547",80.31129,749.9551
"3548",80.233154,749.96826
"3549",80.16724,749.98145
"3550",80.093994,749.9946
"3551",79.99634,750.0078
"3552",79.8645,750.021
"3553",79.693596,750.0342
"3554",79.49584,750.04736
"3555",79.27856,750.06055
"3556",79.04906,750.0737
"3557",78.81468,750.0869
"3558",78.58762,750.1001
"3559",78.37278,750.1133
"3560",78.16525,750.12646
"3561",77.96506,750.13965
"3562",77.77707,750.15283
"3563",77.60372,750.166
"3564",77.471886,750.1792
"3565",77.43038,750.1924
"3566",77.557335,750.20557
"3567",77.91379,750.21875
"3568",78.53391,750.23193
"3569",79.39086,750.2451
"3570",80.39918,750.2583
"3571",81.41726,750.2715
"3572",82.303505,750.28467
"3573",82.97002,750.29785
"3574",83.3753,750.31104
"3575",83.54131,750.3242
"3576",83.526665,750.3374
"3577",83.41192,750.3506
"3578",83.26299,750.3638
"3579",83.12138,750.37695
"3580",83.001755,750.39014
"3581",82.88945,750.4033
"3582",82.75273,750.4165
"3583",82.55253,750.4297
"3584",82.26444,750.4429
"3585",81.8909,750.45605
"3586",81.45632,750.46924
"3587",81.00221,750.4824
"3588",80.57496,750.4956
"3589",80.20874,750.5088
"3590",79.92554,750.522
"3591",79.71801,750.53516
"3592",79.571526,750.54834
"3593",79.46166,750.5615
"3594",79.35424,750.5747
"3595",79.22484,750.5879
"3596",79.063705,750.6011
"3597",78.86595,750.61426
"3598",78.63401,750.62744
"3599",78.38499,750.6406
"3600",78.12863,750.6538
"3601",77.86984,750.667
"3602",77.62081,750.6802
"3603",77.37667,750.69336
"3604",77.14473,750.70654
"3605",76.925,750.7197
"3606",76.73945,750.7329
"3607",76.612495,750.7461
"3608",76.612495,750.7593
"3609",76.80049,750.77246
"3610",77.225296,750.78564
"3611",77.88693,750.7988
"3612",78.73167,750.812
"3613",79.64477,750.8252
"3614",80.49683,750.8384
"3615",81.18532,750.85156
"3616",81.654076,750.86475
"3617",81.90311,750.8779
"3618",81.97879,750.8911
"3619",81.94705,750.9043
"3620",81.864044,750.9175
"3621",81.77371,750.93066
"3622",81.70046,750.94385
"3623",81.6321,750.95703
"3624",81.549095,750.9702
"3625",81.42214,750.9834
"3626",81.2195,750.9966
"3627",80.919205,751.00977
"3628",80.53834,751.02295
"3629",80.10864,751.03613
"3630",79.66918,751.0493
"3631",79.27123,751.0625
"3632",78.95384,751.0757
"3633",78.7219,751.08887
"3634",78.572975,751.10205
"3635",78.48264,751.11523
"3636",78.41428,751.1284
"3637",78.34104,751.1416
"3638",78.24582,751.1548
"3639",78.11154,751.16797
"3640",77.94797,751.18115
"3641",77.7673,751.19434
"3642",77.574425,751.2075
"3643",77.37911,751.2207
"3644",77.19112,751.2339
"3645",77.00801,751.2471
"3646",76.83223,751.26025
"3647",76.66865,751.27344
"3648",76.51972,751.2866
"3649",76.402534,751.2998
"3650",76.34882,751.313
"3651",76.419624,751.3262
"3652",76.67597,751.33936
"3653",77.16182,751.35254
"3654",77.86008,751.3657
"3655",78.709694,751.3789
"3656",79.59106,751.3921
"3657",80.37965,751.4053
"3658",80.98268,751.41846
"3659",81.36843,751.43164
"3660",81.55398,751.4448
"3661",81.600365,751.458
"3662",81.57595,751.4712
"3663",81.532005,751.4844
"3664",81.50271,751.49756
"3665",81.49294,751.51074
"3666",81.480736,751.5239
"3667",81.44167,751.5371
"3668",81.3489,751.5503
"3669",81.17799,751.5635
"3670",80.91432,751.57666
"3671",80.570076,751.58984
"3672",80.177,751.603
"3673",79.77661,751.6162
"3674",79.40795,751.6294
"3675",79.10521,751.6426
"3676",78.887924,751.65576
"3677",78.74387,751.66895
"3678",78.6511,751.6821
"3679",78.590065,751.6953
"3680",78.53391,751.7085
"3681",78.46555,751.7217
"3682",78.37034,751.73486
"3683",78.24826,751.74805
"3684",78.101776,751.7612
"3685",77.943085,751.7744
"3686",77.78195,751.7876
"3687",77.625694,751.8008
"3688",77.48165,751.81396
"3689",77.35226,751.82715
"3690",77.23506,751.84033
"3691",77.13008,751.8535
"3692",77.04219,751.8667
"3693",76.964066,751.8799
"3694",76.89082,751.89307
"3695",76.83711,751.90625
"3696",76.82979,751.91943
"3697",76.91524,751.9326
"3698",77.16914,751.9458
"3699",77.6379,751.959
"3700",78.32395,751.97217
"3701",79.1638,751.98535
"3702",80.042725,751.99854
"3703",80.83864,752.0117
"3704",81.449,752.0249
"3705",81.83475,752.0381
"3706",82.020294,752.0513
"3707",82.06668,752.06445
"3708",82.04715,752.07764
"3709",82.01541,752.0908
"3710",82.005646,752.104
"3711",82.01785,752.1172
"3712",82.037384,752.1304
"3713",82.039825,752.14355
"3714",81.99832,752.15674
"3715",81.88602,752.1699
"3716",81.685814,752.1831
"3717",81.40017,752.1963
"3718",81.04372,752.2095
"3719",80.65064,752.22266
"3720",80.26734,752.23584
"3721",79.937744,752.249
"3722",79.68139,752.2622
"3723",79.51293,752.2754
"3724",79.41039,752.2886
"3725",79.34936,752.30176
"3726",79.30541,752.31494
"3727",79.24925,752.3281
"3728",79.1638,752.3413
"3729",79.0515,752.3545
"3730",78.91234,752.3677
"3731",78.75609,752.38086
"3732",78.59495,752.39404
"3733",78.43137,752.4072
"3734",78.27268,752.4204
"3735",78.12131,752.4336
"3736",77.98215,752.4468
"3737",77.857635,752.45996
"3738",77.74532,752.47314
"3739",77.64767,752.4863
"3740",77.5671,752.4995
"3741",77.49874,752.5127
"3742",77.44015,752.5259
"3743",77.3962,752.53906
"3744",77.36202,752.55225
"3745",77.33761,752.5654
"3746",77.31808,752.5786
"3747",77.30587,752.5918
"3748",77.28878,752.605
"3749",77.26925,752.61816
"3750",77.24483,752.63135
"3751",77.22774,752.64453
"3752",77.25216,752.6577
"3753",77.37423,752.6709
"3754",77.66476,752.6841
"3755",78.17746,752.69727
"3756",78.907455,752.71045
"3757",79.77905,752.72363
"3758",80.67994,752.7368
"3759",81.47097,752.75
"3760",82.05203,752.7632
"3761",82.39628,752.77637
"3762",82.533,752.78955
"3763",82.53544,752.80273
"3764",82.48417,752.8159
"3765",82.425575,752.8291
"3766",82.391396,752.8423
"3767",82.38651,752.85547
"3768",82.391396,752.86865
"3769",82.38651,752.88184
"3770",82.34745,752.895
"3771",82.252235,752.9082
"3772",82.08621,752.9214
"3773",81.849396,752.9346
"3774",81.55886,752.94775
"3775",81.24147,752.96094
"3776",80.93141,752.9741
"3777",80.66529,752.9873
"3778",80.46021,753.0005
"3779",80.31861,753.0137
"3780",80.22827,753.02686
"3781",80.16724,753.04004
"3782",80.111084,753.0532
"3783",80.042725,753.0664
"3784",79.94995,753.0796
"3785",79.835205,753.0928
"3786",79.693596,753.10596
"3787",79.534904,753.11914
"3788",79.36645,753.1323
"3789",79.1931,753.1455
"3790",79.01976,753.1587
"3791",78.85863,753.1719
"3792",78.70725,753.18506
"3793",78.572975,753.19824
"3794",78.45823,753.2114
"3795",78.365456,753.2246
"3796",78.28977,753.2378
"3797",78.22873,753.251
"3798",78.17502,753.26416
"3799",78.12375,753.27734
"3800",78.0676,753.2905
"3801",78.00656,753.3037
"3802",77.945526,753.3169
"3803",77.91135,753.3301
"3804",77.95773,753.34326
"3805",78.14816,753.35645
"3806",78.538795,753.3696
"3807",79.132065,753.3828
"3808",79.87427,753.396
"3809",80.66285,753.4092
"3810",81.38064,753.42236
"3811",81.9202,753.43555
"3812",82.2449,753.4487
"3813",82.371864,753.4619
"3814",82.36454,753.4751
"3815",82.2913,753.4883
"3816",82.21805,753.50146
"3817",82.178986,753.51465
"3818",82.176544,753.52783
"3819",82.19852,753.541
"3820",82.21805,753.5542
"3821",82.20828,753.5674
"3822",82.13992,753.58057
"3823",81.99832,753.59375
"3824",81.77615,753.60693
"3825",81.48562,753.6201
"3826",81.15114,753.6333
"3827",80.816666,753.6465
"3828",80.50904,753.65967
"3829",80.26002,753.67285
"3830",80.07446,753.68604
"3831",79.94751,753.6992
"3832",79.85718,753.7124
"3833",79.781494,753.7256
"3834",79.70336,753.7388
"3835",79.60815,753.75195
"3836",79.49096,753.76514
"3837",79.34936,753.7783
"3838",79.18822,753.7915
"3839",79.01976,753.8047
"3840",78.84642,753.8179
"3841",78.68284,753.83105
"3842",78.53391,753.84424
"3843",78.399635,753.8574
"3844",78.28001,753.8706
"3845",78.17258,753.8838
"3846",78.07492,753.897
"3847",77.994354,753.91016
"3848",77.93088,753.92334
"3849",77.87717,753.9365
"3850",77.83566,753.9497
"3851",77.803925,753.9629
"3852",77.77463,753.9761
"3853",77.75021,753.98926
"3854",77.72335,754.00244
"3855",77.69894,754.0156
"3856",77.66964,754.0288
"3857",77.64767,754.042
"3858",77.65499,754.0552
"3859",77.752655,754.06836
"3860",78.00656,754.08154
"3861",78.46311,754.0947
"3862",79.12474,754.1079
"3863",79.92554,754.1211
"3864",80.75075,754.1343
"3865",81.47341,754.14746
"3866",82.003204,754.16064
"3867",82.30106,754.1738
"3868",82.40116,754.187
"3869",82.3621,754.2002
"3870",82.26444,754.2134
"3871",82.16434,754.22656
"3872",82.09598,754.23975
"3873",82.07156,754.2529
"3874",82.08377,754.2661
"3875",82.09842,754.2793
"3876",82.08377,754.2925
"3877",82.01297,754.30566
"3878",81.866486,754.31885
"3879",81.63943,754.33203
"3880",81.3489,754.3452
"3881",81.02663,754.3584
"3882",80.71168,754.3716
"3883",80.4358,754.38477
"3884",80.218506,754.39795
"3885",80.0647,754.41113
"3886",79.9646,754.4243
"3887",79.89868,754.4375
"3888",79.84741,754.4507
"3889",79.78638,754.46387
"3890",79.70336,754.47705
"3891",79.59594,754.49023
"3892",79.4641,754.5034
"3893",79.32006,754.5166
"3894",79.17357,754.5298
"3895",79.02464,754.54297
"3896",78.8806,754.55615
"3897",78.74876,754.56934
"3898",78.63157,754.5825
"3899",78.52659,754.5957
"3900",78.43626,754.6089
"3901",78.36057,754.6221
"3902",78.29954,754.63525
"3903",78.24338,754.64844
"3904",78.19699,754.6616
"3905",78.15549,754.6748
"3906",78.12131,754.688
"3907",78.08957,754.7012
"3908",78.06271,754.71436
"3909",78.04318,754.72754
"3910",78.028534,754.7407
"3911",78.011444,754.7539
"3912",77.99191,754.7671
"3913",77.9675,754.7803
"3914",77.943085,754.79346
"3915",77.93088,754.80664
"3916",77.9675,754.8198
"3917",78.116425,754.833
"3918",78.43626,754.8462
"3919",78.96117,754.8594
"3920",79.67162,754.87256
"3921",80.482185,754.88574
"3922",81.27566,754.8989
"3923",81.92996,754.9121
"3924",82.374306,754.9253
"3925",82.59159,754.9385
"3926",82.63065,754.95166
"3927",82.55497,754.96484
"3928",82.43778,754.978
"3929",82.32548,754.9912
"3930",82.247345,755.0044
"3931",82.19852,755.0176
"3932",82.17166,755.03076
"3933",82.13748,755.04395
"3934",82.06668,755.0571
"3935",81.934845,755.0703
"3936",81.739525,755.0835
"3937",81.48318,755.0967
"3938",81.18532,755.10986
"3939",80.8777,755.12305
"3940",80.59449,755.1362
"3941",80.35523,755.1494
"3942",80.17944,755.1626
"3943",80.062256,755.1758
"3944",79.99634,755.18896
"3945",79.96216,755.20215
"3946",79.93286,755.21533
"3947",79.89624,755.2285
"3948",79.83276,755.2417
"3949",79.742424,755.2549
"3950",79.63256,755.26807
"3951",79.50561,755.28125
"3952",79.37377,755.29443
"3953",79.24925,755.3076
"3954",79.13695,755.3208
"3955",79.03929,755.334
"3956",78.95384,755.34717
"3957",78.87572,755.36035
"3958",78.80003,755.37354
"3959",78.729225,755.3867
"3960",78.660866,755.3999
"3961",78.60227,755.4131
"3962",78.551,755.4263
"3963",78.50706,755.43945
"3964",78.470436,755.45264
"3965",78.4387,755.4658
"3966",78.41428,755.479
"3967",78.397194,755.4922
"3968",78.382545,755.5054
"3969",78.37034,755.51855
"3970",78.35813,755.53174
"3971",78.34104,755.5449
"3972",78.31907,755.5581
"3973",78.3093,755.5713
"3974",78.36057,755.5845
"3975",78.53147,755.59766
"3976",78.88548,755.61084
"3977",79.44213,755.624
"3978",80.16235,755.6372
"3979",80.953384,755.6504
"3980",81.6907,755.6636
"3981",82.25712,755.67676
"3982",82.59647,755.68994
"3983",82.718544,755.7031
"3984",82.67216,755.7163
"3985",82.528114,755.7295
"3986",82.35233,755.7427
"3987",82.196075,755.75586
"3988",82.08865,755.76904
"3989",82.02518,755.7822
"3990",81.99588,755.7954
"3991",81.969025,755.8086
"3992",81.91531,755.8218
"3993",81.80301,755.83496
"3994",81.62478,755.84814
"3995",81.38552,755.8613
"3996",81.109634,755.8745
"3997",80.831314,755.8877
"3998",80.57984,755.9009
"3999",80.37965,755.91406
"4000",80.233154,755.92725
"4001",80.14038,755.9404
"4002",80.08423,755.9536
"4003",80.05005,755.9668
"4004",80.01343,755.98
"4005",79.95972,755.99316
"4006",79.87915,756.00635
"4007",79.76929,756.01953
"4008",79.63744,756.0327
"4009",79.49584,756.0459
"4010",79.35912,756.0591
"4011",79.23216,756.07227
"4012",79.11986,756.08545
"4013",79.0222,756.09863
"4014",78.93187,756.1118
"4015",78.8513,756.125
"4016",78.7805,756.1382
"4017",78.72434,756.15137
"4018",78.6804,756.16455
"4019",78.6511,756.17773
"4020",78.63157,756.1909
"4021",78.61448,756.2041
"4022",78.59739,756.2173
"4023",78.57542,756.23047
"4024",78.54856,756.24365
"4025",78.52415,756.25684
"4026",78.49485,756.27
"4027",78.47288,756.2832
"4028",78.44602,756.2964
"4029",78.41428,756.3096
"4030",78.37522,756.32275
"4031",78.348366,756.33594
"4032",78.37278,756.3491
"4033",78.51682,756.3623
"4034",78.84154,756.3755
"4035",79.37621,756.3887
"4036",80.08423,756.40186
"4037",80.87526,756.41504
"4038",81.62478,756.4282
"4039",82.21805,756.4414
"4040",82.58427,756.4546
"4041",82.72587,756.4678
"4042",82.686806,756.48096
"4043",82.533,756.49414
"4044",82.33524,756.5073
"4045",82.144806,756.5205
"4046",81.99344,756.5337
"4047",81.88602,756.5469
"4048",81.81033,756.56006
"4049",81.74197,756.57324
"4050",81.65652,756.5864
"4051",81.52712,756.5996
"4052",81.3489,756.6128
"4053",81.13161,756.626
"4054",80.88991,756.63916
"4055",80.6482,756.65234
"4056",80.4358,756.6655
"4057",80.26734,756.6787
"4058",80.15503,756.6919
"4059",80.08911,756.7051
"4060",80.059814,756.71826
"4061",80.045166,756.73145
"4062",80.02319,756.7446
"4063",79.98413,756.7578
"4064",79.91821,756.771
"4065",79.82544,756.7842
"4066",79.71801,756.79736
"4067",79.60082,756.81055
"4068",79.483635,756.8237
"4069",79.37133,756.8369
"4070",79.26635,756.8501
"4071",79.168686,756.8633
"4072",79.07591,756.87646
"4073",78.98558,756.88965
"4074",78.90013,756.90283
"4075",78.82445,756.916
"4076",78.75609,756.9292
"4077",78.695045,756.9424
"4078",78.63157,756.95557
"4079",78.56321,756.96875
"4080",78.487526,756.98193
"4081",78.416725,756.9951
"4082",78.35081,757.0083
"4083",78.29954,757.0215
"4084",78.25559,757.03467
"4085",78.21408,757.04785
"4086",78.17258,757.06104
"4087",78.13107,757.0742
"4088",78.08713,757.0874
"4089",78.05783,757.1006
"4090",78.065155,757.1138
"4091",78.16525,757.12695
"4092",78.42893,757.14014
"4093",78.9099,757.1533
"4094",79.60082,757.1665
"4095",80.43336,757.1797
"4096",81.290306,757.1929
"4097",82.0325,757.20605
"4098",82.55253,757.21924
"4099",82.80888,757.2324
"4100",82.82353,757.2456
"4101",82.66483,757.2588
"4102",82.41337,757.272
"4103",82.142365,757.28516
"4104",81.90799,757.29834
"4105",81.73464,757.3115
"4106",81.62478,757.3247
"4107",81.549095,757.3379
"4108",81.480736,757.3511
"4109",81.392845,757.36426
"4110",81.26833,757.37744
"4111",81.10231,757.3906
"4112",80.907,757.4038
"4113",80.71412,757.417
"4114",80.5359,757.4302
"4115",80.39185,757.44336
"4116",80.2942,757.45654
"4117",80.233154,757.4697
"4118",80.198975,757.4829
"4119",80.17944,757.4961
"4120",80.15503,757.5093
"4121",80.113525,757.52246
"4122",80.04761,757.53564
"4123",79.94995,757.5488
"4124",79.83276,757.562
"4125",79.69848,757.5752
"4126",79.5642,757.5884
"4127",79.432365,757.60156
"4128",79.31274,757.61475
"4129",79.19554,757.6279
"4130",79.08812,757.6411
"4131",78.98314,757.6543
"4132",78.890366,757.6675
"4133",78.81468,757.68066
"4134",78.75609,757.69385
"4135",78.7219,757.70703
"4136",78.70237,757.7202
"4137",78.695045,757.7334
"4138",78.692604,757.7466
"4139",78.69749,757.75977
"4140",78.70481,757.77295
"4141",78.70725,757.78613
"4142",78.70725,757.7993
"4143",78.69749,757.8125
"4144",78.68772,757.8257
"4145",78.695045,757.83887
"4146",78.7805,757.85205
"4147",79.009995,757.86523
"4148",79.43725,757.8784
"4149",80.05737,757.8916
"4150",80.814224,757.9048
"4151",81.59792,757.91797
"4152",82.27665,757.93115
"4153",82.75517,757.94434
"4154",82.99199,757.9575
"4155",83.01396,757.9707
"4156",82.8748,757.9839
"4157",82.6453,757.9971
"4158",82.38651,758.01025
"4159",82.14969,758.02344
"4160",81.94949,758.0366
"4161",81.79324,758.0498
"4162",81.668724,758.063
"4163",81.55154,758.0762
"4164",81.40749,758.08936
"4165",81.22194,758.10254
"4166",80.99245,758.1157
"4167",80.726326,758.1289
"4168",80.45777,758.1421
"4169",80.216064,758.1553
"4170",80.02075,758.16846
"4171",79.88403,758.18164
"4172",79.80347,758.1948
"4173",79.766846,758.208
"4174",79.74975,758.2212
"4175",79.73266,758.2344
"4176",79.69604,758.24756
"4177",79.63012,758.26074
"4178",79.537346,758.2739
"4179",79.42504,758.2871
"4180",79.30541,758.3003
"4181",79.19066,758.3135
"4182",79.08324,758.32666
"4183",78.98558,758.33984
"4184",78.890366,758.353
"4185",78.79759,758.3662
"4186",78.712135,758.3794
"4187",78.63157,758.3926
"4188",78.56077,758.40576
"4189",78.49485,758.41895
"4190",78.433815,758.4321
"4191",78.37766,758.4453
"4192",78.32639,758.4585
"4193",78.28001,758.4717
"4194",78.238495,758.48486
"4195",78.204315,758.49805
"4196",78.17502,758.5112
"4197",78.14816,758.5244
"4198",78.11398,758.5376
"4199",78.0798,758.5508
"4200",78.06027,758.56396
"4201",78.10422,758.57715
"4202",78.28489,758.59033
"4203",78.67063,758.6035
"4204",79.28344,758.6167
"4205",80.08667,758.6299
"4206",80.98024,758.64307
"4207",81.829865,758.65625
"4208",82.5037,758.66943
"4209",82.930954,758.6826
"4210",83.106735,758.6958
"4211",83.070114,758.709
"4212",82.88945,758.72217
"4213",82.64774,758.73535
"4214",82.408485,758.74854
"4215",82.2034,758.7617
"4216",82.056915,758.7749
"4217",81.95926,758.7881
"4218",81.88846,758.8013
"4219",81.812775,758.81445
"4220",81.7029,758.82764
"4221",81.53445,758.8408
"4222",81.307396,758.854
"4223",81.04372,758.8672
"4224",80.76784,758.8804
"4225",80.50904,758.89355
"4226",80.29664,758.90674
"4227",80.14526,758.9199
"4228",80.05005,758.9331
"4229",79.99634,758.9463
"4230",79.96216,758.9595
"4231",79.93042,758.97266
"4232",79.886475,758.98584
"4233",79.82056,758.999
"4234",79.73266,759.0122
"4235",79.63012,759.0254
"4236",79.520256,759.0386
"4237",79.40551,759.05176
"4238",79.290764,759.06494
"4239",79.18089,759.0781
"4240",79.07347,759.0913
"4241",78.97337,759.1045
"4242",78.873276,759.1177
"4243",78.77806,759.13086
"4244",78.68528,759.14404
"4245",78.60227,759.1572
"4246",78.52903,759.1704
"4247",78.467995,759.1836
"4248",78.42161,759.1968
"4249",78.38987,759.20996
"4250",78.36057,759.22314
"4251",78.33372,759.2363
"4252",78.30442,759.2495
"4253",78.26292,759.2627
"4254",78.23605,759.2759
"4255",78.28001,759.28906
"4256",78.46067,759.30225
"4257",78.84398,759.3154
"4258",79.45678,759.3286
"4259",80.26246,759.3418
"4260",81.15602,759.355
"4261",82.003204,759.36816
"4262",82.67948,759.38135
"4263",83.10918,759.39453
"4264",83.28985,759.4077
"4265",83.25567,759.4209
"4266",83.07988,759.4341
"4267",82.84062,759.44727
"4268",82.60624,759.46045
"4269",82.408485,759.47363
"4270",82.262,759.4868
"4271",82.161896,759.5
"4272",82.08865,759.5132
"4273",82.00809,759.52637
"4274",81.88846,759.53955
"4275",81.71511,759.55273
"4276",81.48562,759.5659
"4277",81.21217,759.5791
"4278",80.92409,759.5923
"4279",80.66285,759.60547
"4280",80.45533,759.61865
"4281",80.308846,759.63184
"4282",80.22095,759.645
"4283",80.16968,759.6582
"4284",80.130615,759.6714
"4285",80.08423,759.6846
"4286",80.02319,759.69775
"4287",79.94507,759.71094
"4288",79.84253,759.7241
"4289",79.71801,759.7373
"4290",79.58129,759.7505
"4291",79.44213,759.7637
"4292",79.29809,759.77686
"4293",79.16136,759.79004
"4294",79.03685,759.8032
"4295",78.91966,759.8164
"4296",78.8098,759.8296
"4297",78.70725,759.8428
"4298",78.61936,759.85596
"4299",78.54124,759.86914
"4300",78.47532,759.8823
"4301",78.42161,759.8955
"4302",78.382545,759.9087
"4303",78.345924,759.9219
"4304",78.3093,759.93506
"4305",78.27268,759.94824
"4306",78.24094,759.9614
"4307",78.25803,759.9746
"4308",78.39475,759.9878
"4309",78.73167,760.001
"4310",79.29809,760.01416
"4311",80.076904,760.02734
"4312",80.9778,760.0405
"4313",81.864044,760.0537
"4314",82.60136,760.0669
"4315",83.10185,760.0801
"4316",83.33379,760.09326
"4317",83.336235,760.10645
"4318",83.17021,760.1196
"4319",82.91142,760.1328
"4320",82.633095,760.146
"4321",82.38163,760.1592
"4322",82.18631,760.17236
"4323",82.04471,760.18555
"4324",81.94217,760.1987
"4325",81.84451,760.2119
"4326",81.722435,760.2251
"4327",81.549095,760.2383
"4328",81.322044,760.25146
"4329",81.05592,760.26465
"4330",80.780045,760.27783
"4331",80.52125,760.291
"4332",80.30396,760.3042
"4333",80.14038,760.3174
"4334",80.03052,760.33057
"4335",79.954834,760.34375
"4336",79.90112,760.35693
"4337",79.84497,760.3701
"4338",79.77173,760.3833
"4339",79.67162,760.3965
"4340",79.54467,760.40967
"4341",79.40063,760.42285
"4342",79.2517,760.43604
"4343",79.097885,760.4492
"4344",78.9514,760.4624
"4345",78.81224,760.4756
"4346",78.6804,760.4888
"4347",78.553444,760.50195
"4348",78.43626,760.51514
"4349",78.32639,760.5283
"4350",78.22873,760.5415
"4351",78.14816,760.5547
"4352",78.08469,760.5679
"4353",78.03342,760.58105
"4354",77.994354,760.59424
"4355",77.960175,760.6074
"4356",77.92355,760.6206
"4357",77.88693,760.6338
"4358",77.85031,760.647
"4359",77.84299,760.66016
"4360",77.925995,760.67334
"4361",78.17746,760.6865
"4362",78.658424,760.6997
"4363",79.36889,760.7129
"4364",80.25269,760.7261
"4365",81.19264,760.73926
"4366",82.03494,760.75244
"4367",82.667274,760.7656
"4368",83.03349,760.7788
"4369",83.13847,760.792
"4370",83.038376,760.8052
"4371",82.80644,760.81836
"4372",82.513466,760.83154
"4373",82.21805,760.8447
"4374",81.95682,760.8579
"4375",81.74441,760.8711
"4376",81.57595,760.8843
"4377",81.43679,760.89746
"4378",81.29763,760.91064
"4379",81.13405,760.9238
"4380",80.93141,760.937
"4381",80.689705,760.9502
"4382",80.430916,760.9634
"4383",80.184326,760.97656
"4384",79.971924,760.98975
"4385",79.80835,761.0029
"4386",79.70092,761.0161
"4387",79.635,761.0293
"4388",79.5935,761.0425
"4389",79.56664,761.05566
"4390",79.53002,761.06885
"4391",79.47387,761.08203
"4392",79.3933,761.0952
"4393",79.28832,761.1084
"4394",79.1638,761.1216
"4395",79.02464,761.13477
"4396",78.88548,761.14795
"4397",78.746315,761.16113
"4398",78.61204,761.1743
"4399",78.487526,761.1875
"4400",78.37522,761.2007
"4401",78.28001,761.21387
"4402",78.19943,761.22705
"4403",78.133514,761.24023
"4404",78.07736,761.2534
"4405",78.028534,761.2666
"4406",77.979706,761.2798
"4407",77.93332,761.29297
"4408",77.891815,761.30615
"4409",77.88693,761.31934
"4410",77.979706,761.3325
"4411",78.24582,761.3457
"4412",78.73411,761.3589
"4413",79.44457,761.3721
"4414",80.31617,761.38525
"4415",81.22194,761.39844
"4416",82.020294,761.4116
"4417",82.6038,761.4248
"4418",82.92607,761.438
"4419",82.99199,761.4512
"4420",82.85283,761.46436
"4421",82.579384,761.47754
"4422",82.24246,761.4907
"4423",81.90311,761.5039
"4424",81.602806,761.5171
"4425",81.35378,761.5303
"4426",81.15846,761.54346
"4427",80.987564,761.55664
"4428",80.814224,761.5698
"4429",80.62623,761.583
"4430",80.41871,761.5962
"4431",80.20386,761.6094
"4432",79.99878,761.62256
"4433",79.82544,761.63574
"4434",79.69604,761.6489
"4435",79.61303,761.6621
"4436",79.56664,761.6753
"4437",79.54955,761.6885
"4438",79.537346,761.70166
"4439",79.51537,761.71484
"4440",79.466545,761.728
"4441",79.38842,761.7412
"4442",79.28344,761.7544
"4443",79.15648,761.7676
"4444",79.0222,761.78076
"4445",78.890366,761.79395
"4446",78.76341,761.8071
"4447",78.643776,761.8203
"4448",78.53147,761.8335
"4449",78.43137,761.8467
"4450",78.34348,761.85986
"4451",78.27024,761.87305
"4452",78.20676,761.8862
"4453",78.153046,761.8994
"4454",78.10422,761.9126
"4455",78.06027,761.9258
"4456",78.05295,761.93896
"4457",78.150604,761.95215
"4458",78.42893,761.96533
"4459",78.94652,761.9785
"4460",79.68627,761.9917
"4461",80.584724,762.0049
"4462",81.512474,762.01807
"4463",82.32304,762.03125
"4464",82.9041,762.04443
"4465",83.21904,762.0576
"4466",83.27764,762.0708
"4467",83.13603,762.084
"4468",82.862595,762.09717
"4469",82.530556,762.11035
"4470",82.20096,762.12354
"4471",81.90799,762.1367
"4472",81.6614,762.1499
"4473",81.463646,762.1631
"4474",81.290306,762.1763
"4475",81.11452,762.18945
"4476",80.919205,762.20264
"4477",80.69947,762.2158
"4478",80.465096,762.229
"4479",80.233154,762.2422
"4480",80.028076,762.2554
"4481",79.871826,762.26855
"4482",79.766846,762.28174
"4483",79.710686,762.2949
"4484",79.68871,762.3081
"4485",79.68139,762.3213
"4486",79.66918,762.3345
"4487",79.63744,762.34766
"4488",79.58129,762.36084
"4489",79.49828,762.374
"4490",79.398186,762.3872
"4491",79.276115,762.4004
"4492",79.14183,762.4136
"4493",78.995346,762.42676
"4494",78.84886,762.43994
"4495",78.71458,762.4531
"4496",78.590065,762.4663
"4497",78.47776,762.4795
"4498",78.37522,762.4927
"4499",78.277565,762.50586
"4500",78.19211,762.51904
"4501",78.15793,762.5322
"4502",78.25071,762.5454
"4503",78.54368,762.5586
"4504",79.08812,762.5718
"4505",79.8645,762.58496
"4506",80.797134,762.59814
"4507",81.74441,762.6113
"4508",82.562294,762.6245
"4509",83.14824,762.6377
"4510",83.46563,762.6509
"4511",83.526665,762.66406
"4512",83.389946,762.67725
"4513",83.12627,762.6904
"4514",82.80156,762.7036
"4515",82.46708,762.7168
"4516",82.161896,762.73
"4517",81.90311,762.74316
"4518",81.68093,762.75635
"4519",81.47585,762.76953
"4520",81.26345,762.7827
"4521",81.03151,762.7959
"4522",80.7776,762.8091
"4523",80.51881,762.82227
"4524",80.27955,762.83545
"4525",80.07446,762.84863
"4526",79.923096,762.8618
"4527",79.82788,762.875
"4528",79.77905,762.8882
"4529",79.75952,762.90137
"4530",79.74975,762.91455
"4531",79.7351,762.92773
"4532",79.7058,762.9409
"4533",79.64477,762.9541
"4534",79.551994,762.9673
"4535",79.43725,762.98047
"4536",79.30297,762.99365
"4537",79.151596,763.00684
"4538",78.995346,763.02
"4539",78.836655,763.0332
"4540",78.6804,763.0464
"4541",78.52659,763.0596
"4542",78.39475,763.07275
"4543",78.345924,763.08594
"4544",78.45335,763.0991
"4545",78.79271,763.1123
"4546",79.39086,763.1255
"4547",80.22095,763.1387
"4548",81.17799,763.15186
"4549",82.12039,763.16504
"4550",82.90898,763.1782
"4551",83.458305,763.1914
"4552",83.74395,763.2046
"4553",83.790344,763.2178
"4554",83.65606,763.23096
"4555",83.40948,763.24414
"4556",83.1165,763.2573
"4557",82.82109,763.2705
"4558",82.55253,763.2837
"4559",82.31815,763.2969
"4560",82.1033,763.31006
"4561",81.883575,763.32324
"4562",81.634544,763.3364
"4563",81.3489,763.3496
"4564",81.03883,763.3628
"4565",80.726326,763.376
"4566",80.43824,763.38916
"4567",80.19653,763.40234
"4568",80.01587,763.4155
"4569",79.89136,763.4287
"4570",79.815674,763.4419
"4571",79.76929,763.4551
"4572",79.73754,763.46826
"4573",79.693596,763.48145
"4574",79.63012,763.4946
