"","ppg","time"
"1",79.51049,104.484375
"2",76.49531,104.51074
"3",74.881516,104.523926
"4",73.253075,104.53711
"5",71.66857,104.55029
"6",70.17441,104.56348
"7",68.81941,104.57666
"8",67.63775,104.58984
"9",66.65873,104.60303
"10",65.89456,104.61621
"11",65.3428,104.629395
"12",64.99611,104.64258
"13",64.84474,104.65576
"14",64.87892,104.668945
"15",65.08156,104.68213
"16",65.43069,104.69531
"17",65.88968,104.708496
"18",66.426796,104.72168
"19",66.98833,104.73486
"20",67.544975,104.74805
"21",68.16998,104.76123
"22",69.15144,104.774414
"23",71.00694,104.7876
"24",74.2272,104.80078
"25",78.94652,104.813965
"26",84.78645,104.82715
"27",90.96086,104.84033
"28",96.50782,104.853516
"29",100.61921,104.8667
"30",102.93858,104.87988
"31",103.58556,104.89307
"32",102.960556,104.90625
"33",101.46151,104.91943
"34",99.39849,104.93262
"35",97.01076,104.9458
"36",94.48875,104.958984
"37",91.9765,104.97217
"38",89.566795,104.98535
"39",87.293816,104.998535
"40",85.16487,105.01172
"41",83.17021,105.0249
"42",81.32937,105.038086
"43",79.710686,105.05127
"44",78.42161,105.06445
"45",77.576866,105.07764
"46",77.24483,105.09082
"47",77.41329,105.104004
"48",77.98703,105.11719
"49",78.8098,105.13037
"50",79.70336,105.143555
"51",80.50904,105.15674
"52",81.112076,105.16992
"53",81.43435,105.183105
"54",81.45144,105.19629
"55",81.15358,105.20947
"56",80.570076,105.22266
"57",79.72289,105.23584
"58",78.66331,105.24902
"59",77.44503,105.26221
"60",76.12909,105.27539
"61",74.76677,105.288574
"62",73.40688,105.30176
"63",72.08362,105.31494
"64",70.81651,105.328125
"65",69.63729,105.34131
"66",68.56306,105.35449
"67",67.6231,105.367676
"68",66.82475,105.38086
"69",66.18753,105.39404
"70",65.71633,105.40723
"71",65.43557,105.42041
"72",65.35256,105.43359
"73",65.47219,105.44678
"74",65.78226,105.45996
"75",66.246124,105.473145
"76",66.80278,105.48633
"77",67.386284,105.49951
"78",67.930725,105.512695
"79",68.39216,105.52588
"80",68.74372,105.53906
"81",68.97566,105.552246
"82",69.09529,105.56543
"83",69.11482,105.57861
"84",69.065994,105.5918
"85",69.031815,105.60498
"86",69.28329,105.618164
"87",70.3502,105.63135
"88",72.85512,105.64453
"89",77.134964,105.657715
"90",82.98955,105.6709
"91",89.67666,105.68408
"92",96.15381,105.697266
"93",101.400475,105.71045
"94",104.79164,105.72363
"95",106.26627,105.73682
"96",106.175934,105.75
"97",104.972305,105.76318
"98",103.0338,105.77637
"99",100.646065,105.78955
"100",98.05325,105.802734
"101",95.448235,105.81592
"102",92.97017,105.8291
"103",90.687416,105.842285
"104",88.602425,105.85547
"105",86.695656,105.86865
"106",84.96712,105.881836
"107",83.46807,105.89502
"108",82.27909,105.9082
"109",81.49294,105.92139
"110",81.15358,105.93457
"111",81.234146,105.947754
"112",81.62722,105.96094
"113",82.178986,105.97412
"114",82.735634,105.987305
"115",83.18242,106.00049
"116",83.43633,106.01367
"117",83.46319,106.026855
"118",83.26055,106.04004
"119",82.847946,106.05322
"120",82.252235,106.06641
"121",81.51003,106.07959
"122",80.66041,106.09277
"123",79.77173,106.10596
"124",78.90257,106.11914
"125",78.1091,106.132324
"126",77.4255,106.14551
"127",76.86153,106.15869
"128",76.39765,106.171875
"129",75.98993,106.18506
"130",75.58953,106.19824
"131",75.15007,106.211426
"132",74.65446,106.22461
"133",74.1149,106.23779
"134",73.56313,106.25098
"135",73.06508,106.26416
"136",72.67933,106.27734
"137",72.43519,106.29053
"138",72.32044,106.30371
"139",72.30335,106.316895
"140",72.32288,106.33008
"141",72.33509,106.34326
"142",72.359505,106.356445
"143",72.601204,106.36963
"144",73.47036,106.38281
"145",75.45281,106.395996
"146",78.80003,106.40918
"147",83.34356,106.42236
"148",88.52674,106.43555
"149",93.55367,106.44873
"150",97.6553,106.461914
"151",100.33112,106.4751
"152",101.51034,106.48828
"153",101.417564,106.501465
"154",100.36286,106.51465
"155",98.6392,106.52783
"156",96.517586,106.541016
"157",94.24948,106.5542
"158",92.02289,106.56738
"159",89.97208,106.58057
"160",88.13611,106.59375
"161",86.47837,106.60693
"162",84.92561,106.62012
"163",83.41436,106.6333
"164",81.92508,106.646484
"165",80.5066,106.65967
"166",79.26147,106.67285
"167",78.28733,106.686035
"168",77.65255,106.69922
"169",77.35958,106.7124
"170",77.3547,106.725586
"171",77.53292,106.73877
"172",77.77463,106.75195
"173",77.96994,106.76514
"174",78.02365,106.77832
"175",77.872284,106.791504
"176",77.49386,106.80469
"177",76.89815,106.81787
"178",76.121765,106.831055
"179",75.211105,106.84424
"180",74.215,106.85742
"181",73.179825,106.870605
"182",72.13489,106.88379
"183",71.10704,106.89697
"184",70.1207,106.91016
"185",69.20027,106.92334
"186",68.367744,106.93652
"187",67.63775,106.94971
"188",67.037155,106.96289
"189",66.57328,106.976074
"190",66.248566,106.98926
"191",66.06546,107.00244
"192",66.01419,107.015625
"193",66.072784,107.02881
"194",66.20706,107.04199
"195",66.38041,107.055176
"196",66.55863,107.06836
"197",66.72465,107.08154
"198",66.88335,107.09473
"199",67.08354,107.10791
"200",67.491264,107.12109
"201",68.48493,107.13428
"202",70.61631,107.14746
"203",74.285805,107.160645
"204",79.45922,107.17383
"205",85.60677,107.18701
"206",91.859314,107.200195
"207",97.26223,107.21338
"208",101.09285,107.22656
"209",103.11192,107.239746
"210",103.519646,107.25293
"211",102.69932,107.26611
"212",101.00008,107.2793
"213",98.702675,107.29248
"214",96.04639,107.305664
"215",93.23628,107.31885
"216",90.45304,107.33203
"217",87.816284,107.345215
"218",85.39437,107.3584
"219",83.21416,107.37158
"220",81.29763,107.384766
"221",79.674065,107.39795
"222",78.40696,107.41113
"223",77.58175,107.42432
"224",77.25948,107.4375
"225",77.44991,107.45068
"226",78.08957,107.46387
"227",79.03685,107.47705
"228",80.09888,107.490234
"229",81.09987,107.50342
"230",81.88846,107.5166
"231",82.36454,107.529785
"232",82.476845,107.54297
"233",82.22293,107.55615
"234",81.61501,107.569336
"235",80.69947,107.58252
"236",79.520256,107.5957
"237",78.14816,107.60889
"238",76.64912,107.62207
"239",75.10124,107.635254
"240",73.56313,107.64844
"241",72.08118,107.66162
"242",70.68467,107.674805
"243",69.383385,107.68799
"244",68.18219,107.70117
"245",67.07866,107.714355
"246",66.07767,107.72754
"247",65.181656,107.74072
"248",64.410164,107.75391
"249",63.790035,107.76709
"250",63.34081,107.78027
"251",63.084457,107.79346
"252",63.025864,107.80664
"253",63.162586,107.819824
"254",63.470207,107.83301
"255",63.919434,107.84619
"256",64.47608,107.859375
"257",65.10841,107.87256
"258",65.777374,107.88574
"259",66.45121,107.898926
"260",67.09819,107.91211
"261",67.68658,107.92529
"262",68.1944,107.93848
"263",68.63874,107.95166
"264",69.170975,107.96484
"265",70.20615,107.97803
"266",72.38636,107.99121
"267",76.27558,108.004395
"268",81.93973,108.01758
"269",88.831924,108.03076
"270",95.9292,108.043945
"271",102.08652,108.05713
"272",106.41276,108.07031
"273",108.58808,108.083496
"274",108.86641,108.09668
"275",107.76776,108.10986
"276",105.760895,108.12305
"277",103.185165,108.13623
"278",100.30915,108.149414
"279",97.34768,108.1626
"280",94.47654,108.17578
"281",91.79584,108.188965
"282",89.35195,108.20215
"283",87.149765,108.21533
"284",85.20882,108.228516
"285",83.59014,108.2417
"286",82.388954,108.25488
"287",81.70046,108.26807
"288",81.56374,108.28125
"289",81.934845,108.29443
"290",82.67948,108.30762
"291",83.60967,108.3208
"292",84.5301,108.333984
"293",85.28939,108.34717
"294",85.7728,108.36035
"295",85.91928,108.373535
"296",85.70443,108.38672
"297",85.1429,108.3999
"298",84.25666,108.413086
"299",83.06767,108.42627
"300",81.61257,108.43945
"301",79.92798,108.45264
"302",78.05783,108.46582
"303",76.050964,108.479004
"304",73.9733,108.49219
"305",71.868774,108.50537
"306",69.78134,108.518555
"307",67.75006,108.53174
"308",65.811554,108.54492
"309",64.00488,108.558105
"310",62.378883,108.57129
"311",60.99214,108.58447
"312",59.900818,108.59766
"313",59.134205,108.61084
"314",58.711834,108.62402
"315",58.63615,108.63721
"316",58.89006,108.65039
"317",59.454033,108.663574
"318",60.320744,108.67676
"319",61.487755,108.68994
"320",62.95018,108.703125
"321",64.69581,108.71631
"322",66.69535,108.72949
"323",68.892654,108.742676
"324",71.21202,108.75586
"325",73.5436,108.76904
"326",75.78241,108.78223
"327",77.94797,108.79541
"328",80.272224,108.80859
"329",83.15312,108.82178
"330",86.90074,108.83496
"331",91.510185,108.848145
"332",96.57862,108.86133
"333",101.44198,108.87451
"334",105.35561,108.887695
"335",107.78729,108.90088
"336",108.595406,108.91406
"337",107.982605,108.927246
"338",106.288246,108.94043
"339",103.817505,108.95361
"340",100.80965,108.9668
"341",97.462425,108.97998
"342",93.91501,108.993164
"343",90.26505,109.00635
"344",86.5687,109.01953
"345",82.87236,109.032715
"346",79.22728,109.0459
"347",75.701836,109.05908
"348",72.39857,109.072266
"349",69.46639,109.08545
"350",67.06401,109.09863
"351",65.35012,109.11182
"352",64.45655,109.125
"353",64.45411,109.13818
"354",65.33303,109.15137
"355",66.97124,109.16455
"356",69.15144,109.177734
"357",71.60754,109.19092
"358",74.08316,109.2041
"359",76.36103,109.217285
"360",78.32395,109.23047
"361",79.94507,109.24365
"362",81.26589,109.256836
"363",82.3328,109.27002
"364",83.18974,109.2832
"365",83.8587,109.29639
"366",84.32258,109.30957
"367",84.525215,109.322754
"368",84.40559,109.33594
"369",83.90509,109.34912
"370",82.99931,109.362305
"371",81.71999,109.37549
"372",80.1355,109.38867
"373",78.3386,109.401855
"374",76.43427,109.41504
"375",74.51774,109.42822
"376",72.654915,109.44141
"377",70.887314,109.45459
"378",69.25155,109.46777
"379",67.76959,109.48096
"380",66.4683,109.49414
"381",65.359886,109.507324
"382",64.46876,109.52051
"383",63.804684,109.53369
"384",63.36278,109.546875
"385",63.140614,109.56006
"386",63.143055,109.57324
"387",63.3872,109.586426
"388",63.936523,109.59961
"389",65.03761,109.61279
"390",67.27886,109.62598
"391",71.395134,109.63916
"392",77.7673,109.65234
"393",86.03647,109.66553
"394",95.1577,109.67871
"395",103.7174,109.691895
"396",110.37766,109.70508
"397",114.34989,109.71826
"398",115.65362,109.731445
"399",114.90166,109.74463
"400",112.7776,109.75781
"401",109.76486,109.770996
"402",106.175934,109.78418
"403",102.22812,109.79736
"404",98.08743,109.81055
"405",93.88083,109.82373
"406",89.71572,109.836914
"407",85.68246,109.8501
"408",81.86893,109.86328
"409",78.37522,109.876465
"410",75.301445,109.88965
"411",72.742805,109.90283
"412",70.78233,109.916016
"413",69.48348,109.9292
"414",68.90486,109.94238
"415",69.102615,109.95557
"416",70.10605,109.96875
"417",71.88342,109.98193
"418",74.29801,109.99512
"419",77.1252,110.0083
"420",80.06714,110.021484
"421",82.82109,110.03467
"422",85.13069,110.04785
"423",86.8275,110.061035
"424",87.84314,110.07422
"425",88.182495,110.0874
"426",87.91638,110.100586
"427",87.16441,110.11377
"428",86.06821,110.12695
"429",84.75716,110.14014
"430",83.32159,110.15332
"431",81.82498,110.166504
"432",80.308846,110.17969
"433",78.79759,110.19287
"434",77.330284,110.206055
"435",75.948425,110.21924
"436",74.683754,110.23242
"437",73.57046,110.245605
"438",72.6305,110.25879
"439",71.86389,110.27197
"440",71.29015,110.28516
"441",70.92638,110.29834
"442",70.77745,110.31152
"443",70.82628,110.32471
"444",71.0338,110.33789
"445",71.3756,110.351074
"446",71.9176,110.36426
"447",72.95033,110.37744
"448",74.9987,110.390625
"449",78.590065,110.40381
"450",83.83673,110.41699
"451",90.29191,110.430176
"452",97.074234,110.44336
"453",103.148544,110.45654
"454",107.631035,110.46973
"455",110.14084,110.48291
"456",110.80736,110.49609
"457",110.04562,110.50928
"458",108.22919,110.52246
"459",105.64614,110.535645
"460",102.52354,110.54883
"461",99.071335,110.56201
"462",95.47509,110.575195
"463",91.89105,110.58838
"464",88.43641,110.60156
"465",85.19661,110.614746
"466",82.2449,110.62793
"467",79.676506,110.64111
"468",77.58419,110.6543
"469",76.06317,110.66748
"470",75.16472,110.680664
"471",74.88884,110.69385
"472",75.157394,110.70703
"473",75.85077,110.720215
"474",76.80293,110.7334
"475",77.84543,110.74658
"476",78.81468,110.759766
"477",79.57641,110.77295
"478",80.045166,110.78613
"479",80.21362,110.79932
"480",80.12085,110.8125
"481",79.84497,110.82568
"482",79.4641,110.83887
"483",79.044174,110.85205
"484",78.63157,110.865234
"485",78.24338,110.87842
"486",77.90646,110.8916
"487",77.63302,110.904785
"488",77.437706,110.91797
"489",77.32296,110.93115
"490",77.26681,110.944336
"491",77.222855,110.95752
"492",77.13985,110.9707
"493",76.97383,110.98389
"494",76.6955,110.99707
"495",76.3122,111.010254
"496",75.88739,111.02344
"497",75.545586,111.03662
"498",75.50652,111.049805
"499",76.102234,111.06299
"500",77.64034,111.07617
"501",80.21362,111.089355
"502",83.612114,111.10254
"503",87.362175,111.11572
"504",90.85832,111.12891
"505",93.54635,111.14209
"506",95.09422,111.15527
"507",95.46044,111.16846
"508",94.79393,111.18164
"509",93.28756,111.194824
"510",91.124435,111.20801
"511",88.46815,111.22119
"512",85.45785,111.234375
"513",82.21561,111.24756
"514",78.84886,111.26074
"515",75.45281,111.273926
"516",72.10803,111.28711
"517",68.92439,111.30029
"518",66.04593,111.31348
"519",63.645992,111.32666
"520",61.91501,111.33984
"521",61.018997,111.35303
"522",61.065384,111.36621
"523",62.05661,111.379395
"524",63.86816,111.39258
"525",66.27299,111.40576
"526",68.963455,111.418945
"527",71.622185,111.43213
"528",73.985504,111.44531
"529",75.877625,111.458496
"530",77.222855,111.47168
"531",78.02609,111.48486
"532",78.34348,111.49805
"533",78.23605,111.51123
"534",77.769745,111.524414
"535",77.01045,111.5376
"536",76.00214,111.55078
"537",74.7863,111.563965
"538",73.392235,111.57715
"539",71.837036,111.59033
"540",70.12802,111.603516
"541",68.28718,111.6167
"542",66.32426,111.62988
"543",64.27833,111.64307
"544",62.195774,111.65625
"545",60.144962,111.66943
"546",58.211338,111.68262
"547",56.49012,111.6958
"548",55.083847,111.708984
"549",54.099945,111.72217
"550",53.689785,111.73535
"551",54.143894,111.748535
"552",55.94568,111.76172
"553",59.559013,111.7749
"554",65.06691,111.788086
"555",71.99573,111.80127
"556",79.415276,111.81445
"557",86.20004,111.82764
"558",91.37591,111.84082
"559",94.46189,111.854004
"560",95.587395,111.86719
"561",95.238266,111.88037
"562",93.927216,111.893555
"563",92.04974,111.90674
"564",89.87198,111.91992
"565",87.55016,111.933105
"566",85.18196,111.94629
"567",82.84062,111.95947
"568",80.59449,111.97266
"569",78.536354,111.98584
"570",76.790726,111.99902
"571",75.491875,112.01221
"572",74.75212,112.02539
"573",74.64225,112.038574
"574",75.13542,112.05176
"575",76.13641,112.06494
"576",77.47433,112.078125
"577",78.93431,112.09131
"578",80.29908,112.10449
"579",81.373314,112.117676
"580",82.01297,112.13086
"581",82.13504,112.14404
"582",81.722435,112.15723
"583",80.82643,112.17041
"584",79.53246,112.18359
"585",77.945526,112.19678
"586",76.192566,112.20996
"587",74.3859,112.223145
"588",72.62806,112.23633
"589",71.0045,112.24951
"590",69.593346,112.262695
"591",68.43366,112.27588
"592",67.54742,112.28906
"593",66.92485,112.302246
"594",66.54154,112.31543
"595",66.37797,112.32861
"596",66.46342,112.3418
"597",66.968796,112.35498
"598",68.39948,112.368164
"599",71.502556,112.38135
"600",76.80293,112.39453
"601",84.12726,112.407715
"602",92.5893,112.4209
"603",100.89754,112.43408
"604",107.72137,112.447266
"605",112.17456,112.46045
"606",114.13992,112.47363
"607",114.16678,112.48682
"608",112.94362,112.5
"609",110.99779,112.51318
"610",108.654,112.52637
"611",106.13443,112.53955
"612",103.57336,112.552734
"613",101.03914,112.56592
"614",98.57816,112.5791
"615",96.23926,112.592285
"616",94.10788,112.60547
"617",92.29145,112.61865
"618",90.89494,112.631836
"619",89.97208,112.64502
"620",89.50332,112.6582
"621",89.38613,112.67139
"622",89.46426,112.68457
"623",89.566795,112.697754
"624",89.54482,112.71094
"625",89.27383,112.72412
"626",88.67567,112.737305
"627",87.70153,112.75049
"628",86.35874,112.76367
"629",84.69123,112.776855
"630",82.76494,112.79004
"631",80.66041,112.80322
"632",78.45335,112.81641
"633",76.17792,112.82959
"634",73.84146,112.84277
"635",71.43908,112.85596
"636",68.97566,112.86914
"637",66.47318,112.882324
"638",64.00488,112.89551
"639",61.68307,112.90869
"640",59.62493,112.921875
"641",57.964752,112.93506
"642",56.89052,112.94824
"643",56.827038,112.961426
"644",58.48722,112.97461
"645",62.49607,112.98779
"646",68.860916,113.00098
"647",76.824905,113.01416
"648",85.12825,113.02734
"649",92.41108,113.04053
"650",97.61135,113.05371
"651",100.404366,113.066895
"652",101.21004,113.08008
"653",100.72663,113.09326
"654",99.493706,113.106445
"655",97.8555,113.11963
"656",96.03418,113.13281
"657",94.205536,113.145996
"658",92.46967,113.15918
"659",90.846115,113.17236
"660",89.2958,113.18555
"661",87.77966,113.19873
"662",86.26353,113.211914
"663",84.7596,113.2251
"664",83.319145,113.23828
"665",82.01785,113.251465
"666",80.907,113.26465
"667",80.00366,113.27783
"668",79.27856,113.291016
"669",78.660866,113.3042
"670",78.065155,113.31738
"671",77.38888,113.33057
"672",76.541695,113.34375
"673",75.43328,113.35693
"674",74.01724,113.37012
"675",72.27894,113.3833
"676",70.22812,113.396484
"677",67.9234,113.40967
"678",65.46487,113.42285
"679",62.99901,113.436035
"680",60.677197,113.44922
"681",58.65568,113.4624
"682",57.056534,113.475586
"683",55.93347,113.48877
"684",55.29137,113.50195
"685",55.096054,113.51514
"686",55.32555,113.52832
"687",56.009155,113.541504
"688",57.315327,113.55469
"689",59.725033,113.56787
"690",63.936523,113.581055
"691",70.35508,113.59424
"692",78.643776,113.60742
"693",87.816284,113.620605
"694",96.58106,113.63379
"695",103.707634,113.64697
"696",108.43427,113.66016
"697",110.75853,113.67334
"698",111.26635,113.68652
"699",110.58762,113.69971
"700",109.10567,113.71289
"701",107.052414,113.726074
"702",104.60853,113.73926
"703",101.93759,113.75244
"704",99.16899,113.765625
"705",96.38819,113.77881
"706",93.63424,113.79199
"707",90.9218,113.805176
"708",88.26795,113.81836
"709",85.714195,113.83154
"710",83.32403,113.84473
"711",81.20241,113.85791
"712",79.44457,113.87109
"713",78.1091,113.88428
"714",77.19356,113.89746
"715",76.63691,113.910645
"716",76.33173,113.92383
"717",76.15106,113.93701
"718",75.965515,113.950195
"719",75.69451,113.96338
"720",75.30877,113.97656
"721",74.813156,113.989746
"722",74.229645,114.00293
"723",73.60464,114.01611
"724",72.99428,114.0293
"725",72.45472,114.04248
"726",72.04944,114.055664
"727",71.8468,114.06885
"728",71.87366,114.08203
"729",72.10803,114.095215
"730",72.47913,114.1084
"731",72.89906,114.12158
"732",73.27505,114.134766
"733",73.55337,114.14795
"734",73.6852,114.16113
"735",73.670555,114.17432
"736",73.5729,114.1875
"737",73.619286,114.20068
"738",74.229645,114.21387
"739",75.8288,114.22705
"740",78.59983,114.240234
"741",82.354774,114.25342
"742",86.5687,114.2666
"743",90.531166,114.279785
"744",93.60006,114.29297
"745",95.43603,114.30615
"746",96.05859,114.319336
"747",95.70702,114.33252
"748",94.642555,114.3457
"749",93.09468,114.35889
"750",91.268486,114.37207
"751",89.32998,114.385254
"752",87.41833,114.39844
"753",85.61166,114.41162
"754",83.95148,114.424805
"755",82.44022,114.43799
"756",81.06081,114.45117
"757",79.82056,114.464355
"758",78.75609,114.47754
"759",77.93088,114.49072
"760",77.40597,114.50391
"761",77.208206,114.51709
"762",77.332726,114.53027
"763",77.71603,114.54346
"764",78.260475,114.55664
"765",78.84398,114.569824
"766",79.3518,114.58301
"767",79.68627,114.59619
"768",79.78638,114.609375
"769",79.61547,114.62256
"770",79.168686,114.63574
"771",78.467995,114.648926
"772",77.54269,114.66211
"773",76.43427,114.67529
"774",75.18913,114.68848
"775",73.88052,114.70166
"776",72.584114,114.71484
"777",71.38537,114.72803
"778",70.37217,114.74121
"779",69.63485,114.754395
"780",69.23689,114.76758
"781",69.205154,114.78076
"782",69.51766,114.793945
"783",70.118256,114.80713
"784",70.90929,114.82031
"785",71.77112,114.833496
"786",72.60853,114.84668
"787",73.340965,114.85986
"788",73.90738,114.87305
"789",74.285805,114.88623
"790",74.47135,114.899414
"791",74.478676,114.9126
"792",74.34684,114.92578
"793",74.175934,114.938965
"794",74.21011,114.95215
"795",74.847336,114.96533
"796",76.47822,114.978516
"797",79.25414,114.9917
"798",82.97734,115.00488
"799",87.16441,115.01807
"800",91.15617,115.03125
"801",94.3325,115.04443
"802",96.34913,115.05762
"803",97.19142,115.0708
"804",97.03517,115.083984
"805",96.10498,115.09717
"806",94.623024,115.11035
"807",92.78218,115.123535
"808",90.75334,115.13672
"809",88.66834,115.1499
"810",86.61265,115.163086
"811",84.6424,115.17627
"812",82.78691,115.18945
"813",81.08034,115.20264
"814",79.56664,115.21582
"815",78.331276,115.229004
"816",77.469444,115.24219
"817",77.049515,115.25537
"818",77.09346,115.268555
"819",77.54757,115.28174
"820",78.30686,115.29492
"821",79.21507,115.308105
"822",80.12085,115.32129
"823",80.89479,115.33447
"824",81.43923,115.34766
"825",81.70046,115.36084
"826",81.654076,115.37402
"827",81.322044,115.38721
"828",80.740974,115.40039
"829",79.95239,115.413574
"830",78.995346,115.42676
"831",77.89914,115.43994
"832",76.6955,115.453125
"833",75.41619,115.46631
"834",74.10513,115.47949
"835",72.80873,115.492676
"836",71.5758,115.50586
"837",70.433205,115.51904
"838",69.39803,115.53223
"839",68.47028,115.54541
"840",67.66216,115.55859
"841",66.99077,115.57178
"842",66.4976,115.58496
"843",66.231476,115.598145
"844",66.23392,115.61133
"845",66.53178,115.62451
"846",67.09819,115.637695
"847",67.87457,115.65088
"848",68.773026,115.66406
"849",69.70565,115.677246
"850",70.58701,115.69043
"851",71.36584,115.70361
"852",72.007935,115.7168
"853",72.49622,115.72998
"854",72.82338,115.743164
"855",72.99428,115.75635
"856",73.023575,115.76953
"857",73.02846,115.782715
"858",73.32632,115.7959
"859",74.41764,115.80908
"860",76.71015,115.822266
"861",80.26978,115.83545
"862",84.74738,115.84863
"863",89.481346,115.86182
"864",93.69283,115.875
"865",96.74708,115.88818
"866",98.41947,115.90137
"867",98.83696,115.91455
"868",98.29252,115.927734
"869",97.057144,115.94092
"870",95.35546,115.9541
"871",93.37057,115.967285
"872",91.25872,115.98047
"873",89.12245,115.99365
"874",87.027695,116.006836
"875",84.996414,116.02002
"876",83.02861,116.0332
"877",81.15602,116.04639
"878",79.4641,116.05957
"879",78.05783,116.072754
"880",77.08125,116.08594
"881",76.63935,116.09912
"882",76.75166,116.112305
"883",77.34493,116.12549
"884",78.26536,116.13867
"885",79.31518,116.151855
"886",80.29908,116.16504
"887",81.058365,116.17822
"888",81.497826,116.19141
"889",81.5906,116.20459
"890",81.356224,116.21777
"891",80.850845,116.23096
"892",80.130615,116.24414
"893",79.24681,116.257324
"894",78.24338,116.27051
"895",77.16182,116.28369
"896",76.06073,116.296875
"897",74.9987,116.31006
"898",74.04898,116.32324
"899",73.270164,116.336426
"900",72.7013,116.34961
"901",72.37171,116.36279
"902",72.29359,116.37598
"903",72.45716,116.38916
"904",72.83803,116.40234
"905",73.38491,116.41553
"906",74.039215,116.42871
"907",74.71793,116.441895
"908",75.34051,116.45508
"909",75.83856,116.46826
"910",76.18036,116.481445
"911",76.368355,116.49463
"912",76.419624,116.50781
"913",76.37324,116.520996
"914",76.26826,116.53418
"915",76.13153,116.54736
"916",75.965515,116.56055
"917",75.77753,116.57373
"918",75.684746,116.586914
"919",75.98016,116.6001
"920",77.08125,116.61328
"921",79.290764,116.626465
"922",82.59647,116.63965
"923",86.61021,116.65283
"924",90.70695,116.666016
"925",94.168915,116.6792
"926",96.47608,116.69238
"927",97.46731,116.70557
"928",97.30129,116.71875
"929",96.24414,116.73193
"930",94.55955,116.74512
"931",92.46967,116.7583
"932",90.16739,116.771484
"933",87.81384,116.78467
"934",85.52621,116.79785
"935",83.38506,116.811035
"936",81.42458,116.82422
"937",79.64233,116.8374
"938",78.03342,116.850586
"939",76.63691,116.86377
"940",75.52117,116.87695
"941",74.79607,116.89014
"942",74.5568,116.90332
"943",74.83757,116.916504
"944",75.58953,116.92969
"945",76.66621,116.94287
"946",77.86252,116.956055
"947",78.98802,116.96924
"948",79.87671,116.98242
"949",80.428474,116.995605
"950",80.61402,117.00879
"951",80.43824,117.02197
"952",79.9353,117.03516
"953",79.16136,117.04834
"954",78.1799,117.06152
"955",77.05928,117.07471
"956",75.87274,117.08789
"957",74.683754,117.101074
"958",73.548485,117.11426
"959",72.50111,117.12744
"960",71.56603,117.140625
"961",70.75548,117.15381
"962",70.09384,117.16699
"963",69.590904,117.180176
"964",69.26864,117.19336
"965",69.11482,117.20654
"966",69.12459,117.21973
"967",69.27108,117.23291
"968",69.52499,117.24609
"969",69.84482,117.25928
"970",70.20859,117.27246
"971",70.591896,117.285645
"972",70.97276,117.29883
"973",71.31945,117.31201
"974",71.61974,117.325195
"975",71.885864,117.33838
"976",72.2301,117.35156
"977",72.99184,117.364746
"978",74.67399,117.37793
"979",77.679405,117.39111
"980",82.01785,117.4043
"981",87.237656,117.41748
"982",92.55512,117.430664
"983",97.110855,117.44385
"984",100.25544,117.45703
"985",101.77646,117.470215
"986",101.88388,117.4834
"987",100.94881,117.49658
"988",99.29839,117.509766
"989",97.17677,117.52295
"990",94.78172,117.53613
"991",92.27436,117.54932
"992",89.779205,117.5625
"993",87.379265,117.57568
"994",85.1136,117.58887
"995",82.99931,117.60205
"996",81.03883,117.615234
"997",79.276115,117.62842
"998",77.78195,117.6416
"999",76.67109,117.654785
"1000",76.04852,117.66797
"1001",75.98505,117.68115
"1002",76.45136,117.694336
"1003",77.33761,117.70752
"1004",78.46067,117.7207
"1005",79.61791,117.73389
"1006",80.62379,117.74707
"1007",81.33425,117.760254
"1008",81.668724,117.77344
"1009",81.59792,117.78662
"1010",81.13893,117.799805
"1011",80.35523,117.81299
"1012",79.3225,117.82617
"1013",78.133514,117.839355
"1014",76.86641,117.85254
"1015",75.596855,117.86572
"1016",74.38102,117.87891
"1017",73.270164,117.89209
"1018",72.29359,117.90527
"1019",71.483025,117.91846
"1020",70.84093,117.93164
"1021",70.364845,117.944824
"1022",70.03525,117.95801
"1023",69.822845,117.97119
"1024",69.70565,117.984375
"1025",69.66659,117.99756
"1026",69.68124,118.01074
"1027",69.730064,118.023926
"1028",69.820404,118.03711
"1029",70.04013,118.05029
"1030",70.677345,118.06348
"1031",72.234985,118.07666
"1032",75.17937,118.08984
"1033",79.59106,118.10303
"1034",85.03548,118.11621
"1035",90.73136,118.129395
"1036",95.75586,118.14258
"1037",99.37408,118.15576
"1038",101.29305,118.168945
"1039",101.70809,118.18213
"1040",101.02693,118.19531
"1041",99.60845,118.208496
"1042",97.71877,118.22168
"1043",95.5581,118.23486
"1044",93.280235,118.24805
"1045",90.99016,118.26123
"1046",88.75136,118.274414
"1047",86.57847,118.2876
"1048",84.46906,118.30078
"1049",82.44511,118.313965
"1050",80.56519,118.32715
"1051",78.9514,118.34033
"1052",77.75998,118.353516
"1053",77.14717,118.3667
"1054",77.19112,118.37988
"1055",77.86252,118.39307
"1056",79.009995,118.40625
"1057",80.39185,118.41943
"1058",81.75174,118.43262
"1059",82.86748,118.4458
"1060",83.59258,118.458984
"1061",83.86847,118.47217
"1062",83.70489,118.48535
"1063",83.1458,118.498535
"1064",82.266884,118.51172
"1065",81.15114,118.5249
"1066",79.88403,118.538086
"1067",78.54856,118.55127
"1068",77.21065,118.56445
"1069",75.931335,118.57764
"1070",74.73991,118.59082
"1071",73.651024,118.604004
"1072",72.67689,118.61719
"1073",71.81506,118.63037
"1074",71.06554,118.643555
"1075",70.41856,118.65674
"1076",69.88632,118.66992
"1077",69.522545,118.683105
"1078",69.52499,118.69629
"1079",70.28672,118.70947
"1080",72.23743,118.72266
"1081",75.545586,118.73584
"1082",79.94995,118.74902
"1083",84.83772,118.76221
"1084",89.42519,118.77539
"1085",92.999466,118.788574
"1086",95.17235,118.80176
"1087",95.990234,118.81494
"1088",95.75342,118.828125
"1089",94.784164,118.84131
"1090",93.3193,118.85449
"1091",91.561455,118.867676
"1092",89.6498,118.88086
"1093",87.68932,118.89404
"1094",85.73861,118.90723
"1095",83.81232,118.92041
"1096",81.89578,118.93359
"1097",79.9646,118.94678
"1098",78.04074,118.95996
"1099",76.20233,118.973145
"1100",74.57389,118.98633
"1101",73.32632,118.99951
"1102",72.60609,119.012695
"1103",72.49622,119.02588
"1104",72.96498,119.03906
"1105",73.88052,119.052246
"1106",75.037766,119.06543
"1107",76.209656,119.07861
"1108",77.19356,119.0918
"1109",77.84787,119.10498
"1110",78.11398,119.118164
"1111",77.98703,119.13135
"1112",77.51827,119.14453
"1113",76.773636,119.157715
"1114",75.826355,119.1709
"1115",74.73258,119.18408
"1116",73.548485,119.197266
"1117",72.31556,119.21045
"1118",71.080185,119.22363
"1119",69.879,119.23682
"1120",68.7657,119.25
"1121",67.7818,119.26318
"1122",66.94438,119.27637
"1123",66.253456,119.28955
"1124",65.71389,119.302734
"1125",65.36477,119.31592
"1126",65.43557,119.3291
"1127",66.43168,119.342285
"1128",68.95613,119.35547
"1129",73.2604,119.36865
"1130",79.00755,119.381836
"1131",85.37972,119.39502
"1132",91.33196,119.4082
"1133",95.91943,119.42139
"1134",98.64652,119.43457
"1135",99.62798,119.447754
"1136",99.317924,119.46094
"1137",98.14847,119.47412
"1138",96.41993,119.487305
"1139",94.3325,119.50049
"1140",92.0473,119.51367
"1141",89.69863,119.526855
"1142",87.36706,119.54004
"1143",85.084305,119.55322
"1144",82.85771,119.56641
"1145",80.70435,119.57959
"1146",78.68528,119.59277
"1147",76.90791,119.60596
"1148",75.511406,119.61914
"1149",74.6276,119.632324
"1150",74.33219,119.64551
"1151",74.61051,119.65869
"1152",75.37469,119.671875
"1153",76.45869,119.68506
"1154",77.67452,119.69824
"1155",78.81712,119.711426
"1156",79.725334,119.72461
"1157",80.26978,119.73779
"1158",80.413826,119.75098
"1159",80.17456,119.76416
"1160",79.61791,119.77734
"1161",78.82201,119.79053
"1162",77.8674,119.80371
"1163",76.81758,119.816895
"1164",75.70672,119.83008
"1165",74.564125,119.84326
"1166",73.42397,119.856445
"1167",72.32288,119.86963
"1168",71.29015,119.88281
"1169",70.35996,119.895996
"1170",69.54452,119.90918
"1171",68.85603,119.92236
"1172",68.3238,119.93555
"1173",68.157776,119.94873
"1174",68.84383,119.961914
"1175",71.009384,119.9751
"1176",74.9572,119.98828
"1177",80.41871,120.001465
"1178",86.62974,120.01465
"1179",92.58686,120.02783
"1180",97.303734,120.041016
"1181",100.21149,120.0542
"1182",101.34432,120.06738
"1183",101.11726,120.08057
"1184",99.95026,120.09375
"1185",98.15091,120.10693
"1186",95.96826,120.12012
"1187",93.6025,120.1333
"1188",91.19524,120.146484
"1189",88.831924,120.15967
"1190",86.54185,120.17285
"1191",84.317696,120.186035
"1192",82.15213,120.19922
"1193",80.10132,120.2124
"1194",78.27024,120.225586
"1195",76.81514,120.23877
"1196",75.87518,120.25195
"1197",75.54803,120.26514
"1198",75.82147,120.27832
"1199",76.5832,120.291504
"1200",77.6379,120.30469
"1201",78.768295,120.31787
"1202",79.75464,120.331055
"1203",80.44312,120.34424
"1204",80.7483,120.35742
"1205",80.65064,120.370605
"1206",80.19653,120.38379
"1207",79.45922,120.39697
"1208",78.52903,120.41016
"1209",77.48165,120.42334
"1210",76.37812,120.43652
"1211",75.26238,120.44971
"1212",74.161285,120.46289
"1213",73.08949,120.476074
"1214",72.04944,120.48926
"1215",71.06065,120.50244
"1216",70.14511,120.515625
"1217",69.32235,120.52881
"1218",68.63874,120.54199
"1219",68.24811,120.555176
"1220",68.51667,120.56836
"1221",70.01083,120.58154
"1222",73.145645,120.59473
"1223",77.86984,120.60791
"1224",83.62432,120.62109
"1225",89.547264,120.63428
"1226",94.6865,120.64746
"1227",98.33402,120.660645
"1228",100.28962,120.67383
"1229",100.80476,120.68701
"1230",100.26765,120.700195
"1231",98.99565,120.71338
"1232",97.247574,120.72656
"1233",95.25292,120.739746
"1234",93.18257,120.75293
"1235",91.14641,120.76611
"1236",89.16884,120.7793
"1237",87.22789,120.79248
"1238",85.279625,120.805664
"1239",83.32647,120.81885
"1240",81.43435,120.83203
"1241",79.725334,120.845215
"1242",78.363014,120.8584
"1243",77.471886,120.87158
"1244",77.10567,120.884766
"1245",77.239944,120.89795
"1246",77.77463,120.91113
"1247",78.555885,120.92432
"1248",79.4226,120.9375
"1249",80.218506,120.95068
"1250",80.81911,120.96387
"1251",81.13161,120.97705
"1252",81.109634,120.990234
"1253",80.765396,121.00342
"1254",80.15503,121.0166
"1255",79.361565,121.029785
"1256",78.47288,121.04297
"1257",77.55978,121.05615
"1258",76.64912,121.069336
"1259",75.72625,121.08252
"1260",74.75212,121.0957
"1261",73.69985,121.10889
"1262",72.59144,121.12207
"1263",71.47082,121.135254
"1264",70.41367,121.14844
"1265",69.49325,121.16162
"1266",68.81453,121.174805
"1267",68.58503,121.18799
"1268",69.21004,121.20117
"1269",71.114365,121.214355
"1270",74.45182,121.22754
"1271",78.97337,121.24072
"1272",84.09552,121.25391
"1273",89.058975,121.26709
"1274",93.14107,121.28027
"1275",95.93164,121.29346
"1276",97.43801,121.30664
"1277",97.882355,121.319824
"1278",97.513695,121.33301
"1279",96.534676,121.34619
"1280",95.130844,121.359375
"1281",93.4609,121.37256
"1282",91.65911,121.38574
"1283",89.80362,121.398926
"1284",87.93591,121.41211
"1285",86.05112,121.42529
"1286",84.15411,121.43848
"1287",82.27177,121.45166
"1288",80.48951,121.46484
"1289",78.924545,121.47803
"1290",77.70382,121.49121
"1291",76.89815,121.504395
"1292",76.507515,121.51758
"1293",76.46601,121.53076
"1294",76.65644,121.543945
"1295",76.94209,121.55713
"1296",77.19112,121.57031
"1297",77.30831,121.583496
"1298",77.23506,121.59668
"1299",76.95918,121.60986
"1300",76.50507,121.62305
"1301",75.92401,121.63623
"1302",75.25262,121.649414
"1303",74.527504,121.6626
"1304",73.777985,121.67578
"1305",73.01137,121.688965
"1306",72.24719,121.70215
"1307",71.50744,121.71533
"1308",70.821396,121.728516
"1309",70.21591,121.7417
"1310",69.70077,121.75488
"1311",69.27108,121.76807
"1312",68.9073,121.78125
"1313",68.59968,121.79443
"1314",68.336006,121.80762
"1315",68.14801,121.8208
"1316",68.16022,121.833984
"1317",68.68513,121.84717
"1318",70.152435,121.86035
"1319",72.89174,121.873535
"1320",76.895706,121.88672
"1321",81.76883,121.8999
"1322",86.85191,121.913086
"1323",91.38323,121.92627
"1324",94.77196,121.93945
"1325",96.781265,121.95264
"1326",97.51125,121.96582
"1327",97.213394,121.979004
"1328",96.1416,121.99219
"1329",94.52537,122.00537
"1330",92.58198,122.018555
"1331",90.4921,122.03174
"1332",88.39002,122.04492
"1333",86.34409,122.058105
"1334",84.36164,122.07129
"1335",82.44022,122.08447
"1336",80.584724,122.09766
"1337",78.853745,122.11084
"1338",77.33761,122.12402
"1339",76.15106,122.13721
"1340",75.389336,122.15039
"1341",75.09148,122.163574
"1342",75.22087,122.17676
"1343",75.667656,122.18994
"1344",76.28779,122.203125
"1345",76.92256,122.21631
"1346",77.4255,122.22949
"1347",77.69161,122.242676
"1348",77.6672,122.25586
"1349",77.347374,122.26904
"1350",76.76387,122.28223
"1351",75.96307,122.29541
"1352",75.01091,122.30859
"1353",73.96353,122.32178
"1354",72.86977,122.33496
"1355",71.776,122.348145
"1356",70.71885,122.36133
"1357",69.730064,122.37451
"1358",68.8365,122.387695
"1359",68.069885,122.40088
"1360",67.46197,122.41406
"1361",67.0518,122.427246
"1362",66.85161,122.44043
"1363",66.87114,122.45361
"1364",67.08598,122.4668
"1365",67.46441,122.47998
"1366",67.96735,122.493164
"1367",68.5362,122.50635
"1368",69.11238,122.51953
"1369",69.6495,122.532715
"1370",70.10361,122.5459
"1371",70.45518,122.55908
"1372",70.68711,122.572266
"1373",70.79942,122.58545
"1374",70.82384,122.59863
"1375",70.923935,122.61182
"1376",71.517204,122.625
"1377",73.196915,122.63818
"1378",76.39277,122.65137
"1379",81.058365,122.66455
"1380",86.659035,122.677734
"1381",92.34272,122.69092
"1382",97.17677,122.7041
"1383",100.489815,122.717285
"1384",102.115814,122.73047
"1385",102.29893,122.74365
"1386",101.4078,122.756836
"1387",99.754944,122.77002
"1388",97.60647,122.7832
"1389",95.19188,122.79639
"1390",92.6894,122.80957
"1391",90.230865,122.822754
"1392",87.87488,122.83594
"1393",85.63363,122.84912
"1394",83.509575,122.862305
"1395",81.532005,122.87549
"1396",79.79614,122.88867
"1397",78.450905,122.901855
"1398",77.63302,122.91504
"1399",77.41573,122.92822
"1400",77.77219,122.94141
"1401",78.56321,122.95459
"1402",79.56664,122.96777
"1403",80.567635,122.98096
"1404",81.38308,122.99414
"1405",81.900665,123.007324
"1406",82.056915,123.02051
"1407",81.85672,123.03369
"1408",81.33425,123.046875
"1409",80.550545,123.06006
"1410",79.588615,123.07324
"1411",78.536354,123.086426
"1412",77.471886,123.09961
"1413",76.46357,123.11279
"1414",75.57,123.12598
"1415",74.810715,123.13916
"1416",74.19058,123.15234
"1417",73.69009,123.16553
"1418",73.28481,123.17871
"1419",72.952774,123.191895
"1420",72.689095,123.20508
"1421",72.49622,123.21826
"1422",72.38636,123.231445
"1423",72.37415,123.24463
"1424",72.45716,123.25781
"1425",72.601204,123.270996
"1426",72.764786,123.28418
"1427",72.89418,123.29736
"1428",72.94057,123.31055
"1429",72.867325,123.32373
"1430",72.65736,123.336914
"1431",72.342415,123.3501
"1432",72.07141,123.36328
"1433",72.21057,123.376465
"1434",73.287254,123.38965
"1435",75.718925,123.40283
"1436",79.52758,123.416016
"1437",84.29328,123.4292
"1438",89.29092,123.44238
"1439",93.69283,123.45557
"1440",96.86427,123.46875
"1441",98.58793,123.48193
"1442",99.03227,123.49512
"1443",98.5098,123.5083
"1444",97.303734,123.521484
"1445",95.65087,123.53467
"1446",93.7612,123.54785
"1447",91.79828,123.561035
"1448",89.88907,123.57422
"1449",88.114136,123.5874
"1450",86.49302,123.600586
"1451",84.98421,123.61377
"1452",83.53399,123.62695
"1453",82.125275,123.64014
"1454",80.79225,123.65332
"1455",79.63744,123.666504
"1456",78.79515,123.67969
"1457",78.39231,123.69287
"1458",78.47288,123.706055
"1459",78.995346,123.71924
"1460",79.82788,123.73242
"1461",80.80202,123.745605
"1462",81.73464,123.75879
"1463",82.45731,123.77197
"1464",82.85771,123.78516
"1465",82.89189,123.79834
"1466",82.55253,123.81152
"1467",81.87381,123.82471
"1468",80.91676,123.83789
"1469",79.74731,123.851074
"1470",78.42893,123.86426
"1471",77.02266,123.87744
"1472",75.596855,123.890625
"1473",74.20523,123.90381
"1474",72.901505,123.91699
"1475",71.71984,123.930176
"1476",70.677345,123.94336
"1477",69.771576,123.95654
"1478",68.997635,123.96973
"1479",68.350655,123.98291
"1480",67.842834,123.99609
"1481",67.491264,124.00928
"1482",67.303276,124.02246
"1483",67.27154,124.035645
"1484",67.36675,124.04883
"1485",67.54009,124.06201
"1486",67.73785,124.075195
"1487",67.913635,124.08838
"1488",68.02106,124.10156
"1489",68.035706,124.114746
"1490",67.97467,124.12793
"1491",67.96002,124.14111
"1492",68.37507,124.1543
"1493",69.8082,124.16748
"1494",72.781876,124.180664
"1495",77.37179,124.19385
"1496",83.13115,124.20703
"1497",89.22743,124.220215
"1498",94.69871,124.2334
"1499",98.77104,124.24658
"1500",101.149,124.259766
"1501",102.02792,124.27295
"1502",101.78378,124.28613
"1503",100.76082,124.29932
"1504",99.21538,124.3125
"1505",97.357445,124.32568
"1506",95.35058,124.33887
"1507",93.30953,124.35205
"1508",91.302666,124.365234
"1509",89.339745,124.37842
"1510",87.398796,124.3916
"1511",85.452965,124.404785
"1512",83.51934,124.41797
"1513",81.67361,124.43115
"1514",80.04028,124.444336
"1515",78.75365,124.45752
"1516",77.91867,124.4707
"1517",77.557335,124.48389
"1518",77.60128,124.49707
"1519",77.92355,124.510254
"1520",78.363014,124.52344
"1521",78.76341,124.53662
"1522",78.99779,124.549805
"1523",78.98802,124.56299
"1524",78.69749,124.57617
"1525",78.133514,124.589355
"1526",77.33517,124.60254
"1527",76.35859,124.61572
"1528",75.25994,124.62891
"1529",74.107574,124.64209
"1530",72.955215,124.65527
"1531",71.85657,124.66846
"1532",70.8336,124.68164
"1533",69.90341,124.694824
"1534",69.07576,124.70801
"1535",68.350655,124.72119
"1536",67.72564,124.734375
"1537",67.21782,124.74756
"1538",66.84917,124.76074
"1539",66.62943,124.773926
"1540",66.563515,124.78711
"1541",66.63676,124.80029
"1542",66.81743,124.81348
"1543",67.071335,124.82666
"1544",67.35943,124.83984
"1545",67.64263,124.85303
"1546",67.90387,124.86621
"1547",68.11871,124.879395
"1548",68.31159,124.89258
"1549",68.63142,124.90576
"1550",69.47616,124.918945
"1551",71.42443,124.93213
"1552",74.91814,124.94531
"1553",79.923096,124.958496
"1554",85.889984,124.97168
"1555",91.92767,124.98486
"1556",97.06447,124.99805
"1557",100.60212,125.01123
"1558",102.3502,125.024414
"1559",102.572365,125.0376
"1560",101.67391,125.05078
"1561",99.999084,125.063965
"1562",97.80667,125.07715
"1563",95.30663,125.09033
"1564",92.67231,125.103516
"1565",90.037994,125.1167
"1566",87.48913,125.12988
"1567",85.05501,125.14307
"1568",82.75029,125.15625
"1569",80.601814,125.16943
"1570",78.677956,125.18262
"1571",77.10811,125.1958
"1572",76.0412,125.208984
"1573",75.59441,125.22217
"1574",75.792175,125.23535
"1575",76.56367,125.248535
"1576",77.733116,125.26172
"1577",79.061264,125.2749
"1578",80.306404,125.288086
"1579",81.28542,125.30127
"1580",81.88846,125.31445
"1581",82.06668,125.32764
"1582",81.83719,125.34082
"1583",81.253685,125.354004
"1584",80.360115,125.36719
"1585",79.200424,125.38037
"1586",77.8259,125.393555
"1587",76.29511,125.40674
"1588",74.67643,125.41992
"1589",73.040665,125.433105
"1590",71.47082,125.44629
"1591",70.03281,125.45947
"1592",68.78523,125.47266
"1593",67.76227,125.48584
"1594",66.98833,125.49902
"1595",66.44877,125.51221
"1596",66.124054,125.52539
"1597",65.97513,125.538574
"1598",65.97269,125.55176
"1599",66.08499,125.56494
"1600",66.29496,125.578125
"1601",66.59037,125.59131
"1602",66.95415,125.60449
"1603",67.371635,125.617676
"1604",67.87457,125.63086
"1605",68.63386,125.64404
"1606",70.0914,125.65723
"1607",72.85756,125.67041
"1608",77.349815,125.68359
"1609",83.43389,125.69678
"1610",90.41398,125.70996
"1611",97.25735,125.723145
"1612",102.906845,125.73633
"1613",106.634926,125.74951
"1614",108.30732,125.762695
"1615",108.2707,125.77588
"1616",107.01091,125.78906
"1617",104.89174,125.802246
"1618",102.20615,125.81543
"1619",99.19829,125.82861
"1620",96.078125,125.8418
"1621",92.999466,125.85498
"1622",90.06729,125.868164
"1623",87.325554,125.88135
"1624",84.79378,125.89453
"1625",82.5037,125.907715
"1626",80.5359,125.9209
"1627",79.01488,125.93408
"1628",78.065155,125.947266
"1629",77.74532,125.96045
"1630",78.030975,125.97363
"1631",78.7805,125.98682
"1632",79.77417,126
"1633",80.78493,126.01318
"1634",81.61501,126.02637
"1635",82.125275,126.03955
"1636",82.24246,126.052734
"1637",81.93973,126.06592
"1638",81.24147,126.0791
"1639",80.21118,126.092285
"1640",78.92699,126.10547
"1641",77.47677,126.11865
"1642",75.931335,126.131836
"1643",74.36637,126.14502
"1644",72.833145,126.1582
"1645",71.395134,126.17139
"1646",70.10849,126.18457
"1647",69.04402,126.197754
"1648",68.2359,126.21094
"1649",67.684135,126.22412
"1650",67.34966,126.237305
"1651",67.16411,126.25049
"1652",67.04936,126.26367
"1653",66.94438,126.276855
"1654",66.812546,126.29004
"1655",66.65385,126.30322
"1656",66.5098,126.31641
"1657",66.529335,126.32959
"1658",67.11284,126.34277
"1659",68.895096,126.35596
"1660",72.44251,126.36914
"1661",77.83078,126.382324
"1662",84.5008,126.39551
"1663",91.45403,126.40869
"1664",97.547874,126.421875
"1665",101.88876,126.43506
"1666",104.13733,126.44824
"1667",104.54749,126.461426
"1668",103.6173,126.47461
"1669",101.77402,126.48779
"1670",99.36187,126.50098
"1671",96.78859,126.51416
"1672",94.68894,126.52734
"1673",93.753876,126.54053
"1674",94.28123,126.55371
"1675",95.885254,126.566895
"1676",97.706566,126.58008
"1677",98.827194,126.59326
"1678",98.55619,126.606445
"1679",96.722664,126.61963
"1680",93.79538,126.63281
"1681",90.56779,126.645996
"1682",87.62829,126.65918
"1683",85.19905,126.67236
"1684",83.2752,126.68555
"1685",81.79324,126.69873
"1686",80.64088,126.711914
"1687",79.691154,126.7251
"1688",78.836655,126.73828
"1689",78.02609,126.751465
"1690",77.23506,126.76465
"1691",76.456245,126.77783
"1692",75.68963,126.791016
"1693",74.969406,126.8042
"1694",74.34196,126.81738
"1695",73.85123,126.83057
"1696",73.494774,126.84375
"1697",73.255516,126.85693
"1698",73.09926,126.87012
"1699",72.98695,126.8833
"1700",72.86,126.896484
"1701",72.672005,126.90967
"1702",72.4181,126.92285
"1703",72.15686,126.936035
"1704",71.96399,126.94922
"1705",71.94202,126.9624
"1706",72.20813,126.975586
"1707",72.833145,126.98877
"1708",73.85611,127.00195
"1709",75.38201,127.01514
"1710",77.59884,127.02832
"1711",80.67017,127.041504
"1712",84.6009,127.05469
"1713",89.20302,127.06787
"1714",94.09567,127.081055
"1715",98.7686,127.09424
"1716",102.77013,127.10742
"1717",105.82437,127.120605
"1718",107.862976,127.13379
"1719",108.929886,127.14697
"1720",109.12764,127.16016
"1721",108.595406,127.17334
"1722",107.494316,127.18652
"1723",105.97818,127.19971
"1724",104.181274,127.21289
"1725",102.20126,127.226074
"1726",100.08942,127.23926
"1727",97.85306,127.25244
"1728",95.501945,127.265625
"1729",93.0898,127.27881
"1730",90.721596,127.29199
"1731",88.54871,127.305176
"1732",86.72007,127.31836
"1733",85.32601,127.33154
"1734",84.38117,127.34473
"1735",83.82941,127.35791
"1736",83.5584,127.37109
"1737",83.441216,127.38428
"1738",83.36553,127.39746
"1739",83.245895,127.410645
"1740",83.01152,127.42383
"1741",82.61112,127.43701
"1742",82.01053,127.450195
"1743",81.20485,127.46338
"1744",80.20874,127.47656
"1745",79.05638,127.489746
"1746",77.806366,127.50293
"1747",76.51972,127.51611
"1748",75.25262,127.5293
"1749",74.056305,127.54248
"1750",72.972305,127.555664
"1751",72.0177,127.56885
"1752",71.18761,127.58203
"1753",70.47715,127.595215
"1754",69.874115,127.6084
"1755",69.35653,127.62158
"1756",68.909744,127.634766
"1757",68.51911,127.64795
"1758",68.16266,127.66113
"1759",67.842834,127.67432
"1760",67.64019,127.6875
"1761",67.808655,127.70068
"1762",68.72907,127.71387
"1763",70.728615,127.72705
"1764",73.85855,127.740234
"1765",77.84543,127.75342
"1766",82.18143,127.7666
"1767",86.23178,127.779785
"1768",89.46914,127.79297
"1769",91.64202,127.80615
"1770",92.76509,127.819336
"1771",92.99458,127.83252
"1772",92.50141,127.8457
"1773",91.46624,127.85889
"1774",90.074615,127.87207
"1775",88.499886,127.885254
"1776",86.820175,127.89844
"1777",85.03792,127.91162
"1778",83.140915,127.924805
"1779",81.112076,127.93799
"1780",78.97337,127.95117
"1781",76.83223,127.964355
"1782",74.87419,127.97754
"1783",73.304344,127.99072
"1784",72.24231,128.0039
"1785",71.7174,128.01709
"1786",71.68078,128.03027
"1787",72.007935,128.04346
"1788",72.54017,128.05664
"1789",73.11635,128.06982
"1790",73.619286,128.08301
"1791",73.96597,128.09619
"1792",74.10513,128.10938
"1793",74.022125,128.12256
"1794",73.73159,128.13574
"1795",73.253075,128.14893
"1796",72.61829,128.16211
"1797",71.854126,128.1753
"1798",70.98253,128.18848
"1799",70.02548,128.20166
"1800",69.031815,128.21484
"1801",68.07477,128.22803
"1802",67.193405,128.24121
"1803",66.41947,128.2544
"1804",65.77493,128.26758
"1805",65.269554,128.28076
"1806",64.89113,128.29395
"1807",64.6128,128.30713
"1808",64.42725,128.32031
"1809",64.31739,128.3335
"1810",64.26124,128.34668
"1811",64.28077,128.35986
"1812",64.56153,128.37305
"1813",65.48196,128.38623
"1814",67.46197,128.39941
"1815",70.69932,128.4126
"1816",75.04509,128.42578
"1817",80.01831,128.43896
"1818",84.94026,128.45215
"1819",89.15663,128.46533
"1820",92.25239,128.47852
"1821",94.13229,128.4917
"1822",94.92821,128.50488
"1823",94.84276,128.51807
"1824",94.07126,128.53125
"1825",92.82124,128.54443
"1826",91.302666,128.55762
"1827",89.66689,128.5708
"1828",87.99695,128.58398
"1829",86.30991,128.59717
"1830",84.58869,128.61035
"1831",82.81377,128.62354
"1832",81.01686,128.63672
"1833",79.28832,128.6499
"1834",77.75998,128.66309
"1835",76.56367,128.67627
"1836",75.7995,128.68945
"1837",75.50164,128.70264
"1838",75.61883,128.71582
"1839",76.03143,128.729
"1840",76.59052,128.74219
"1841",77.14717,128.75537
"1842",77.57931,128.76855
"1843",77.806366,128.78174
"1844",77.786835,128.79492
"1845",77.51339,128.8081
"1846",76.9836,128.82129
"1847",76.226746,128.83447
"1848",75.30877,128.84766
"1849",74.30045,128.86084
"1850",73.25796,128.87402
"1851",72.234985,128.8872
"1852",71.26086,128.90039
"1853",70.362404,128.91357
"1854",69.5494,128.92676
"1855",68.83894,128.93994
"1856",68.24811,128.95312
"1857",67.77936,128.96631
"1858",67.41802,128.97949
"1859",67.139694,128.99268
"1860",66.91997,129.00586
"1861",66.74174,129.01904
"1862",66.59037,129.03223
"1863",66.46342,129.04541
"1864",66.3682,129.0586
"1865",66.321815,129.07178
"1866",66.373085,129.08496
"1867",66.69779,129.09814
"1868",67.65972,129.11133
"1869",69.69344,129.12451
"1870",73.05043,129.1377
"1871",77.61349,129.15088
"1872",82.90166,129.16406
"1873",88.21179,129.17725
"1874",92.81392,129.19043
"1875",96.20996,129.20361
"1876",98.27787,129.2168
"1877",99.17876,129.22998
"1878",99.14702,129.24316
"1879",98.38529,129.25635
"1880",97.084,129.26953
"1881",95.4165,129.28271
"1882",93.521935,129.2959
"1883",91.51995,129.30908
"1884",89.49355,129.32227
"1885",87.47936,129.33545
"1886",85.506676,129.34863
"1887",83.60479,129.36182
"1888",81.849396,129.375
"1889",80.33326,129.38818
"1890",79.17113,129.40137
"1891",78.43626,129.41455
"1892",78.14084,129.42773
"1893",78.22873,129.44092
"1894",78.59983,129.4541
"1895",79.12474,129.46729
"1896",79.68139,129.48047
"1897",80.16724,129.49365
"1898",80.499275,129.50684
"1899",80.621346,129.52002
"1900",80.49439,129.5332
"1901",80.128174,129.54639
"1902",79.554436,129.55957
"1903",78.81224,129.57275
"1904",77.945526,129.58594
"1905",77.00313,129.59912
"1906",76.019226,129.6123
"1907",75.03044,129.62549
"1908",74.0856,129.63867
"1909",73.255516,129.65186
"1910",72.61097,129.66504
"1911",72.234985,129.67822
"1912",72.1886,129.6914
"1913",72.50355,129.70459
"1914",73.15541,129.71777
"1915",74.075836,129.73096
"1916",75.140305,129.74414
"1917",76.20233,129.75732
"1918",77.09834,129.77051
"1919",77.72091,129.78369
"1920",78.030975,129.79688
"1921",78.05539,129.81006
"1922",77.89426,129.82324
"1923",77.77951,129.83643
"1924",78.03586,129.84961
"1925",78.958725,129.8628
"1926",80.68726,129.87598
"1927",83.16533,129.88916
"1928",86.11215,129.90234
"1929",89.11513,129.91553
"1930",91.74456,129.92871
"1931",93.7026,129.9419
"1932",94.85985,129.95508
"1933",95.23094,129.96826
"1934",94.8867,129.98145
"1935",93.93942,129.99463
"1936",92.52094,130.00781
"1937",90.78996,130.021
"1938",88.902725,130.03418
"1939",86.9984,130.04736
"1940",85.17464,130.06055
"1941",83.492485,130.07373
"1942",81.96658,130.08691
"1943",80.587166,130.1001
"1944",79.3518,130.11328
"1945",78.2971,130.12646
"1946",77.49874,130.13965
"1947",77.02022,130.15283
"1948",76.88838,130.16602
"1949",77.07881,130.1792
"1950",77.49142,130.19238
"1951",77.98459,130.20557
"1952",78.42649,130.21875
"1953",78.7219,130.23193
"1954",78.819565,130.24512
"1955",78.70237,130.2583
"1956",78.37522,130.27148
"1957",77.8674,130.28467
"1958",77.20088,130.29785
"1959",76.402534,130.31104
"1960",75.50408,130.32422
"1961",74.54948,130.3374
"1962",73.5729,130.35059
"1963",72.61097,130.36377
"1964",71.69787,130.37695
"1965",70.86534,130.39014
"1966",70.14267,130.40332
"1967",69.556725,130.4165
"1968",69.12459,130.42969
"1969",68.85115,130.44287
"1970",68.72175,130.45605
"1971",68.73884,130.46924
"1972",68.89021,130.48242
"1973",69.15144,130.4956
"1974",69.48348,130.50879
"1975",69.82773,130.52197
"1976",70.12314,130.53516
"1977",70.32578,130.54834
"1978",70.421,130.56152
"1979",70.44541,130.5747
"1980",70.55039,130.58789
"1981",71.05577,130.60107
"1982",72.37171,130.61426
"1983",74.80339,130.62744
"1984",78.33372,130.64062
"1985",82.63798,130.65381
"1986",87.15221,130.66699
"1987",91.246506,130.68018
"1988",94.42283,130.69336
"1989",96.480965,130.70654
"1990",97.48928,130.71973
"1991",97.618675,130.73291
"1992",97.04982,130.7461
"1993",95.958496,130.75928
"1994",94.50828,130.77246
"1995",92.826126,130.78564
"1996",91.0219,130.79883
"1997",89.17372,130.81201
"1998",87.32311,130.8252
"1999",85.49691,130.83838
"2000",83.74395,130.85156
"2001",82.12039,130.86475
"2002",80.68726,130.87793
"2003",79.520256,130.89111
"2004",78.70725,130.9043
"2005",78.2971,130.91748
"2006",78.277565,130.93066
"2007",78.58274,130.94385
"2008",79.10765,130.95703
"2009",79.71557,130.97021
"2010",80.257576,130.9834
"2011",80.61646,130.99658
"2012",80.71656,131.00977
"2013",80.53834,131.02295
"2014",80.10376,131.03613
"2015",79.449455,131.04932
"2016",78.6096,131.0625
"2017",77.61349,131.07568
"2018",76.50507,131.08887
"2019",75.34295,131.10205
"2020",74.1857,131.11523
"2021",73.08461,131.12842
"2022",72.08362,131.1416
"2023",71.19249,131.15479
"2024",70.41367,131.16797
"2025",69.752045,131.18115
"2026",69.222244,131.19434
"2027",68.84627,131.20752
"2028",68.628975,131.2207
"2029",68.58015,131.23389
"2030",68.69245,131.24707
"2031",68.95857,131.26025
"2032",69.33456,131.27344
"2033",69.77402,131.28662
"2034",70.223236,131.2998
"2035",70.62852,131.31299
"2036",70.95079,131.32617
"2037",71.17784,131.33936
"2038",71.312126,131.35254
"2039",71.34142,131.36572
"2040",71.275505,131.3789
"2041",71.23399,131.39209
"2042",71.54894,131.40527
"2043",72.708626,131.41846
"2044",75.11101,131.43164
"2045",78.81224,131.44482
"2046",83.47784,131.45801
"2047",88.47059,131.47119
"2048",93.02876,131.48438
"2049",96.549324,131.49756
"2050",98.78325,131.51074
"2051",99.828186,131.52393
"2052",99.90875,131.53711
"2053",99.244675,131.5503
"2054",98.05081,131.56348
"2055",96.517586,131.57666
"2056",94.77196,131.58984
"2057",92.88716,131.60303
"2058",90.90715,131.61621
"2059",88.86122,131.6294
"2060",86.77379,131.64258
"2061",84.69123,131.65576
"2062",82.718544,131.66895
"2063",80.99245,131.68213
"2064",79.639885,131.69531
"2065",78.73899,131.7085
"2066",78.31907,131.72168
"2067",78.34104,131.73486
"2068",78.69016,131.74805
"2069",79.22484,131.76123
"2070",79.801025,131.77441
"2071",80.31617,131.7876
"2072",80.68726,131.80078
"2073",80.848404,131.81396
"2074",80.75075,131.82715
"2075",80.37476,131.84033
"2076",79.73266,131.85352
"2077",78.86351,131.8667
"2078",77.806366,131.87988
"2079",76.63203,131.89307
"2080",75.406425,131.90625
"2081",74.18326,131.91943
"2082",72.98695,131.93262
"2083",71.837036,131.9458
"2084",70.77501,131.95898
"2085",69.837494,131.97217
"2086",69.048904,131.98535
"2087",68.42634,131.99854
"2088",67.96246,132.01172
"2089",67.63775,132.0249
"2090",67.42535,132.03809
"2091",67.31548,132.05127
"2092",67.31548,132.06445
"2093",67.45464,132.07764
"2094",67.7525,132.09082
"2095",68.1944,132.104
"2096",68.74128,132.11719
"2097",69.35897,132.13037
"2098",70.01816,132.14355
"2099",70.677345,132.15674
"2100",71.27306,132.16992
"2101",71.74914,132.1831
"2102",72.05676,132.19629
"2103",72.200806,132.20947
"2104",72.2765,132.22266
"2105",72.601204,132.23584
"2106",73.71206,132.24902
"2107",76.13153,132.2622
"2108",80.01587,132.27539
"2109",85.067215,132.28857
"2110",90.616615,132.30176
"2111",95.833984,132.31494
"2112",99.98688,132.32812
"2113",102.69932,132.34131
"2114",104.0177,132.35449
"2115",104.20325,132.36768
"2116",103.505,132.38086
"2117",102.1207,132.39404
"2118",100.22858,132.40723
"2119",98.01175,132.42041
"2120",95.65087,132.4336
"2121",93.277794,132.44678
"2122",90.97551,132.45996
"2123",88.763565,132.47314
"2124",86.63706,132.48633
"2125",84.62043,132.49951
"2126",82.78935,132.5127
"2127",81.27322,132.52588
"2128",80.21362,132.53906
"2129",79.69604,132.55225
"2130",79.710686,132.56543
"2131",80.15015,132.57861
"2132",80.831314,132.5918
"2133",81.56863,132.60498
"2134",82.2034,132.61816
"2135",82.62089,132.63135
"2136",82.74784,132.64453
"2137",82.562294,132.65771
"2138",82.07156,132.6709
"2139",81.31716,132.68408
"2140",80.34547,132.69727
"2141",79.2224,132.71045
"2142",78.013885,132.72363
"2143",76.76143,132.73682
"2144",75.491875,132.75
"2145",74.25407,132.76318
"2146",73.094376,132.77637
"2147",72.05432,132.78955
"2148",71.13634,132.80273
"2149",70.32334,132.81592
"2150",69.60067,132.8291
"2151",68.980545,132.84229
"2152",68.50202,132.85547
"2153",68.22125,132.86865
"2154",68.1651,132.88184
"2155",68.30915,132.89502
"2156",68.577705,132.9082
"2157",68.878006,132.92139
"2158",69.15144,132.93457
"2159",69.37362,132.94775
"2160",69.55428,132.96094
"2161",69.715416,132.97412
"2162",69.908295,132.9873
"2163",70.276955,133.00049
"2164",71.15343,133.01367
"2165",73.00404,133.02686
"2166",76.1413,133.04004
"2167",80.52613,133.05322
"2168",85.71908,133.0664
"2169",91.03899,133.07959
"2170",95.743645,133.09277
"2171",99.29595,133.10596
"2172",101.51278,133.11914
"2173",102.518654,133.13232
"2174",102.555275,133.14551
"2175",101.83017,133.15869
"2176",100.51179,133.17188
"2177",98.76372,133.18506
"2178",96.73243,133.19824
"2179",94.54734,133.21143
"2180",92.29633,133.22461
"2181",90.03067,133.2378
"2182",87.782104,133.25098
"2183",85.59701,133.26416
"2184",83.529106,133.27734
"2185",81.67605,133.29053
"2186",80.16724,133.30371
"2187",79.114975,133.3169
"2188",78.56565,133.33008
"2189",78.4802,133.34326
"2190",78.75609,133.35645
"2191",79.24681,133.36963
"2192",79.78882,133.38281
"2193",80.25269,133.396
"2194",80.54566,133.40918
"2195",80.61646,133.42236
"2196",80.41871,133.43555
"2197",79.95239,133.44873
"2198",79.259026,133.46191
"2199",78.41184,133.4751
"2200",77.49386,133.48828
"2201",76.56611,133.50146
"2202",75.68719,133.51465
"2203",74.87663,133.52783
"2204",74.127106,133.54102
"2205",73.42153,133.5542
"2206",72.74769,133.56738
"2207",72.112915,133.58057
"2208",71.52209,133.59375
"2209",70.98253,133.60693
"2210",70.51621,133.62012
"2211",70.152435,133.6333
"2212",69.891205,133.64648
"2213",69.71053,133.65967
"2214",69.573814,133.67285
"2215",69.43221,133.68604
"2216",69.24422,133.69922
"2217",68.99031,133.7124
"2218",68.7071,133.72559
"2219",68.42878,133.73877
"2220",68.174866,133.75195
"2221",68.01373,133.76514
"2222",68.157776,133.77832
"2223",69.01961,133.7915
"2224",71.09483,133.80469
"2225",74.64469,133.81787
"2226",79.4934,133.83105
"2227",85.06477,133.84424
"2228",90.53849,133.85742
"2229",95.116196,133.8706
"2230",98.29496,133.88379
"2231",100.001526,133.89697
"2232",100.472725,133.91016
"2233",99.96979,133.92334
"2234",98.71488,133.93652
"2235",96.900894,133.9497
"2236",94.72556,133.96289
"2237",92.350044,133.97607
"2238",89.9086,133.98926
"2239",87.47692,134.00244
"2240",85.09407,134.01562
"2241",82.7625,134.02881
"2242",80.51392,134.04199
"2243",78.4387,134.05518
"2244",76.680855,134.06836
"2245",75.403984,134.08154
"2246",74.73258,134.09473
"2247",74.69352,134.10791
"2248",75.228195,134.1211
"2249",76.190125,134.13428
"2250",77.383995,134.14746
"2251",78.6096,134.16064
"2252",79.676506,134.17383
"2253",80.45289,134.18701
"2254",80.85329,134.2002
"2255",80.848404,134.21338
"2256",80.46021,134.22656
"2257",79.7522,134.23975
"2258",78.802475,134.25293
"2259",77.68917,134.26611
"2260",76.470894,134.2793
"2261",75.21355,134.29248
"2262",73.968414,134.30566
"2263",72.76967,134.31885
"2264",71.65148,134.33203
"2265",70.64561,134.34521
"2266",69.769135,134.3584
"2267",69.04158,134.37158
"2268",68.472725,134.38477
"2269",68.05768,134.39795
"2270",67.76959,134.41113
"2271",67.57671,134.42432
"2272",67.44732,134.4375
"2273",67.352104,134.45068
"2274",67.2691,134.46387
"2275",67.19585,134.47705
"2276",67.1519,134.49023
"2277",67.176315,134.50342
"2278",67.3814,134.5166
"2279",68.067444,134.52979
"2280",69.72274,134.54297
"2281",72.798965,134.55615
"2282",77.39376,134.56934
"2283",83.140915,134.58252
"2284",89.2958,134.5957
"2285",94.95506,134.60889
"2286",99.36187,134.62207
"2287",102.14267,134.63525
"2288",103.37316,134.64844
"2289",103.363396,134.66162
"2290",102.435646,134.6748
"2291",100.83162,134.68799
"2292",98.75395,134.70117
"2293",96.38819,134.71436
"2294",93.87839,134.72754
"2295",91.30999,134.74072
"2296",88.73182,134.7539
"2297",86.17319,134.76709
"2298",83.67559,134.78027
"2299",81.32693,134.79346
"2300",79.27123,134.80664
"2301",77.68917,134.81982
"2302",76.71992,134.83301
"2303",76.436714,134.84619
"2304",76.80049,134.85938
"2305",77.67696,134.87256
"2306",78.85863,134.88574
"2307",80.12085,134.89893
"2308",81.27322,134.91211
"2309",82.16434,134.9253
"2310",82.667274,134.93848
"2311",82.57206,134.95166
"2312",81.5198,134.96484
"2313",79.2224,134.97803
"2314",75.792175,134.99121
"2315",71.72228,135.0044
"2316",67.65728,135.01758
"2317",64.20996,135.03076
"2318",61.78805,135.04395
"2319",60.372013,135.05713
"2320",59.593193,135.07031
"2321",59.073166,135.0835
"2322",58.680096,135.09668
"2323",58.41886,135.10986
"2324",58.313877,135.12305
"2325",58.362705,135.13623
"2326",58.533607,135.14941
"2327",58.797283,135.1626
"2328",59.11223,135.17578
"2329",59.44915,135.18896
"2330",59.817806,135.20215
"2331",60.235294,135.21533
"2332",60.73579,135.22852
"2333",61.380333,135.2417
"2334",62.32761,135.25488
"2335",63.838863,135.26807
"2336",66.565956,135.28125
"2337",70.99718,135.29443
"2338",77.11299,135.30762
"2339",84.41535,135.3208
"2340",92.20599,135.33398
"2341",99.61089,135.34717
"2342",105.75601,135.36035
"2343",110.27024,135.37354
"2344",113.25124,135.38672
"2345",114.90898,135.3999
"2346",115.30694,135.41309
"2347",114.686806,135.42627
"2348",113.30984,135.43945
"2349",111.38598,135.45264
"2350",109.09346,135.46582
"2351",106.56168,135.479
"2352",103.90784,135.49219
"2353",101.21736,135.50537
"2354",98.5684,135.51855
"2355",96.05859,135.53174
"2356",93.802704,135.54492
"2357",91.91547,135.5581
"2358",90.4921,135.57129
"2359",89.60342,135.58447
"2360",89.22499,135.59766
"2361",89.2665,135.61084
"2362",89.57168,135.62402
"2363",89.94766,135.6372
"2364",90.20401,135.65039
"2365",90.211334,135.66357
"2366",89.881744,135.67676
"2367",89.18349,135.68994
"2368",88.131226,135.70312
"2369",86.77135,135.71631
"2370",85.15999,135.72949
"2371",83.3753,135.74268
"2372",81.514915,135.75586
"2373",79.66918,135.76904
"2374",77.908905,135.78223
"2375",76.29267,135.79541
"2376",74.85466,135.8086
"2377",73.6144,135.82178
"2378",72.59144,135.83496
"2379",71.81262,135.84814
"2380",71.29748,135.86133
"2381",71.043564,135.87451
"2382",71.0045,135.8877
"2383",71.12169,135.90088
"2384",71.31945,135.91406
"2385",71.536736,135.92725
"2386",71.72228,135.94043
"2387",71.84436,135.95361
"2388",71.9176,135.9668
"2389",72.05188,135.97998
"2390",72.532845,135.99316
"2391",73.777985,136.00635
"2392",76.11444,136.01953
"2393",79.58129,136.03271
"2394",83.878235,136.0459
"2395",88.4535,136.05908
"2396",92.628365,136.07227
"2397",95.83887,136.08545
"2398",97.83597,136.09863
"2399",98.64652,136.11182
"2400",98.43168,136.125
"2401",97.38186,136.13818
"2402",95.70702,136.15137
"2403",93.60494,136.16455
"2404",91.266045,136.17773
"2405",88.84169,136.19092
"2406",86.44907,136.2041
"2407",84.139465,136.21729
"2408",81.92508,136.23047
"2409",79.815674,136.24365
"2410",77.855194,136.25684
"2411",76.138855,136.27002
"2412",74.80827,136.2832
"2413",74.0148,136.29639
"2414",73.829254,136.30957
"2415",74.21988,136.32275
"2416",75.04997,136.33594
"2417",76.12665,136.34912
"2418",77.23506,136.3623
"2419",78.21164,136.37549
"2420",78.941635,136.38867
"2421",79.36645,136.40186
"2422",79.449455,136.41504
"2423",79.18089,136.42822
"2424",78.57542,136.4414
"2425",77.67452,136.45459
"2426",76.54902,136.46777
"2427",75.27947,136.48096
"2428",73.951324,136.49414
"2429",72.64271,136.50732
"2430",71.40978,136.52051
"2431",70.2916,136.53369
"2432",69.312584,136.54688
"2433",68.489815,136.56006
"2434",67.842834,136.57324
"2435",67.388725,136.58643
"2436",67.125046,136.59961
"2437",67.0396,136.6128
"2438",67.11284,136.62598
"2439",67.32769,136.63916
"2440",67.66949,136.65234
"2441",68.138245,136.66553
"2442",68.72419,136.67871
"2443",69.39803,136.6919
"2444",70.14267,136.70508
"2445",71.02403,136.71826
"2446",72.26917,136.73145
"2447",74.22476,136.74463
"2448",77.15694,136.75781
"2449",81.06569,136.771
"2450",85.63851,136.78418
"2451",90.338295,136.79736
"2452",94.557106,136.81055
"2453",97.82376,136.82373
"2454",99.94293,136.83691
"2455",100.9781,136.8501
"2456",101.07332,136.86328
"2457",100.37507,136.87646
"2458",99.04204,136.88965
"2459",97.23537,136.90283
"2460",95.113754,136.91602
"2461",92.8188,136.9292
"2462",90.4799,136.94238
"2463",88.18005,136.95557
"2464",85.96567,136.96875
"2465",83.861145,136.98193
"2466",81.917755,136.99512
"2467",80.21362,137.0083
"2468",78.84642,137.02148
"2469",77.89914,137.03467
"2470",77.40353,137.04785
"2471",77.30343,137.06104
"2472",77.48165,137.07422
"2473",77.7966,137.0874
"2474",78.133514,137.10059
"2475",78.433815,137.11377
"2476",78.658424,137.12695
"2477",78.75853,137.14014
"2478",78.675514,137.15332
"2479",78.363014,137.1665
"2480",77.80148,137.17969
"2481",77.00557,137.19287
"2482",76.016785,137.20605
"2483",74.88884,137.21924
"2484",73.670555,137.23242
"2485",72.40345,137.2456
"2486",71.13634,137.25879
"2487",69.925385,137.27197
"2488",68.81941,137.28516
"2489",67.86969,137.29834
"2490",67.090866,137.31152
"2491",66.48051,137.3247
"2492",66.02884,137.33789
"2493",65.740746,137.35107
"2494",65.616234,137.36426
"2495",65.64309,137.37744
"2496",65.779816,137.39062
"2497",65.98001,137.40381
"2498",66.18509,137.41699
"2499",66.338905,137.43018
"2500",66.41459,137.44336
"2501",66.41215,137.45654
"2502",66.35844,137.46973
"2503",66.319374,137.48291
"2504",66.50004,137.4961
"2505",67.34478,137.50928
"2506",69.417564,137.52246
"2507",73.08217,137.53564
"2508",78.238495,137.54883
"2509",84.30549,137.56201
"2510",90.40421,137.5752
"2511",95.61913,137.58838
"2512",99.32525,137.60156
"2513",101.383385,137.61475
"2514",102.0206,137.62793
"2515",101.57137,137.64111
"2516",100.32624,137.6543
"2517",98.512245,137.66748
"2518",96.31251,137.68066
"2519",93.875946,137.69385
"2520",91.30755,137.70703
"2521",88.66346,137.72021
"2522",85.994965,137.7334
"2523",83.36065,137.74658
"2524",80.850845,137.75977
"2525",78.61204,137.77295
"2526",76.82979,137.78613
"2527",75.665215,137.79932
"2528",75.20134,137.8125
"2529",75.43572,137.82568
"2530",76.24628,137.83887
"2531",77.43038,137.85205
"2532",78.75609,137.86523
"2533",80.01343,137.87842
"2534",81.02907,137.8916
"2535",81.70046,137.90479
"2536",81.991,137.91797
"2537",81.898224,137.93115
"2538",81.45632,137.94434
"2539",80.72877,137.95752
"2540",79.781494,137.9707
"2541",78.677956,137.98389
"2542",77.471886,137.99707
"2543",76.224304,138.01025
"2544",74.98894,138.02344
"2545",73.80972,138.03662
"2546",72.725716,138.0498
"2547",71.763794,138.06299
"2548",70.958115,138.07617
"2549",70.33555,138.08936
"2550",69.9205,138.10254
"2551",69.7203,138.11572
"2552",69.730064,138.1289
"2553",69.908295,138.14209
"2554",70.17929,138.15527
"2555",70.4625,138.16846
"2556",70.694435,138.18164
"2557",70.84337,138.19482
"2558",70.91661,138.20801
"2559",71.00694,138.22119
"2560",71.37316,138.23438
"2561",72.464485,138.24756
"2562",74.73502,138.26074
"2563",78.382545,138.27393
"2564",83.17265,138.28711
"2565",88.52674,138.3003
"2566",93.65865,138.31348
"2567",97.83353,138.32666
"2568",100.628975,138.33984
"2569",102.01572,138.35303
"2570",102.21835,138.36621
"2571",101.488365,138.3794
"2572",100.05768,138.39258
"2573",98.12161,138.40576
"2574",95.86084,138.41895
"2575",93.436485,138.43213
"2576",90.985275,138.44531
"2577",88.585335,138.4585
"2578",86.26841,138.47168
"2579",84.04913,138.48486
"2580",81.951935,138.49805
"2581",80.04761,138.51123
"2582",78.45823,138.52441
"2583",77.332726,138.5376
"2584",76.788284,138.55078
"2585",76.859085,138.56396
"2586",77.47677,138.57715
"2587",78.467995,138.59033
"2588",79.62768,138.60352
"2589",80.7483,138.6167
"2590",81.65896,138.62988
"2591",82.2449,138.64307
"2592",82.46952,138.65625
"2593",82.34257,138.66943
"2594",81.917755,138.68262
"2595",81.26833,138.6958
"2596",80.46021,138.70898
"2597",79.551994,138.72217
"2598",78.57053,138.73535
"2599",77.5378,138.74854
"2600",76.470894,138.76172
"2601",75.37713,138.7749
"2602",74.29069,138.78809
"2603",73.26772,138.80127
"2604",72.36683,138.81445
"2605",71.62951,138.82764
"2606",71.06798,138.84082
"2607",70.67002,138.854
"2608",70.399025,138.86719
"2609",70.21103,138.88037
"2610",70.07187,138.89355
"2611",69.993744,138.90674
"2612",70.066986,138.91992
"2613",70.52354,138.9331
"2614",71.73937,138.94629
"2615",74.039215,138.95947
"2616",77.488976,138.97266
"2617",81.83475,138.98584
"2618",86.55161,138.99902
"2619",90.98772,139.0122
"2620",94.554665,139.02539
"2621",96.96193,139.03857
"2622",98.21683,139.05176
"2623",98.492714,139.06494
"2624",97.987335,139.07812
"2625",96.87404,139.09131
"2626",95.32372,139.10449
"2627",93.48531,139.11768
"2628",91.48821,139.13086
"2629",89.4374,139.14404
"2630",87.40124,139.15723
"2631",85.40658,139.17041
"2632",83.45342,139.1836
"2633",81.56374,139.19678
"2634",79.80591,139.20996
"2635",78.29954,139.22314
"2636",77.16914,139.23633
"2637",76.49531,139.24951
"2638",76.28535,139.2627
"2639",76.47578,139.27588
"2640",76.94942,139.28906
"2641",77.57198,139.30225
"2642",78.2092,139.31543
"2643",78.746315,139.32861
"2644",79.08324,139.3418
"2645",79.14671,139.35498
"2646",78.89525,139.36816
"2647",78.34104,139.38135
"2648",77.51095,139.39453
"2649",76.46113,139.40771
"2650",75.24284,139.4209
"2651",73.917145,139.43408
"2652",72.54505,139.44727
"2653",71.19005,139.46045
"2654",69.91806,139.47363
"2655",68.790115,139.48682
"2656",67.86969,139.5
"2657",67.210495,139.51318
"2658",66.82475,139.52637
"2659",66.69047,139.53955
"2660",66.73441,139.55273
"2661",66.87846,139.56592
"2662",67.04448,139.5791
"2663",67.1812,139.59229
"2664",67.2813,139.60547
"2665",67.36675,139.61865
"2666",67.457085,139.63184
"2667",67.64507,139.64502
"2668",68.206604,139.6582
"2669",69.58846,139.67139
"2670",72.19592,139.68457
"2671",76.13641,139.69775
"2672",81.112076,139.71094
"2673",86.485695,139.72412
"2674",91.47112,139.7373
"2675",95.38964,139.75049
"2676",97.92386,139.76367
"2677",99.122604,139.77686
"2678",99.23735,139.79004
"2679",98.51469,139.80322
"2680",97.18898,139.8164
"2681",95.45556,139.82959
"2682",93.48531,139.84277
"2683",91.41741,139.85596
"2684",89.339745,139.86914
"2685",87.28405,139.88232
"2686",85.25521,139.89551
"2687",83.25323,139.90869
"2688",81.31472,139.92188
"2689",79.54223,139.93506
"2690",78.0798,139.94824
"2691",77.0544,139.96143
"2692",76.54658,139.97461
"2693",76.55634,139.9878
"2694",76.981155,140.00098
"2695",77.65499,140.01416
"2696",78.40208,140.02734
"2697",79.063705,140.04053
"2698",79.51537,140.05371
"2699",79.674065,140.0669
"2700",79.50561,140.08008
"2701",79.03197,140.09326
"2702",78.30198,140.10645
"2703",77.37667,140.11963
"2704",76.30976,140.13281
"2705",75.16472,140.146
"2706",73.98306,140.15918
"2707",72.79164,140.17236
"2708",71.6173,140.18555
"2709",70.49668,140.19873
"2710",69.45907,140.21191
"2711",68.543526,140.2251
"2712",67.77692,140.23828
"2713",67.17876,140.25146
"2714",66.76372,140.26465
"2715",66.53666,140.27783
"2716",66.48051,140.29102
"2717",66.57328,140.3042
"2718",66.778366,140.31738
"2719",67.06889,140.33057
"2720",67.41558,140.34375
"2721",67.78668,140.35693
"2722",68.15045,140.37012
"2723",68.492256,140.3833
"2724",68.81453,140.39648
"2725",69.190506,140.40967
"2726",69.84482,140.42285
"2727",71.2047,140.43604
"2728",73.75601,140.44922
"2729",77.747765,140.4624
"2730",82.98222,140.47559
"2731",88.86366,140.48877
"2732",94.57908,140.50195
"2733",99.33013,140.51514
"2734",102.60166,140.52832
"2735",104.32288,140.5415
"2736",104.723274,140.55469
"2737",104.10559,140.56787
"2738",102.745705,140.58105
"2739",100.86336,140.59424
"2740",98.65873,140.60742
"2741",96.29542,140.6206
"2742",93.88815,140.63379
"2743",91.50286,140.64697
"2744",89.17372,140.66016
"2745",86.93248,140.67334
"2746",84.8304,140.68652
"2747",82.97246,140.6997
"2748",81.48806,140.71289
"2749",80.49195,140.72607
"2750",80.04761,140.73926
"2751",80.1355,140.75244
"2752",80.64332,140.76562
"2753",81.39529,140.77881
"2754",82.2034,140.79199
"2755",82.90166,140.80518
"2756",83.36553,140.81836
"2757",83.52422,140.83154
"2758",83.36309,140.84473
"2759",82.90166,140.85791
"2760",82.1741,140.8711
"2761",81.22438,140.88428
"2762",80.1062,140.89746
"2763",78.8806,140.91064
"2764",77.5964,140.92383
"2765",76.30732,140.93701
"2766",75.052414,140.9502
"2767",73.863434,140.96338
"2768",72.77211,140.97656
"2769",71.80774,140.98975
"2770",71.00694,141.00293
"2771",70.38438,141.01611
"2772",69.95224,141.0293
"2773",69.70565,141.04248
"2774",69.61532,141.05566
"2775",69.64217,141.06885
"2776",69.752045,141.08203
"2777",69.90097,141.09521
"2778",70.0499,141.1084
"2779",70.169525,141.12158
"2780",70.259865,141.13477
"2781",70.37461,141.14795
"2782",70.728615,141.16113
"2783",71.73205,141.17432
"2784",73.83658,141.1875
"2785",77.25704,141.20068
"2786",81.815216,141.21387
"2787",86.976425,141.22705
"2788",91.998474,141.24023
"2789",96.163574,141.25342
"2790",99.03227,141.2666
"2791",100.54597,141.27979
"2792",100.89998,141.29297
"2793",100.34333,141.30615
"2794",99.105515,141.31934
"2795",97.38186,141.33252
"2796",95.360344,141.3457
"2797",93.18257,141.35889
"2798",90.95598,141.37207
"2799",88.73914,141.38525
"2800",86.554054,141.39844
"2801",84.41047,141.41162
"2802",82.34257,141.4248
"2803",80.428474,141.43799
"2804",78.79271,141.45117
"2805",77.58419,141.46436
"2806",76.90303,141.47754
"2807",76.773636,141.49072
"2808",77.13008,141.5039
"2809",77.8259,141.51709
"2810",78.69016,141.53027
"2811",79.56664,141.54346
"2812",80.34058,141.55664
"2813",80.94118,141.56982
"2814",81.34402,141.58301
"2815",81.566185,141.59619
"2816",81.63943,141.60938
"2817",81.600365,141.62256
"2818",81.47341,141.63574
"2819",81.270775,141.64893
"2820",80.972916,141.66211
"2821",80.55543,141.6753
"2822",79.97681,141.68848
"2823",79.20531,141.70166
"2824",78.23117,141.71484
"2825",77.07393,141.72803
"2826",75.775085,141.74121
"2827",74.39567,141.7544
"2828",72.99916,141.76758
"2829",71.65148,141.78076
"2830",70.42344,141.79395
"2831",69.39315,141.80713
"2832",68.61677,141.82031
"2833",68.10651,141.8335
"2834",67.84039,141.84668
"2835",67.75983,141.85986
"2836",67.77692,141.87305
"2837",67.83795,141.88623
"2838",67.93317,141.89941
"2839",68.15289,141.9126
"2840",68.72907,141.92578
"2841",70.06943,141.93896
"2842",72.532845,141.95215
"2843",76.20477,141.96533
"2844",80.80202,141.97852
"2845",85.750824,141.9917
"2846",90.33585,142.00488
"2847",93.941864,142.01807
"2848",96.2588,142.03125
"2849",97.33791,142.04443
"2850",97.39895,142.05762
"2851",96.68116,142.0708
"2852",95.38232,142.08398
"2853",93.68795,142.09717
"2854",91.75189,142.11035
"2855",89.68154,142.12354
"2856",87.47448,142.13672
"2857",85.00374,142.1499
"2858",81.99588,142.16309
"2859",78.030975,142.17627
"2860",72.62318,142.18945
"2861",65.5259,142.20264
"2862",57.061417,142.21582
"2863",48.1648,142.229
"2864",40.195927,142.24219
"2865",34.58793,142.25537
"2866",32.280766,142.26855
"2867",33.213398,142.28174
"2868",36.33356,142.29492
"2869",40.08362,142.3081
"2870",43.057297,142.32129
"2871",44.468452,142.33447
"2872",44.383003,142.34766
"2873",43.45037,142.36084
"2874",42.412758,142.37402
"2875",41.70474,142.3872
"2876",41.389793,142.40039
"2877",41.314106,142.41357
"2878",41.30678,142.42676
"2879",41.328754,142.43994
"2880",41.497215,142.45312
"2881",41.951324,142.46631
"2882",42.713055,142.47949
"2883",43.709164,142.49268
"2884",44.85664,142.50586
"2885",46.113983,142.51904
"2886",47.483635,142.53223
"2887",48.992447,142.54541
"2888",50.662395,142.5586
"2889",52.469063,142.57178
"2890",54.353855,142.58496
"2891",56.25086,142.59814
"2892",58.10147,142.61133
"2893",59.866634,142.62451
"2894",61.519493,142.6377
"2895",63.050278,142.65088
"2896",64.43458,142.66406
"2897",65.65774,142.67725
"2898",66.65629,142.69043
"2899",67.32525,142.70361
"2900",67.73785,142.7168
"2901",68.16022,142.72998
"2902",68.97078,142.74316
"2903",70.589455,142.75635
"2904",73.43618,142.76953
"2905",77.72091,142.78271
"2906",83.245895,142.7959
"2907",89.46426,142.80908
"2908",95.66308,142.82227
"2909",101.100174,142.83545
"2910",105.12123,142.84863
"2911",107.37469,142.86182
"2912",107.84589,142.875
"2913",106.78874,142.88818
"2914",104.61829,142.90137
"2915",101.752045,142.91455
"2916",98.55619,142.92773
"2917",95.30663,142.94092
"2918",92.191345,142.9541
"2919",89.322655,142.96729
"2920",86.77623,142.98047
"2921",84.59113,142.99365
"2922",82.791794,143.00684
"2923",81.39773,143.02002
"2924",80.4065,143.0332
"2925",79.801025,143.04639
"2926",79.54467,143.05957
"2927",79.61059,143.07275
"2928",79.94507,143.08594
"2929",80.47486,143.09912
"2930",81.10475,143.1123
"2931",81.74441,143.12549
"2932",82.303505,143.13867
"2933",82.735634,143.15186
"2934",83.00908,143.16504
"2935",83.13359,143.17822
"2936",83.13359,143.1914
"2937",83.0457,143.20459
"2938",82.90166,143.21777
"2939",82.73319,143.23096
"2940",82.564735,143.24414
"2941",82.41825,143.25732
"2942",82.30839,143.27051
"2943",82.24002,143.28369
"2944",82.20828,143.29688
"2945",82.20584,143.31006
"2946",82.21805,143.32324
"2947",82.247345,143.33643
"2948",82.29862,143.34961
"2949",82.38651,143.3628
"2950",82.51591,143.37598
"2951",82.69413,143.38916
"2952",82.90654,143.40234
"2953",83.12627,143.41553
"2954",83.33379,143.42871
"2955",83.5169,143.4419
"2956",83.66094,143.45508
"2957",83.775696,143.46826
"2958",83.87091,143.48145
"2959",83.96124,143.49463
"2960",84.051575,143.50781
"2961",84.18341,143.521
"2962",84.44709,143.53418
"2963",85.02083,143.54736
"2964",86.27329,143.56055
"2965",88.70252,143.57373
"2966",92.65766,143.58691
"2967",98.041046,143.6001
"2968",104.274055,143.61328
"2969",110.399635,143.62646
"2970",115.35088,143.63965
"2971",118.30259,143.65283
"2972",118.97887,143.66602
"2973",117.63363,143.6792
"2974",114.811325,143.69238
"2975",111.09544,143.70557
"2976",107.01579,143.71875
"2977",102.92882,143.73193
"2978",99.06645,143.74512
"2979",95.536125,143.7583
"2980",92.384224,143.77148
"2981",89.61318,143.78467
"2982",87.23277,143.79785
"2983",85.25277,143.81104
"2984",83.702446,143.82422
"2985",82.58915,143.8374
"2986",81.91043,143.85059
"2987",81.636986,143.86377
"2988",81.722435,143.87695
"2989",82.09842,143.89014
"2990",82.667274,143.90332
"2991",83.3045,143.9165
"2992",83.86847,143.92969
"2993",84.24689,143.94287
"2994",84.349434,143.95605
"2995",84.16144,143.96924
"2996",83.702446,143.98242
"2997",83.0457,143.9956
"2998",82.269325,144.00879
"2999",81.45632,144.02197
"3000",80.66773,144.03516
"3001",79.94995,144.04834
"3002",79.3225,144.06152
"3003",78.79515,144.0747
"3004",78.36057,144.08789
"3005",78.00412,144.10107
"3006",77.72091,144.11426
"3007",77.506065,144.12744
"3008",77.349815,144.14062
"3009",77.24483,144.15381
"3010",77.18379,144.16699
"3011",77.16426,144.18018
"3012",77.17647,144.19336
"3013",77.20088,144.20654
"3014",77.225296,144.21973
"3015",77.24483,144.23291
"3016",77.281456,144.2461
"3017",77.40353,144.25928
"3018",77.77219,144.27246
"3019",78.73655,144.28564
"3020",80.82887,144.29883
"3021",84.51057,144.31201
"3022",89.87198,144.3252
"3023",96.45167,144.33838
"3024",103.34142,144.35156
"3025",109.38888,144.36475
"3026",113.600365,144.37793
"3027",115.47784,144.39111
"3028",115.104294,144.4043
"3029",112.92897,144.41748
"3030",109.53048,144.43066
"3031",105.445946,144.44385
"3032",101.09529,144.45703
"3033",96.798355,144.47021
"3034",92.76997,144.4834
"3035",89.12245,144.49658
"3036",85.88022,144.50977
"3037",83.0457,144.52295
"3038",80.60914,144.53613
"3039",78.58274,144.54932
"3040",76.98848,144.5625
"3041",75.862976,144.57568
"3042",75.21599,144.58887
"3043",75.028,144.60205
"3044",75.23796,144.61523
"3045",75.755554,144.62842
"3046",76.45869,144.6416
"3047",77.19112,144.65479
"3048",77.81125,144.66797
"3049",78.204315,144.68115
"3050",78.3093,144.69434
"3051",78.12131,144.70752
"3052",77.68917,144.7207
"3053",77.08858,144.73389
"3054",76.39765,144.74707
"3055",75.67742,144.76025
"3056",74.97673,144.77344
"3057",74.32731,144.78662
"3058",73.74868,144.7998
"3059",73.25063,144.81299
"3060",72.84535,144.82617
"3061",72.54017,144.83936
"3062",72.33509,144.85254
"3063",72.22766,144.86572
"3064",72.20813,144.8789
"3065",72.25941,144.89209
"3066",72.36439,144.90527
"3067",72.50111,144.91846
"3068",72.6598,144.93164
"3069",72.82826,144.94482
"3070",72.99916,144.95801
"3071",73.17738,144.97119
"3072",73.38003,144.98438
"3073",73.69009,144.99756
"3074",74.32731,145.01074
"3075",75.736015,145.02393
"3076",78.49485,145.03711
"3077",82.98222,145.0503
"3078",89.10536,145.06348
"3079",96.20752,145.07666
"3080",103.25353,145.08984
"3081",109.100784,145.10303
"3082",112.90944,145.11621
"3083",114.36698,145.1294
"3084",113.68093,145.14258
"3085",111.3225,145.15576
"3086",107.81659,145.16895
"3087",103.641716,145.18213
"3088",99.19829,145.19531
"3089",94.818344,145.2085
"3090",90.719154,145.22168
"3091",86.9984,145.23486
"3092",83.69024,145.24805
"3093",80.78737,145.26123
"3094",78.28733,145.27441
"3095",76.21454,145.2876
"3096",74.600746,145.30078
"3097",73.47524,145.31396
"3098",72.85268,145.32715
"3099",72.71107,145.34033
"3100",72.97719,145.35352
"3101",73.54604,145.3667
"3102",74.27116,145.37988
"3103",74.99382,145.39307
"3104",75.56756,145.40625
"3105",75.88739,145.41943
"3106",75.90204,145.43262
"3107",75.631035,145.4458
"3108",75.123215,145.45898
"3109",74.459145,145.47217
"3110",73.71694,145.48535
"3111",72.972305,145.49854
"3112",72.28138,145.51172
"3113",71.68078,145.5249
"3114",71.18761,145.53809
"3115",70.80675,145.55127
"3116",70.52842,145.56445
"3117",70.345314,145.57764
"3118",70.24521,145.59082
"3119",70.233,145.604
"3120",70.30381,145.61719
"3121",70.45518,145.63037
"3122",70.68955,145.64355
"3123",70.994736,145.65674
"3124",71.35607,145.66992
"3125",71.75159,145.6831
"3126",72.17151,145.69629
"3127",72.59876,145.70947
"3128",73.03334,145.72266
"3129",73.480125,145.73584
"3130",73.96109,145.74902
"3131",74.55436,145.7622
"3132",75.440605,145.77539
"3133",77.03975,145.78857
"3134",79.94507,145.80176
"3135",84.67414,145.81494
"3136",91.34417,145.82812
"3137",99.44732,145.84131
"3138",107.98016,145.85449
"3139",115.702446,145.86768
"3140",121.55215,145.88086
"3141",124.95552,145.89404
"3142",125.93454,145.90723
"3143",124.90181,145.92041
"3144",122.39933,145.9336
"3145",118.91295,145.94678
"3146",114.84306,145.95996
"3147",110.521706,145.97314
"3148",106.175934,145.98633
"3149",101.942474,145.99951
"3150",97.916534,146.0127
"3151",94.16647,146.02588
"3152",90.758224,146.03906
"3153",87.77478,146.05225
"3154",85.29183,146.06543
"3155",83.36553,146.07861
"3156",81.99832,146.0918
"3157",81.143814,146.10498
"3158",80.71168,146.11816
"3159",80.587166,146.13135
"3160",80.62379,146.14453
"3161",80.672615,146.15771
"3162",80.59693,146.1709
"3163",80.27955,146.18408
"3164",79.656975,146.19727
"3165",78.70481,146.21045
"3166",77.46212,146.22363
"3167",75.98505,146.23682
"3168",74.34196,146.25
"3169",72.601204,146.26318
"3170",70.8336,146.27637
"3171",69.11238,146.28955
"3172",67.50591,146.30273
"3173",66.075226,146.31592
"3174",64.86427,146.3291
"3175",63.91211,146.34229
"3176",63.23827,146.35547
"3177",62.83543,146.36865
"3178",62.671856,146.38184
"3179",62.691387,146.39502
"3180",62.808575,146.4082
"3181",62.94774,146.42139
"3182",63.077133,146.43457
"3183",63.199207,146.44775
"3184",63.338367,146.46094
"3185",63.5288,146.47412
"3186",63.792477,146.4873
"3187",64.131836,146.50049
"3188",64.53712,146.51367
"3189",65.0132,146.52686
"3190",65.567406,146.54004
"3191",66.194855,146.55322
"3192",66.87846,146.5664
"3193",67.61822,146.57959
"3194",68.46784,146.59277
"3195",69.66415,146.60596
"3196",71.724724,146.61914
"3197",75.299,146.63232
"3198",80.885025,146.64551
"3199",88.47059,146.65869
"3200",97.42092,146.67188
"3201",106.62516,146.68506
"3202",114.83086,146.69824
"3203",121.02724,146.71143
"3204",124.74067,146.72461
"3205",126.046844,146.7378
"3206",125.32418,146.75098
"3207",123.04875,146.76416
"3208",119.72106,146.77734
"3209",115.861145,146.79053
"3210",111.88403,146.80371
"3211",108.04364,146.8169
"3212",104.43763,146.83008
"3213",101.06111,146.84326
"3214",97.85794,146.85645
"3215",94.78172,146.86963
"3216",91.88861,146.88281
"3217",89.3373,146.896
"3218",87.2694,146.90918
"3219",85.74105,146.92236
"3220",84.754715,146.93555
"3221",84.25666,146.94873
"3222",84.11017,146.96191
"3223",84.08087,146.9751
"3224",83.90997,146.98828
"3225",83.35577,147.00146
"3226",82.25956,147.01465
"3227",80.58228,147.02783
"3228",78.41184,147.04102
"3229",75.911804,147.0542
"3230",73.270164,147.06738
"3231",70.63096,147.08057
"3232",68.07477,147.09375
"3233",65.64797,147.10693
"3234",63.384758,147.12012
"3235",61.32662,147.1333
"3236",59.53704,147.14648
"3237",58.08194,147.15967
"3238",57.005264,147.17285
"3239",56.292362,147.18604
"3240",55.909058,147.19922
"3241",55.804073,147.2124
"3242",55.91394,147.22559
"3243",56.143436,147.23877
"3244",56.409554,147.25195
"3245",56.653698,147.26514
"3246",56.82948,147.27832
"3247",56.905167,147.2915
"3248",56.89296,147.30469
"3249",56.844128,147.31787
"3250",56.807507,147.33105
"3251",56.841686,147.34424
"3252",57.005264,147.35742
"3253",57.342182,147.3706
"3254",57.89395,147.38379
"3255",58.6508,147.39697
"3256",59.546806,147.41016
"3257",60.489204,147.42334
"3258",61.397423,147.43652
"3259",62.261692,147.4497
"3260",63.260242,147.46289
"3261",64.83009,147.47607
"3262",67.62066,147.48926
"3263",72.22278,147.50244
"3264",78.82933,147.51562
"3265",87.03746,147.52881
"3266",95.89746,147.54199
"3267",104.181274,147.55518
"3268",110.78783,147.56836
"3269",115.106735,147.58154
"3270",117.09895,147.59473
"3271",117.10872,147.60791
"3272",115.60967,147.6211
"3273",113.00954,147.63428
"3274",109.59884,147.64746
"3275",105.59731,147.66064
"3276",101.21004,147.67383
"3277",96.654305,147.68701
"3278",92.120544,147.7002
"3279",87.799194,147.71338
"3280",83.8465,147.72656
"3281",80.42359,147.73975
"3282",77.66964,147.75293
"3283",75.701836,147.76611
"3284",74.56657,147.7793
"3285",74.229645,147.79248
"3286",74.58366,147.80566
"3287",75.47234,147.81885
"3288",76.73701,147.83203
"3289",78.21164,147.84521
"3290",79.72289,147.8584
"3291",81.08766,147.87158
"3292",82.127716,147.88477
"3293",82.71366,147.89795
"3294",82.80156,147.91113
"3295",82.408485,147.92432
"3296",81.61013,147.9375
"3297",80.516365,147.95068
"3298",79.256584,147.96387
"3299",77.92355,147.97705
"3300",76.578316,147.99023
"3301",75.228195,148.00342
"3302",73.85855,148.0166
"3303",72.4596,148.02979
"3304",71.080185,148.04297
"3305",69.8082,148.05615
"3306",68.74128,148.06934
"3307",67.95758,148.08252
"3308",67.46441,148.0957
"3309",67.23247,148.10889
"3310",67.20073,148.12207
"3311",67.30572,148.13525
"3312",67.508354,148.14844
"3313",67.76227,148.16162
"3314",68.03815,148.1748
"3315",68.367744,148.18799
"3316",68.95369,148.20117
"3317",70.24277,148.21436
"3318",72.84291,148.22754
"3319",77.22041,148.24072
"3320",83.404594,148.2539
"3321",90.82414,148.26709
"3322",98.47318,148.28027
"3323",105.20668,148.29346
"3324",110.1384,148.30664
"3325",112.87038,148.31982
"3326",113.497826,148.33301
"3327",112.41871,148.34619
"3328",110.099335,148.35938
"3329",106.969406,148.37256
"3330",103.38537,148.38574
"3331",99.66216,148.39893
"3332",96.024414,148.41211
"3333",92.57954,148.4253
"3334",89.30068,148.43848
"3335",86.117035,148.45166
"3336",82.97002,148.46484
"3337",79.888916,148.47803
"3338",77.00069,148.49121
"3339",74.512856,148.5044
"3340",72.66468,148.51758
"3341",71.63683,148.53076
"3342",71.49035,148.54395
"3343",72.13245,148.55713
"3344",73.35317,148.57031
"3345",74.8571,148.5835
"3346",76.32197,148.59668
"3347",77.43282,148.60986
"3348",77.97482,148.62305
"3349",77.86984,148.63623
"3350",77.16426,148.64941
"3351",75.98749,148.6626
"3352",74.51774,148.67578
"3353",72.91371,148.68896
"3354",71.292595,148.70215
"3355",69.712975,148.71533
"3356",68.21393,148.72852
"3357",66.82231,148.7417
"3358",65.55764,148.75488
"3359",64.43702,148.76807
"3360",63.458,148.78125
"3361",62.605934,148.79443
"3362",61.861294,148.80762
"3363",61.211872,148.8208
"3364",60.657665,148.83398
"3365",60.21088,148.84717
"3366",59.9057,148.86035
"3367",59.837337,148.87354
"3368",60.271915,148.88672
"3369",61.71481,148.8999
"3370",64.81056,148.91309
"3371",69.98398,148.92627
"3372",77.11543,148.93945
"3373",85.4432,148.95264
"3374",93.785614,148.96582
"3375",100.90486,148.979
"3376",105.92447,148.99219
"3377",108.5832,149.00537
"3378",109.17403,149.01855
"3379",108.23895,149.03174
"3380",106.27604,149.04492
"3381",103.67101,149.0581
"3382",100.70222,149.07129
"3383",97.57961,149.08447
"3384",94.44724,149.09766
"3385",91.40032,149.11084
"3386",88.48768,149.12402
"3387",85.71664,149.1372
"3388",83.10185,149.15039
"3389",80.70191,149.16357
"3390",78.61204,149.17676
"3391",76.9543,149.18994
"3392",75.85077,149.20312
"3393",75.372246,149.21631
"3394",75.508965,149.22949
"3395",76.14374,149.24268
"3396",77.10811,149.25586
"3397",78.19211,149.26904
"3398",79.18822,149.28223
"3399",79.92554,149.29541
"3400",80.31373,149.3086
"3401",80.31129,149.32178
"3402",79.92798,149.33496
"3403",79.18822,149.34814
"3404",78.116425,149.36133
"3405",76.756546,149.37451
"3406",75.18669,149.3877
"3407",73.49966,149.40088
"3408",71.81018,149.41406
"3409",70.21835,149.42725
"3410",68.81453,149.44043
"3411",67.647514,149.45361
"3412",66.71488,149.4668
"3413",65.97513,149.47998
"3414",65.36233,149.49316
"3415",64.798355,149.50635
"3416",64.28809,149.51953
"3417",64.05615,149.53271
"3418",64.64454,149.5459
"3419",66.73441,149.55908
"3420",70.77745,149.57227
"3421",76.66865,149.58545
"3422",83.70489,149.59863
"3423",90.794846,149.61182
"3424",96.82765,149.625
"3425",101.05379,149.63818
"3426",103.28283,149.65137
"3427",103.79553,149.66455
"3428",103.026474,149.67773
"3429",101.35165,149.69092
"3430",99.054245,149.7041
"3431",96.358894,149.71729
"3432",93.434044,149.73047
"3433",90.39445,149.74365
"3434",87.30114,149.75684
"3435",84.19806,149.77002
"3436",81.13161,149.7832
"3437",78.20187,149.79639
"3438",75.543144,149.80957
"3439",73.321434,149.82275
"3440",71.67101,149.83594
"3441",70.66758,149.84912
"3442",70.30137,149.8623
"3443",70.51377,149.87549
"3444",71.19737,149.88867
"3445",72.22766,149.90186
"3446",73.48501,149.91504
"3447",74.84245,149.92822
"3448",76.16327,149.9414
"3449",77.30831,149.95459
"3450",78.153046,149.96777
"3451",78.6096,149.98096
"3452",78.63889,149.99414
"3453",78.27512,150.00732
"3454",77.58419,150.02051
"3455",76.66621,150.03369
"3456",75.60418,150.04688
"3457",74.44938,150.06006
"3458",73.196915,150.07324
"3459",71.82971,150.08643
"3460",70.33555,150.09961
"3461",68.74128,150.1128
"3462",67.105515,150.12598
"3463",65.530785,150.13916
"3464",64.12451,150.15234
"3465",63.008774,150.16553
"3466",62.383766,150.17871
"3467",62.691387,150.1919
"3468",64.542,150.20508
"3469",68.43366,150.21826
"3470",74.35172,150.23145
"3471",81.67361,150.24463
"3472",89.31777,150.25781
"3473",96.07324,150.271
"3474",101.00496,150.28418
"3475",103.77112,150.29736
"3476",104.603645,150.31055
"3477",104.00305,150.32373
"3478",102.435646,150.33691
"3479",100.2359,150.3501
"3480",97.64553,150.36328
"3481",94.85008,150.37646
"3482",91.983826,150.38965
"3483",89.13466,150.40283
"3484",86.33921,150.41602
"3485",83.60235,150.4292
"3486",80.93385,150.44238
"3487",78.37278,150.45557
"3488",76.00702,150.46875
"3489",73.96353,150.48193
"3490",72.3888,150.49512
"3491",71.40246,150.5083
"3492",71.05577,150.52148
"3493",71.343864,150.53467
"3494",72.17639,150.54785
"3495",73.375145,150.56104
"3496",74.6984,150.57422
"3497",75.894714,150.5874
"3498",76.74433,150.60059
"3499",77.117874,150.61377
"3500",76.97627,150.62695
"3501",76.3708,150.64014
"3502",75.39422,150.65332
"3503",74.14664,150.6665
"3504",72.71595,150.67969
"3505",71.18028,150.69287
"3506",69.59579,150.70605
"3507",68.00397,150.71924
"3508",66.441444,150.73242
"3509",64.9424,150.7456
"3510",63.54589,150.75879
"3511",62.300755,150.77197
"3512",61.24605,150.78516
"3513",60.435493,150.79834
"3514",59.893494,150.81152
"3515",59.62005,150.8247
"3516",59.598076,150.83789
"3517",59.83978,150.85107
"3518",60.51362,150.86426
"3519",62.0737,150.87744
"3520",65.15236,150.89062
"3521",70.1915,150.90381
"3522",77.083694,150.91699
"3523",85.101395,150.93018
"3524",93.10933,150.94336
"3525",99.930725,150.95654
"3526",104.73548,150.96973
"3527",107.29168,150.98291
"3528",107.90936,150.9961
"3529",107.089035,151.00928
"3530",105.270164,151.02246
"3531",102.75548,151.03564
"3532",99.80621,151.04883
"3533",96.62989,151.06201
"3534",93.385216,151.0752
"3535",90.17471,151.08838
"3536",87.07652,151.10156
"3537",84.14679,151.11475
"3538",81.45632,151.12793
"3539",79.097885,151.14111
"3540",77.19112,151.1543
"3541",75.86542,151.16748
"3542",75.18913,151.18066
"3543",75.140305,151.19385
"3544",75.596855,151.20703
"3545",76.368355,151.22021
"3546",77.24483,151.2334
"3547",78.02365,151.24658
"3548",78.553444,151.25977
"3549",78.73899,151.27295
"3550",78.54368,151.28613
"3551",77.98947,151.29932
"3552",77.12764,151.3125
"3553",76.033875,151.32568
"3554",74.77409,151.33887
"3555",73.38491,151.35205
"3556",71.905396,151.36523
"3557",70.38926,151.37842
"3558",68.89998,151.3916
"3559",67.508354,151.40479
"3560",66.29984,151.41797
"3561",65.33791,151.43115
"3562",64.66407,151.44434
"3563",64.26856,151.45752
"3564",64.12451,151.4707
"3565",64.1709,151.48389
"3566",64.31739,151.49707
"3567",64.47608,151.51025
"3568",64.58106,151.52344
"3569",64.61524,151.53662
"3570",64.585945,151.5498
"3571",64.500496,151.56299
"3572",64.375984,151.57617
"3573",64.21484,151.58936
"3574",64.00488,151.60254
"3575",63.73144,151.61572
"3576",63.40429,151.6289
"3577",63.09178,151.64209
"3578",63.016098,151.65527
"3579",63.663082,151.66846
"3580",65.77249,151.68164
"3581",70.0206,151.69482
"3582",76.57343,151.70801
"3583",84.88411,151.72119
"3584",93.81247,151.73438
"3585",101.996185,151.74756
"3586",108.2707,151.76074
"3587",112.08911,151.77393
"3588",113.566185,151.78711
"3589",113.21217,151.8003
"3590",111.571526,151.81348
"3591",109.08858,151.82666
"3592",106.0856,151.83984
"3593",102.801865,151.85303
"3594",99.386284,151.86621
"3595",95.91943,151.8794
"3596",92.42817,151.89258
"3597",88.9247,151.90576
"3598",85.47738,151.91895
"3599",82.22049,151.93213
"3600",79.34936,151.94531
"3601",77.07149,151.9585
"3602",75.53826,151.97168
"3603",74.78142,151.98486
"3604",74.71305,151.99805
"3605",75.17204,152.01123
"3606",75.93622,152.02441
"3607",76.788284,152.0376
"3608",77.54757,152.05078
"3609",78.08713,152.06396
"3610",78.348366,152.07715
"3611",78.32639,152.09033
"3612",78.06271,152.10352
"3613",77.608604,152.1167
"3614",76.9836,152.12988
"3615",76.16815,152.14307
"3616",75.15251,152.15625
"3617",73.93912,152.16943
"3618",72.57679,152.18262
"3619",71.14122,152.1958
"3620",69.73495,152.20898
"3621",68.45319,152.22217
"3622",67.369194,152.23535
"3623",66.52445,152.24854
"3624",65.933624,152.26172
"3625",65.56985,152.2749
"3626",65.38186,152.28809
"3627",65.29397,152.30127
"3628",65.230484,152.31445
"3629",65.1548,152.32764
"3630",65.093765,152.34082
"3631",65.127945,152.354
"3632",65.3428,152.36719
"3633",65.794464,152.38037
"3634",66.46586,152.39355
"3635",67.27642,152.40674
"3636",68.10162,152.41992
"3637",68.81941,152.4331
"3638",69.34432,152.44629
"3639",69.63729,152.45947
"3640",69.698326,152.47266
"3641",69.58114,152.48584
"3642",69.49081,152.49902
"3643",69.91562,152.5122
"3644",71.58556,152.52539
"3645",75.21843,152.53857
"3646",81.0901,152.55176
"3647",88.76845,152.56494
"3648",97.19142,152.57812
"3649",105.00893,152.59131
"3650",111.027084,152.60449
"3651",114.58671,152.61768
"3652",115.682915,152.63086
"3653",114.735634,152.64404
"3654",112.27955,152.65723
"3655",108.76143,152.67041
"3656",104.549934,152.6836
"3657",99.9527,152.69678
"3658",95.218735,152.70996
"3659",90.51408,152.72314
"3660",85.91196,152.73633
"3661",81.446556,152.74951
"3662",77.17647,152.7627
"3663",73.231094,152.77588
"3664",69.82773,152.78906
"3665",67.20805,152.80225
"3666",65.57229,152.81543
"3667",64.99367,152.82861
"3668",65.40383,152.8418
"3669",66.60258,152.85498
"3670",68.31403,152.86816
"3671",70.24521,152.88135
"3672",72.14221,152.89453
"3673",73.795074,152.90771
"3674",75.0573,152.9209
"3675",75.880066,152.93408
"3676",76.28535,152.94727
"3677",76.34394,152.96045
"3678",76.12665,152.97363
"3679",75.701836,152.98682
"3680",75.10368,153
"3681",74.35905,153.01318
"3682",73.48989,153.02637
"3683",72.54261,153.03955
"3684",71.57824,153.05273
"3685",70.640724,153.06592
"3686",69.771576,153.0791
"3687",68.99031,153.09229
"3688",68.32136,153.10547
"3689",67.81354,153.11865
"3690",67.525444,153.13184
"3691",67.491264,153.14502
"3692",67.70611,153.1582
"3693",68.13092,153.17139
"3694",68.69001,153.18457
"3695",69.30526,153.19775
"3696",69.91806,153.21094
"3697",70.484474,153.22412
"3698",70.992294,153.2373
"3699",71.47082,153.25049
"3700",72.09338,153.26367
"3701",73.27749,153.27686
"3702",75.65545,153.29004
"3703",79.85474,153.30322
"3704",86.09506,153.3164
"3705",93.93698,153.32959
"3706",102.3502,153.34277
"3707",110.030975,153.35596
"3708",115.81476,153.36914
"3709",119.05943,153.38232
"3710",119.75037,153.39551
"3711",118.31724,153.40869
"3712",115.3045,153.42188
"3713",111.183334,153.43506
"3714",106.3444,153.44824
"3715",101.102615,153.46143
"3716",95.72167,153.47461
"3717",90.406654,153.4878
"3718",85.32357,153.50098
"3719",80.6067,153.51416
"3720",76.385445,153.52734
"3721",72.79408,153.54053
"3722",69.98154,153.55371
"3723",68.069885,153.5669
"3724",67.13237,153.58008
"3725",67.17143,153.59326
"3726",68.104065,153.60645
"3727",69.752045,153.61963
"3728",71.854126,153.63281
"3729",74.10025,153.646
"3730",76.1828,153.65918
"3731",77.84299,153.67236
"3732",78.91478,153.68555
"3733",79.33715,153.69873
"3734",79.13939,153.71191
"3735",78.41428,153.7251
"3736",77.281456,153.73828
"3737",75.85321,153.75146
"3738",74.251625,153.76465
"3739",72.586555,153.77783
"3740",70.95567,153.79102
"3741",69.42977,153.8042
"3742",68.050354,153.81738
"3743",66.82475,153.83057
"3744",65.74807,153.84375
"3745",64.81789,153.85693
"3746",64.05371,153.87012
"3747",63.484856,153.8833
"3748",63.157703,153.89648
"3749",63.099106,153.90967
"3750",63.313953,153.92285
"3751",63.76562,153.93604
"3752",64.40528,153.94922
"3753",65.16701,153.9624
"3754",65.987335,153.97559
"3755",66.85161,153.98877
"3756",67.879456,154.00195
"3757",69.45907,154.01514
"3758",72.232544,154.02832
"3759",76.86397,154.0415
"3760",83.631645,154.05469
"3761",92.16449,154.06787
"3762",101.46395,154.08105
"3763",110.184784,154.09424
"3764",117.101395,154.10742
"3765",121.48379,154.1206
"3766",123.23918,154.13379
"3767",122.72404,154.14697
"3768",120.446175,154.16016
"3769",116.83772,154.17334
"3770",112.24048,154.18652
"3771",106.98894,154.1997
"3772",101.41024,154.21289
"3773",95.819336,154.22607
"3774",90.50187,154.23926
"3775",85.68734,154.25244
"3776",81.514915,154.26562
"3777",78.0676,154.27881
"3778",75.37469,154.29199
"3779",73.43862,154.30518
"3780",72.22034,154.31836
"3781",71.656364,154.33154
"3782",71.658806,154.34473
"3783",72.11536,154.35791
"3784",72.884415,154.3711
"3785",73.80972,154.38428
"3786",74.72282,154.39746
"3787",75.457695,154.41064
"3788",75.8703,154.42383
"3789",75.88251,154.43701
"3790",75.491875,154.4502
"3791",74.77409,154.46338
"3792",73.8439,154.47656
"3793",72.8307,154.48975
"3794",71.837036,154.50293
"3795",70.92149,154.51611
"3796",70.10361,154.5293
"3797",69.383385,154.54248
"3798",68.74128,154.55566
"3799",68.174866,154.56885
"3800",67.71343,154.58203
"3801",67.41314,154.59521
"3802",67.3106,154.6084
"3803",67.42046,154.62158
"3804",67.73052,154.63477
"3805",68.18707,154.64795
"3806",68.71931,154.66113
"3807",69.26864,154.67432
"3808",69.84482,154.6875
"3809",70.643166,154.70068
"3810",72.16174,154.71387
"3811",75.140305,154.72705
"3812",80.24048,154.74023
"3813",87.58434,154.75342
"3814",96.54688,154.7666
"3815",105.88785,154.77979
"3816",114.14725,154.79297
"3817",120.11902,154.80615
"3818",123.23918,154.81934
"3819",123.65179,154.83252
"3820",121.901276,154.8457
"3821",118.588234,154.85889
"3822",114.18631,154.87207
"3823",109.08858,154.88525
"3824",103.639275,154.89844
"3825",98.13138,154.91162
"3826",92.80904,154.9248
"3827",87.84558,154.93799
"3828",83.35577,154.95117
"3829",79.412834,154.96436
"3830",76.09491,154.97754
"3831",73.48501,154.99072
"3832",71.6881,155.0039
"3833",70.7628,155.01709
"3834",70.71885,155.03027
"3835",71.47082,155.04346
"3836",72.84779,155.05664
"3837",74.60807,155.06982
"3838",76.46845,155.08301
"3839",78.14816,155.09619
"3840",79.42504,155.10938
"3841",80.15747,155.12256
"3842",80.308846,155.13574
"3843",79.91821,155.14893
"3844",79.07347,155.16211
"3845",77.8967,155.1753
"3846",76.50507,155.18848
"3847",75.01335,155.20166
"3848",73.52651,155.21484
"3849",72.15198,155.22803
"3850",70.98009,155.24121
"3851",70.064545,155.2544
"3852",69.43221,155.26758
"3853",69.065994,155.28076
"3854",68.9073,155.29395
"3855",68.86336,155.30713
"3856",68.83406,155.32031
"3857",68.75105,155.3335
"3858",68.65095,155.34668
"3859",68.841385,155.35986
"3860",69.97177,155.37305
"3861",72.84291,155.38623
"3862",77.97238,155.39941
"3863",85.22835,155.4126
"3864",93.72213,155.42578
"3865",102.07431,155.43896
"3866",108.86153,155.45215
"3867",113.126724,155.46533
"3868",114.60868,155.47852
"3869",113.6614,155.4917
"3870",110.87816,155.50488
"3871",106.810715,155.51807
"3872",101.88388,155.53125
"3873",96.46876,155.54443
"3874",90.87053,155.55762
"3875",85.36019,155.5708
"3876",80.16235,155.58398
"3877",75.45037,155.59717
"3878",71.360954,155.61035
"3879",68.018616,155.62354
"3880",65.52834,155.63672
"3881",63.956055,155.6499
"3882",63.32616,155.66309
"3883",63.61425,155.67627
"3884",64.72755,155.68945
"3885",66.52201,155.70264
"3886",68.795,155.71582
"3887",71.29992,155.729
"3888",73.7731,155.74219
"3889",75.96307,155.75537
"3890",77.67452,155.76855
"3891",78.802475,155.78174
"3892",79.34692,155.79492
"3893",79.36889,155.8081
"3894",78.97337,155.82129
"3895",78.2678,155.83447
"3896",77.35958,155.84766
"3897",76.32929,155.86084
"3898",75.24284,155.87402
"3899",74.144196,155.8872
"3900",73.077286,155.90039
"3901",72.08118,155.91357
"3902",71.17784,155.92676
"3903",70.37705,155.93994
"3904",69.65438,155.95312
"3905",68.97322,155.96631
"3906",68.31892,155.97949
"3907",67.76959,155.99268
"3908",67.632866,156.00586
"3909",68.526436,156.01904
"3910",71.22179,156.03223
"3911",76.21454,156.04541
"3912",83.34844,156.0586
"3913",91.73968,156.07178
"3914",100.03815,156.08496
"3915",106.85466,156.09814
"3916",111.219955,156.11133
"3917",112.86061,156.12451
"3918",112.08667,156.1377
"3919",109.45724,156.15088
"3920",105.48501,156.16406
"3921",100.575264,156.17725
"3922",95.082016,156.19043
"3923",89.3373,156.20361
"3924",83.63897,156.2168
"3925",78.24826,156.22998
"3926",73.36538,156.24316
"3927",69.14412,156.25635
"3928",65.687035,156.26953
"3929",63.064926,156.28271
"3930",61.316853,156.2959
"3931",60.4477,156.30908
"3932",60.420845,156.32227
"3933",61.15816,156.33545
"3934",62.52781,156.34863
"3935",64.35157,156.36182
"3936",66.39506,156.375
"3937",68.41169,156.38818
"3938",70.17197,156.40137
"3939",71.505,156.41455
"3940",72.33997,156.42773
"3941",72.68177,156.44092
"3942",72.61097,156.4541
"3943",72.23987,156.46729
"3944",71.70031,156.48047
"3945",71.097275,156.49365
"3946",70.50889,156.50684
"3947",69.97421,156.52002
"3948",69.50301,156.5332
"3949",69.07576,156.54639
"3950",68.67048,156.55957
"3951",68.282295,156.57275
"3952",67.9234,156.58594
"3953",67.62798,156.59912
"3954",67.43511,156.6123
"3955",67.371635,156.62549
"3956",67.44244,156.63867
"3957",67.63531,156.65186
"3958",67.9234,156.66504
"3959",68.282295,156.67822
"3960",68.70954,156.6914
"3961",69.315025,156.70459
"3962",70.47471,156.71777
"3963",72.86,156.73096
"3964",77.23262,156.74414
"3965",83.97101,156.75732
"3966",92.70161,156.77051
"3967",102.3209,156.78369
"3968",111.30785,156.79688
"3969",118.22446,156.81006
"3970",122.213776,156.82324
"3971",123.212326,156.83643
"3972",121.73525,156.84961
"3973",118.46372,156.8628
"3974",113.951935,156.87598
"3975",108.60273,156.88916
"3976",102.74326,156.90234
"3977",96.66895,156.91553
"3978",90.65324,156.92871
"3979",84.9427,156.9419
"3980",79.75464,156.95508
"3981",75.24284,156.96826
"3982",71.52453,156.98145
"3983",68.6778,156.99463
"3984",66.75151,157.00781
"3985",65.7554,157.021
"3986",65.66262,157.03418
"3987",66.407265,157.04736
"3988",67.862366,157.06055
"3989",69.83261,157.07373
"3990",72.061646,157.08691
"3991",74.25895,157.1001
"3992",76.14862,157.11328
"3993",77.53536,157.12646
"3994",78.331276,157.13965
"3995",78.57053,157.15283
"3996",78.345924,157.16602
"3997",77.786835,157.1792
"3998",77.015335,157.19238
"3999",76.13641,157.20557
"4000",75.211105,157.21875
"4001",74.29313,157.23193
"4002",73.42153,157.24512
"4003",72.620735,157.2583
"4004",71.89807,157.27148
"4005",71.26818,157.28467
"4006",70.73594,157.29785
"4007",70.30381,157.31104
"4008",69.979095,157.32422
"4009",69.76669,157.3374
"4010",69.68368,157.35059
"4011",69.730064,157.36377
"4012",69.90585,157.37695
"4013",70.186615,157.39014
"4014",70.54307,157.40332
"4015",70.923935,157.4165
"4016",71.29015,157.42969
"4017",71.61486,157.44287
"4018",71.88342,157.45605
"4019",72.09827,157.46924
"4020",72.342415,157.48242
"4021",72.903946,157.4956
"4022",74.371254,157.50879
"4023",77.506065,157.52197
"4024",82.862595,157.53516
"4025",90.389565,157.54834
"4026",99.29839,157.56152
"4027",108.263374,157.5747
"4028",115.85626,157.58789
"4029",121.039444,157.60107
"4030",123.45159,157.61426
"4031",123.35638,157.62744
"4032",121.31045,157.64062
"4033",117.858246,157.65381
"4034",113.42214,157.66699
"4035",108.34638,157.68018
"4036",102.941025,157.69336
"4037",97.48928,157.70654
"4038",92.225525,157.71973
"4039",87.31823,157.73291
"4040",82.879684,157.7461
"4041",78.98314,157.75928
"4042",75.69207,157.77246
"4043",73.08949,157.78564
"4044",71.27795,157.79883
"4045",70.345314,157.81201
"4046",70.32334,157.8252
"4047",71.13878,157.83838
"4048",72.603645,157.85156
"4049",74.43717,157.86475
"4050",76.3122,157.87793
"4051",77.93332,157.89111
"4052",79.10033,157.9043
"4053",79.72045,157.91748
"4054",79.81323,157.93066
"4055",79.44457,157.94385
"4056",78.72434,157.95703
"4057",77.75998,157.97021
"4058",76.63935,157.9834
"4059",75.440605,157.99658
"4060",74.22232,158.00977
"4061",73.0309,158.02295
"4062",71.89807,158.03613
"4063",70.84581,158.04932
"4064",69.89609,158.0625
"4065",69.07088,158.07568
"4066",68.38239,158.08887
"4067",67.83795,158.10205
"4068",67.42779,158.11523
"4069",67.12749,158.12842
"4070",66.90776,158.1416
"4071",66.74418,158.15479
"4072",66.6099,158.16797
"4073",66.50736,158.18115
"4074",66.443886,158.19434
"4075",66.45121,158.20752
"4076",66.546425,158.2207
"4077",66.75151,158.23389
"4078",67.05913,158.24707
"4079",67.46929,158.26025
"4080",67.9527,158.27344
"4081",68.48493,158.28662
"4082",69.034256,158.2998
"4083",69.56161,158.31299
"4084",70.05478,158.32617
"4085",70.606544,158.33936
"4086",71.55627,158.35254
"4087",73.5436,158.36572
"4088",77.313194,158.3789
"4089",83.29717,158.39209
"4090",91.25872,158.40527
"4091",100.25788,158.41846
"4092",108.944534,158.43164
"4093",115.99542,158.44482
"4094",120.55848,158.45801
"4095",122.460365,158.47119
"4096",122.05997,158.48438
"4097",119.887085,158.49756
"4098",116.40559,158.51074
"4099",111.94995,158.52393
"4100",106.81804,158.53711
"4101",101.295494,158.5503
"4102",95.64843,158.56348
"4103",90.125885,158.57666
"4104",84.9305,158.58984
"4105",80.235596,158.60303
"4106",76.17792,158.61621
"4107",72.88197,158.6294
"4108",70.44785,158.64258
"4109",68.95613,158.65576
"4110",68.43122,158.66895
"4111",68.81209,158.68213
"4112",69.94736,158.69531
"4113",71.59289,158.7085
"4114",73.44839,158.72168
"4115",75.23064,158.73486
"4116",76.717476,158.74805
"4117",77.77463,158.76123
"4118",78.37034,158.77441
"4119",78.54124,158.7876
"4120",78.35325,158.80078
"4121",77.855194,158.81396
"4122",77.08858,158.82715
"4123",76.09003,158.84033
"4124",74.898605,158.85352
"4125",73.56069,158.8667
"4126",72.13977,158.87988
"4127",70.70664,158.89307
"4128",69.33456,158.90625
"4129",68.08453,158.91943
"4130",66.99321,158.93262
"4131",66.09476,158.9458
"4132",65.391624,158.95898
"4133",64.883804,158.97217
"4134",64.56397,158.98535
"4135",64.41505,158.99854
"4136",64.40528,159.01172
"4137",64.500496,159.0249
"4138",64.66163,159.03809
"4139",64.85939,159.05127
"4140",65.08644,159.06445
"4141",65.36233,159.07764
"4142",65.70901,159.09082
"4143",66.14114,159.104
"4144",66.67582,159.11719
"4145",67.31548,159.13037
"4146",68.04791,159.14355
"4147",68.85359,159.15674
"4148",69.68856,159.16992
"4149",70.49668,159.1831
"4150",71.2462,159.19629
"4151",72.01282,159.20947
"4152",73.109024,159.22266
"4153",75.157394,159.23584
"4154",78.89281,159.24902
"4155",84.75227,159.2622
"4156",92.523384,159.27539
"4157",101.295494,159.28857
"4158",109.74288,159.30176
"4159",116.559395,159.31494
"4160",120.902725,159.32812
"4161",122.599525,159.34131
"4162",122.02579,159.35449
"4163",119.73327,159.36768
"4164",116.18585,159.38086
"4165",111.710686,159.39404
"4166",106.56657,159.40723
"4167",100.997635,159.42041
"4168",95.25048,159.4336
"4169",89.57412,159.44678
"4170",84.19806,159.45996
"4171",79.33227,159.47314
"4172",75.1281,159.48633
"4173",71.710075,159.49951
"4174",69.153885,159.5127
"4175",67.51812,159.52588
"4176",66.827194,159.53906
"4177",67.06889,159.55225
"4178",68.15289,159.56543
"4179",69.910736,159.57861
"4180",72.078735,159.5918
"4181",74.339516,159.60498
"4182",76.40009,159.61816
"4183",78.0676,159.63135
"4184",79.26635,159.64453
"4185",80.0061,159.65771
"4186",80.34791,159.6709
"4187",80.35035,159.68408
"4188",80.042725,159.69727
"4189",79.43725,159.71045
"4190",78.52903,159.72363
"4191",77.35226,159.73682
"4192",75.95575,159.75
"4193",74.41764,159.76318
"4194",72.84291,159.77637
"4195",71.33166,159.78955
"4196",69.97177,159.80273
"4197",68.81697,159.81592
"4198",67.879456,159.8291
"4199",67.14946,159.84229
"4200",66.614784,159.85547
"4201",66.27299,159.86865
"4202",66.1387,159.88184
"4203",66.22659,159.89502
"4204",66.54398,159.9082
"4205",67.0811,159.92139
"4206",67.77692,159.93457
"4207",68.558174,159.94775
"4208",69.32479,159.96094
"4209",69.98642,159.97412
"4210",70.486916,159.9873
"4211",70.80675,160.00049
"4212",70.975204,160.01367
"4213",71.03868,160.02686
"4214",71.0753,160.04004
"4215",71.29992,160.05322
"4216",72.19104,160.0664
"4217",74.459145,160.07959
"4218",78.77318,160.09277
"4219",85.27718,160.10596
"4220",93.399864,160.11914
"4221",101.96933,160.13232
"4222",109.63058,160.14551
"4223",115.25811,160.15869
"4224",118.34409,160.17188
"4225",119.05211,160.18506
"4226",117.93149,160.19824
"4227",115.53155,160.21143
"4228",112.255135,160.22461
"4229",108.39765,160.2378
"4230",104.21057,160.25098
"4231",99.88922,160.26416
"4232",95.570305,160.27734
"4233",91.334404,160.29053
"4234",87.24742,160.30371
"4235",83.36065,160.3169
"4236",79.74731,160.33008
"4237",76.53193,160.34326
"4238",73.89273,160.35645
"4239",72.025024,160.36963
"4240",71.09972,160.38281
"4241",71.21202,160.396
"4242",72.33021,160.40918
"4243",74.268715,160.42236
"4244",76.72724,160.43555
"4245",79.33227,160.44873
"4246",81.71267,160.46191
"4247",83.56817,160.4751
"4248",84.72297,160.48828
"4249",85.13069,160.50146
"4250",84.840164,160.51465
"4251",83.96857,160.52783
"4252",82.64042,160.54102
"4253",80.96315,160.5542
"4254",79.01732,160.56738
"4255",76.895706,160.58057
"4256",74.686195,160.59375
"4257",72.50355,160.60693
"4258",70.47471,160.62012
"4259",68.71931,160.6333
"4260",67.300835,160.64648
"4261",66.20462,160.65967
"4262",65.37209,160.67285
"4263",64.722664,160.68604
"4264",64.20752,160.69922
"4265",63.826656,160.7124
"4266",63.665524,160.72559
"4267",63.838863,160.73877
"4268",64.43702,160.75195
"4269",65.41848,160.76514
"4270",66.64408,160.77832
"4271",67.93317,160.7915
"4272",69.13435,160.80469
"4273",70.1207,160.81787
"4274",70.801865,160.83105
"4275",71.13878,160.84424
"4276",71.1461,160.85742
"4277",70.92149,160.8706
"4278",70.7921,160.88379
"4279",71.42199,160.89697
"4280",73.636375,160.91016
"4281",78.02609,160.92334
"4282",84.56916,160.93652
"4283",92.52094,160.9497
"4284",100.65583,160.96289
"4285",107.65545,160.97607
"4286",112.57252,160.98926
"4287",115.09697,161.00244
"4288",115.4876,161.01562
"4289",114.27909,161.02881
"4290",111.95239,161.04199
"4291",108.8542,161.05518
"4292",105.196915,161.06836
"4293",101.13191,161.08154
"4294",96.79103,161.09473
"4295",92.29145,161.10791
"4296",87.745476,161.1211
"4297",83.27032,161.13428
"4298",79.012436,161.14746
"4299",75.140305,161.16064
"4300",71.851685,161.17383
"4301",69.337,161.18701
"4302",67.75983,161.2002
"4303",67.20073,161.21338
"4304",67.613335,161.22656
"4305",68.807205,161.23975
"4306",70.49424,161.25293
"4307",72.35218,161.26611
"4308",74.10025,161.2793
"4309",75.52361,161.29248
"4310",76.50507,161.30566
"4311",77.02022,161.31885
"4312",77.09102,161.33203
"4313",76.75899,161.34521
"4314",76.085144,161.3584
"4315",75.125656,161.37158
"4316",73.94888,161.38477
"4317",72.63538,161.39795
"4318",71.27062,161.41113
"4319",69.95712,161.42432
"4320",68.787674,161.4375
"4321",67.83307,161.45068
"4322",67.1104,161.46387
"4323",66.61234,161.47705
"4324",66.29496,161.49023
"4325",66.09476,161.50342
"4326",65.97757,161.5166
"4327",65.936066,161.52979
"4328",65.98978,161.54297
"4329",66.160675,161.55615
"4330",66.46342,161.56934
"4331",66.8687,161.58252
"4332",67.337456,161.5957
"4333",67.862366,161.60889
"4334",68.58015,161.62207
"4335",69.89365,161.63525
"4336",72.45228,161.64844
"4337",76.859085,161.66162
"4338",83.243454,161.6748
"4339",91.090256,161.68799
"4340",99.34478,161.70117
"4341",106.757,161.71436
"4342",112.27711,161.72754
"4343",115.38262,161.74072
"4344",116.18097,161.7539
"4345",115.123825,161.76709
"4346",112.72144,161.78027
"4347",109.347374,161.79346
"4348",105.289696,161.80664
"4349",100.7657,161.81982
"4350",95.938965,161.83301
"4351",90.95598,161.84619
"4352",85.96567,161.85938
"4353",81.129166,161.87256
"4354",76.629585,161.88574
"4355",72.66468,161.89893
"4356",69.43221,161.91211
"4357",67.09819,161.9253
"4358",65.777374,161.93848
"4359",65.49905,161.95166
"4360",66.18265,161.96484
"4361",67.65972,161.97803
"4362",69.70077,161.99121
"4363",72.03723,162.0044
"4364",74.39811,162.01758
"4365",76.53925,162.03076
"4366",78.25315,162.04395
"4367",79.40063,162.05713
"4368",79.920654,162.07031
"4369",79.84009,162.0835
"4370",79.24681,162.09668
"4371",78.26292,162.10986
"4372",77.02998,162.12305
"4373",75.667656,162.13623
"4374",74.2736,162.14941
"4375",72.92592,162.1626
"4376",71.673454,162.17578
"4377",70.54307,162.18896
"4378",69.559166,162.20215
"4379",68.7364,162.21533
"4380",68.07965,162.22852
"4381",67.60845,162.2417
"4382",67.335014,162.25488
"4383",67.25445,162.26807
"4384",67.337456,162.28125
"4385",67.523,162.29443
"4386",67.74273,162.30762
"4387",67.93561,162.3208
"4388",68.10895,162.33398
"4389",68.40681,162.34717
"4390",69.23445,162.36035
"4391",71.2633,162.37354
"4392",75.191574,162.38672
"4393",81.28298,162.3999
"4394",89.112686,162.41309
"4395",97.64065,162.42627
"4396",105.55825,162.43945
"4397",111.676506,162.45264
"4398",115.34112,162.46582
"4399",116.58381,162.479
"4400",115.87335,162.49219
"4401",113.75174,162.50537
"4402",110.624245,162.51855
"4403",106.77898,162.53174
"4404",102.42588,162.54492
"4405",97.740746,162.5581
"4406",92.894485,162.57129
"4407",88.06775,162.58447
"4408",83.455864,162.59766
"4409",79.259026,162.61084
"4410",75.67742,162.62402
"4411",72.89418,162.6372
"4412",71.05333,162.65039
"4413",70.233,162.66357
"4414",70.42588,162.67676
"4415",71.53918,162.68994
"4416",73.40444,162.70312
"4417",75.78241,162.71631
"4418",78.40696,162.72949
"4419",81.01198,162.74268
"4420",83.34356,162.75586
"4421",85.20149,162.76904
"4422",86.44419,162.78223
"4423",87.00816,162.79541
"4424",86.88121,162.8086
"4425",86.12924,162.82178
"4426",84.85237,162.83496
"4427",83.18486,162.84814
"4428",81.25857,162.86133
"4429",79.19066,162.87451
"4430",77.08858,162.8877
"4431",75.028,162.90088
"4432",73.074844,162.91406
"4433",71.26574,162.92725
"4434",69.63485,162.94043
"4435",68.19928,162.95361
"4436",66.966354,162.9668
"4437",65.94827,162.97998
"4438",65.164566,162.99316
"4439",64.63477,163.00635
"4440",64.38331,163.01953
"4441",64.41749,163.03271
"4442",64.725105,163.0459
"4443",65.27444,163.05908
"4444",65.9971,163.07227
"4445",66.81987,163.08545
