"","ppg","time"
"1",79.75708,1090.2122
"2",79.5227,1090.2256
"3",79.39086,1090.2388
"4",79.34936,1090.2522
"5",79.3933,1090.2654
"6",79.483635,1090.2788
"7",79.59838,1090.292
"8",79.7058,1090.3054
"9",79.781494,1090.3186
"10",79.80591,1090.332
"11",79.77417,1090.3452
"12",79.691154,1090.3586
"13",79.56664,1090.3718
"14",79.41039,1090.3853
"15",79.22728,1090.3984
"16",79.03197,1090.4119
"17",78.82689,1090.425
"18",78.61692,1090.4385
"19",78.40696,1090.4517
"20",78.20187,1090.4651
"21",78.00656,1090.4783
"22",77.83078,1090.4917
"23",77.679405,1090.5049
"24",77.557335,1090.5183
"25",77.469444,1090.5315
"26",77.40597,1090.5449
"27",77.366905,1090.5581
"28",77.349815,1090.5715
"29",77.349815,1090.5847
"30",77.366905,1090.5981
"31",77.40353,1090.6113
"32",77.452354,1090.6248
"33",77.50851,1090.638
"34",77.5671,1090.6514
"35",77.61837,1090.6646
"36",77.67696,1090.678
"37",77.803925,1090.6912
"38",78.12131,1090.7046
"39",78.76341,1090.7178
"40",79.79614,1090.7312
"41",81.16579,1090.7444
"42",82.718544,1090.7578
"43",84.22003,1090.771
"44",85.435875,1090.7844
"45",86.21713,1090.7976
"46",86.53452,1090.811
"47",86.45396,1090.8242
"48",86.06821,1090.8376
"49",85.489586,1090.8508
"50",84.81819,1090.8643
"51",84.12726,1090.8774
"52",83.47051,1090.8909
"53",82.862595,1090.904
"54",82.30595,1090.9175
"55",81.78592,1090.9307
"56",81.29519,1090.9441
"57",80.831314,1090.9573
"58",80.4065,1090.9707
"59",80.04761,1090.9839
"60",79.77173,1090.9973
"61",79.59106,1091.0105
"62",79.500725,1091.0239
"63",79.483635,1091.0371
"64",79.517815,1091.0505
"65",79.57885,1091.0637
"66",79.64477,1091.0771
"67",79.68871,1091.0903
"68",79.69848,1091.1038
"69",79.66186,1091.117
"70",79.571526,1091.1304
"71",79.43481,1091.1436
"72",79.259026,1091.157
"73",79.05394,1091.1702
"74",78.82445,1091.1836
"75",78.58762,1091.1968
"76",78.35569,1091.2102
"77",78.14084,1091.2234
"78",77.95529,1091.2368
"79",77.7966,1091.25
"80",77.662315,1091.2634
"81",77.55001,1091.2766
"82",77.44747,1091.29
"83",77.3547,1091.3032
"84",77.27413,1091.3167
"85",77.208206,1091.3298
"86",77.15938,1091.3433
"87",77.13008,1091.3564
"88",77.12764,1091.3699
"89",77.14473,1091.383
"90",77.18379,1091.3965
"91",77.23506,1091.4097
"92",77.29366,1091.4231
"93",77.3547,1091.4363
"94",77.41085,1091.4497
"95",77.46212,1091.4629
"96",77.506065,1091.4763
"97",77.52804,1091.4895
"98",77.54269,1091.5029
"99",77.5964,1091.5161
"100",77.803925,1091.5295
"101",78.32151,1091.5427
"102",79.25414,1091.5562
"103",80.584724,1091.5693
"104",82.19119,1091.5828
"105",83.83429,1091.596
"106",85.24788,1091.6094
"107",86.24155,1091.6226
"108",86.74937,1091.636
"109",86.81285,1091.6492
"110",86.53452,1091.6626
"111",86.0267,1091.6758
"112",85.38949,1091.6892
"113",84.70344,1091.7024
"114",84.017395,1091.7158
"115",83.36553,1091.729
"116",82.75517,1091.7424
"117",82.18387,1091.7556
"118",81.64431,1091.769
"119",81.13405,1091.7822
"120",80.66041,1091.7957
"121",80.23804,1091.8088
"122",79.8938,1091.8223
"123",79.656975,1091.8354
"124",79.537346,1091.8489
"125",79.52758,1091.862
"126",79.59838,1091.8755
"127",79.72045,1091.8887
"128",79.84985,1091.9021
"129",79.94995,1091.9153
"130",79.9939,1091.9287
"131",79.97925,1091.9419
"132",79.906006,1091.9553
"133",79.78882,1091.9685
"134",79.64233,1091.9819
"135",79.47387,1091.9951
"136",79.293205,1092.0085
"137",79.10277,1092.0217
"138",78.90257,1092.0352
"139",78.69993,1092.0483
"140",78.502174,1092.0618
"141",78.31663,1092.075
"142",78.153046,1092.0884
"143",78.00656,1092.1016
"144",77.88449,1092.115
"145",77.77951,1092.1282
"146",77.69161,1092.1416
"147",77.61837,1092.1548
"148",77.55489,1092.1682
"149",77.506065,1092.1814
"150",77.471886,1092.1948
"151",77.452354,1092.208
"152",77.45724,1092.2214
"153",77.47921,1092.2346
"154",77.51827,1092.248
"155",77.5671,1092.2612
"156",77.62081,1092.2747
"157",77.67696,1092.2878
"158",77.72823,1092.3013
"159",77.77463,1092.3145
"160",77.80148,1092.3279
"161",77.81125,1092.3411
"162",77.8259,1092.3545
"163",77.93576,1092.3677
"164",78.28733,1092.3811
"165",79.02464,1092.3943
"166",80.19409,1092.4077
"167",81.71755,1092.4209
"168",83.39483,1092.4343
"169",84.962234,1092.4475
"170",86.17563,1092.4609
"171",86.91051,1092.4741
"172",87.16441,1092.4875
"173",87.02037,1092.5007
"174",86.59312,1092.5142
"175",85.99008,1092.5273
"176",85.296715,1092.5408
"177",84.576485,1092.554
"178",83.87091,1092.5674
"179",83.18974,1092.5806
"180",82.54276,1092.594
"181",81.92996,1092.6072
"182",81.35134,1092.6206
"183",80.81911,1092.6338
"184",80.35035,1092.6472
"185",79.97925,1092.6604
"186",79.72045,1092.6738
"187",79.586174,1092.687
"188",79.56664,1092.7004
"189",79.64233,1092.7136
"190",79.76929,1092.727
"191",79.91333,1092.7402
"192",80.0354,1092.7537
"193",80.10864,1092.7668
"194",80.113525,1092.7803
"195",80.05493,1092.7935
"196",79.937744,1092.8069
"197",79.77661,1092.8201
"198",79.588615,1092.8335
"199",79.38842,1092.8467
"200",79.183334,1092.8601
"201",78.975815,1092.8733
"202",78.77074,1092.8867
"203",78.56809,1092.8999
"204",78.365456,1092.9133
"205",78.167694,1092.9265
"206",77.99191,1092.94
"207",77.840546,1092.9531
"208",77.71847,1092.9666
"209",77.6379,1092.9797
"210",77.5964,1092.9932
"211",77.57931,1093.0063
"212",77.58663,1093.0198
"213",77.611046,1093.033
"214",77.642784,1093.0464
"215",77.67208,1093.0596
"216",77.69161,1093.073
"217",77.69161,1093.0862
"218",77.67208,1093.0996
"219",77.65255,1093.1128
"220",77.7087,1093.1262
"221",77.97482,1093.1394
"222",78.58762,1093.1528
"223",79.60815,1093.166
"224",80.98268,1093.1794
"225",82.54276,1093.1926
"226",84.04669,1093.206
"227",85.26009,1093.2192
"228",86.03403,1093.2327
"229",86.34165,1093.2458
"230",86.24643,1093.2593
"231",85.85336,1093.2725
"232",85.26742,1093.2859
"233",84.578926,1093.2991
"234",83.861145,1093.3125
"235",83.15068,1093.3257
"236",82.4744,1093.3391
"237",81.83719,1093.3523
"238",81.23903,1093.3657
"239",80.67506,1093.3789
"240",80.15015,1093.3923
"241",79.68383,1093.4055
"242",79.30053,1093.419
"243",79.029526,1093.4321
"244",78.890366,1093.4456
"245",78.8806,1093.4587
"246",78.97826,1093.4722
"247",79.14671,1093.4854
"248",79.34203,1093.4988
"249",79.520256,1093.512
"250",79.64721,1093.5254
"251",79.70092,1093.5386
"252",79.68383,1093.552
"253",79.5935,1093.5652
"254",79.44457,1093.5786
"255",79.2517,1093.5918
"256",79.04173,1093.6052
"257",78.82445,1093.6184
"258",78.61204,1093.6318
"259",78.4094,1093.645
"260",78.21652,1093.6584
"261",78.04074,1093.6716
"262",77.87961,1093.685
"263",77.738,1093.6982
"264",77.61837,1093.7117
"265",77.5256,1093.7249
"266",77.452354,1093.7383
"267",77.401085,1093.7515
"268",77.36446,1093.7649
"269",77.33761,1093.7781
"270",77.313194,1093.7915
"271",77.28878,1093.8047
"272",77.26681,1093.8181
"273",77.296104,1093.8313
"274",77.48409,1093.8447
"275",77.96506,1093.8579
"276",78.836655,1093.8713
"277",80.096436,1093.8845
"278",81.62234,1093.898
"279",83.20439,1093.9111
"280",84.593575,1093.9246
"281",85.59945,1093.9377
"282",86.14145,1093.9512
"283",86.2562,1093.9644
"284",86.01938,1093.9778
"285",85.53597,1093.991
"286",84.89876,1094.0044
"287",84.19806,1094.0176
"288",83.48516,1094.031
"289",82.791794,1094.0442
"290",82.127716,1094.0576
"291",81.497826,1094.0708
"292",80.88991,1094.0842
"293",80.308846,1094.0974
"294",79.77905,1094.1108
"295",79.327385,1094.124
"296",78.9807,1094.1375
"297",78.75609,1094.1506
"298",78.658424,1094.1641
"299",78.677956,1094.1772
"300",78.79027,1094.1907
"301",78.958725,1094.2039
"302",79.151596,1094.2173
"303",79.32494,1094.2305
"304",79.449455,1094.2439
"305",79.500725,1094.2571
"306",79.47631,1094.2705
"307",79.381096,1094.2837
"308",79.24437,1094.2971
"309",79.080795,1094.3103
"310",78.90257,1094.3237
"311",78.71702,1094.3369
"312",78.52415,1094.3503
"313",78.328835,1094.3635
"314",78.1384,1094.377
"315",77.960175,1094.3901
"316",77.79904,1094.4036
"317",77.662315,1094.4167
"318",77.54757,1094.4302
"319",77.44991,1094.4434
"320",77.35958,1094.4568
"321",77.27413,1094.47
"322",77.19112,1094.4834
"323",77.12764,1094.4966
"324",77.14961,1094.51
"325",77.37911,1094.5232
"326",77.94797,1094.5366
"327",78.91234,1094.5498
"328",80.233154,1094.5632
"329",81.75418,1094.5764
"330",83.24834,1094.5898
"331",84.488594,1094.603
"332",85.330894,1094.6165
"333",85.72884,1094.6296
"334",85.73617,1094.6431
"335",85.44076,1094.6562
"336",84.93782,1094.6697
"337",84.32014,1094.6829
"338",83.6585,1094.6963
"339",83.001755,1094.7095
"340",82.357216,1094.7229
"341",81.73708,1094.7361
"342",81.143814,1094.7495
"343",80.57984,1094.7627
"344",80.0647,1094.7761
"345",79.61059,1094.7893
"346",79.22972,1094.8027
"347",78.93187,1094.8159
"348",78.72678,1094.8293
"349",78.6218,1094.8425
"350",78.607155,1094.856
"351",78.67063,1094.8691
"352",78.78783,1094.8826
"353",78.922104,1094.8958
"354",79.03929,1094.9092
"355",79.11742,1094.9224
"356",79.14183,1094.9358
"357",79.11253,1094.949
"358",79.03441,1094.9624
"359",78.924545,1094.9756
"360",78.79271,1094.989
"361",78.658424,1095.0022
"362",78.52659,1095.0156
"363",78.40696,1095.0288
"364",78.2971,1095.0422
"365",78.19699,1095.0554
"366",78.10422,1095.0688
"367",78.01877,1095.082
"368",77.945526,1095.0955
"369",77.874725,1095.1086
"370",77.806366,1095.1221
"371",77.74044,1095.1353
"372",77.69405,1095.1487
"373",77.72823,1095.1619
"374",77.960175,1095.1753
"375",78.519264,1095.1885
"376",79.46166,1095.2019
"377",80.74586,1095.2151
"378",82.22537,1095.2285
"379",83.68047,1095.2417
"380",84.87923,1095.2551
"381",85.67269,1095.2683
"382",86.02182,1095.2817
"383",85.96323,1095.2949
"384",85.5848,1095.3083
"385",84.998856,1095.3215
"386",84.30305,1095.335
"387",83.577934,1095.3481
"388",82.8748,1095.3616
"389",82.22293,1095.3748
"390",81.62966,1095.3882
"391",81.08522,1095.4014
"392",80.58228,1095.4148
"393",80.12573,1095.428
"394",79.73022,1095.4414
"395",79.40551,1095.4546
"396",79.17357,1095.468
"397",79.044174,1095.4812
"398",79.01976,1095.4946
"399",79.078354,1095.5078
"400",79.200424,1095.5212
"401",79.34692,1095.5344
"402",79.483635,1095.5479
"403",79.571526,1095.561
"404",79.59594,1095.5745
"405",79.551994,1095.5876
"406",79.4519,1095.6011
"407",79.31274,1095.6143
"408",79.151596,1095.6277
"409",78.98802,1095.6409
"410",78.82445,1095.6543
"411",78.66575,1095.6675
"412",78.5095,1095.6809
"413",78.35813,1095.6941
"414",78.21408,1095.7075
"415",78.082245,1095.7207
"416",77.96506,1095.7341
"417",77.86496,1095.7473
"418",77.78195,1095.7607
"419",77.71603,1095.7739
"420",77.65743,1095.7874
"421",77.60128,1095.8005
"422",77.557335,1095.814
"423",77.593956,1095.8271
"424",77.8259,1095.8406
"425",78.37522,1095.8538
"426",79.31274,1095.8672
"427",80.59449,1095.8804
"428",82.07156,1095.8938
"429",83.51934,1095.907
"430",84.70588,1095.9204
"431",85.487144,1095.9336
"432",85.83139,1095.947
"433",85.79233,1095.9602
"434",85.46273,1095.9736
"435",84.95491,1095.9868
"436",84.36408,1096.0002
"437",83.76105,1096.0134
"438",83.18486,1096.0269
"439",82.6453,1096.04
"440",82.13992,1096.0535
"441",81.64675,1096.0667
"442",81.163345,1096.0801
"443",80.689705,1096.0933
"444",80.25025,1096.1067
"445",79.8645,1096.1199
"446",79.55932,1096.1333
"447",79.3518,1096.1465
"448",79.24925,1096.1599
"449",79.23216,1096.1731
"450",79.281,1096.1865
"451",79.35912,1096.1997
"452",79.43481,1096.2131
"453",79.46899,1096.2263
"454",79.449455,1096.2397
"455",79.37377,1096.2529
"456",79.25414,1096.2664
"457",79.09544,1096.2795
"458",78.91722,1096.293
"459",78.729225,1096.3062
"460",78.53391,1096.3196
"461",78.33372,1096.3328
"462",78.133514,1096.3462
"463",77.9382,1096.3594
"464",77.752655,1096.3728
"465",77.58663,1096.386
"466",77.44747,1096.3994
"467",77.33761,1096.4126
"468",77.2546,1096.426
"469",77.196,1096.4392
"470",77.16182,1096.4526
"471",77.13985,1096.4658
"472",77.13252,1096.4792
"473",77.14229,1096.4924
"474",77.16914,1096.5059
"475",77.205765,1096.519
"476",77.24727,1096.5325
"477",77.281456,1096.5457
"478",77.30587,1096.5591
"479",77.32296,1096.5723
"480",77.37911,1096.5857
"481",77.57931,1096.5989
"482",78.0676,1096.6123
"483",78.93431,1096.6255
"484",80.184326,1096.6389
"485",81.705345,1096.6521
"486",83.29229,1096.6655
"487",84.698555,1096.6787
"488",85.7264,1096.6921
"489",86.295265,1096.7053
"490",86.4271,1096.7188
"491",86.21225,1096.7319
"492",85.76059,1096.7454
"493",85.186844,1096.7585
"494",84.56916,1096.772
"495",83.966125,1096.7852
"496",83.39727,1096.7986
"497",82.86748,1096.8118
"498",82.3621,1096.8252
"499",81.86893,1096.8384
"500",81.38308,1096.8518
"501",80.91432,1096.865
"502",80.48707,1096.8784
"503",80.128174,1096.8916
"504",79.85718,1096.905
"505",79.68627,1096.9182
"506",79.61059,1096.9316
"507",79.61059,1096.9448
"508",79.65942,1096.9583
"509",79.73022,1096.9714
"510",79.781494,1096.9849
"511",79.78638,1096.998
"512",79.73022,1097.0115
"513",79.61547,1097.0247
"514",79.4519,1097.0381
"515",79.259026,1097.0513
"516",79.05638,1097.0647
"517",78.856186,1097.0779
"518",78.64866,1097.0913
"519",78.44114,1097.1045
"520",78.238495,1097.1179
"521",78.04562,1097.1311
"522",77.8674,1097.1445
"523",77.7087,1097.1577
"524",77.576866,1097.1711
"525",77.467,1097.1843
"526",77.37667,1097.1978
"527",77.30831,1097.2109
"528",77.25704,1097.2244
"529",77.222855,1097.2375
"530",77.20332,1097.251
"531",77.19356,1097.2642
"532",77.19356,1097.2776
"533",77.21309,1097.2908
"534",77.24483,1097.3042
"535",77.281456,1097.3174
"536",77.3254,1097.3308
"537",77.36446,1097.344
"538",77.39132,1097.3574
"539",77.401085,1097.3706
"540",77.418175,1097.384
"541",77.51095,1097.3972
"542",77.80881,1097.4106
"543",78.44114,1097.4238
"544",79.46899,1097.4373
"545",80.83864,1097.4504
"546",82.39384,1097.4639
"547",83.895325,1097.477
"548",85.11116,1097.4905
"549",85.89731,1097.5037
"550",86.22934,1097.5171
"551",86.17563,1097.5303
"552",85.82895,1097.5437
"553",85.30404,1097.5569
"554",84.69123,1097.5703
"555",84.06622,1097.5835
"556",83.46563,1097.5969
"557",82.9041,1097.6101
"558",82.37919,1097.6235
"559",81.881134,1097.6367
"560",81.392845,1097.6501
"561",80.91432,1097.6633
"562",80.45533,1097.6768
"563",80.042725,1097.69
"564",79.71313,1097.7034
"565",79.48852,1097.7166
"566",79.37133,1097.73
"567",79.3518,1097.7432
"568",79.398186,1097.7566
"569",79.47875,1097.7698
"570",79.54955,1097.7832
"571",79.58373,1097.7964
"572",79.569084,1097.8098
"573",79.50561,1097.823
"574",79.40063,1097.8364
"575",79.25414,1097.8496
"576",79.08568,1097.863
"577",78.90013,1097.8762
"578",78.70481,1097.8896
"579",78.504616,1097.9028
"580",78.311745,1097.9163
"581",78.12375,1097.9294
"582",77.94064,1097.9429
"583",77.76242,1097.956
"584",77.593956,1097.9695
"585",77.44015,1097.9827
"586",77.30587,1097.9961
"587",77.19356,1098.0093
"588",77.11299,1098.0227
"589",77.06416,1098.0359
"590",77.04219,1098.0493
"591",77.04463,1098.0625
"592",77.07393,1098.0759
"593",77.120316,1098.0891
"594",77.17403,1098.1025
"595",77.23018,1098.1157
"596",77.27657,1098.1292
"597",77.313194,1098.1423
"598",77.332726,1098.1558
"599",77.35226,1098.169
"600",77.39376,1098.1824
"601",77.56222,1098.1956
"602",77.977264,1098.209
"603",78.746315,1098.2222
"604",79.88159,1098.2356
"605",81.29275,1098.2488
"606",82.804,1098.2622
"607",84.18097,1098.2754
"608",85.223465,1098.2888
"609",85.838715,1098.302
"610",86.03403,1098.3154
"611",85.88266,1098.3286
"612",85.48226,1098.342
"613",84.93782,1098.3552
"614",84.3299,1098.3687
"615",83.72198,1098.3818
"616",83.14336,1098.3953
"617",82.60136,1098.4084
"618",82.08621,1098.4219
"619",81.59548,1098.435
"620",81.112076,1098.4485
"621",80.64332,1098.4617
"622",80.2063,1098.4751
"623",79.82544,1098.4883
"624",79.53002,1098.5017
"625",79.33227,1098.5149
"626",79.234604,1098.5283
"627",79.217514,1098.5415
"628",79.26147,1098.5549
"629",79.32494,1098.5681
"630",79.381096,1098.5815
"631",79.398186,1098.5947
"632",79.36645,1098.6082
"633",79.28588,1098.6213
"634",79.16136,1098.6348
"635",79.00755,1098.648
"636",78.84154,1098.6614
"637",78.66819,1098.6746
"638",78.49241,1098.688
"639",78.31663,1098.7012
"640",78.14084,1098.7146
"641",77.962616,1098.7278
"642",77.786835,1098.7412
"643",77.61837,1098.7544
"644",77.467,1098.7678
"645",77.332726,1098.781
"646",77.22041,1098.7944
"647",77.13252,1098.8076
"648",77.06416,1098.821
"649",77.01778,1098.8342
"650",76.98604,1098.8477
"651",76.97627,1098.8608
"652",76.981155,1098.8743
"653",77.00313,1098.8875
"654",77.03487,1098.9009
"655",77.08125,1098.9141
"656",77.13252,1098.9275
"657",77.171585,1098.9407
"658",77.196,1098.9541
"659",77.19112,1098.9673
"660",77.16914,1098.9807
"661",77.1667,1098.9939
"662",77.27169,1099.0073
"663",77.628136,1099.0205
"664",78.35325,1099.0339
"665",79.48119,1099.0471
"666",80.93385,1099.0605
"667",82.530556,1099.0737
"668",84.03204,1099.0872
"669",85.2137,1099.1003
"670",85.95834,1099.1138
"671",86.2562,1099.127
"672",86.17319,1099.1404
"673",85.80698,1099.1536
"674",85.26742,1099.167
"675",84.644844,1099.1802
"676",84.01251,1099.1936
"677",83.407036,1099.2068
"678",82.847946,1099.2202
"679",82.32792,1099.2334
"680",81.83475,1099.2468
"681",81.358665,1099.26
"682",80.89235,1099.2734
"683",80.44312,1099.2866
"684",80.03784,1099.3
"685",79.70336,1099.3132
"686",79.46166,1099.3267
"687",79.31274,1099.3398
"688",79.25414,1099.3533
"689",79.26879,1099.3665
"690",79.32494,1099.3799
"691",79.3933,1099.3931
"692",79.44457,1099.4065
"693",79.45434,1099.4197
"694",79.412834,1099.4331
"695",79.31518,1099.4463
"696",79.17357,1099.4597
"697",79.00511,1099.4729
"698",78.819565,1099.4863
"699",78.63157,1099.4995
"700",78.43626,1099.513
"701",78.24094,1099.5261
"702",78.048065,1099.5396
"703",77.86252,1099.5527
"704",77.68917,1099.5662
"705",77.53536,1099.5793
"706",77.3962,1099.5928
"707",77.27413,1099.606
"708",77.16426,1099.6194
"709",77.069046,1099.6326
"710",76.98604,1099.646
"711",76.92256,1099.6592
"712",76.876175,1099.6726
"713",76.85176,1099.6858
"714",76.84444,1099.6992
"715",76.859085,1099.7124
"716",76.88838,1099.7258
"717",76.929886,1099.739
"718",76.97627,1099.7524
"719",77.0251,1099.7656
"720",77.066605,1099.779
"721",77.0959,1099.7922
"722",77.120316,1099.8057
"723",77.13008,1099.8188
"724",77.137405,1099.8323
"725",77.16182,1099.8455
"726",77.281456,1099.8589
"727",77.625694,1099.8721
"728",78.32151,1099.8855
"729",79.42504,1099.8987
"730",80.8777,1099.9121
"731",82.513466,1099.9253
"732",84.09308,1099.9387
"733",85.382164,1099.9519
"734",86.24155,1099.9653
"735",86.64439,1099.9785
"736",86.641945,1099.992
"737",86.33433,1100.0051
"738",85.824066,1100.0186
"739",85.20149,1100.0317
"740",84.53986,1100.0452
"741",83.89288,1100.0583
"742",83.28741,1100.0718
"743",82.72587,1100.085
"744",82.19852,1100.0984
"745",81.688255,1100.1116
"746",81.18532,1100.125
"747",80.68726,1100.1382
"748",80.22583,1100.1516
"749",79.82544,1100.1648
"750",79.51049,1100.1782
"751",79.29809,1100.1914
"752",79.185776,1100.2048
"753",79.166245,1100.218
"754",79.20531,1100.2314
"755",79.276115,1100.2446
"756",79.34692,1100.258
"757",79.3933,1100.2712
"758",79.398186,1100.2847
"759",79.35668,1100.2979
"760",79.28588,1100.3113
"761",79.185776,1100.3245
"762",79.05638,1100.3379
"763",78.90013,1100.3511
"764",78.72678,1100.3645
"765",78.538795,1100.3777
"766",78.3386,1100.3911
"767",78.14084,1100.4043
"768",77.94797,1100.4177
"769",77.769745,1100.4309
"770",77.5964,1100.4443
"771",77.435265,1100.4575
"772",77.296104,1100.471
"773",77.188675,1100.4841
"774",77.11543,1100.4976
"775",77.07637,1100.5107
"776",77.06172,1100.5242
"777",77.05928,1100.5374
"778",77.06172,1100.5508
"779",77.05928,1100.564
"780",77.05684,1100.5774
"781",77.07393,1100.5906
"782",77.11055,1100.604
"783",77.16914,1100.6172
"784",77.24483,1100.6306
"785",77.31808,1100.6438
"786",77.37911,1100.6572
"787",77.420616,1100.6704
"788",77.44015,1100.6838
"789",77.44747,1100.697
"790",77.44991,1100.7104
"791",77.48165,1100.7236
"792",77.63058,1100.737
"793",78.03586,1100.7502
"794",78.82689,1100.7637
"795",80.03052,1100.7769
"796",81.56374,1100.7903
"797",83.23857,1100.8035
"798",84.80354,1100.8169
"799",86.02426,1100.8301
"800",86.79332,1100.8435
"801",87.1107,1100.8567
"802",87.04234,1100.8701
"803",86.68589,1100.8833
"804",86.14145,1100.8967
"805",85.489586,1100.9099
"806",84.788895,1100.9233
"807",84.09064,1100.9365
"808",83.41924,1100.95
"809",82.78203,1100.9631
"810",82.18387,1100.9766
"811",81.617455,1100.9897
"812",81.08034,1101.0032
"813",80.57496,1101.0164
"814",80.12573,1101.0298
"815",79.7522,1101.043
"816",79.47387,1101.0564
"817",79.30053,1101.0696
"818",79.2224,1101.083
"819",79.217514,1101.0962
"820",79.26391,1101.1096
"821",79.32983,1101.1228
"822",79.398186,1101.1362
"823",79.44457,1101.1494
"824",79.45678,1101.1628
"825",79.42504,1101.176
"826",79.35668,1101.1895
"827",79.256584,1101.2026
"828",79.13451,1101.2161
"829",78.99046,1101.2292
"830",78.836655,1101.2427
"831",78.67307,1101.2559
"832",78.49729,1101.2693
"833",78.3093,1101.2825
"834",78.11154,1101.2959
"835",77.91867,1101.3091
"836",77.73556,1101.3225
"837",77.57931,1101.3357
"838",77.452354,1101.3491
"839",77.35714,1101.3623
"840",77.281456,1101.3757
"841",77.22041,1101.3889
"842",77.17647,1101.4023
"843",77.14717,1101.4155
"844",77.134964,1101.429
"845",77.137405,1101.4421
"846",77.15694,1101.4556
"847",77.18379,1101.4688
"848",77.21553,1101.4822
"849",77.24483,1101.4954
"850",77.26681,1101.5088
"851",77.28878,1101.522
"852",77.332726,1101.5354
"853",77.47433,1101.5486
"854",77.85275,1101.562
"855",78.59739,1101.5752
"856",79.742424,1101.5886
"857",81.22682,1101.6018
"858",82.87724,1101.6152
"859",84.454414,1101.6284
"860",85.72396,1101.6418
"861",86.556496,1101.655
"862",86.939804,1101.6685
"863",86.93492,1101.6816
"864",86.62974,1101.6951
"865",86.12436,1101.7083
"866",85.49691,1101.7217
"867",84.8011,1101.7349
"868",84.088196,1101.7483
"869",83.38018,1101.7615
"870",82.69413,1101.7749
"871",82.039825,1101.7881
"872",81.4197,1101.8015
"873",80.833755,1101.8147
"874",80.29664,1101.8281
"875",79.818115,1101.8413
"876",79.415276,1101.8547
"877",79.10765,1101.8679
"878",78.90013,1101.8813
"879",78.80003,1101.8945
"880",78.80003,1101.908
"881",78.87816,1101.9211
"882",79.012436,1101.9346
"883",79.17601,1101.9478
"884",79.33227,1101.9612
"885",79.45678,1101.9744
"886",79.53246,1101.9878
"887",79.554436,1102.001
"888",79.52758,1102.0144
"889",79.4519,1102.0276
"890",79.33227,1102.041
"891",79.17113,1102.0542
"892",78.98314,1102.0676
"893",78.77562,1102.0808
"894",78.56809,1102.0942
"895",78.3679,1102.1074
"896",78.184784,1102.1208
"897",78.009,1102.134
"898",77.840546,1102.1475
"899",77.6672,1102.1606
"900",77.49874,1102.1741
"901",77.34249,1102.1873
"902",77.208206,1102.2007
"903",77.09834,1102.2139
"904",77.01289,1102.2273
"905",76.9543,1102.2405
"906",76.92012,1102.2539
"907",76.910355,1102.2671
"908",76.91524,1102.2805
"909",76.93965,1102.2937
"910",76.96651,1102.3071
"911",76.995804,1102.3203
"912",77.02266,1102.3337
"913",77.051956,1102.3469
"914",77.10811,1102.3604
"915",77.2839,1102.3735
"916",77.72823,1102.387
"917",78.57542,1102.4001
"918",79.8645,1102.4136
"919",81.51003,1102.4268
"920",83.31426,1102.4402
"921",85.013504,1102.4534
"922",86.3563,1102.4668
"923",87.21324,1102.48
"924",87.59167,1102.4934
"925",87.56237,1102.5066
"926",87.22301,1102.52
"927",86.678566,1102.5332
"928",86.00473,1102.5466
"929",85.26498,1102.5598
"930",84.505684,1102.5732
"931",83.75128,1102.5864
"932",83.018845,1102.5999
"933",82.320595,1102.613
"934",81.65896,1102.6265
"935",81.03883,1102.6396
"936",80.46754,1102.6531
"937",79.96216,1102.6663
"938",79.53979,1102.6797
"939",79.21019,1102.6929
"940",78.98314,1102.7063
"941",78.85863,1102.7195
"942",78.82445,1102.7329
"943",78.86839,1102.7461
"944",78.96117,1102.7595
"945",79.07591,1102.7727
"946",79.185776,1102.7861
"947",79.26879,1102.7993
"948",79.30785,1102.8127
"949",79.30297,1102.8259
"950",79.256584,1102.8394
"951",79.17113,1102.8525
"952",79.05882,1102.866
"953",78.924545,1102.8792
"954",78.768295,1102.8926
"955",78.590065,1102.9058
"956",78.40208,1102.9192
"957",78.204315,1102.9324
"958",77.996796,1102.9458
"959",77.789276,1102.959
"960",77.58907,1102.9724
"961",77.40353,1102.9856
"962",77.239944,1102.999
"963",77.09834,1103.0122
"964",76.98604,1103.0256
"965",76.89815,1103.0388
"966",76.82979,1103.0522
"967",76.773636,1103.0654
"968",76.73701,1103.0789
"969",76.71259,1103.092
"970",76.70771,1103.1055
"971",76.71992,1103.1187
"972",76.74433,1103.1321
"973",76.77608,1103.1453
"974",76.807816,1103.1587
"975",76.8542,1103.1719
"976",76.978714,1103.1853
"977",77.330284,1103.1985
"978",78.06271,1103.2119
"979",79.259026,1103.2251
"980",80.87038,1103.2385
"981",82.7161,1103.2517
"982",84.53742,1103.2651
"983",86.06088,1103.2783
"984",87.10826,1103.2917
"985",87.64782,1103.3049
"986",87.74059,1103.3184
"987",87.48669,1103.3315
"988",86.98863,1103.345
"989",86.33677,1103.3582
"990",85.59945,1103.3716
"991",84.8304,1103.3848
"992",84.06134,1103.3982
"993",83.30938,1103.4114
"994",82.58671,1103.4248
"995",81.88846,1103.438
"996",81.21706,1103.4514
"997",80.587166,1103.4646
"998",80.01587,1103.478
"999",79.5227,1103.4912
"1000",79.1223,1103.5046
"1001",78.83421,1103.5178
"1002",78.65598,1103.5312
"1003",78.58762,1103.5444
"1004",78.6096,1103.5579
"1005",78.70237,1103.571
"1006",78.83421,1103.5845
"1007",78.97337,1103.5977
"1008",79.093,1103.6111
"1009",79.17601,1103.6243
"1010",79.21263,1103.6377
"1011",79.20531,1103.6509
"1012",79.15648,1103.6643
"1013",79.063705,1103.6775
"1014",78.93675,1103.6909
"1015",78.78294,1103.7041
"1016",78.6096,1103.7175
"1017",78.42649,1103.7307
"1018",78.24338,1103.7441
"1019",78.065155,1103.7573
"1020",77.891815,1103.7708
"1021",77.730675,1103.7839
"1022",77.58419,1103.7974
"1023",77.45968,1103.8105
"1024",77.35714,1103.824
"1025",77.27657,1103.8372
"1026",77.21065,1103.8506
"1027",77.15694,1103.8638
"1028",77.11055,1103.8772
"1029",77.08125,1103.8904
"1030",77.069046,1103.9038
"1031",77.07149,1103.917
"1032",77.08125,1103.9304
"1033",77.13252,1103.9436
"1034",77.30587,1103.957
"1035",77.75754,1103.9702
"1036",78.61936,1103.9836
"1037",79.92798,1103.9968
"1038",81.59304,1104.0103
"1039",83.404594,1104.0234
"1040",85.08919,1104.0369
"1041",86.41245,1104.05
"1042",87.25231,1104.0635
"1043",87.6112,1104.0767
"1044",87.569695,1104.0901
"1045",87.22545,1104.1033
"1046",86.6688,1104.1167
"1047",85.977875,1104.1299
"1048",85.20882,1104.1433
"1049",84.41047,1104.1565
"1050",83.60235,1104.1699
"1051",82.804,1104.1831
"1052",82.020294,1104.1965
"1053",81.26101,1104.2097
"1054",80.52857,1104.2231
"1055",79.84009,1104.2363
"1056",79.219955,1104.2498
"1057",78.69016,1104.263
"1058",78.27024,1104.2764
"1059",77.98215,1104.2896
"1060",77.82834,1104.303
"1061",77.806366,1104.3162
"1062",77.89426,1104.3296
"1063",78.06027,1104.3428
"1064",78.26536,1104.3562
"1065",78.47532,1104.3694
"1066",78.658424,1104.3828
"1067",78.79515,1104.396
"1068",78.88304,1104.4094
"1069",78.924545,1104.4226
"1070",78.91966,1104.436
"1071",78.873276,1104.4492
"1072",78.79027,1104.4626
"1073",78.6804,1104.4758
"1074",78.553444,1104.4893
"1075",78.41184,1104.5024
"1076",78.2678,1104.5159
"1077",78.12131,1104.529
"1078",77.977264,1104.5425
"1079",77.83078,1104.5557
"1080",77.68917,1104.5691
"1081",77.55245,1104.5823
"1082",77.4255,1104.5957
"1083",77.313194,1104.6089
"1084",77.225296,1104.6223
"1085",77.15938,1104.6355
"1086",77.120316,1104.6489
"1087",77.12764,1104.6621
"1088",77.27169,1104.6755
"1089",77.70626,1104.6887
"1090",78.55833,1104.7021
"1091",79.85962,1104.7153
"1092",81.52468,1104.7288
"1093",83.336235,1104.742
"1094",85.02083,1104.7554
"1095",86.34165,1104.7686
"1096",87.186386,1104.782
"1097",87.55993,1104.7952
"1098",87.5404,1104.8086
"1099",87.23277,1104.8218
"1100",86.71519,1104.8352
"1101",86.06821,1104.8484
"1102",85.35287,1104.8618
"1103",84.610664,1104.875
"1104",83.86359,1104.8884
"1105",83.12871,1104.9016
"1106",82.41093,1104.915
"1107",81.71267,1104.9282
"1108",81.03639,1104.9417
"1109",80.40162,1104.9548
"1110",79.83032,1104.9683
"1111",79.3518,1104.9814
"1112",78.9807,1104.9949
"1113",78.73655,1105.008
"1114",78.61936,1105.0215
"1115",78.61204,1105.0347
"1116",78.69016,1105.0481
"1117",78.81712,1105.0613
"1118",78.96361,1105.0747
"1119",79.097885,1105.0879
"1120",79.200424,1105.1013
"1121",79.26635,1105.1145
"1122",79.290764,1105.1279
"1123",79.27856,1105.1411
"1124",79.234604,1105.1545
"1125",79.166245,1105.1677
"1126",79.07591,1105.1812
"1127",78.96849,1105.1943
"1128",78.84642,1105.2078
"1129",78.71458,1105.221
"1130",78.57786,1105.2344
"1131",78.4387,1105.2476
"1132",78.29954,1105.261
"1133",78.167694,1105.2742
"1134",78.04074,1105.2876
"1135",77.91623,1105.3008
"1136",77.81125,1105.3142
"1137",77.7966,1105.3274
"1138",78.00168,1105.3408
"1139",78.56321,1105.354
"1140",79.54223,1105.3674
"1141",80.88258,1105.3806
"1142",82.41337,1105.394
"1143",83.895325,1105.4072
"1144",85.09651,1105.4207
"1145",85.88022,1105.4338
"1146",86.22934,1105.4473
"1147",86.204926,1105.4604
"1148",85.89731,1105.4739
"1149",85.401695,1105.487
"1150",84.791336,1105.5005
"1151",84.12482,1105.5137
"1152",83.438774,1105.5271
"1153",82.74296,1105.5403
"1154",82.04959,1105.5537
"1155",81.36111,1105.5669
"1156",80.68726,1105.5803
"1157",80.04028,1105.5935
"1158",79.447014,1105.6069
"1159",78.93187,1105.6201
"1160",78.51438,1105.6335
"1161",78.21652,1105.6467
"1162",78.048065,1105.6602
"1163",77.996796,1105.6733
"1164",78.04562,1105.6868
"1165",78.167694,1105.7
"1166",78.331276,1105.7134
"1167",78.504616,1105.7266
"1168",78.658424,1105.74
"1169",78.77318,1105.7532
"1170",78.84642,1105.7666
"1171",78.873276,1105.7798
"1172",78.86351,1105.7932
"1173",78.81712,1105.8064
"1174",78.74876,1105.8198
"1175",78.66575,1105.833
"1176",78.572975,1105.8464
"1177",78.47532,1105.8596
"1178",78.37278,1105.873
"1179",78.26292,1105.8862
"1180",78.14328,1105.8997
"1181",78.06271,1105.9128
"1182",78.11398,1105.9263
"1183",78.42893,1105.9395
"1184",79.10277,1105.9529
"1185",80.14526,1105.9661
"1186",81.446556,1105.9795
"1187",82.81377,1105.9927
"1188",84.02472,1106.0061
"1189",84.90364,1106.0193
"1190",85.37728,1106.0327
"1191",85.472496,1106.0459
"1192",85.262535,1106.0593
"1193",84.83772,1106.0725
"1194",84.27619,1106.0859
"1195",83.63653,1106.0991
"1196",82.96513,1106.1125
"1197",82.28397,1106.1257
"1198",81.60525,1106.1392
"1199",80.93141,1106.1523
"1200",80.255135,1106.1658
"1201",79.57885,1106.179
"1202",78.92943,1106.1924
"1203",78.35325,1106.2056
"1204",77.88693,1106.219
"1205",77.56466,1106.2322
"1206",77.401085,1106.2456
"1207",77.37911,1106.2588
"1208",77.45968,1106.2722
"1209",77.608604,1106.2854
"1210",77.79172,1106.2988
"1211",77.97482,1106.312
"1212",78.135956,1106.3254
"1213",78.26536,1106.3386
"1214",78.35081,1106.352
"1215",78.39231,1106.3652
"1216",78.397194,1106.3787
"1217",78.37034,1106.3918
"1218",78.32151,1106.4053
"1219",78.25315,1106.4185
"1220",78.16281,1106.4319
"1221",78.05295,1106.4451
"1222",77.92844,1106.4585
"1223",77.81369,1106.4717
"1224",77.79416,1106.4851
"1225",77.994354,1106.4983
"1226",78.53147,1106.5117
"1227",79.44457,1106.5249
"1228",80.67017,1106.5383
"1229",82.05203,1106.5515
"1230",83.36797,1106.565
"1231",84.41047,1106.5781
"1232",85.05989,1106.5916
"1233",85.316246,1106.6047
"1234",85.23079,1106.6182
"1235",84.89876,1106.6313
"1236",84.403145,1106.6448
"1237",83.8172,1106.658
"1238",83.18242,1106.6714
"1239",82.52567,1106.6846
"1240",81.866486,1106.698
"1241",81.214615,1106.7112
"1242",80.57984,1106.7246
"1243",79.97681,1106.7378
"1244",79.4226,1106.7512
"1245",78.941635,1106.7644
"1246",78.55833,1106.7778
"1247",78.29221,1106.791
"1248",78.14572,1106.8044
"1249",78.116425,1106.8176
"1250",78.18234,1106.831
"1251",78.311745,1106.8442
"1252",78.47532,1106.8577
"1253",78.641335,1106.8708
"1254",78.78294,1106.8843
"1255",78.89281,1106.8975
"1256",78.95628,1106.9109
"1257",78.97337,1106.9241
"1258",78.94652,1106.9375
"1259",78.88304,1106.9507
"1260",78.785385,1106.9641
"1261",78.67063,1106.9773
"1262",78.54368,1106.9907
"1263",78.40452,1107.0039
"1264",78.260475,1107.0173
"1265",78.133514,1107.0305
"1266",78.10666,1107.044
"1267",78.29954,1107.0571
"1268",78.82445,1107.0706
"1269",79.71801,1107.0837
"1270",80.91432,1107.0972
"1271",82.252235,1107.1104
"1272",83.50469,1107.1238
"1273",84.471504,1107.137
"1274",85.04524,1107.1504
"1275",85.21614,1107.1636
"1276",85.050125,1107.177
"1277",84.63996,1107.1902
"1278",84.07843,1107.2036
"1279",83.438774,1107.2168
"1280",82.76982,1107.2302
"1281",82.09842,1107.2434
"1282",81.43923,1107.2568
"1283",80.79469,1107.27
"1284",80.17944,1107.2834
"1285",79.60082,1107.2966
"1286",79.07591,1107.31
"1287",78.63157,1107.3232
"1288",78.29221,1107.3367
"1289",78.0798,1107.3499
"1290",77.994354,1107.3633
"1291",78.02121,1107.3765
"1292",78.12619,1107.3899
"1293",78.27512,1107.4031
"1294",78.42405,1107.4165
"1295",78.551,1107.4297
"1296",78.641335,1107.4431
"1297",78.68772,1107.4563
"1298",78.695045,1107.4697
"1299",78.67063,1107.4829
"1300",78.61448,1107.4963
"1301",78.53147,1107.5095
"1302",78.42893,1107.523
"1303",78.3093,1107.5361
"1304",78.17502,1107.5496
"1305",78.028534,1107.5627
"1306",77.88205,1107.5762
"1307",77.77951,1107.5894
"1308",77.81125,1107.6028
"1309",78.1091,1107.616
"1310",78.76341,1107.6294
"1311",79.781494,1107.6426
"1312",81.06325,1107.656
"1313",82.42069,1107.6692
"1314",83.631645,1107.6826
"1315",84.51301,1107.6958
"1316",84.981766,1107.7092
"1317",85.06477,1107.7224
"1318",84.83284,1107.7358
"1319",84.3885,1107.749
"1320",83.824524,1107.7625
"1321",83.209274,1107.7756
"1322",82.579384,1107.7891
"1323",81.95682,1107.8022
"1324",81.34402,1107.8157
"1325",80.743416,1107.8289
"1326",80.16724,1107.8423
"1327",79.635,1107.8555
"1328",79.166245,1107.8689
"1329",78.785385,1107.8821
"1330",78.51194,1107.8955
"1331",78.35325,1107.9087
"1332",78.30442,1107.9221
"1333",78.348366,1107.9353
"1334",78.45335,1107.9487
"1335",78.58762,1107.9619
"1336",78.71702,1107.9753
"1337",78.81224,1107.9885
"1338",78.86595,1108.002
"1339",78.870834,1108.0151
"1340",78.839096,1108.0286
"1341",78.768295,1108.0417
"1342",78.675514,1108.0552
"1343",78.56565,1108.0684
"1344",78.44114,1108.0818
"1345",78.3093,1108.095
"1346",78.17502,1108.1084
"1347",78.0383,1108.1216
"1348",77.8967,1108.135
"1349",77.7673,1108.1482
"1350",77.70626,1108.1616
"1351",77.823456,1108.1748
"1352",78.24826,1108.1882
"1353",79.05638,1108.2014
"1354",80.218506,1108.2148
"1355",81.602806,1108.228
"1356",82.99443,1108.2415
"1357",84.1712,1108.2546
"1358",84.972,1108.2681
"1359",85.34066,1108.2812
"1360",85.32357,1108.2947
"1361",85.01106,1108.3079
"1362",84.49836,1108.3213
"1363",83.878235,1108.3345
"1364",83.21416,1108.3479
"1365",82.545204,1108.3611
"1366",81.88846,1108.3745
"1367",81.253685,1108.3877
"1368",80.64576,1108.4011
"1369",80.07202,1108.4143
"1370",79.54711,1108.4277
"1371",79.08812,1108.4409
"1372",78.71702,1108.4543
"1373",78.45335,1108.4675
"1374",78.30198,1108.481
"1375",78.25803,1108.4941
"1376",78.30686,1108.5076
"1377",78.4094,1108.5208
"1378",78.538795,1108.5342
"1379",78.658424,1108.5474
"1380",78.74876,1108.5608
"1381",78.78783,1108.574
"1382",78.77562,1108.5874
"1383",78.72434,1108.6006
"1384",78.63889,1108.614
"1385",78.52903,1108.6272
"1386",78.399635,1108.6406
"1387",78.26292,1108.6538
"1388",78.118866,1108.6672
"1389",77.97238,1108.6804
"1390",77.823456,1108.6938
"1391",77.66964,1108.707
"1392",77.5256,1108.7205
"1393",77.44991,1108.7336
"1394",77.55978,1108.7471
"1395",77.98459,1108.7603
"1396",78.802475,1108.7737
"1397",79.97925,1108.7869
"1398",81.38064,1108.8003
"1399",82.78203,1108.8135
"1400",83.949036,1108.8269
"1401",84.72541,1108.8401
"1402",85.06233,1108.8535
"1403",85.00862,1108.8667
"1404",84.65217,1108.8801
"1405",84.11505,1108.8933
"1406",83.492485,1108.9067
"1407",82.86015,1108.9199
"1408",82.247345,1108.9333
"1409",81.66384,1108.9465
"1410",81.10231,1108.96
"1411",80.552986,1108.9731
"1412",80.02075,1108.9866
"1413",79.520256,1108.9998
"1414",79.08568,1109.0132
"1415",78.73899,1109.0264
"1416",78.502174,1109.0398
"1417",78.37766,1109.053
"1418",78.34348,1109.0664
"1419",78.38743,1109.0796
"1420",78.47288,1109.093
"1421",78.5803,1109.1062
"1422",78.675514,1109.1196
"1423",78.74387,1109.1328
"1424",78.77074,1109.1462
"1425",78.751205,1109.1594
"1426",78.68284,1109.1729
"1427",78.5803,1109.186
"1428",78.45823,1109.1995
"1429",78.328835,1109.2126
"1430",78.19943,1109.2261
"1431",78.07248,1109.2393
"1432",77.95285,1109.2527
"1433",77.840546,1109.2659
"1434",77.730675,1109.2793
"1435",77.625694,1109.2925
"1436",77.52071,1109.3059
"1437",77.41573,1109.3191
"1438",77.35226,1109.3325
"1439",77.435265,1109.3457
"1440",77.80148,1109.3591
"1441",78.56077,1109.3723
"1442",79.72045,1109.3857
"1443",81.163345,1109.3989
"1444",82.68925,1109.4124
"1445",84.03937,1109.4255
"1446",85.013504,1109.439
"1447",85.52865,1109.4521
"1448",85.609215,1109.4656
"1449",85.3431,1109.4788
"1450",84.842606,1109.4922
"1451",84.22003,1109.5054
"1452",83.56573,1109.5188
"1453",82.93584,1109.532
"1454",82.34745,1109.5454
"1455",81.80301,1109.5586
"1456",81.287865,1109.572
"1457",80.782486,1109.5852
"1458",80.289314,1109.5986
"1459",79.835205,1109.6118
"1460",79.44213,1109.6252
"1461",79.13695,1109.6384
"1462",78.93675,1109.6519
"1463",78.839096,1109.665
"1464",78.819565,1109.6785
"1465",78.86107,1109.6917
"1466",78.924545,1109.7051
"1467",78.98314,1109.7183
"1468",79.012436,1109.7317
"1469",78.995346,1109.7449
"1470",78.91722,1109.7583
"1471",78.79759,1109.7715
"1472",78.6511,1109.7849
"1473",78.48997,1109.7981
"1474",78.32639,1109.8115
"1475",78.170135,1109.8247
"1476",78.01633,1109.8381
"1477",77.86984,1109.8513
"1478",77.733116,1109.8647
"1479",77.608604,1109.8779
"1480",77.49874,1109.8914
"1481",77.40841,1109.9045
"1482",77.32784,1109.918
"1483",77.25216,1109.9312
"1484",77.19356,1109.9446
"1485",77.208206,1109.9578
"1486",77.401085,1109.9712
"1487",77.908905,1109.9844
"1488",78.8098,1109.9978
"1489",80.07446,1110.011
"1490",81.56863,1110.0244
"1491",83.06523,1110.0376
"1492",84.315254,1110.051
"1493",85.14534,1110.0642
"1494",85.514,1110.0776
"1495",85.46029,1110.0908
"1496",85.09895,1110.1042
"1497",84.55451,1110.1174
"1498",83.92706,1110.1309
"1499",83.29473,1110.144
"1500",82.69901,1110.1575
"1501",82.14725,1110.1707
"1502",81.62966,1110.1841
"1503",81.126724,1110.1973
"1504",80.638435,1110.2107
"1505",80.164795,1110.2239
"1506",79.725334,1110.2373
"1507",79.3518,1110.2505
"1508",79.063705,1110.2639
"1509",78.873276,1110.2771
"1510",78.7805,1110.2905
"1511",78.76097,1110.3037
"1512",78.79271,1110.3171
"1513",78.839096,1110.3303
"1514",78.86351,1110.3438
"1515",78.853745,1110.3569
"1516",78.79515,1110.3704
"1517",78.68772,1110.3835
"1518",78.551,1110.397
"1519",78.38987,1110.4102
"1520",78.21652,1110.4236
"1521",78.03586,1110.4368
"1522",77.857635,1110.4502
"1523",77.68185,1110.4634
"1524",77.52071,1110.4768
"1525",77.37423,1110.49
"1526",77.24483,1110.5034
"1527",77.137405,1110.5166
"1528",77.049515,1110.53
"1529",76.981155,1110.5432
"1530",76.93233,1110.5566
"1531",76.893265,1110.5698
"1532",76.859085,1110.5833
"1533",76.824905,1110.5964
"1534",76.807816,1110.6099
"1535",76.84444,1110.623
"1536",77.049515,1110.6365
"1537",77.55489,1110.6497
"1538",78.450905,1110.6631
"1539",79.73754,1110.6763
"1540",81.29763,1110.6897
"1541",82.91875,1110.7029
"1542",84.34455,1110.7163
"1543",85.37484,1110.7295
"1544",85.926605,1110.7429
"1545",86.02426,1110.7561
"1546",85.76059,1110.7695
"1547",85.262535,1110.7827
"1548",84.644844,1110.7961
"1549",83.99542,1110.8093
"1550",83.372856,1110.8228
"1551",82.804,1110.8359
"1552",82.28397,1110.8494
"1553",81.80301,1110.8625
"1554",81.341576,1110.876
"1555",80.89479,1110.8892
"1556",80.462654,1110.9026
"1557",80.06714,1110.9158
"1558",79.727776,1110.9292
"1559",79.466545,1110.9424
"1560",79.28588,1110.9558
"1561",79.183334,1110.969
"1562",79.149155,1110.9824
"1563",79.15892,1110.9956
"1564",79.17845,1111.009
"1565",79.17601,1111.0222
"1566",79.14183,1111.0356
"1567",79.05882,1111.0488
"1568",78.93431,1111.0623
"1569",78.78783,1111.0754
"1570",78.626686,1111.0889
"1571",78.46067,1111.102
"1572",78.28977,1111.1155
"1573",78.116425,1111.1287
"1574",77.93576,1111.1421
"1575",77.752655,1111.1553
"1576",77.574425,1111.1687
"1577",77.40597,1111.1819
"1578",77.2546,1111.1953
"1579",77.12276,1111.2085
"1580",77.01778,1111.2219
"1581",76.93721,1111.2351
"1582",76.87862,1111.2485
"1583",76.84444,1111.2617
"1584",76.82979,1111.2751
"1585",76.83467,1111.2883
"1586",76.85176,1111.3018
"1587",76.87862,1111.315
"1588",76.912796,1111.3284
"1589",76.94942,1111.3416
"1590",76.98604,1111.355
"1591",77.02022,1111.3682
"1592",77.09834,1111.3816
"1593",77.33761,1111.3948
"1594",77.88205,1111.4082
"1595",78.82933,1111.4214
"1596",80.177,1111.4348
"1597",81.795685,1111.448
"1598",83.44366,1111.4614
"1599",84.857254,1111.4746
"1600",85.83627,1111.488
"1601",86.30991,1111.5012
"1602",86.32212,1111.5146
"1603",85.98764,1111.5278
"1604",85.435875,1111.5413
"1605",84.77669,1111.5544
"1606",84.1004,1111.5679
"1607",83.458305,1111.581
"1608",82.862595,1111.5945
"1609",82.31571,1111.6077
"1610",81.795685,1111.6211
"1611",81.29519,1111.6343
"1612",80.80934,1111.6477
"1613",80.35767,1111.6609
"1614",79.954834,1111.6743
"1615",79.63012,1111.6875
"1616",79.3933,1111.7009
"1617",79.23949,1111.7141
"1618",79.151596,1111.7275
"1619",79.114975,1111.7407
"1620",79.10521,1111.7542
"1621",79.10521,1111.7673
"1622",79.093,1111.7808
"1623",79.05638,1111.794
"1624",78.99046,1111.8074
"1625",78.89525,1111.8206
"1626",78.765854,1111.834
"1627",78.61448,1111.8472
"1628",78.44846,1111.8606
"1629",78.27024,1111.8738
"1630",78.09201,1111.8872
"1631",77.91623,1111.9004
"1632",77.747765,1111.9138
"1633",77.58907,1111.927
"1634",77.435265,1111.9404
"1635",77.29366,1111.9536
"1636",77.1667,1111.967
"1637",77.0544,1111.9802
"1638",76.95918,1111.9937
"1639",76.88106,1112.0068
"1640",76.824905,1112.0203
"1641",76.7834,1112.0334
"1642",76.75899,1112.0469
"1643",76.754105,1112.06
"1644",76.76631,1112.0735
"1645",76.788284,1112.0867
"1646",76.822464,1112.1001
"1647",76.86885,1112.1133
"1648",76.91768,1112.1267
"1649",76.961624,1112.1399
"1650",77.00313,1112.1533
"1651",77.04707,1112.1665
"1652",77.12276,1112.1799
"1653",77.32296,1112.1931
"1654",77.789276,1112.2065
"1655",78.643776,1112.2197
"1656",79.91089,1112.2332
"1657",81.50027,1112.2463
"1658",83.209274,1112.2598
"1659",84.76936,1112.273
"1660",85.943695,1112.2864
"1661",86.61509,1112.2996
"1662",86.7982,1112.313
"1663",86.58335,1112.3262
"1664",86.09018,1112.3396
"1665",85.44076,1112.3528
"1666",84.72785,1112.3662
"1667",84.02228,1112.3794
"1668",83.353325,1112.3928
"1669",82.74052,1112.406
"1670",82.1741,1112.4194
"1671",81.64675,1112.4326
"1672",81.1487,1112.446
"1673",80.68726,1112.4592
"1674",80.26978,1112.4727
"1675",79.91821,1112.4858
"1676",79.64477,1112.4993
"1677",79.45922,1112.5125
"1678",79.361565,1112.5259
"1679",79.344475,1112.5391
"1680",79.381096,1112.5525
"1681",79.44213,1112.5657
"1682",79.49584,1112.5791
"1683",79.51537,1112.5923
"1684",79.47875,1112.6057
"1685",79.395744,1112.6189
"1686",79.26879,1112.6323
"1687",79.114975,1112.6455
"1688",78.93919,1112.6589
"1689",78.75365,1112.6721
"1690",78.555885,1112.6855
"1691",78.35325,1112.6987
"1692",78.15549,1112.7122
"1693",77.962616,1112.7253
"1694",77.77951,1112.7388
"1695",77.61593,1112.752
"1696",77.48165,1112.7654
"1697",77.37179,1112.7786
"1698",77.296104,1112.792
"1699",77.25216,1112.8052
"1700",77.242386,1112.8186
"1701",77.261925,1112.8318
"1702",77.298546,1112.8452
"1703",77.34249,1112.8584
"1704",77.39132,1112.8718
"1705",77.437706,1112.885
"1706",77.47677,1112.8984
"1707",77.506065,1112.9116
"1708",77.52071,1112.925
"1709",77.52804,1112.9382
"1710",77.58175,1112.9517
"1711",77.81125,1112.9648
"1712",78.365456,1112.9783
"1713",79.344475,1112.9915
"1714",80.723885,1113.0049
"1715",82.36454,1113.0181
"1716",84.01495,1113.0315
"1717",85.401695,1113.0447
"1718",86.327,1113.0581
"1719",86.744484,1113.0713
"1720",86.70786,1113.0847
"1721",86.329445,1113.0979
"1722",85.73861,1113.1113
"1723",85.05257,1113.1245
"1724",84.34699,1113.138
"1725",83.665825,1113.1511
"1726",83.03105,1113.1646
"1727",82.44511,1113.1777
"1728",81.89578,1113.1912
"1729",81.38308,1113.2043
"1730",80.89967,1113.2178
"1731",80.45777,1113.231
"1732",80.07446,1113.2444
"1733",79.766846,1113.2576
"1734",79.54711,1113.271
"1735",79.415276,1113.2842
"1736",79.35424,1113.2976
"1737",79.34692,1113.3108
"1738",79.35912,1113.3242
"1739",79.364006,1113.3374
"1740",79.34692,1113.3508
"1741",79.30541,1113.364
"1742",79.22972,1113.3774
"1743",79.11742,1113.3906
"1744",78.97826,1113.404
"1745",78.81224,1113.4172
"1746",78.6218,1113.4307
"1747",78.41428,1113.4438
"1748",78.19943,1113.4573
"1749",77.98215,1113.4705
"1750",77.7673,1113.4839
"1751",77.557335,1113.4971
"1752",77.366905,1113.5105
"1753",77.196,1113.5237
"1754",77.06416,1113.5371
"1755",76.97383,1113.5503
"1756",76.92012,1113.5637
"1757",76.89082,1113.5769
"1758",76.87862,1113.5903
"1759",76.87129,1113.6035
"1760",76.86641,1113.617
"1761",76.86885,1113.6301
"1762",76.8835,1113.6436
"1763",76.90791,1113.6567
"1764",76.94942,1113.6702
"1765",77.07149,1113.6833
"1766",77.3962,1113.6968
"1767",78.05539,1113.71
"1768",79.12474,1113.7234
"1769",80.56031,1113.7366
"1770",82.20096,1113.75
"1771",83.79523,1113.7632
"1772",85.084305,1113.7766
"1773",85.90463,1113.7898
"1774",86.23178,1113.8032
"1775",86.13168,1113.8164
"1776",85.714195,1113.8298
"1777",85.10628,1113.843
"1778",84.41535,1113.8564
"1779",83.71221,1113.8696
"1780",83.04082,1113.883
"1781",82.41825,1113.8962
"1782",81.84451,1113.9097
"1783",81.31228,1113.9229
"1784",80.816666,1113.9363
"1785",80.35523,1113.9495
"1786",79.94751,1113.9629
"1787",79.605705,1113.9761
"1788",79.344475,1113.9895
"1789",79.17113,1114.0027
"1790",79.07591,1114.0161
"1791",79.0515,1114.0293
"1792",79.06859,1114.0427
"1793",79.10765,1114.0559
"1794",79.14427,1114.0693
"1795",79.15892,1114.0825
"1796",79.132065,1114.096
"1797",79.06859,1114.1091
"1798",78.96605,1114.1226
"1799",78.83177,1114.1357
"1800",78.66819,1114.1492
"1801",78.48997,1114.1624
"1802",78.30198,1114.1758
"1803",78.11154,1114.189
"1804",77.91867,1114.2024
"1805",77.733116,1114.2156
"1806",77.55978,1114.229
"1807",77.40353,1114.2422
"1808",77.264366,1114.2556
"1809",77.14961,1114.2688
"1810",77.05684,1114.2822
"1811",76.99092,1114.2954
"1812",76.95186,1114.3088
"1813",76.93477,1114.322
"1814",76.94209,1114.3354
"1815",76.96651,1114.3486
"1816",77.00313,1114.362
"1817",77.03731,1114.3752
"1818",77.069046,1114.3887
"1819",77.0959,1114.4019
"1820",77.12764,1114.4153
"1821",77.2375,1114.4285
"1822",77.557335,1114.4419
"1823",78.23361,1114.4551
"1824",79.33715,1114.4685
"1825",80.82155,1114.4817
"1826",82.51835,1114.4951
"1827",84.16632,1114.5083
"1828",85.49447,1114.5217
"1829",86.33677,1114.5349
"1830",86.66392,1114.5483
"1831",86.54673,1114.5615
"1832",86.10483,1114.575
"1833",85.46517,1114.5881
"1834",84.74006,1114.6016
"1835",84.00763,1114.6147
"1836",83.31426,1114.6282
"1837",82.67704,1114.6414
"1838",82.09354,1114.6548
"1839",81.55398,1114.668
"1840",81.04616,1114.6814
"1841",80.5774,1114.6946
"1842",80.15747,1114.708
"1843",79.81323,1114.7212
"1844",79.55932,1114.7346
"1845",79.395744,1114.7478
"1846",79.31518,1114.7612
"1847",79.30053,1114.7744
"1848",79.33471,1114.7878
"1849",79.39086,1114.801
"1850",79.447014,1114.8145
"1851",79.483635,1114.8276
"1852",79.49096,1114.8411
"1853",79.45434,1114.8542
"1854",79.381096,1114.8677
"1855",79.276115,1114.8809
"1856",79.151596,1114.8943
"1857",79.00755,1114.9075
"1858",78.853745,1114.9209
"1859",78.69016,1114.9341
"1860",78.521706,1114.9475
"1861",78.35081,1114.9607
"1862",78.19455,1114.9741
"1863",78.048065,1114.9873
"1864",77.91623,1115.0007
"1865",77.80881,1115.0139
"1866",77.72823,1115.0273
"1867",77.6672,1115.0405
"1868",77.625694,1115.054
"1869",77.60616,1115.0671
"1870",77.59884,1115.0806
"1871",77.611046,1115.0938
"1872",77.6379,1115.1072
"1873",77.679405,1115.1204
"1874",77.733116,1115.1338
"1875",77.79416,1115.147
"1876",77.855194,1115.1604
"1877",77.908905,1115.1736
"1878",77.95529,1115.187
"1879",78.009,1115.2002
"1880",78.14816,1115.2136
"1881",78.50706,1115.2268
"1882",79.24437,1115.2402
"1883",80.42115,1115.2534
"1884",81.97879,1115.2668
"1885",83.73174,1115.28
"1886",85.41634,1115.2935
"1887",86.75426,1115.3066
"1888",87.59167,1115.3201
"1889",87.904175,1115.3333
"1890",87.76257,1115.3467
"1891",87.28649,1115.3599
"1892",86.607765,1115.3733
"1893",85.83627,1115.3865
"1894",85.05745,1115.3999
"1895",84.31037,1115.4131
"1896",83.61944,1115.4265
"1897",82.984665,1115.4397
"1898",82.39628,1115.4531
"1899",81.84451,1115.4663
"1900",81.33425,1115.4797
"1901",80.8777,1115.4929
"1902",80.49439,1115.5063
"1903",80.20386,1115.5195
"1904",80.01343,1115.533
"1905",79.90845,1115.5461
"1906",79.88403,1115.5596
"1907",79.906006,1115.5728
"1908",79.94995,1115.5862
"1909",79.98901,1115.5994
"1910",79.99878,1115.6128
"1911",79.96704,1115.626
"1912",79.89136,1115.6394
"1913",79.76929,1115.6526
"1914",79.61547,1115.666
"1915",79.43725,1115.6792
"1916",79.24193,1115.6926
"1917",79.03685,1115.7058
"1918",78.82933,1115.7192
"1919",78.624245,1115.7324
"1920",78.42405,1115.7458
"1921",78.22873,1115.759
"1922",78.04074,1115.7725
"1923",77.86984,1115.7856
"1924",77.713585,1115.7991
"1925",77.58419,1115.8123
"1926",77.488976,1115.8257
"1927",77.4255,1115.8389
"1928",77.38888,1115.8523
"1929",77.37667,1115.8655
"1930",77.38155,1115.8789
"1931",77.39864,1115.8921
"1932",77.418175,1115.9055
"1933",77.43282,1115.9187
"1934",77.44747,1115.9321
"1935",77.4963,1115.9453
"1936",77.68673,1115.9587
"1937",78.17258,1115.9719
"1938",79.07591,1115.9854
"1939",80.396736,1115.9985
"1940",82.02518,1116.012
"1941",83.73174,1116.0251
"1942",85.240555,1116.0386
"1943",86.32212,1116.0518
"1944",86.88121,1116.0652
"1945",86.95201,1116.0784
"1946",86.62974,1116.0918
"1947",86.03891,1116.105
"1948",85.29916,1116.1184
"1949",84.51545,1116.1316
"1950",83.73907,1116.145
"1951",83.00664,1116.1582
"1952",82.32548,1116.1716
"1953",81.69802,1116.1848
"1954",81.112076,1116.1982
"1955",80.57252,1116.2114
"1956",80.09155,1116.2249
"1957",79.68871,1116.238
"1958",79.38354,1116.2515
"1959",79.1931,1116.2646
"1960",79.11253,1116.2781
"1961",79.12718,1116.2913
"1962",79.202866,1116.3047
"1963",79.30785,1116.3179
"1964",79.40551,1116.3313
"1965",79.47143,1116.3445
"1966",79.483635,1116.3579
"1967",79.447014,1116.3711
"1968",79.364006,1116.3845
"1969",79.24681,1116.3977
"1970",79.10033,1116.4111
"1971",78.92699,1116.4243
"1972",78.74143,1116.4377
"1973",78.54612,1116.4509
"1974",78.35081,1116.4644
"1975",78.16525,1116.4775
"1976",77.994354,1116.491
"1977",77.84787,1116.5042
"1978",77.72823,1116.5176
"1979",77.63302,1116.5308
"1980",77.56222,1116.5442
"1981",77.51095,1116.5574
"1982",77.47433,1116.5708
"1983",77.44015,1116.584
"1984",77.40597,1116.5974
"1985",77.36935,1116.6106
"1986",77.36935,1116.624
"1987",77.49386,1116.6372
"1988",77.88937,1116.6506
"1989",78.677956,1116.6638
"1990",79.89136,1116.6772
"1991",81.43191,1116.6904
"1992",83.09453,1116.7039
"1993",84.596016,1116.717
"1994",85.70199,1116.7305
"1995",86.30015,1116.7437
"1996",86.41245,1116.7571
"1997",86.1268,1116.7703
"1998",85.575035,1116.7837
"1999",84.88167,1116.7969
"2000",84.13458,1116.8103
"2001",83.39239,1116.8235
"2002",82.69169,1116.8369
"2003",82.0325,1116.8501
"2004",81.41726,1116.8635
"2005",80.8362,1116.8767
"2006",80.291756,1116.8901
"2007",79.7937,1116.9033
"2008",79.37133,1116.9167
"2009",79.04173,1116.9299
"2010",78.82689,1116.9434
"2011",78.729225,1116.9565
"2012",78.73655,1116.97
"2013",78.82201,1116.9832
"2014",78.9514,1116.9966
"2015",79.08324,1117.0098
"2016",79.183334,1117.0232
"2017",79.22728,1117.0364
"2018",79.20775,1117.0498
"2019",79.12718,1117.063
"2020",78.99779,1117.0764
"2021",78.84154,1117.0896
"2022",78.66819,1117.103
"2023",78.49241,1117.1162
"2024",78.32151,1117.1296
"2025",78.16281,1117.1428
"2026",78.011444,1117.1562
"2027",77.87717,1117.1694
"2028",77.75021,1117.1829
"2029",77.63058,1117.196
"2030",77.50851,1117.2095
"2031",77.38644,1117.2227
"2032",77.261925,1117.2361
"2033",77.17647,1117.2493
"2034",77.23262,1117.2627
"2035",77.58907,1117.2759
"2036",78.35813,1117.2893
"2037",79.55932,1117.3025
"2038",81.08278,1117.3159
"2039",82.7161,1117.3291
"2040",84.17609,1117.3425
"2041",85.23811,1117.3557
"2042",85.79965,1117.3691
"2043",85.8851,1117.3823
"2044",85.592125,1117.3958
"2045",85.03548,1117.4089
"2046",84.332344,1117.4224
"2047",83.56817,1117.4355
"2048",82.811325,1117.449
"2049",82.08621,1117.4622
"2050",81.40505,1117.4756
"2051",80.765396,1117.4888
"2052",80.16235,1117.5022
"2053",79.59838,1117.5154
"2054",79.08812,1117.5288
"2055",78.658424,1117.542
"2056",78.33616,1117.5554
"2057",78.135956,1117.5686
"2058",78.05295,1117.582
"2059",78.0676,1117.5952
"2060",78.153046,1117.6086
"2061",78.27024,1117.6218
"2062",78.38987,1117.6353
"2063",78.47776,1117.6484
"2064",78.52415,1117.6619
"2065",78.51438,1117.675
"2066",78.44846,1117.6885
"2067",78.33616,1117.7017
"2068",78.20187,1117.7151
"2069",78.048065,1117.7283
"2070",77.88693,1117.7417
"2071",77.72579,1117.7549
"2072",77.57198,1117.7683
"2073",77.42306,1117.7815
"2074",77.279015,1117.7949
"2075",77.14717,1117.8081
"2076",77.02998,1117.8215
"2077",76.925,1117.8347
"2078",76.82735,1117.8481
"2079",76.74189,1117.8613
"2080",76.717476,1117.8748
"2081",76.86885,1117.888
"2082",77.35958,1117.9014
"2083",78.30442,1117.9146
"2084",79.69848,1117.928
"2085",81.39529,1117.9412
"2086",83.14824,1117.9546
"2087",84.65461,1117.9678
"2088",85.70443,1117.9812
"2089",86.21713,1117.9944
"2090",86.24887,1118.0078
"2091",85.91196,1118.021
"2092",85.33822,1118.0344
"2093",84.647285,1118.0476
"2094",83.92218,1118.061
"2095",83.20439,1118.0742
"2096",82.528114,1118.0876
"2097",81.88846,1118.1008
"2098",81.2781,1118.1143
"2099",80.689705,1118.1274
"2100",80.14038,1118.1409
"2101",79.639885,1118.154
"2102",79.219955,1118.1675
"2103",78.90013,1118.1807
"2104",78.69016,1118.1941
"2105",78.58762,1118.2073
"2106",78.57053,1118.2207
"2107",78.61448,1118.2339
"2108",78.68528,1118.2473
"2109",78.75853,1118.2605
"2110",78.80736,1118.2739
"2111",78.8098,1118.2871
"2112",78.76097,1118.3005
"2113",78.65598,1118.3137
"2114",78.51194,1118.3271
"2115",78.33616,1118.3403
"2116",78.150604,1118.3538
"2117",77.96506,1118.367
"2118",77.78195,1118.3804
"2119",77.608604,1118.3936
"2120",77.44503,1118.407
"2121",77.28878,1118.4202
"2122",77.14961,1118.4336
"2123",77.02998,1118.4468
"2124",76.92256,1118.4602
"2125",76.82002,1118.4734
"2126",76.732124,1118.4868
"2127",76.71992,1118.5
"2128",76.91524,1118.5134
"2129",77.47433,1118.5266
"2130",78.49729,1118.54
"2131",79.95972,1118.5532
"2132",81.685814,1118.5667
"2133",83.41436,1118.5798
"2134",84.85237,1118.5933
"2135",85.80698,1118.6064
"2136",86.21713,1118.6199
"2137",86.15854,1118.633
"2138",85.74593,1118.6465
"2139",85.1136,1118.6597
"2140",84.37385,1118.6731
"2141",83.60967,1118.6863
"2142",82.86992,1118.6997
"2143",82.16678,1118.7129
"2144",81.50027,1118.7263
"2145",80.87038,1118.7395
"2146",80.26978,1118.7529
"2147",79.70336,1118.7661
"2148",79.19798,1118.7795
"2149",78.78294,1118.7927
"2150",78.47532,1118.8062
"2151",78.294655,1118.8193
"2152",78.22385,1118.8328
"2153",78.25071,1118.846
"2154",78.34348,1118.8594
"2155",78.45579,1118.8726
"2156",78.553444,1118.886
"2157",78.6096,1118.8992
"2158",78.61448,1118.9126
"2159",78.56077,1118.9258
"2160",78.46311,1118.9392
"2161",78.3386,1118.9524
"2162",78.19455,1118.9658
"2163",78.04074,1118.979
"2164",77.88205,1118.9924
"2165",77.72091,1119.0056
"2166",77.56466,1119.019
"2167",77.420616,1119.0322
"2168",77.2839,1119.0457
"2169",77.154495,1119.0588
"2170",77.03975,1119.0723
"2171",76.925,1119.0854
"2172",76.81026,1119.0989
"2173",76.70771,1119.112
"2174",76.66621,1119.1255
"2175",76.805374,1119.1387
"2176",77.2839,1119.1521
"2177",78.21408,1119.1653
"2178",79.60082,1119.1787
"2179",81.304955,1119.1919
"2180",83.07988,1119.2053
"2181",84.62531,1119.2185
"2182",85.72152,1119.2319
"2183",86.278175,1119.2451
"2184",86.33677,1119.2585
"2185",86.014496,1119.2717
"2186",85.44808,1119.2852
"2187",84.754715,1119.2983
"2188",84.01984,1119.3118
"2189",83.28985,1119.325
"2190",82.59159,1119.3384
"2191",81.92752,1119.3516
"2192",81.29275,1119.365
"2193",80.68726,1119.3782
"2194",80.11841,1119.3916
"2195",79.60815,1119.4048
"2196",79.17601,1119.4182
"2197",78.84642,1119.4314
"2198",78.63157,1119.4448
"2199",78.52903,1119.458
"2200",78.519264,1119.4714
"2201",78.57053,1119.4846
"2202",78.64866,1119.498
"2203",78.7219,1119.5112
"2204",78.75853,1119.5247
"2205",78.74387,1119.5378
"2206",78.68284,1119.5513
"2207",78.58518,1119.5645
"2208",78.46067,1119.5779
"2209",78.31663,1119.5911
"2210",78.15793,1119.6045
"2211",77.994354,1119.6177
"2212",77.81857,1119.6311
"2213",77.63546,1119.6443
"2214",77.45724,1119.6577
"2215",77.28634,1119.6709
"2216",77.13252,1119.6843
"2217",77.00069,1119.6975
"2218",76.893265,1119.7109
"2219",76.81026,1119.7241
"2220",76.749214,1119.7375
"2221",76.70283,1119.7507
"2222",76.66621,1119.7642
"2223",76.63447,1119.7773
"2224",76.60273,1119.7908
"2225",76.60517,1119.804
"2226",76.732124,1119.8174
"2227",77.14717,1119.8306
"2228",77.994354,1119.844
"2229",79.327385,1119.8572
"2230",81.0486,1119.8706
"2231",82.93584,1119.8838
"2232",84.69367,1119.8972
"2233",86.046234,1119.9104
"2234",86.84947,1119.9238
"2235",87.10826,1119.937
"2236",86.91539,1119.9504
"2237",86.40513,1119.9636
"2238",85.711754,1119.977
"2239",84.945145,1119.9902
"2240",84.18097,1120.0037
"2241",83.455864,1120.0168
"2242",82.78203,1120.0303
"2243",82.14969,1120.0435
"2244",81.549095,1120.0569
"2245",80.972916,1120.0701
"2246",80.428474,1120.0835
"2247",79.94507,1120.0967
"2248",79.54223,1120.1101
"2249",79.23949,1120.1233
"2250",79.044174,1120.1367
"2251",78.95628,1120.1499
"2252",78.94896,1120.1633
"2253",79.00023,1120.1765
"2254",79.07347,1120.19
"2255",79.132065,1120.2031
"2256",79.149155,1120.2166
"2257",79.114975,1120.2297
"2258",79.029526,1120.2432
"2259",78.905014,1120.2563
"2260",78.751205,1120.2698
"2261",78.5803,1120.283
"2262",78.397194,1120.2964
"2263",78.20187,1120.3096
"2264",78.00412,1120.323
"2265",77.803925,1120.3362
"2266",77.608604,1120.3496
"2267",77.4255,1120.3628
"2268",77.2546,1120.3762
"2269",77.09346,1120.3894
"2270",76.95186,1120.4028
"2271",76.824905,1120.416
"2272",76.71992,1120.4294
"2273",76.63691,1120.4426
"2274",76.58076,1120.456
"2275",76.544136,1120.4692
"2276",76.53193,1120.4827
"2277",76.52949,1120.4958
"2278",76.54658,1120.5093
"2279",76.575874,1120.5225
"2280",76.61738,1120.5359
"2281",76.65888,1120.5491
"2282",76.700386,1120.5625
"2283",76.734566,1120.5757
"2284",76.79561,1120.5891
"2285",76.99336,1120.6023
"2286",77.50118,1120.6157
"2287",78.46067,1120.6289
"2288",79.903564,1120.6423
"2289",81.722435,1120.6555
"2290",83.68047,1120.669
"2291",85.47494,1120.6821
"2292",86.837265,1120.6956
"2293",87.640495,1120.7087
"2294",87.89929,1120.7222
"2295",87.70641,1120.7354
"2296",87.19371,1120.7488
"2297",86.49058,1120.762
"2298",85.70199,1120.7754
"2299",84.90852,1120.7886
"2300",84.14679,1120.802
"2301",83.43145,1120.8152
"2302",82.757614,1120.8286
"2303",82.11795,1120.8418
"2304",81.50027,1120.8552
"2305",80.919205,1120.8684
"2306",80.39185,1120.8818
"2307",79.94751,1120.895
"2308",79.60815,1120.9084
"2309",79.381096,1120.9216
"2310",79.256584,1120.935
"2311",79.217514,1120.9482
"2312",79.23216,1120.9617
"2313",79.26635,1120.9749
"2314",79.29565,1120.9883
"2315",79.29809,1121.0015
"2316",79.26147,1121.0149
"2317",79.17845,1121.0281
"2318",79.05882,1121.0415
"2319",78.9099,1121.0547
"2320",78.73899,1121.0681
"2321",78.551,1121.0813
"2322",78.348366,1121.0947
"2323",78.14328,1121.1079
"2324",77.93088,1121.1213
"2325",77.72579,1121.1345
"2326",77.52804,1121.148
"2327",77.347374,1121.1611
"2328",77.17891,1121.1746
"2329",77.0251,1121.1877
"2330",76.89082,1121.2012
"2331",76.77852,1121.2144
"2332",76.69306,1121.2278
"2333",76.63447,1121.241
"2334",76.60517,1121.2544
"2335",76.60029,1121.2676
"2336",76.610054,1121.281
"2337",76.629585,1121.2942
"2338",76.64912,1121.3076
"2339",76.66621,1121.3208
"2340",76.680855,1121.3342
"2341",76.74433,1121.3474
"2342",76.96895,1121.3608
"2343",77.5256,1121.374
"2344",78.53147,1121.3875
"2345",79.98901,1121.4006
"2346",81.76883,1121.4141
"2347",83.6292,1121.4272
"2348",85.27718,1121.4407
"2349",86.48081,1121.4539
"2350",87.15221,1121.4673
"2351",87.327995,1121.4805
"2352",87.098495,1121.4939
"2353",86.588234,1121.5071
"2354",85.907074,1121.5205
"2355",85.1429,1121.5337
"2356",84.3592,1121.5471
"2357",83.59991,1121.5603
"2358",82.879684,1121.5737
"2359",82.20096,1121.5869
"2360",81.56374,1121.6003
"2361",80.96559,1121.6135
"2362",80.4065,1121.627
"2363",79.906006,1121.6401
"2364",79.48608,1121.6536
"2365",79.1638,1121.6667
"2366",78.9514,1121.6802
"2367",78.84398,1121.6934
"2368",78.81468,1121.7068
"2369",78.84154,1121.72
"2370",78.887924,1121.7334
"2371",78.92943,1121.7466
"2372",78.93919,1121.76
"2373",78.91478,1121.7732
"2374",78.84886,1121.7866
"2375",78.746315,1121.7998
"2376",78.61448,1121.8132
"2377",78.46067,1121.8264
"2378",78.29221,1121.8398
"2379",78.1091,1121.853
"2380",77.91867,1121.8665
"2381",77.72823,1121.8796
"2382",77.53536,1121.8931
"2383",77.34493,1121.9062
"2384",77.16426,1121.9197
"2385",76.99336,1121.9329
"2386",76.83467,1121.9463
"2387",76.70283,1121.9595
"2388",76.595406,1121.9729
"2389",76.5124,1121.9861
"2390",76.456245,1121.9995
"2391",76.419624,1122.0127
"2392",76.40009,1122.0261
"2393",76.39521,1122.0393
"2394",76.404976,1122.0527
"2395",76.419624,1122.0659
"2396",76.43427,1122.0793
"2397",76.453804,1122.0925
"2398",76.52705,1122.106
"2399",76.78584,1122.1191
"2400",77.39132,1122.1326
"2401",78.45579,1122.1458
"2402",79.97925,1122.1592
"2403",81.82254,1122.1724
"2404",83.73174,1122.1858
"2405",85.41146,1122.199
"2406",86.63462,1122.2124
"2407",87.31823,1122.2256
"2408",87.49645,1122.239
"2409",87.276726,1122.2522
"2410",86.77623,1122.2656
"2411",86.10971,1122.2788
"2412",85.36019,1122.2922
"2413",84.59113,1122.3054
"2414",83.83185,1122.3188
"2415",83.104294,1122.332
"2416",82.41093,1122.3455
"2417",81.75662,1122.3586
"2418",81.13893,1122.3721
"2419",80.56031,1122.3853
"2420",80.0354,1122.3987
"2421",79.588615,1122.4119
"2422",79.23216,1122.4253
"2423",78.975815,1122.4385
"2424",78.81712,1122.4519
"2425",78.746315,1122.4651
"2426",78.73899,1122.4785
"2427",78.765854,1122.4917
"2428",78.80492,1122.5051
"2429",78.83177,1122.5183
"2430",78.839096,1122.5317
"2431",78.81224,1122.5449
"2432",78.751205,1122.5583
"2433",78.65598,1122.5715
"2434",78.53147,1122.585
"2435",78.38743,1122.5981
"2436",78.23361,1122.6116
"2437",78.07004,1122.6248
"2438",77.90402,1122.6382
"2439",77.730675,1122.6514
"2440",77.55001,1122.6648
"2441",77.366905,1122.678
"2442",77.18623,1122.6914
"2443",77.01778,1122.7046
"2444",76.86885,1122.718
"2445",76.73945,1122.7312
"2446",76.629585,1122.7446
"2447",76.53925,1122.7578
"2448",76.46601,1122.7712
"2449",76.4123,1122.7844
"2450",76.37568,1122.7979
"2451",76.36103,1122.811
"2452",76.368355,1122.8245
"2453",76.39277,1122.8376
"2454",76.436714,1122.8511
"2455",76.49775,1122.8643
"2456",76.558784,1122.8777
"2457",76.612495,1122.8909
"2458",76.67597,1122.9043
"2459",76.8542,1122.9175
"2460",77.30831,1122.9309
"2461",78.20187,1122.9441
"2462",79.59106,1122.9575
"2463",81.392845,1122.9707
"2464",83.37774,1122.9841
"2465",85.24544,1122.9973
"2466",86.71519,1123.0107
"2467",87.64538,1123.0239
"2468",88.03845,1123.0374
"2469",87.972534,1123.0505
"2470",87.56725,1123.064
"2471",86.93736,1123.0771
"2472",86.185394,1123.0906
"2473",85.382164,1123.1038
"2474",84.57404,1123.1172
"2475",83.7879,1123.1304
"2476",83.04082,1123.1438
"2477",82.33036,1123.157
"2478",81.654076,1123.1704
"2479",81.0193,1123.1836
"2480",80.43824,1123.197
"2481",79.92798,1123.2102
"2482",79.50805,1123.2236
"2483",79.1931,1123.2368
"2484",78.98558,1123.2502
"2485",78.870834,1123.2634
"2486",78.83421,1123.2769
"2487",78.856186,1123.29
"2488",78.907455,1123.3035
"2489",78.96117,1123.3167
"2490",78.99779,1123.3301
"2491",79.00023,1123.3433
"2492",78.96605,1123.3567
"2493",78.89281,1123.3699
"2494",78.785385,1123.3833
"2495",78.6511,1123.3965
"2496",78.49973,1123.4099
"2497",78.33372,1123.4231
"2498",78.15793,1123.4365
"2499",77.977264,1123.4497
"2500",77.7966,1123.4631
"2501",77.61837,1123.4763
"2502",77.44503,1123.4897
"2503",77.26925,1123.5029
"2504",77.10811,1123.5164
"2505",76.95918,1123.5295
"2506",76.824905,1123.543
"2507",76.715034,1123.5562
"2508",76.63447,1123.5696
"2509",76.5832,1123.5828
"2510",76.558784,1123.5962
"2511",76.55146,1123.6094
"2512",76.55634,1123.6228
"2513",76.57099,1123.636
"2514",76.58808,1123.6494
"2515",76.60273,1123.6626
"2516",76.612495,1123.676
"2517",76.63447,1123.6892
"2518",76.75166,1123.7026
"2519",77.12276,1123.7158
"2520",77.90646,1123.7292
"2521",79.17601,1123.7424
"2522",80.867935,1123.7559
"2523",82.78935,1123.769
"2524",84.65217,1123.7825
"2525",86.18051,1123.7957
"2526",87.201035,1123.8091
"2527",87.69421,1123.8223
"2528",87.73327,1123.8357
"2529",87.42321,1123.8489
"2530",86.87633,1123.8623
"2531",86.187836,1123.8755
"2532",85.42611,1123.8889
"2533",84.630196,1123.9021
"2534",83.83673,1123.9155
"2535",83.055466,1123.9287
"2536",82.29618,1123.9421
"2537",81.566185,1123.9553
"2538",80.88258,1123.9688
"2539",80.257576,1123.9819
"2540",79.71557,1123.9954
"2541",79.26879,1124.0085
"2542",78.92943,1124.022
"2543",78.695045,1124.0352
"2544",78.555885,1124.0486
"2545",78.49729,1124.0618
"2546",78.49241,1124.0752
"2547",78.52659,1124.0884
"2548",78.57786,1124.1018
"2549",78.626686,1124.115
"2550",78.660866,1124.1284
"2551",78.67063,1124.1416
"2552",78.65354,1124.155
"2553",78.60471,1124.1682
"2554",78.52659,1124.1816
"2555",78.416725,1124.1948
"2556",78.28245,1124.2083
"2557",78.12863,1124.2214
"2558",77.96994,1124.2349
"2559",77.81369,1124.248
"2560",77.6672,1124.2615
"2561",77.53292,1124.2747
"2562",77.40597,1124.2881
"2563",77.281456,1124.3013
"2564",77.15694,1124.3147
"2565",77.03731,1124.3279
"2566",76.929886,1124.3413
"2567",76.839554,1124.3545
"2568",76.773636,1124.3679
"2569",76.734566,1124.3811
"2570",76.717476,1124.3945
"2571",76.715034,1124.4077
"2572",76.72968,1124.4211
"2573",76.756546,1124.4343
"2574",76.788284,1124.4478
"2575",76.82735,1124.4609
"2576",76.87373,1124.4744
"2577",76.95674,1124.4875
"2578",77.196,1124.501
"2579",77.76242,1124.5142
"2580",78.78783,1124.5276
"2581",80.28687,1124.5408
"2582",82.13504,1124.5542
"2583",84.09064,1124.5674
"2584",85.85092,1124.5808
"2585",87.1693,1124.594
"2586",87.94568,1124.6074
"2587",88.20935,1124.6206
"2588",88.05066,1124.634
"2589",87.5819,1124.6472
"2590",86.908066,1124.6606
"2591",86.11215,1124.6738
"2592",85.24788,1124.6873
"2593",84.3592,1124.7004
"2594",83.47051,1124.7139
"2595",82.60624,1124.727
"2596",81.78104,1124.7405
"2597",81.00221,1124.7537
"2598",80.28687,1124.7671
"2599",79.64721,1124.7803
"2600",79.093,1124.7937
"2601",78.63645,1124.8069
"2602",78.30198,1124.8203
"2603",78.09445,1124.8335
"2604",78.009,1124.8469
"2605",78.030975,1124.8601
"2606",78.133514,1124.8735
"2607",78.27024,1124.8867
"2608",78.40452,1124.9001
"2609",78.50706,1124.9133
"2610",78.57053,1124.9268
"2611",78.590065,1124.94
"2612",78.56565,1124.9534
"2613",78.50706,1124.9666
"2614",78.43137,1124.98
"2615",78.34104,1124.9932
"2616",78.24582,1125.0066
"2617",78.14816,1125.0198
"2618",78.04562,1125.0332
"2619",77.93332,1125.0464
"2620",77.80881,1125.0598
"2621",77.66964,1125.073
"2622",77.5256,1125.0864
"2623",77.38888,1125.0996
"2624",77.26925,1125.113
"2625",77.17891,1125.1262
"2626",77.11543,1125.1396
"2627",77.069046,1125.1528
"2628",77.0251,1125.1663
"2629",76.97383,1125.1794
"2630",76.90303,1125.1929
"2631",76.82735,1125.206
"2632",76.773636,1125.2195
"2633",76.8127,1125.2327
"2634",77.100784,1125.2461
"2635",77.79904,1125.2593
"2636",78.99779,1125.2727
"2637",80.64332,1125.2859
"2638",82.55741,1125.2993
"2639",84.454414,1125.3125
"2640",86.04379,1125.3259
"2641",87.12779,1125.3391
"2642",87.67223,1125.3525
"2643",87.73571,1125.3657
"2644",87.42809,1125.3792
"2645",86.86656,1125.3923
"2646",86.14877,1125.4058
"2647",85.34554,1125.419
"2648",84.51057,1125.4324
"2649",83.665825,1125.4456
"2650",82.828415,1125.459
"2651",82.01297,1125.4722
"2652",81.22926,1125.4856
"2653",80.49195,1125.4988
"2654",79.81323,1125.5122
"2655",79.219955,1125.5254
"2656",78.72434,1125.5388
"2657",78.34104,1125.552
"2658",78.07492,1125.5654
"2659",77.93332,1125.5786
"2660",77.89914,1125.592
"2661",77.95041,1125.6052
"2662",78.05539,1125.6187
"2663",78.187225,1125.6318
"2664",78.31907,1125.6453
"2665",78.43137,1125.6584
"2666",78.51438,1125.6719
"2667",78.56809,1125.685
"2668",78.59251,1125.6985
"2669",78.58518,1125.7117
"2670",78.54612,1125.7251
"2671",78.4802,1125.7383
"2672",78.38743,1125.7517
"2673",78.27268,1125.7649
"2674",78.14572,1125.7783
"2675",78.013885,1125.7915
"2676",77.87961,1125.8049
"2677",77.752655,1125.8181
"2678",77.642784,1125.8315
"2679",77.54757,1125.8447
"2680",77.471886,1125.8582
"2681",77.40597,1125.8713
"2682",77.34005,1125.8848
"2683",77.26925,1125.898
"2684",77.23262,1125.9114
"2685",77.35226,1125.9246
"2686",77.80148,1125.938
"2687",78.70725,1125.9512
"2688",80.08423,1125.9646
"2689",81.812775,1125.9778
"2690",83.64385,1125.9912
"2691",85.27718,1126.0044
"2692",86.485695,1126.0178
"2693",87.1693,1126.031
"2694",87.35973,1126.0444
"2695",87.15465,1126.0576
"2696",86.66636,1126.071
"2697",85.99985,1126.0842
"2698",85.23079,1126.0977
"2699",84.41535,1126.1108
"2700",83.5877,1126.1243
"2701",82.76494,1126.1375
"2702",81.96414,1126.1509
"2703",81.20485,1126.1641
"2704",80.48951,1126.1775
"2705",79.82788,1126.1907
"2706",79.23949,1126.2041
"2707",78.73167,1126.2173
"2708",78.32151,1126.2307
"2709",78.01633,1126.2439
"2710",77.823456,1126.2573
"2711",77.72823,1126.2705
"2712",77.72091,1126.2839
"2713",77.77707,1126.2971
"2714",77.8674,1126.3105
"2715",77.97238,1126.3237
"2716",78.0798,1126.3372
"2717",78.17502,1126.3503
"2718",78.24582,1126.3638
"2719",78.29221,1126.377
"2720",78.311745,1126.3904
"2721",78.2971,1126.4036
"2722",78.25559,1126.417
"2723",78.19455,1126.4302
"2724",78.12131,1126.4436
"2725",78.04074,1126.4568
"2726",77.962616,1126.4702
"2727",77.88937,1126.4834
"2728",77.81613,1126.4968
"2729",77.74288,1126.51
"2730",77.662315,1126.5234
"2731",77.574425,1126.5366
"2732",77.47921,1126.55
"2733",77.40597,1126.5632
"2734",77.437706,1126.5767
"2735",77.73556,1126.5898
"2736",78.44602,1126.6033
"2737",79.63256,1126.6165
"2738",81.21706,1126.6299
"2739",83.01152,1126.6431
"2740",84.72785,1126.6565
"2741",86.10971,1126.6697
"2742",87.00084,1126.6831
"2743",87.398796,1126.6963
"2744",87.3695,1126.7097
"2745",87.02525,1126.7229
"2746",86.47349,1126.7363
"2747",85.80209,1126.7495
"2748",85.0721,1126.763
"2749",84.32502,1126.7761
"2750",83.57549,1126.7896
"2751",82.83818,1126.8027
"2752",82.11795,1126.8162
"2753",81.427025,1126.8293
"2754",80.77028,1126.8428
"2755",80.16235,1126.856
"2756",79.61547,1126.8694
"2757",79.14427,1126.8826
"2758",78.768295,1126.896
"2759",78.49973,1126.9092
"2760",78.3386,1126.9226
"2761",78.28001,1126.9358
"2762",78.29954,1126.9492
"2763",78.365456,1126.9624
"2764",78.44602,1126.9758
"2765",78.519264,1126.989
"2766",78.572975,1127.0024
"2767",78.60227,1127.0156
"2768",78.6096,1127.029
"2769",78.59983,1127.0422
"2770",78.572975,1127.0557
"2771",78.52659,1127.0688
"2772",78.46555,1127.0823
"2773",78.39231,1127.0955
"2774",78.3093,1127.1089
"2775",78.21896,1127.1221
"2776",78.12375,1127.1355
"2777",78.02365,1127.1487
"2778",77.91379,1127.1621
"2779",77.79172,1127.1753
"2780",77.68429,1127.1887
"2781",77.65743,1127.2019
"2782",77.86252,1127.2153
"2783",78.450905,1127.2285
"2784",79.4934,1127.242
"2785",80.9485,1127.2551
"2786",82.63798,1127.2686
"2787",84.300606,1127.2817
"2788",85.67269,1127.2952
"2789",86.58579,1127.3083
"2790",87.010605,1127.3218
"2791",87.00816,1127.335
"2792",86.678566,1127.3484
"2793",86.11459,1127.3616
"2794",85.4139,1127.375
"2795",84.63996,1127.3882
"2796",83.82941,1127.4016
"2797",83.01396,1127.4148
"2798",82.213165,1127.4282
"2799",81.42947,1127.4414
"2800",80.672615,1127.4548
"2801",79.94995,1127.468
"2802",79.281,1127.4814
"2803",78.6804,1127.4946
"2804",78.170135,1127.508
"2805",77.7673,1127.5212
"2806",77.488976,1127.5347
"2807",77.332726,1127.5479
"2808",77.29122,1127.5613
"2809",77.34005,1127.5745
"2810",77.44991,1127.5879
"2811",77.591515,1127.6011
"2812",77.733116,1127.6145
"2813",77.86496,1127.6277
"2814",77.979706,1127.6411
"2815",78.07248,1127.6543
"2816",78.14084,1127.6677
"2817",78.18967,1127.6809
"2818",78.21652,1127.6943
"2819",78.221405,1127.7075
"2820",78.204315,1127.721
"2821",78.16525,1127.7341
"2822",78.11154,1127.7476
"2823",78.04318,1127.7607
"2824",77.97482,1127.7742
"2825",77.94064,1127.7874
"2826",78.05051,1127.8008
"2827",78.44114,1127.814
"2828",79.234604,1127.8274
"2829",80.445564,1127.8406
"2830",81.95682,1127.854
"2831",83.5584,1127.8672
"2832",84.99397,1127.8806
"2833",86.05112,1127.8938
"2834",86.63462,1127.9072
"2835",86.77135,1127.9204
"2836",86.554054,1127.9338
"2837",86.07797,1127.947
"2838",85.44076,1127.9604
"2839",84.70588,1127.9736
"2840",83.92706,1127.987
"2841",83.12627,1128.0002
"2842",82.32792,1128.0137
"2843",81.53933,1128.0269
"2844",80.76784,1128.0403
"2845",80.028076,1128.0535
"2846",79.33227,1128.0669
"2847",78.695045,1128.0801
"2848",78.135956,1128.0935
"2849",77.67208,1128.1067
"2850",77.313194,1128.1201
"2851",77.06416,1128.1333
"2852",76.927444,1128.1467
"2853",76.88838,1128.1599
"2854",76.927444,1128.1733
"2855",77.02022,1128.1865
"2856",77.14229,1128.2
"2857",77.27169,1128.2131
"2858",77.39376,1128.2266
"2859",77.4963,1128.2397
"2860",77.576866,1128.2532
"2861",77.63302,1128.2664
"2862",77.66476,1128.2798
"2863",77.67452,1128.293
"2864",77.662315,1128.3064
"2865",77.625694,1128.3196
"2866",77.5671,1128.333
"2867",77.50118,1128.3462
"2868",77.47677,1128.3596
"2869",77.61593,1128.3728
"2870",78.06271,1128.3862
"2871",78.91966,1128.3994
"2872",80.177,1128.4128
"2873",81.70779,1128.426
"2874",83.28741,1128.4395
"2875",84.65949,1128.4526
"2876",85.63607,1128.4661
"2877",86.153656,1128.4792
"2878",86.24887,1128.4927
"2879",86.00473,1128.5059
"2880",85.523766,1128.5193
"2881",84.89632,1128.5325
"2882",84.17853,1128.5459
"2883",83.41436,1128.5591
"2884",82.63554,1128.5725
"2885",81.849396,1128.5857
"2886",81.06569,1128.5991
"2887",80.27711,1128.6123
"2888",79.46166,1128.6257
"2889",78.63401,1128.6389
"2890",77.8259,1128.6523
"2891",77.08858,1128.6655
"2892",76.46601,1128.679
"2893",76.00214,1128.6921
"2894",75.716484,1128.7056
"2895",75.58953,1128.7188
"2896",75.579765,1128.7322
"2897",75.65789,1128.7454
"2898",75.789734,1128.7588
"2899",75.945984,1128.772
"2900",76.104675,1128.7854
"2901",76.25605,1128.7986
"2902",76.39765,1128.812
"2903",76.51972,1128.8252
"2904",76.6247,1128.8386
"2905",76.71259,1128.8518
"2906",76.78096,1128.8652
"2907",76.83223,1128.8784
"2908",76.87373,1128.8918
"2909",76.912796,1128.905
"2910",76.978714,1128.9185
"2911",77.171585,1128.9316
"2912",77.6379,1128.9451
"2913",78.504616,1128.9583
"2914",79.79614,1128.9717
"2915",81.41238,1128.9849
"2916",83.14336,1128.9983
"2917",84.72297,1129.0115
"2918",85.924164,1129.0249
"2919",86.641945,1129.0381
"2920",86.8983,1129.0515
"2921",86.77623,1129.0647
"2922",86.37583,1129.0781
"2923",85.79965,1129.0913
"2924",85.118484,1129.1047
"2925",84.38361,1129.1179
"2926",83.62188,1129.1313
"2927",82.847946,1129.1445
"2928",82.074005,1129.158
"2929",81.29763,1129.1711
"2930",80.5359,1129.1846
"2931",79.798584,1129.1978
"2932",79.10521,1129.2112
"2933",78.47288,1129.2244
"2934",77.93332,1129.2378
"2935",77.50118,1129.251
"2936",77.18379,1129.2644
"2937",76.9836,1129.2776
"2938",76.88838,1129.291
"2939",76.876175,1129.3042
"2940",76.927444,1129.3176
"2941",77.02266,1129.3308
"2942",77.137405,1129.3442
"2943",77.25948,1129.3574
"2944",77.366905,1129.3708
"2945",77.44991,1129.384
"2946",77.51095,1129.3975
"2947",77.54757,1129.4106
"2948",77.557335,1129.4241
"2949",77.54513,1129.4373
"2950",77.51095,1129.4507
"2951",77.45724,1129.4639
"2952",77.40597,1129.4773
"2953",77.44503,1129.4905
"2954",77.72335,1129.5039
"2955",78.38743,1129.5171
"2956",79.500725,1129.5305
"2957",80.99733,1129.5437
"2958",82.69413,1129.5571
"2959",84.32014,1129.5703
"2960",85.63119,1129.5837
"2961",86.47837,1129.5969
"2962",86.85191,1129.6104
"2963",86.82506,1129.6235
"2964",86.50767,1129.637
"2965",85.997406,1129.6501
"2966",85.37484,1129.6636
"2967",84.67902,1129.6768
"2968",83.94415,1129.6902
"2969",83.17998,1129.7034
"2970",82.4036,1129.7168
"2971",81.619896,1129.73
"2972",80.84352,1129.7434
"2973",80.08911,1129.7566
"2974",79.37377,1129.77
"2975",78.712135,1129.7832
"2976",78.12863,1129.7966
"2977",77.645226,1129.8098
"2978",77.279015,1129.8232
"2979",77.03975,1129.8364
"2980",76.91768,1129.8499
"2981",76.893265,1129.863
"2982",76.93965,1129.8765
"2983",77.02754,1129.8896
"2984",77.13985,1129.9031
"2985",77.25948,1129.9163
"2986",77.36935,1129.9297
"2987",77.46212,1129.9429
"2988",77.53292,1129.9563
"2989",77.57198,1129.9695
"2990",77.58907,1129.9829
"2991",77.58175,1129.9961
"2992",77.55978,1130.0095
"2993",77.52804,1130.0227
"2994",77.486534,1130.0361
"2995",77.47433,1130.0493
"2996",77.593956,1130.0627
"2997",77.98947,1130.0759
"2998",78.7805,1130.0894
"2999",80.00122,1130.1025
"3000",81.54665,1130.116
"3001",83.20683,1130.1292
"3002",84.71809,1130.1426
"3003",85.86069,1130.1558
"3004",86.5272,1130.1692
"3005",86.74204,1130.1824
"3006",86.59312,1130.1958
"3007",86.18295,1130.209
"3008",85.61166,1130.2224
"3009",84.95247,1130.2356
"3010",84.24933,1130.249
"3011",83.51934,1130.2622
"3012",82.77226,1130.2756
"3013",82.01297,1130.2888
"3014",81.24635,1130.3022
"3015",80.4773,1130.3154
"3016",79.727776,1130.3289
"3017",79.0222,1130.342
"3018",78.38743,1130.3555
"3019",77.84787,1130.3687
"3020",77.418175,1130.3821
"3021",77.11299,1130.3953
"3022",76.925,1130.4087
"3023",76.839554,1130.4219
"3024",76.83223,1130.4353
"3025",76.89082,1130.4485
"3026",76.9836,1130.4619
"3027",77.09102,1130.4751
"3028",77.19844,1130.4885
"3029",77.30099,1130.5017
"3030",77.39132,1130.5151
"3031",77.45968,1130.5283
"3032",77.506065,1130.5417
"3033",77.5256,1130.5549
"3034",77.51583,1130.5684
"3035",77.48165,1130.5815
"3036",77.42306,1130.595
"3037",77.35226,1130.6082
"3038",77.28634,1130.6216
"3039",77.30343,1130.6348
"3040",77.53536,1130.6482
"3041",78.1384,1130.6614
"3042",79.183334,1130.6748
"3043",80.62623,1130.688
"3044",82.29618,1130.7014
"3045",83.93927,1130.7146
"3046",85.29183,1130.728
"3047",86.19516,1130.7412
"3048",86.61509,1130.7546
"3049",86.6273,1130.7678
"3050",86.329445,1130.7812
"3051",85.82895,1130.7944
"3052",85.20393,1130.8079
"3053",84.508125,1130.821
"3054",83.76837,1130.8345
"3055",83.00664,1130.8477
"3056",82.23758,1130.8611
"3057",81.47341,1130.8743
"3058",80.72144,1130.8877
"3059",79.98413,1130.9009
"3060",79.28588,1130.9143
"3061",78.63157,1130.9275
"3062",78.048065,1130.9409
"3063",77.56222,1130.9541
"3064",77.19112,1130.9675
"3065",76.93965,1130.9807
"3066",76.80293,1130.9941
"3067",76.75899,1131.0073
"3068",76.78096,1131.0208
"3069",76.85176,1131.0339
"3070",76.94942,1131.0474
"3071",77.0544,1131.0605
"3072",77.152054,1131.074
"3073",77.239944,1131.0872
"3074",77.30587,1131.1006
"3075",77.349815,1131.1138
"3076",77.36202,1131.1272
"3077",77.3547,1131.1404
"3078",77.332726,1131.1538
"3079",77.296104,1131.167
"3080",77.24971,1131.1804
"3081",77.19112,1131.1936
"3082",77.12276,1131.207
"3083",77.06172,1131.2202
"3084",77.086136,1131.2336
"3085",77.347374,1131.2468
"3086",77.994354,1131.2603
"3087",79.10033,1131.2734
"3088",80.618904,1131.2869
"3089",82.36698,1131.3
"3090",84.07843,1131.3135
"3091",85.4847,1131.3267
"3092",86.42466,1131.3401
"3093",86.871445,1131.3533
"3094",86.888535,1131.3667
"3095",86.58091,1131.3799
"3096",86.06088,1131.3933
"3097",85.41634,1131.4065
"3098",84.70344,1131.4199
"3099",83.95392,1131.4331
"3100",83.18486,1131.4465
"3101",82.4036,1131.4597
"3102",81.617455,1131.4731
"3103",80.83864,1131.4863
"3104",80.076904,1131.4998
"3105",79.3518,1131.513
"3106",78.68284,1131.5264
"3107",78.09201,1131.5396
"3108",77.60128,1131.553
"3109",77.222855,1131.5662
"3110",76.96895,1131.5796
"3111",76.82735,1131.5928
"3112",76.77852,1131.6062
"3113",76.79561,1131.6194
"3114",76.8542,1131.6328
"3115",76.93721,1131.646
"3116",77.02998,1131.6594
"3117",77.1252,1131.6726
"3118",77.21553,1131.686
"3119",77.28634,1131.6992
"3120",77.33761,1131.7126
"3121",77.36202,1131.7258
"3122",77.36446,1131.7393
"3123",77.35226,1131.7524
"3124",77.330284,1131.7659
"3125",77.30343,1131.779
"3126",77.27413,1131.7925
"3127",77.239944,1131.8057
"3128",77.19356,1131.8191
"3129",77.134964,1131.8323
"3130",77.07149,1131.8457
"3131",77.051956,1131.8589
"3132",77.21065,1131.8723
"3133",77.71114,1131.8855
"3134",78.67307,1131.8989
"3135",80.09888,1131.9121
"3136",81.849396,1131.9255
"3137",83.67559,1131.9387
"3138",85.29427,1131.9521
"3139",86.485695,1131.9653
"3140",87.16441,1131.9788
"3141",87.37194,1131.992
"3142",87.201035,1132.0054
"3143",86.768906,1132.0186
"3144",86.170746,1132.032
"3145",85.47738,1132.0452
"3146",84.73029,1132.0586
"3147",83.9588,1132.0718
"3148",83.17265,1132.0852
"3149",82.37919,1132.0984
"3150",81.58572,1132.1118
"3151",80.81178,1132.125
"3152",80.0647,1132.1384
"3153",79.364006,1132.1516
"3154",78.72678,1132.165
"3155",78.17502,1132.1782
"3156",77.72823,1132.1917
"3157",77.3962,1132.2048
"3158",77.18623,1132.2183
"3159",77.08125,1132.2314
"3160",77.066605,1132.2449
"3161",77.117874,1132.258
"3162",77.21065,1132.2715
"3163",77.315636,1132.2847
"3164",77.42306,1132.2981
"3165",77.51095,1132.3113
"3166",77.57198,1132.3247
"3167",77.60372,1132.3379
"3168",77.60616,1132.3513
"3169",77.58907,1132.3645
"3170",77.55489,1132.3779
"3171",77.50851,1132.3911
"3172",77.45968,1132.4045
"3173",77.40597,1132.4177
"3174",77.35226,1132.4312
"3175",77.296104,1132.4443
"3176",77.23262,1132.4578
"3177",77.16182,1132.471
"3178",77.08125,1132.4844
"3179",77.00801,1132.4976
"3180",77.00557,1132.511
"3181",77.208206,1132.5242
"3182",77.786835,1132.5376
"3183",78.83421,1132.5508
"3184",80.3357,1132.5642
"3185",82.13748,1132.5774
"3186",83.97833,1132.5908
"3187",85.575035,1132.604
"3188",86.729836,1132.6174
"3189",87.37194,1132.6306
"3190",87.54528,1132.644
"3191",87.35729,1132.6572
"3192",86.91295,1132.6707
"3193",86.29771,1132.6838
"3194",85.5848,1132.6973
"3195",84.81331,1132.7104
"3196",84.00763,1132.7239
"3197",83.18974,1132.737
"3198",82.374306,1132.7505
"3199",81.57107,1132.7637
"3200",80.78737,1132.7771
"3201",80.0354,1132.7903
"3202",79.327385,1132.8037
"3203",78.68528,1132.8169
"3204",78.13107,1132.8303
"3205",77.68429,1132.8435
"3206",77.35226,1132.8569
"3207",77.13985,1132.8701
"3208",77.03487,1132.8835
"3209",77.01289,1132.8967
"3210",77.049515,1132.9102
"3211",77.12276,1132.9233
"3212",77.208206,1132.9368
"3213",77.28878,1132.95
"3214",77.36446,1132.9634
"3215",77.42306,1132.9766
"3216",77.45968,1132.99
"3217",77.47433,1133.0032
"3218",77.47433,1133.0166
"3219",77.44991,1133.0298
"3220",77.41573,1133.0432
"3221",77.37179,1133.0564
"3222",77.32296,1133.0698
"3223",77.27413,1133.083
"3224",77.21797,1133.0964
"3225",77.14961,1133.1096
"3226",77.07149,1133.123
"3227",76.98848,1133.1362
"3228",76.93233,1133.1497
"3229",76.99336,1133.1628
"3230",77.332726,1133.1763
"3231",78.09445,1133.1895
"3232",79.327385,1133.2029
"3233",80.9485,1133.2161
"3234",82.76738,1133.2295
"3235",84.51057,1133.2427
"3236",85.91928,1133.2561
"3237",86.85191,1133.2693
"3238",87.30114,1133.2827
"3239",87.33044,1133.2959
"3240",87.0399,1133.3093
"3241",86.53208,1133.3225
"3242",85.88266,1133.3359
"3243",85.14534,1133.3491
"3244",84.36164,1133.3625
"3245",83.563286,1133.3757
"3246",82.757614,1133.3892
"3247",81.95926,1133.4023
"3248",81.17555,1133.4158
"3249",80.41871,1133.429
"3250",79.69848,1133.4424
"3251",79.03685,1133.4556
"3252",78.45335,1133.469
"3253",77.9675,1133.4822
"3254",77.593956,1133.4956
"3255",77.33761,1133.5088
"3256",77.188675,1133.5222
"3257",77.13252,1133.5354
"3258",77.14717,1133.5488
"3259",77.20088,1133.562
"3260",77.27169,1133.5754
"3261",77.34249,1133.5886
"3262",77.40353,1133.602
"3263",77.44991,1133.6152
"3264",77.48165,1133.6287
"3265",77.50118,1133.6418
"3266",77.506065,1133.6553
"3267",77.4963,1133.6685
"3268",77.47433,1133.6819
"3269",77.44015,1133.6951
"3270",77.39376,1133.7085
"3271",77.34005,1133.7217
"3272",77.28634,1133.7351
"3273",77.22041,1133.7483
"3274",77.14961,1133.7617
"3275",77.069046,1133.7749
"3276",77.00069,1133.7883
"3277",77.01289,1133.8015
"3278",77.2546,1133.815
"3279",77.87717,1133.8281
"3280",78.95628,1133.8416
"3281",80.45045,1133.8547
"3282",82.196075,1133.8682
"3283",83.93683,1133.8813
"3284",85.4139,1133.8948
"3285",86.4564,1133.908
"3286",87.02525,1133.9214
"3287",87.1693,1133.9346
"3288",86.97887,1133.948
"3289",86.54429,1133.9612
"3290",85.94614,1133.9746
"3291",85.24544,1133.9878
"3292",84.491035,1134.0012
"3293",83.70489,1134.0144
"3294",82.913864,1134.0278
"3295",82.125275,1134.041
"3296",81.35378,1134.0544
"3297",80.6067,1134.0676
"3298",79.89624,1134.081
"3299",79.24681,1134.0942
"3300",78.675514,1134.1077
"3301",78.20187,1134.1208
"3302",77.84543,1134.1343
"3303",77.611046,1134.1475
"3304",77.48409,1134.1609
"3305",77.452354,1134.1741
"3306",77.488976,1134.1875
"3307",77.56954,1134.2007
"3308",77.66964,1134.2141
"3309",77.77463,1134.2273
"3310",77.87717,1134.2407
"3311",77.9675,1134.2539
"3312",78.04074,1134.2673
"3313",78.09689,1134.2805
"3314",78.133514,1134.294
"3315",78.14816,1134.3071
"3316",78.1384,1134.3206
"3317",78.1091,1134.3337
"3318",78.06271,1134.3472
"3319",78.009,1134.3604
"3320",77.95041,1134.3738
"3321",77.891815,1134.387
"3322",77.83078,1134.4004
"3323",77.76486,1134.4136
"3324",77.68917,1134.427
"3325",77.60616,1134.4402
"3326",77.55001,1134.4536
"3327",77.61349,1134.4668
"3328",77.94797,1134.4802
"3329",78.68284,1134.4934
"3330",79.86206,1134.5068
"3331",81.40749,1134.52
"3332",83.13115,1134.5334
"3333",84.77425,1134.5466
"3334",86.10483,1134.56
"3335",86.98863,1134.5732
"3336",87.42077,1134.5867
"3337",87.45251,1134.5999
"3338",87.17906,1134.6133
"3339",86.68833,1134.6265
"3340",86.056,1134.6399
"3341",85.3431,1134.6531
"3342",84.58869,1134.6665
"3343",83.81964,1134.6797
"3344",83.05058,1134.6931
"3345",82.2913,1134.7063
"3346",81.55398,1134.7197
"3347",80.850845,1134.7329
"3348",80.19653,1134.7463
"3349",79.61791,1134.7595
"3350",79.13451,1134.773
"3351",78.76341,1134.7861
"3352",78.51438,1134.7996
"3353",78.380104,1134.8127
"3354",78.34104,1134.8262
"3355",78.37766,1134.8394
"3356",78.45335,1134.8528
"3357",78.54612,1134.866
"3358",78.63401,1134.8794
"3359",78.69749,1134.8926
"3360",78.73167,1134.906
"3361",78.73411,1134.9192
"3362",78.712135,1134.9326
"3363",78.675514,1134.9458
"3364",78.624245,1134.9592
"3365",78.56321,1134.9724
"3366",78.48997,1134.9858
"3367",78.397194,1134.999
"3368",78.28733,1135.0125
"3369",78.167694,1135.0256
"3370",78.048065,1135.0391
"3371",77.94064,1135.0522
"3372",77.840546,1135.0657
"3373",77.75021,1135.0789
"3374",77.66476,1135.0923
"3375",77.61349,1135.1055
"3376",77.69405,1135.1189
"3377",78.05295,1135.1321
"3378",78.79515,1135.1455
"3379",79.9353,1135.1587
"3380",81.38552,1135.1721
"3381",82.950485,1135.1853
"3382",84.39094,1135.1987
"3383",85.506676,1135.2119
"3384",86.20981,1135.2253
"3385",86.4979,1135.2385
"3386",86.434425,1135.252
"3387",86.10483,1135.2651
"3388",85.58724,1135.2786
"3389",84.947586,1135.2917
"3390",84.23712,1135.3052
"3391",83.48516,1135.3184
"3392",82.70878,1135.3318
"3393",81.934845,1135.345
"3394",81.17799,1135.3584
"3395",80.45777,1135.3716
"3396",79.7937,1135.385
"3397",79.20531,1135.3982
"3398",78.71702,1135.4116
"3399",78.345924,1135.4248
"3400",78.09689,1135.4382
"3401",77.96994,1135.4514
"3402",77.945526,1135.4648
"3403",77.994354,1135.478
"3404",78.082245,1135.4915
"3405",78.18967,1135.5046
"3406",78.28733,1135.5181
"3407",78.363014,1135.5312
"3408",78.41184,1135.5447
"3409",78.42893,1135.5579
"3410",78.41428,1135.5713
"3411",78.37766,1135.5845
"3412",78.31663,1135.5979
"3413",78.24094,1135.6111
"3414",78.14816,1135.6245
"3415",78.05051,1135.6377
"3416",77.94797,1135.6511
"3417",77.84787,1135.6643
"3418",77.7551,1135.6777
"3419",77.66964,1135.6909
"3420",77.58419,1135.7043
"3421",77.49874,1135.7175
"3422",77.40597,1135.731
"3423",77.32784,1135.7441
"3424",77.35226,1135.7576
"3425",77.611046,1135.7708
"3426",78.22629,1135.7842
"3427",79.24925,1135.7974
"3428",80.61402,1135.8108
"3429",82.161896,1135.824
"3430",83.65362,1135.8374
"3431",84.874344,1135.8506
"3432",85.70199,1135.864
"3433",86.10971,1135.8772
"3434",86.14145,1135.8906
"3435",85.872894,1135.9038
"3436",85.38949,1135.9172
"3437",84.76204,1135.9304
"3438",84.04913,1135.9438
"3439",83.29229,1135.957
"3440",82.52079,1135.9705
"3441",81.76395,1135.9836
"3442",81.03639,1135.9971
"3443",80.36256,1136.0103
"3444",79.75952,1136.0237
"3445",79.237045,1136.0369
"3446",78.80003,1136.0503
"3447",78.45823,1136.0635
"3448",78.221405,1136.0769
"3449",78.08469,1136.0901
"3450",78.04318,1136.1035
"3451",78.082245,1136.1167
"3452",78.17502,1136.1301
"3453",78.28977,1136.1433
"3454",78.40208,1136.1567
"3455",78.49241,1136.1699
"3456",78.54612,1136.1833
"3457",78.56565,1136.1965
"3458",78.54856,1136.21
"3459",78.49973,1136.2231
"3460",78.43137,1136.2366
"3461",78.348366,1136.2498
"3462",78.25559,1136.2632
"3463",78.153046,1136.2764
"3464",78.05051,1136.2898
"3465",77.94797,1136.303
"3466",77.84787,1136.3164
"3467",77.7551,1136.3296
"3468",77.66476,1136.343
"3469",77.57198,1136.3562
"3470",77.47433,1136.3696
"3471",77.38888,1136.3828
"3472",77.38644,1136.3962
"3473",77.60128,1136.4094
"3474",78.15549,1136.4229
"3475",79.10765,1136.436
"3476",80.411385,1136.4495
"3477",81.91287,1136.4626
"3478",83.38018,1136.4761
"3479",84.596016,1136.4893
"3480",85.42123,1136.5027
"3481",85.82651,1136.5159
"3482",85.85336,1136.5293
"3483",85.58968,1136.5425
"3484",85.12825,1136.5559
"3485",84.53742,1136.5691
"3486",83.87579,1136.5825
"3487",83.17998,1136.5957
"3488",82.47196,1136.6091
"3489",81.76639,1136.6223
"3490",81.08278,1136.6357
"3491",80.43336,1136.6489
"3492",79.84497,1136.6624
"3493",79.33959,1136.6755
"3494",78.941635,1136.689
"3495",78.660866,1136.7021
"3496",78.49973,1136.7156
"3497",78.44846,1136.7288
"3498",78.47532,1136.7422
"3499",78.56077,1136.7554
"3500",78.67063,1136.7688
"3501",78.79027,1136.782
"3502",78.89525,1136.7954
"3503",78.97093,1136.8086
"3504",79.012436,1136.822
"3505",79.02464,1136.8352
"3506",79.00023,1136.8486
"3507",78.94896,1136.8618
"3508",78.87816,1136.8752
"3509",78.79271,1136.8884
"3510",78.68528,1136.9019
"3511",78.57053,1136.915
"3512",78.45335,1136.9285
"3513",78.3386,1136.9417
"3514",78.23361,1136.9551
"3515",78.14572,1136.9683
"3516",78.07248,1136.9817
"3517",78.00412,1136.9949
"3518",77.9382,1137.0083
"3519",77.8674,1137.0215
"3520",77.823456,1137.0349
"3521",77.872284,1137.0481
"3522",78.14572,1137.0615
"3523",78.75365,1137.0747
"3524",79.7522,1137.0881
"3525",81.0901,1137.1013
"3526",82.61112,1137.1147
"3527",84.09552,1137.1279
"3528",85.333336,1137.1414
"3529",86.18295,1137.1545
"3530",86.607765,1137.168
"3531",86.64927,1137.1812
"3532",86.380714,1137.1946
"3533",85.889984,1137.2078
"3534",85.26498,1137.2212
"3535",84.56672,1137.2344
"3536",83.84894,1137.2478
"3537",83.12871,1137.261
"3538",82.42069,1137.2744
"3539",81.739525,1137.2876
"3540",81.094986,1137.301
"3541",80.50416,1137.3142
"3542",79.9939,1137.3276
"3543",79.586174,1137.3408
"3544",79.293205,1137.3542
"3545",79.114975,1137.3674
"3546",79.03929,1137.3809
"3547",79.04906,1137.394
"3548",79.11253,1137.4075
"3549",79.202866,1137.4207
"3550",79.293205,1137.4341
"3551",79.361565,1137.4473
"3552",79.39086,1137.4607
"3553",79.37621,1137.4739
"3554",79.32006,1137.4873
"3555",79.23216,1137.5005
"3556",79.1223,1137.5139
"3557",79.00023,1137.5271
"3558",78.870834,1137.5405
"3559",78.74143,1137.5537
"3560",78.61692,1137.5671
"3561",78.485085,1137.5803
"3562",78.35569,1137.5938
"3563",78.22629,1137.6069
"3564",78.099335,1137.6204
"3565",77.977264,1137.6335
"3566",77.86008,1137.647
"3567",77.752655,1137.6602
"3568",77.71114,1137.6736
"3569",77.83322,1137.6868
"3570",78.24338,1137.7002
"3571",79.02464,1137.7134
"3572",80.177,1137.7268
"3573",81.5906,1137.74
"3574",83.06279,1137.7534
"3575",84.37385,1137.7666
"3576",85.34066,1137.78
"3577",85.89487,1137.7932
"3578",86.04379,1137.8066
"3579",85.86557,1137.8198
"3580",85.452965,1137.8333
"3581",84.893875,1137.8464
"3582",84.2591,1137.8599
"3583",83.59014,1137.873
"3584",82.90654,1137.8865
"3585",82.22049,1137.8997
"3586",81.549095,1137.9131
"3587",80.90456,1137.9263
"3588",80.31617,1137.9397
"3589",79.80835,1137.9529
"3590",79.40307,1137.9663
"3591",79.114975,1137.9795
"3592",78.94652,1137.9929
"3593",78.887924,1138.0061
"3594",78.9099,1138.0195
"3595",78.98314,1138.0327
"3596",79.078354,1138.0461
"3597",79.168686,1138.0593
"3598",79.234604,1138.0728
"3599",79.27123,1138.0859
"3600",79.273674,1138.0994
"3601",79.24437,1138.1125
"3602",79.17601,1138.126
"3603",79.080795,1138.1392
"3604",78.96117,1138.1526
"3605",78.82689,1138.1658
"3606",78.68284,1138.1792
"3607",78.54124,1138.1924
"3608",78.40452,1138.2058
"3609",78.27268,1138.219
"3610",78.14572,1138.2324
"3611",78.02365,1138.2456
"3612",77.90158,1138.259
"3613",77.79172,1138.2722
"3614",77.752655,1138.2856
"3615",77.8967,1138.2988
"3616",78.33616,1138.3123
"3617",79.13451,1138.3254
"3618",80.27955,1138.3389
"3619",81.65652,1138.352
"3620",83.055466,1138.3655
"3621",84.263985,1138.3787
"3622",85.12337,1138.3921
"3623",85.56771,1138.4053
"3624",85.61898,1138.4187
"3625",85.35531,1138.4319
"3626",84.876785,1138.4453
"3627",84.27863,1138.4585
"3628",83.617,1138.4719
"3629",82.933395,1138.4851
"3630",82.247345,1138.4985
"3631",81.57595,1138.5117
"3632",80.92653,1138.5251
"3633",80.323494,1138.5383
"3634",79.781494,1138.5518
"3635",79.32494,1138.565
"3636",78.975815,1138.5784
"3637",78.73899,1138.5916
"3638",78.6218,1138.605
"3639",78.61204,1138.6182
"3640",78.68284,1138.6316
"3641",78.79027,1138.6448
"3642",78.905014,1138.6582
"3643",78.995346,1138.6714
"3644",79.044174,1138.6848
"3645",79.044174,1138.698
"3646",78.99779,1138.7114
"3647",78.91722,1138.7246
"3648",78.80736,1138.738
"3649",78.677956,1138.7512
"3650",78.538795,1138.7646
"3651",78.397194,1138.7778
"3652",78.25559,1138.7913
"3653",78.116425,1138.8044
"3654",77.97238,1138.8179
"3655",77.823456,1138.831
"3656",77.67452,1138.8445
"3657",77.523155,1138.8577
"3658",77.38644,1138.8711
"3659",77.30343,1138.8843
"3660",77.37423,1138.8977
"3661",77.71603,1138.9109
"3662",78.41917,1138.9243
"3663",79.50317,1138.9375
"3664",80.87038,1138.9509
"3665",82.337685,1138.9641
"3666",83.67315,1138.9775
"3667",84.68879,1138.9907
"3668",85.279625,1139.0042
"3669",85.45785,1139.0173
"3670",85.28695,1139.0308
"3671",84.8719,1139.044
"3672",84.31037,1139.0574
"3673",83.682915,1139.0706
"3674",83.038376,1139.084
"3675",82.39628,1139.0972
"3676",81.76395,1139.1106
"3677",81.1487,1139.1238
"3678",80.56519,1139.1372
"3679",80.02319,1139.1504
"3680",79.55688,1139.1638
"3681",79.185776,1139.177
"3682",78.92699,1139.1904
"3683",78.785385,1139.2036
"3684",78.746315,1139.217
"3685",78.79271,1139.2302
"3686",78.87816,1139.2437
"3687",78.97093,1139.2568
"3688",79.044174,1139.2703
"3689",79.07103,1139.2834
"3690",79.046616,1139.2969
"3691",78.975815,1139.31
"3692",78.870834,1139.3235
"3693",78.74143,1139.3367
"3694",78.59983,1139.3501
"3695",78.44358,1139.3633
"3696",78.28733,1139.3767
"3697",78.133514,1139.3899
"3698",77.98215,1139.4033
"3699",77.838104,1139.4165
"3700",77.70382,1139.4299
"3701",77.576866,1139.4431
"3702",77.452354,1139.4565
"3703",77.332726,1139.4697
"3704",77.23506,1139.4832
"3705",77.208206,1139.4963
"3706",77.34249,1139.5098
"3707",77.752655,1139.523
"3708",78.52415,1139.5364
"3709",79.64477,1139.5496
"3710",80.99245,1139.563
"3711",82.36698,1139.5762
"3712",83.543755,1139.5896
"3713",84.351875,1139.6028
"3714",84.72297,1139.6162
"3715",84.70832,1139.6294
"3716",84.40559,1139.6428
"3717",83.931946,1139.656
"3718",83.372856,1139.6694
"3719",82.78691,1139.6826
"3720",82.20584,1139.696
"3721",81.634544,1139.7092
"3722",81.075455,1139.7227
"3723",80.5359,1139.7358
"3724",80.02319,1139.7493
"3725",79.55932,1139.7625
"3726",79.166245,1139.7759
"3727",78.873276,1139.7891
"3728",78.68772,1139.8025
"3729",78.61204,1139.8157
"3730",78.624245,1139.8291
"3731",78.69993,1139.8423
"3732",78.79515,1139.8557
"3733",78.8806,1139.8689
"3734",78.92699,1139.8823
"3735",78.924545,1139.8955
"3736",78.86595,1139.9089
"3737",78.75609,1139.9221
"3738",78.607155,1139.9355
"3739",78.433815,1139.9487
"3740",78.25071,1139.9622
"3741",78.07004,1139.9753
"3742",77.90402,1139.9888
"3743",77.7551,1140.002
"3744",77.61837,1140.0154
"3745",77.49386,1140.0286
"3746",77.36935,1140.042
"3747",77.24971,1140.0552
"3748",77.134964,1140.0686
"3749",77.02754,1140.0818
"3750",76.927444,1140.0952
"3751",76.859085,1140.1084
"3752",76.88838,1140.1218
"3753",77.137405,1140.135
"3754",77.72823,1140.1484
"3755",78.72434,1140.1616
"3756",80.08423,1140.175
"3757",81.654076,1140.1882
"3758",83.19707,1140.2017
"3759",84.473946,1140.2148
"3760",85.333336,1140.2283
"3761",85.72884,1140.2415
"3762",85.71908,1140.2549
"3763",85.40414,1140.2681
"3764",84.90364,1140.2815
"3765",84.31281,1140.2947
"3766",83.700005,1140.3081
"3767",83.09453,1140.3213
"3768",82.50858,1140.3347
"3769",81.9324,1140.3479
"3770",81.36355,1140.3613
"3771",80.81178,1140.3745
"3772",80.29908,1140.388
"3773",79.84497,1140.4011
"3774",79.47387,1140.4146
"3775",79.20531,1140.4277
"3776",79.04173,1140.4412
"3777",78.97093,1140.4543
"3778",78.97337,1140.4678
"3779",79.012436,1140.481
"3780",79.04906,1140.4944
"3781",79.05882,1140.5076
"3782",79.02464,1140.521
"3783",78.94408,1140.5342
"3784",78.81712,1140.5476
"3785",78.66575,1140.5608
"3786",78.49241,1140.5742
"3787",78.3093,1140.5874
"3788",78.12131,1140.6008
"3789",77.93088,1140.614
"3790",77.74044,1140.6274
"3791",77.55489,1140.6406
"3792",77.38155,1140.654
"3793",77.23262,1140.6672
"3794",77.11055,1140.6807
"3795",77.01778,1140.6938
"3796",76.95186,1140.7073
"3797",76.90303,1140.7205
"3798",76.86397,1140.7339
"3799",76.824905,1140.7471
"3800",76.788284,1140.7605
"3801",76.74677,1140.7737
"3802",76.715034,1140.7871
"3803",76.74433,1140.8003
"3804",76.946976,1140.8137
"3805",77.45968,1140.8269
"3806",78.37522,1140.8403
"3807",79.691154,1140.8535
"3808",81.287865,1140.867
"3809",82.9456,1140.8801
"3810",84.41047,1140.8936
"3811",85.487144,1140.9067
"3812",86.082855,1140.9202
"3813",86.21713,1140.9333
"3814",85.9852,1140.9468
"3815",85.514,1140.96
"3816",84.92073,1140.9734
"3817",84.29572,1140.9866
"3818",83.69268,1141
"3819",83.12627,1141.0132
"3820",82.579384,1141.0266
"3821",82.0325,1141.0398
"3822",81.48318,1141.0532
"3823",80.94118,1141.0664
"3824",80.43336,1141.0798
"3825",79.9939,1141.093
"3826",79.65453,1141.1064
"3827",79.429924,1141.1196
"3828",79.31274,1141.133
"3829",79.27856,1141.1462
"3830",79.290764,1141.1597
"3831",79.31518,1141.1729
"3832",79.31762,1141.1863
"3833",79.273674,1141.1995
"3834",79.17601,1141.2129
"3835",79.03685,1141.2261
"3836",78.86351,1141.2395
"3837",78.67063,1141.2527
"3838",78.46555,1141.2661
"3839",78.25559,1141.2793
"3840",78.0383,1141.2927
"3841",77.821014,1141.3059
"3842",77.608604,1141.3193
"3843",77.40841,1141.3325
"3844",77.222855,1141.346
"3845",77.06416,1141.3591
"3846",76.927444,1141.3726
"3847",76.81758,1141.3857
"3848",76.72968,1141.3992
"3849",76.66132,1141.4124
"3850",76.60273,1141.4258
"3851",76.54658,1141.439
"3852",76.50019,1141.4524
"3853",76.46113,1141.4656
"3854",76.44404,1141.479
"3855",76.44404,1141.4922
"3856",76.46601,1141.5056
"3857",76.50263,1141.5188
"3858",76.54902,1141.5322
"3859",76.595406,1141.5454
"3860",76.63691,1141.5588
"3861",76.680855,1141.572
"3862",76.71992,1141.5854
"3863",76.73945,1141.5986
"3864",76.74433,1141.612
"3865",76.749214,1141.6252
"3866",76.82002,1141.6387
"3867",77.07149,1141.6519
"3868",77.645226,1141.6653
"3869",78.63889,1141.6785
"3870",80.04761,1141.6919
"3871",81.74197,1141.7051
"3872",83.49981,1141.7185
"3873",85.05257,1141.7317
"3874",86.19028,1141.7451
"3875",86.82262,1141.7583
"3876",86.96666,1141.7717
"3877",86.71763,1141.7849
"3878",86.20981,1141.7983
"3879",85.57259,1141.8115
"3880",84.90608,1141.825
"3881",84.263985,1141.8381
"3882",83.66338,1141.8516
"3883",83.106735,1141.8647
"3884",82.57206,1141.8782
"3885",82.04959,1141.8914
"3886",81.53689,1141.9048
"3887",81.05348,1141.918
"3888",80.618904,1141.9314
"3889",80.26734,1141.9446
"3890",80.008545,1141.958
"3891",79.85474,1141.9712
"3892",79.783936,1141.9846
"3893",79.77417,1141.9978
"3894",79.783936,1142.0112
"3895",79.77905,1142.0244
"3896",79.73754,1142.0378
"3897",79.64721,1142.051
"3898",79.51537,1142.0645
"3899",79.34692,1142.0776
"3900",79.15648,1142.0911
"3901",78.94652,1142.1042
"3902",78.73167,1142.1177
"3903",78.504616,1142.1309
"3904",78.277565,1142.1443
"3905",78.06027,1142.1575
"3906",77.855194,1142.1709
"3907",77.662315,1142.1841
"3908",77.49142,1142.1975
"3909",77.34005,1142.2107
"3910",77.205765,1142.2241
"3911",77.08858,1142.2373
"3912",77.00313,1142.2507
"3913",76.93965,1142.2639
"3914",76.89082,1142.2773
"3915",76.859085,1142.2905
"3916",76.83467,1142.304
"3917",76.81514,1142.3171
"3918",76.79317,1142.3306
"3919",76.77852,1142.3438
"3920",76.76875,1142.3572
"3921",76.75899,1142.3704
"3922",76.754105,1142.3838
"3923",76.75899,1142.397
"3924",76.771194,1142.4104
"3925",76.79317,1142.4236
"3926",76.81758,1142.437
"3927",76.841995,1142.4502
"3928",76.86397,1142.4636
"3929",76.8835,1142.4768
"3930",76.89815,1142.4902
"3931",76.90303,1142.5034
"3932",76.895706,1142.5168
"3933",76.895706,1142.53
"3934",76.97627,1142.5435
"3935",77.27657,1142.5566
"3936",77.93576,1142.5701
"3937",79.03685,1142.5833
"3938",80.53834,1142.5967
"3939",82.28397,1142.6099
"3940",84.02228,1142.6233
"3941",85.49203,1142.6365
"3942",86.505226,1142.6499
"3943",87.010605,1142.6631
"3944",87.05211,1142.6765
"3945",86.73228,1142.6897
"3946",86.17807,1142.7031
"3947",85.50912,1142.7163
"3948",84.82063,1142.7297
"3949",84.16388,1142.7429
"3950",83.563286,1142.7563
"3951",83.01396,1142.7695
"3952",82.496376,1142.783
"3953",81.991,1142.7961
"3954",81.495384,1142.8096
"3955",81.0193,1142.8228
"3956",80.58961,1142.8362
"3957",80.235596,1142.8494
"3958",79.97681,1142.8628
"3959",79.815674,1142.876
"3960",79.73998,1142.8894
"3961",79.725334,1142.9026
"3962",79.7351,1142.916
"3963",79.73998,1142.9292
"3964",79.71313,1142.9426
"3965",79.639885,1142.9558
"3966",79.5227,1142.9692
"3967",79.36645,1142.9824
"3968",79.183334,1142.9958
"3969",78.98558,1143.009
"3970",78.77806,1143.0225
"3971",78.56321,1143.0356
"3972",78.345924,1143.0491
"3973",78.1384,1143.0623
"3974",77.9382,1143.0757
"3975",77.75021,1143.0889
"3976",77.58419,1143.1023
"3977",77.437706,1143.1155
"3978",77.30587,1143.1289
"3979",77.19356,1143.1421
"3980",77.10811,1143.1555
"3981",77.04219,1143.1687
"3982",76.99336,1143.1821
"3983",76.95186,1143.1953
"3984",76.912796,1143.2087
"3985",76.87373,1143.2219
"3986",76.84688,1143.2354
"3987",76.83223,1143.2485
"3988",76.841995,1143.262
"3989",76.86885,1143.2751
"3990",76.910355,1143.2886
"3991",76.9543,1143.3018
"3992",76.998245,1143.3152
"3993",77.03731,1143.3284
"3994",77.07149,1143.3418
"3995",77.100784,1143.355
"3996",77.1252,1143.3684
"3997",77.137405,1143.3816
"3998",77.14473,1143.395
"3999",77.205765,1143.4082
"4000",77.43282,1143.4216
"4001",77.962616,1143.4348
"4002",78.89525,1143.4482
"4003",80.233154,1143.4614
"4004",81.85916,1143.4749
"4005",83.55108,1143.488
"4006",85.050125,1143.5015
"4007",86.153656,1143.5146
"4008",86.77379,1143.5281
"4009",86.9276,1143.5413
"4010",86.6981,1143.5547
"4011",86.202484,1143.5679
"4012",85.555504,1143.5813
"4013",84.85237,1143.5945
"4014",84.156555,1143.6079
"4015",83.509575,1143.6211
"4016",82.913864,1143.6345
"4017",82.36454,1143.6477
"4018",81.846954,1143.6611
"4019",81.35378,1143.6743
"4020",80.89479,1143.6877
"4021",80.479744,1143.7009
"4022",80.13794,1143.7144
"4023",79.88159,1143.7275
"4024",79.72045,1143.741
"4025",79.63744,1143.7542
"4026",79.622795,1143.7676
"4027",79.64477,1143.7808
"4028",79.66918,1143.7942
"4029",79.676506,1143.8074
"4030",79.64965,1143.8208
"4031",79.58129,1143.834
"4032",79.47387,1143.8474
"4033",79.33227,1143.8606
"4034",79.166245,1143.874
"4035",78.98314,1143.8872
"4036",78.78783,1143.9006
"4037",78.590065,1143.9138
"4038",78.397194,1143.9272
"4039",78.21164,1143.9404
"4040",78.02365,1143.9539
"4041",77.840546,1143.967
"4042",77.67452,1143.9805
"4043",77.5256,1143.9937
"4044",77.40353,1144.0071
"4045",77.30831,1144.0203
"4046",77.239944,1144.0337
"4047",77.17891,1144.0469
"4048",77.12764,1144.0603
"4049",77.08858,1144.0735
"4050",77.05928,1144.0869
"4051",77.04707,1144.1001
"4052",77.051956,1144.1135
"4053",77.07149,1144.1267
"4054",77.11055,1144.1401
"4055",77.1667,1144.1533
"4056",77.22774,1144.1667
"4057",77.296104,1144.1799
"4058",77.35714,1144.1934
"4059",77.41085,1144.2065
"4060",77.44503,1144.22
"4061",77.46456,1144.2332
"4062",77.503624,1144.2466
"4063",77.66476,1144.2598
"4064",78.08713,1144.2732
"4065",78.89525,1144.2864
"4066",80.12329,1144.2998
"4067",81.68337,1144.313
"4068",83.38262,1144.3264
"4069",84.95491,1144.3396
"4070",86.17807,1144.353
"4071",86.93248,1144.3662
"4072",87.2108,1144.3796
"4073",87.08873,1144.3928
"4074",86.676125,1144.4062
"4075",86.09018,1144.4194
"4076",85.4139,1144.4329
"4077",84.72297,1144.446
"4078",84.06134,1144.4595
"4079",83.4461,1144.4727
"4080",82.87724,1144.4861
"4081",82.34989,1144.4993
"4082",81.85672,1144.5127
"4083",81.39529,1144.5259
"4084",80.97536,1144.5393
"4085",80.61646,1144.5525
"4086",80.33326,1144.5659
"4087",80.13306,1144.5791
"4088",80.01343,1144.5925
"4089",79.95239,1144.6057
"4090",79.92554,1144.6191
"4091",79.91333,1144.6323
"4092",79.90112,1144.6458
"4093",79.871826,1144.6589
"4094",79.81079,1144.6724
"4095",79.71801,1144.6855
"4096",79.586174,1144.699
"4097",79.42016,1144.7122
"4098",79.219955,1144.7256
"4099",79.00023,1144.7388
"4100",78.77318,1144.7522
"4101",78.551,1144.7654
"4102",78.3386,1144.7788
"4103",78.14328,1144.792
"4104",77.97482,1144.8054
"4105",77.8259,1144.8186
"4106",77.69161,1144.832
"4107",77.56466,1144.8452
"4108",77.454796,1144.8586
"4109",77.35226,1144.8718
"4110",77.26925,1144.8853
"4111",77.208206,1144.8984
"4112",77.16914,1144.9119
"4113",77.14473,1144.925
"4114",77.12764,1144.9385
"4115",77.120316,1144.9517
"4116",77.117874,1144.9651
"4117",77.1252,1144.9783
"4118",77.14229,1144.9917
"4119",77.16914,1145.0049
"4120",77.208206,1145.0183
"4121",77.24727,1145.0315
"4122",77.28878,1145.0449
"4123",77.3254,1145.0581
"4124",77.3547,1145.0715
"4125",77.366905,1145.0847
"4126",77.36202,1145.0981
"4127",77.36202,1145.1113
"4128",77.44503,1145.1248
"4129",77.7551,1145.138
"4130",78.4387,1145.1514
"4131",79.55932,1145.1646
"4132",81.06325,1145.178
"4133",82.777145,1145.1912
"4134",84.44465,1145.2046
"4135",85.81186,1145.2178
"4136",86.712746,1145.2312
"4137",87.12535,1145.2444
"4138",87.10582,1145.2578
"4139",86.75426,1145.271
"4140",86.187836,1145.2844
"4141",85.506676,1145.2976
"4142",84.79378,1145.311
"4143",84.09796,1145.3242
"4144",83.4461,1145.3376
"4145",82.85039,1145.3508
"4146",82.30106,1145.3643
"4147",81.78104,1145.3774
"4148",81.29519,1145.3909
"4149",80.850845,1145.404
"4150",80.465096,1145.4175
"4151",80.15991,1145.4307
"4152",79.95239,1145.4441
"4153",79.83032,1145.4573
"4154",79.783936,1145.4707
"4155",79.77661,1145.4839
"4156",79.79126,1145.4973
"4157",79.801025,1145.5105
"4158",79.78882,1145.5239
"4159",79.74731,1145.5371
"4160",79.674065,1145.5505
"4161",79.57397,1145.5637
"4162",79.4519,1145.5771
"4163",79.3225,1145.5903
"4164",79.1931,1145.6038
"4165",79.05882,1145.617
"4166",78.922104,1145.6304
"4167",78.77806,1145.6436
"4168",78.624245,1145.657
"4169",78.470436,1145.6702
"4170",78.32395,1145.6836
"4171",78.19211,1145.6968
"4172",78.0798,1145.7102
"4173",77.98703,1145.7234
"4174",77.908905,1145.7368
"4175",77.840546,1145.75
"4176",77.78195,1145.7634
"4177",77.72823,1145.7766
"4178",77.68185,1145.79
"4179",77.64767,1145.8032
"4180",77.62325,1145.8167
"4181",77.608604,1145.8298
"4182",77.593956,1145.8433
"4183",77.591515,1145.8564
"4184",77.59884,1145.8699
"4185",77.625694,1145.883
"4186",77.66964,1145.8965
"4187",77.72823,1145.9097
"4188",77.786835,1145.9231
"4189",77.83566,1145.9363
"4190",77.8674,1145.9497
"4191",77.872284,1145.9629
"4192",77.86252,1145.9763
"4193",77.8674,1145.9895
"4194",77.977264,1146.0029
"4195",78.33372,1146.0161
"4196",79.06615,1146.0295
"4197",80.22339,1146.0427
"4198",81.73708,1146.0562
"4199",83.424126,1146.0693
"4200",85.02815,1146.0828
"4201",86.30991,1146.096
"4202",87.12291,1146.1094
"4203",87.450066,1146.1226
"4204",87.34997,1146.136
"4205",86.9276,1146.1492
"4206",86.30503,1146.1626
"4207",85.58968,1146.1758
"4208",84.86214,1146.1892
"4209",84.16876,1146.2024
"4210",83.53643,1146.2158
"4211",82.95537,1146.229
"4212",82.41093,1146.2424
"4213",81.89578,1146.2556
"4214",81.41482,1146.269
"4215",80.98268,1146.2822
"4216",80.62379,1146.2957
"4217",80.35279,1146.3088
"4218",80.177,1146.3223
"4219",80.079346,1146.3354
"4220",80.045166,1146.3489
"4221",80.05005,1146.362
"4222",80.07446,1146.3755
"4223",80.093994,1146.3887
"4224",80.08911,1146.4021
"4225",80.045166,1146.4153
"4226",79.94995,1146.4287
"4227",79.81079,1146.4419
"4228",79.63256,1146.4553
"4229",79.432365,1146.4685
"4230",79.21263,1146.4819
"4231",78.98558,1146.4951
"4232",78.75609,1146.5085
"4233",78.53147,1146.5217
"4234",78.31907,1146.5352
"4235",78.12619,1146.5483
"4236",77.95529,1146.5618
"4237",77.81125,1146.575
"4238",77.69405,1146.5884
"4239",77.593956,1146.6016
"4240",77.50851,1146.615
"4241",77.435265,1146.6282
"4242",77.36935,1146.6416
"4243",77.31075,1146.6548
"4244",77.26681,1146.6682
"4245",77.2375,1146.6814
"4246",77.21797,1146.6948
"4247",77.208206,1146.708
"4248",77.20332,1146.7214
"4249",77.196,1146.7346
"4250",77.188675,1146.748
"4251",77.18379,1146.7612
"4252",77.188675,1146.7747
"4253",77.205765,1146.7878
"4254",77.2375,1146.8013
"4255",77.281456,1146.8145
"4256",77.33517,1146.8279
"4257",77.383995,1146.8411
"4258",77.420616,1146.8545
"4259",77.435265,1146.8677
"4260",77.42794,1146.8811
"4261",77.418175,1146.8943
"4262",77.49874,1146.9077
"4263",77.79904,1146.9209
"4264",78.470436,1146.9343
"4265",79.57885,1146.9475
"4266",81.08278,1146.9609
"4267",82.80888,1146.9741
"4268",84.51301,1146.9875
"4269",85.93637,1147.0007
"4270",86.91539,1147.0142
"4271",87.40124,1147.0273
"4272",87.430534,1147.0408
"4273",87.10094,1147.054
"4274",86.522316,1147.0674
"4275",85.80942,1147.0806
"4276",85.05501,1147.094
"4277",84.32502,1147.1072
"4278",83.65362,1147.1206
"4279",83.04326,1147.1338
"4280",82.47929,1147.1472
"4281",81.94949,1147.1604
"4282",81.45144,1147.1738
"4283",80.99245,1147.187
"4284",80.604256,1147.2004
"4285",80.31129,1147.2136
"4286",80.12085,1147.227
"4287",80.025635,1147.2402
"4288",80.00366,1147.2537
"4289",80.02319,1147.2668
"4290",80.05737,1147.2803
"4291",80.09155,1147.2935
"4292",80.10376,1147.3069
"4293",80.08911,1147.3201
"4294",80.03784,1147.3335
"4295",79.94263,1147.3467
"4296",79.81323,1147.3601
"4297",79.65209,1147.3733
"4298",79.466545,1147.3867
"4299",79.27856,1147.3999
"4300",79.09544,1147.4133
"4301",78.922104,1147.4265
"4302",78.76097,1147.44
"4303",78.61448,1147.4531
"4304",78.47776,1147.4666
"4305",78.345924,1147.4797
"4306",78.22873,1147.4932
"4307",78.12131,1147.5063
"4308",78.030975,1147.5198
"4309",77.95529,1147.533
"4310",77.89426,1147.5464
"4311",77.85031,1147.5596
"4312",77.81613,1147.573
"4313",77.786835,1147.5862
"4314",77.7551,1147.5996
"4315",77.72335,1147.6128
"4316",77.69405,1147.6262
"4317",77.67696,1147.6394
"4318",77.67452,1147.6528
"4319",77.68673,1147.666
"4320",77.713585,1147.6794
"4321",77.74044,1147.6926
"4322",77.75998,1147.706
"4323",77.77463,1147.7192
"4324",77.78195,1147.7327
"4325",77.77951,1147.7458
"4326",77.75998,1147.7593
"4327",77.730675,1147.7725
"4328",77.70382,1147.7859
"4329",77.752655,1147.7991
"4330",78.02121,1147.8125
"4331",78.65354,1147.8257
"4332",79.73022,1147.8391
"4333",81.20729,1147.8523
"4334",82.92851,1147.8657
"4335",84.630196,1147.8789
"4336",86.04379,1147.8923
"4337",86.98131,1147.9055
"4338",87.40612,1147.919
"4339",87.36462,1147.9321
"4340",86.97398,1147.9456
"4341",86.363625,1147.9587
"4342",85.64828,1147.9722
"4343",84.910965,1147.9854
"4344",84.2005,1147.9988
"4345",83.53887,1148.012
"4346",82.92851,1148.0254
"4347",82.36454,1148.0386
"4348",81.83475,1148.052
"4349",81.34646,1148.0652
"4350",80.90456,1148.0786
"4351",80.52857,1148.0918
"4352",80.235596,1148.1052
"4353",80.03296,1148.1184
"4354",79.91821,1148.1318
"4355",79.87915,1148.145
"4356",79.8938,1148.1584
"4357",79.9353,1148.1716
"4358",79.974365,1148.185
"4359",79.98657,1148.1982
"4360",79.95239,1148.2117
"4361",79.869385,1148.2249
"4362",79.7351,1148.2383
"4363",79.56176,1148.2515
"4364",79.35424,1148.2649
"4365",79.13695,1148.2781
"4366",78.91478,1148.2915
"4367",78.69993,1148.3047
"4368",78.49485,1148.3181
"4369",78.30442,1148.3313
"4370",78.12863,1148.3447
"4371",77.962616,1148.3579
"4372",77.81125,1148.3713
"4373",77.67696,1148.3845
"4374",77.56222,1148.398
"4375",77.467,1148.4111
"4376",77.39376,1148.4246
"4377",77.332726,1148.4377
"4378",77.2839,1148.4512
"4379",77.24727,1148.4644
"4380",77.22041,1148.4778
"4381",77.205765,1148.491
"4382",77.20088,1148.5044
"4383",77.21309,1148.5176
"4384",77.239944,1148.531
"4385",77.27169,1148.5442
"4386",77.30831,1148.5576
"4387",77.34493,1148.5708
"4388",77.37667,1148.5842
"4389",77.39864,1148.5974
"4390",77.418175,1148.6108
"4391",77.435265,1148.624
"4392",77.471886,1148.6375
"4393",77.608604,1148.6506
"4394",77.97482,1148.6641
"4395",78.70481,1148.6772
"4396",79.84985,1148.6907
"4397",81.358665,1148.7039
"4398",83.06035,1148.7173
"4399",84.70832,1148.7305
"4400",86.046234,1148.7439
"4401",86.92027,1148.7571
"4402",87.30602,1148.7705
"4403",87.25475,1148.7837
"4404",86.87877,1148.7971
"4405",86.30503,1148.8103
"4406",85.64095,1148.8237
"4407",84.95491,1148.8369
"4408",84.298164,1148.8503
"4409",83.682915,1148.8635
"4410",83.106735,1148.877
"4411",82.562294,1148.8901
"4412",82.04715,1148.9036
"4413",81.56863,1148.9167
"4414",81.14137,1148.9302
"4415",80.78737,1148.9434
"4416",80.52613,1148.9568
"4417",80.35767,1148.97
"4418",80.26978,1148.9834
"4419",80.2478,1148.9966
"4420",80.26002,1149.01
"4421",80.28443,1149.0232
"4422",80.29908,1149.0366
"4423",80.28687,1149.0498
"4424",80.22827,1149.0632
"4425",80.12329,1149.0764
"4426",79.97925,1149.0898
"4427",79.80591,1149.103
"4428",79.605705,1149.1165
"4429",79.3933,1149.1296
"4430",79.17845,1149.1431
"4431",78.96361,1149.1562
"4432",78.75853,1149.1697
"4433",78.56565,1149.1829
"4434",78.38987,1149.1963
"4435",78.23605,1149.2095
"4436",78.09689,1149.2229
"4437",77.977264,1149.2361
"4438",77.8674,1149.2495
"4439",77.77219,1149.2627
"4440",77.68185,1149.2761
"4441",77.60372,1149.2893
"4442",77.5378,1149.3027
"4443",77.47921,1149.3159
"4444",77.43282,1149.3293
"4445",77.401085,1149.3425
"4446",77.383995,1149.356
"4447",77.383995,1149.3691
"4448",77.39864,1149.3826
"4449",77.42794,1149.3958
"4450",77.46456,1149.4092
"4451",77.49874,1149.4224
"4452",77.53292,1149.4358
"4453",77.56466,1149.449
"4454",77.591515,1149.4624
"4455",77.61593,1149.4756
"4456",77.69161,1149.489
"4457",77.93332,1149.5022
"4458",78.4802,1149.5156
"4459",79.43725,1149.5288
"4460",80.8069,1149.5422
"4461",82.46952,1149.5554
"4462",84.19806,1149.5688
"4463",85.72884,1149.582
"4464",86.85924,1149.5955
"4465",87.49645,1149.6086
"4466",87.66735,1149.6221
"4467",87.46227,1149.6353
"4468",87.00084,1149.6487
"4469",86.40269,1149.6619
"4470",85.75815,1149.6753
"4471",85.12581,1149.6885
"4472",84.53254,1149.7019
"4473",83.97589,1149.7151
"4474",83.45098,1149.7285
"4475",82.950485,1149.7417
"4476",82.476845,1149.7551
"4477",82.04227,1149.7683
"4478",81.66628,1149.7817
"4479",81.356224,1149.7949
"4480",81.12184,1149.8083
"4481",80.96315,1149.8215
"4482",80.867935,1149.835
