"","ppg","time"
"1",78.50706,25.87793
"2",78.31663,25.891262
"3",78.153046,25.904594
"4",78.009,25.917929
"5",77.88937,25.931263
"6",77.786835,25.944595
"7",77.70138,25.957928
"8",77.65743,25.971262
"9",77.696495,25.984596
"10",77.908905,25.997929
"11",78.40696,26.011261
"12",79.26147,26.024595
"13",80.45533,26.03793
"14",81.85672,26.051262
"15",83.25323,26.064594
"16",84.40559,26.077929
"17",85.13069,26.091263
"18",85.35775,26.104595
"19",85.13313,26.117928
"20",84.56428,26.131262
"21",83.7879,26.144596
"22",82.91142,26.157928
"23",82.02518,26.17126
"24",81.18288,26.184595
"25",80.428474,26.19793
"26",79.7937,26.211262
"27",79.33227,26.224594
"28",79.07347,26.237928
"29",79.03441,26.251263
"30",79.200424,26.264595
"31",79.517815,26.277927
"32",79.903564,26.291262
"33",80.26978,26.304596
"34",80.54566,26.317928
"35",80.68238,26.33126
"36",80.66285,26.344595
"37",80.5066,26.35793
"38",80.24292,26.371262
"39",79.91577,26.384594
"40",79.56664,26.397928
"41",79.234604,26.411263
"42",78.93919,26.424595
"43",78.68528,26.437927
"44",78.47532,26.45126
"45",78.30442,26.464596
"46",78.16525,26.477928
"47",78.04562,26.49126
"48",77.9382,26.504597
"49",77.84299,26.51793
"50",77.75998,26.531261
"51",77.69161,26.544594
"52",77.659874,26.557926
"53",77.71603,26.571262
"54",77.962616,26.584595
"55",78.52415,26.597927
"56",79.46899,26.611263
"57",80.762955,26.624596
"58",82.25468,26.637928
"59",83.70733,26.65126
"60",84.86702,26.664593
"61",85.557945,26.677929
"62",85.73861,26.691261
"63",85.470055,26.704594
"64",84.874344,26.71793
"65",84.09308,26.731262
"66",83.245895,26.744595
"67",82.408485,26.757927
"68",81.6321,26.77126
"69",80.94118,26.784595
"70",80.35279,26.797928
"71",79.886475,26.81126
"72",79.57641,26.824596
"73",79.43725,26.837929
"74",79.4641,26.851261
"75",79.62768,26.864594
"76",79.869385,26.877926
"77",80.11841,26.891262
"78",80.308846,26.904594
"79",80.40162,26.917927
"80",80.37476,26.931263
"81",80.22583,26.944595
"82",79.96948,26.957928
"83",79.64233,26.97126
"84",79.276115,26.984592
"85",78.907455,26.997929
"86",78.572975,27.011261
"87",78.29954,27.024593
"88",78.08469,27.03793
"89",77.92844,27.051262
"90",77.81125,27.064594
"91",77.71603,27.077927
"92",77.63546,27.091259
"93",77.5671,27.104595
"94",77.51583,27.117928
"95",77.48165,27.13126
"96",77.46212,27.144596
"97",77.45724,27.157928
"98",77.47921,27.17126
"99",77.59884,27.184593
"100",77.94797,27.197926
"101",78.65354,27.211262
"102",79.764404,27.224594
"103",81.20485,27.237926
"104",82.79912,27.251263
"105",84.29572,27.264595
"106",85.44808,27.277927
"107",86.11215,27.29126
"108",86.278175,27.304592
"109",86.029144,27.317928
"110",85.49447,27.33126
"111",84.81087,27.344593
"112",84.088196,27.35793
"113",83.38506,27.371262
"114",82.718544,27.384594
"115",82.091095,27.397926
"116",81.495384,27.411259
"117",80.955826,27.424595
"118",80.50172,27.437927
"119",80.17944,27.45126
"120",80.008545,27.464596
"121",79.98901,27.477928
"122",80.079346,27.49126
"123",80.22827,27.504593
"124",80.37476,27.517925
"125",80.465096,27.531261
"126",80.45533,27.544594
"127",80.3357,27.557926
"128",80.11597,27.571262
"129",79.815674,27.584595
"130",79.46899,27.597927
"131",79.10521,27.61126
"132",78.74387,27.624592
"133",78.397194,27.637928
"134",78.07492,27.65126
"135",77.78195,27.664593
"136",77.53292,27.677929
"137",77.32784,27.691261
"138",77.18135,27.704594
"139",77.09834,27.717926
"140",77.069046,27.731258
"141",77.069046,27.744595
"142",77.08858,27.757927
"143",77.11299,27.77126
"144",77.13008,27.784595
"145",77.14229,27.797928
"146",77.14473,27.81126
"147",77.13985,27.824593
"148",77.13252,27.837925
"149",77.16914,27.851261
"150",77.34005,27.864594
"151",77.786835,27.877926
"152",78.624245,27.891262
"153",79.86206,27.904594
"154",81.39529,27.917927
"155",82.99931,27.93126
"156",84.41047,27.944592
"157",85.40902,27.957928
"158",85.89975,27.97126
"159",85.91684,27.984592
"160",85.57259,27.997929
"161",85.015945,28.011261
"162",84.37385,28.024593
"163",83.72442,28.037926
"164",83.09697,28.051258
"165",82.48417,28.064594
"166",81.87625,28.077927
"167",81.28298,28.091259
"168",80.73365,28.104595
"169",80.27711,28.117928
"170",79.96704,28.13126
"171",79.818115,28.144592
"172",79.80835,28.157925
"173",79.88403,28.17126
"174",79.98413,28.184593
"175",80.05737,28.197926
"176",80.05737,28.211262
"177",79.96948,28.224594
"178",79.79614,28.237926
"179",79.54711,28.251259
"180",79.23949,28.264591
"181",78.890366,28.277927
"182",78.52659,28.29126
"183",78.17502,28.304592
"184",77.85031,28.317928
"185",77.56954,28.33126
"186",77.33517,28.344593
"187",77.14961,28.357925
"188",77.00557,28.371258
"189",76.90059,28.384594
"190",76.822464,28.397926
"191",76.77608,28.411259
"192",76.75899,28.424595
"193",76.771194,28.437931
"194",76.79317,28.451263
"195",76.824905,28.464596
"196",76.85664,28.477932
"197",76.87129,28.491268
"198",76.86641,28.5046
"199",76.8542,28.517933
"200",76.83711,28.53127
"201",76.824905,28.544605
"202",76.81758,28.557938
"203",76.81026,28.57127
"204",76.79805,28.584606
"205",76.77608,28.597942
"206",76.74189,28.611275
"207",76.697945,28.624607
"208",76.65156,28.637943
"209",76.629585,28.65128
"210",76.69306,28.664612
"211",76.97139,28.677944
"212",77.61349,28.69128
"213",78.71946,28.704617
"214",80.26246,28.717949
"215",82.08133,28.731281
"216",83.895325,28.744617
"217",85.40414,28.757954
"218",86.39048,28.771286
"219",86.785995,28.784618
"220",86.67368,28.797955
"221",86.19516,28.81129
"222",85.521324,28.824623
"223",84.78401,28.837955
"224",84.07843,28.851292
"225",83.42901,28.864628
"226",82.84062,28.87796
"227",82.29862,28.891293
"228",81.812775,28.904629
"229",81.3904,28.917965
"230",81.06569,28.931297
"231",80.86305,28.94463
"232",80.79225,28.957966
"233",80.82643,28.971302
"234",80.921646,28.984634
"235",81.0193,28.997967
"236",81.07057,29.011303
"237",81.04372,29.02464
"238",80.93385,29.037971
"239",80.740974,29.051304
"240",80.4773,29.06464
"241",80.15747,29.077976
"242",79.801025,29.091309
"243",79.4226,29.104641
"244",79.04173,29.117977
"245",78.68284,29.131313
"246",78.37522,29.144646
"247",78.12131,29.157978
"248",77.91623,29.171314
"249",77.75021,29.18465
"250",77.60128,29.197983
"251",77.454796,29.211315
"252",77.30343,29.224651
"253",77.154495,29.237988
"254",77.02998,29.25132
"255",76.93965,29.264652
"256",76.88838,29.277988
"257",76.87129,29.291325
"258",76.87129,29.304657
"259",76.86885,29.31799
"260",76.84688,29.331326
"261",76.807816,29.344662
"262",76.75899,29.357994
"263",76.70527,29.371326
"264",76.64912,29.384663
"265",76.59785,29.397999
"266",76.54902,29.411331
"267",76.53193,29.424664
"268",76.627144,29.438
"269",76.95918,29.451336
"270",77.659874,29.464668
"271",78.77318,29.478
"272",80.22095,29.491337
"273",81.80789,29.504673
"274",83.27276,29.518005
"275",84.368965,29.531338
"276",84.964676,29.544674
"277",85.05989,29.55801
"278",84.75227,29.571342
"279",84.17853,29.584675
"280",83.47051,29.598011
"281",82.73319,29.611347
"282",82.03006,29.62468
"283",81.3904,29.638012
"284",80.831314,29.651348
"285",80.35767,29.664684
"286",79.9939,29.678017
"287",79.75708,29.691349
"288",79.66186,29.704685
"289",79.708244,29.718021
"290",79.87427,29.731354
"291",80.1062,29.744686
"292",80.34058,29.758022
"293",80.52857,29.771358
"294",80.61646,29.78469
"295",80.584724,29.798023
"296",80.43336,29.81136
"297",80.177,29.824696
"298",79.85962,29.838028
"299",79.51537,29.85136
"300",79.17601,29.864697
"301",78.86595,29.878033
"302",78.59983,29.891365
"303",78.365456,29.904697
"304",78.16525,29.918034
"305",77.994354,29.93137
"306",77.857635,29.944702
"307",77.747765,29.958035
"308",77.67696,29.97137
"309",77.63546,29.984707
"310",77.61593,29.99804
"311",77.611046,30.011372
"312",77.61593,30.024708
"313",77.63058,30.038044
"314",77.65011,30.051376
"315",77.67208,30.064709
"316",77.69405,30.078045
"317",77.70626,30.091381
"318",77.70626,30.104713
"319",77.70138,30.118046
"320",77.75754,30.131382
"321",77.98215,30.144718
"322",78.49973,30.15805
"323",79.37621,30.171383
"324",80.57984,30.18472
"325",81.969025,30.198055
"326",83.3167,30.211388
"327",84.39338,30.22472
"328",85.0428,30.238056
"329",85.21614,30.251392
"330",84.97444,30.264725
"331",84.43,30.278057
"332",83.71221,30.291393
"333",82.93828,30.30473
"334",82.19119,30.318062
"335",81.512474,30.331394
"336",80.91432,30.34473
"337",80.40894,30.358067
"338",80.01587,30.371399
"339",79.7522,30.384731
"340",79.635,30.398067
"341",79.674065,30.411404
"342",79.852295,30.424736
"343",80.113525,30.438068
"344",80.39185,30.451405
"345",80.63111,30.46474
"346",80.780045,30.478073
"347",80.80202,30.491405
"348",80.69459,30.504742
"349",80.479744,30.518078
"350",80.19409,30.53141
"351",79.87427,30.544743
"352",79.55688,30.558079
"353",79.256584,30.571415
"354",78.98314,30.584747
"355",78.73899,30.59808
"356",78.51438,30.611416
"357",78.31907,30.624752
"358",78.15793,30.638084
"359",78.030975,30.651417
"360",77.943085,30.664753
"361",77.891815,30.67809
"362",77.86984,30.691422
"363",77.872284,30.704754
"364",77.88205,30.71809
"365",77.88693,30.731426
"366",77.88449,30.744759
"367",77.872284,30.758091
"368",77.86252,30.771427
"369",77.891815,30.784763
"370",78.05295,30.798096
"371",78.45579,30.811428
"372",79.17845,30.824764
"373",80.22583,30.8381
"374",81.50271,30.851433
"375",82.81865,30.864765
"376",83.946594,30.878101
"377",84.71076,30.891438
"378",85.02327,30.90477
"379",84.91341,30.918102
"380",84.471504,30.931438
"381",83.82208,30.944775
"382",83.070114,30.958107
"383",82.29618,30.97144
"384",81.54421,30.984776
"385",80.84596,30.998112
"386",80.22827,31.011444
"387",79.71313,31.024776
"388",79.32983,31.038113
"389",79.10277,31.051449
"390",79.04173,31.064781
"391",79.13451,31.078114
"392",79.33471,31.09145
"393",79.58129,31.104786
"394",79.82544,31.118118
"395",80.01587,31.13145
"396",80.12329,31.144787
"397",80.12573,31.158123
"398",80.03296,31.171455
"399",79.85962,31.184788
"400",79.61791,31.198124
"401",79.33227,31.21146
"402",79.03197,31.224792
"403",78.74143,31.238125
"404",78.47532,31.251461
"405",78.24338,31.264797
"406",78.05051,31.27813
"407",77.88937,31.291462
"408",77.75754,31.304798
"409",77.645226,31.318134
"410",77.55489,31.331467
"411",77.47921,31.344799
"412",77.420616,31.358135
"413",77.37911,31.371471
"414",77.35226,31.384804
"415",77.34493,31.398136
"416",77.39376,31.411472
"417",77.58663,31.424809
"418",78.0383,31.43814
"419",78.84154,31.451473
"420",79.99634,31.46481
"421",81.3904,31.478146
"422",82.81377,31.491478
"423",84.0296,31.50481
"424",84.842606,31.518147
"425",85.172195,31.531483
"426",85.04036,31.544815
"427",84.54719,31.558147
"428",83.81476,31.571484
"429",82.95781,31.58482
"430",82.0618,31.598152
"431",81.19264,31.611485
"432",80.394295,31.62482
"433",79.70336,31.638157
"434",79.149155,31.65149
"435",78.768295,31.664822
"436",78.58762,31.678158
"437",78.61204,31.691494
"438",78.8098,31.704826
"439",79.13695,31.718159
"440",79.5227,31.731495
"441",79.8938,31.744831
"442",80.181885,31.758163
"443",80.35035,31.771496
"444",80.37965,31.784832
"445",80.28687,31.798168
"446",80.09888,31.8115
"447",79.8645,31.824833
"448",79.61059,31.83817
"449",79.361565,31.851505
"450",79.12474,31.864838
"451",78.90257,31.87817
"452",78.68772,31.891506
"453",78.4802,31.904842
"454",78.28733,31.918175
"455",78.116425,31.931507
"456",77.96506,31.944843
"457",77.83078,31.95818
"458",77.72335,31.971512
"459",77.64767,31.984844
"460",77.63302,31.99818
"461",77.76486,32.011517
"462",78.167694,32.02485
"463",78.92943,32.03818
"464",80.059814,32.051517
"465",81.45632,32.064854
"466",82.92119,32.078186
"467",84.207825,32.09152
"468",85.11116,32.104855
"469",85.53109,32.11819
"470",85.47494,32.131523
"471",85.02571,32.144855
"472",84.29572,32.15819
"473",83.39971,32.171528
"474",82.43778,32.18486
"475",81.48806,32.198193
"476",80.604256,32.21153
"477",79.83032,32.224865
"478",79.20531,32.238197
"479",78.77074,32.25153
"480",78.54856,32.264866
"481",78.555885,32.278202
"482",78.75853,32.291534
"483",79.11009,32.304867
"484",79.52514,32.318203
"485",79.90845,32.33154
"486",80.18921,32.34487
"487",80.33082,32.358204
"488",80.323494,32.37154
"489",80.177,32.384876
"490",79.93042,32.39821
"491",79.63012,32.41154
"492",79.30785,32.424877
"493",78.98802,32.438213
"494",78.68528,32.451546
"495",78.40452,32.464878
"496",78.1384,32.478214
"497",77.88937,32.49155
"498",77.6672,32.504883
"499",77.47921,32.518215
"500",77.3254,32.53155
"501",77.21309,32.544888
"502",77.14961,32.55822
"503",77.188675,32.571552
"504",77.435265,32.58489
"505",78.028534,32.598225
"506",79.044174,32.611557
"507",80.45045,32.62489
"508",82.08621,32.638226
"509",83.702446,32.65156
"510",85.01839,32.664894
"511",85.85092,32.678226
"512",86.13901,32.691563
"513",85.94614,32.7049
"514",85.38949,32.71823
"515",84.6009,32.731564
"516",83.6878,32.7449
"517",82.735634,32.758236
"518",81.79813,32.77157
"519",80.93385,32.7849
"520",80.19653,32.798237
"521",79.639885,32.811573
"522",79.30053,32.824905
"523",79.200424,32.838238
"524",79.31762,32.851574
"525",79.603264,32.86491
"526",79.98169,32.878242
"527",80.37232,32.891575
"528",80.70191,32.90491
"529",80.921646,32.918247
"530",81.004654,32.93158
"531",80.95094,32.944912
"532",80.780045,32.95825
"533",80.52125,32.971584
"534",80.21362,32.984917
"535",79.8938,32.99825
"536",79.586174,33.011585
"537",79.310295,33.02492
"538",79.07347,33.038254
"539",78.86839,33.051586
"540",78.69016,33.064922
"541",78.52903,33.07826
"542",78.37766,33.09159
"543",78.23605,33.104923
"544",78.12863,33.11826
"545",78.13107,33.131596
"546",78.380104,33.144928
"547",79.029526,33.15826
"548",80.15503,33.171597
"549",81.71023,33.184933
"550",83.51202,33.198265
"551",85.28451,33.211597
"552",86.7396,33.224934
"553",87.66979,33.23827
"554",88.009155,33.251602
"555",87.82361,33.264935
"556",87.2401,33.27827
"557",86.400246,33.291607
"558",85.43832,33.30494
"559",84.45197,33.31827
"560",83.49981,33.331608
"561",82.61356,33.344944
"562",81.82254,33.358276
"563",81.17799,33.37161
"564",80.71412,33.384945
"565",80.45777,33.39828
"566",80.40894,33.411613
"567",80.53834,33.424946
"568",80.780045,33.438282
"569",81.06081,33.45162
"570",81.30251,33.46495
"571",81.45632,33.478283
"572",81.48806,33.49162
"573",81.38796,33.504955
"574",81.16579,33.518288
"575",80.85817,33.53162
"576",80.49195,33.544956
"577",80.10376,33.558292
"578",79.7058,33.571625
"579",79.32006,33.584957
"580",78.9514,33.598293
"581",78.60471,33.61163
"582",78.277565,33.62496
"583",77.97238,33.638294
"584",77.69405,33.65163
"585",77.44747,33.664967
"586",77.24971,33.6783
"587",77.17647,33.69163
"588",77.35714,33.704967
"589",77.95773,33.718304
"590",79.078354,33.731636
"591",80.69703,33.74497
"592",82.64774,33.758305
"593",84.65217,33.77164
"594",86.38804,33.784973
"595",87.60876,33.798306
"596",88.21179,33.81164
"597",88.224,33.824978
"598",87.76257,33.83831
"599",86.976425,33.851643
"600",86.02182,33.86498
"601",85.015945,33.878315
"602",84.04181,33.891647
"603",83.1458,33.90498
"604",82.36942,33.918316
"605",81.74197,33.931652
"606",81.287865,33.944984
"607",81.01686,33.958317
"608",80.91432,33.971653
"609",80.95094,33.98499
"610",81.07057,33.99832
"611",81.20485,34.011654
"612",81.29763,34.02499
"613",81.31228,34.038326
"614",81.22926,34.05166
"615",81.05104,34.06499
"616",80.799576,34.078327
"617",80.499275,34.091663
"618",80.164795,34.104996
"619",79.81323,34.11833
"620",79.449455,34.131664
"621",79.07591,34.145
"622",78.69749,34.158333
"623",78.311745,34.171665
"624",77.92844,34.185
"625",77.54513,34.198338
"626",77.171585,34.21167
"627",76.8127,34.225002
"628",76.49531,34.23834
"629",76.2707,34.251675
"630",76.23407,34.265007
"631",76.5124,34.27834
"632",77.17647,34.291676
"633",78.22629,34.30501
"634",79.537346,34.318344
"635",80.88991,34.331676
"636",82.03006,34.345013
"637",82.75273,34.35835
"638",82.97002,34.37168
"639",82.7161,34.385014
"640",82.10086,34.39835
"641",81.25613,34.411686
"642",80.31617,34.42502
"643",79.37377,34.43835
"644",78.48264,34.451687
"645",77.68673,34.465023
"646",77.04219,34.478355
"647",76.59052,34.491688
"648",76.37324,34.505024
"649",76.404976,34.51836
"650",76.66865,34.531693
"651",77.09346,34.545025
"652",77.58419,34.55836
"653",78.0383,34.571697
"654",78.380104,34.58503
"655",78.555885,34.598362
"656",78.553444,34.6117
"657",78.38499,34.625034
"658",78.099335,34.638367
"659",77.733116,34.6517
"660",77.33517,34.665035
"661",76.944534,34.67837
"662",76.58808,34.691704
"663",76.27314,34.705036
"664",76.00702,34.718372
"665",75.78729,34.73171
"666",75.60906,34.74504
"667",75.46746,34.758373
"668",75.36248,34.77171
"669",75.28924,34.785046
"670",75.245285,34.798378
"671",75.23064,34.81171
"672",75.30877,34.825047
"673",75.58953,34.838383
"674",76.20233,34.851715
"675",77.23018,34.865047
"676",78.63645,34.878384
"677",80.2649,34.89172
"678",81.85428,34.905052
"679",83.140915,34.918385
"680",83.93683,34.93172
"681",84.18341,34.945057
"682",83.93927,34.95839
"683",83.32647,34.97172
"684",82.47196,34.985058
"685",81.49294,34.998394
"686",80.46998,35.011726
"687",79.46899,35.02506
"688",78.55833,35.038395
"689",77.80881,35.05173
"690",77.27657,35.065063
"691",77.00557,35.078396
"692",77.00313,35.091732
"693",77.23018,35.10507
"694",77.61837,35.1184
"695",78.07004,35.131733
"696",78.504616,35.14507
"697",78.84642,35.158405
"698",79.05638,35.171738
"699",79.11986,35.18507
"700",79.05394,35.198406
"701",78.887924,35.211742
"702",78.66331,35.225075
"703",78.40696,35.238407
"704",78.14328,35.251743
"705",77.88205,35.26508
"706",77.63302,35.27841
"707",77.39864,35.291744
"708",77.18379,35.30508
"709",76.98848,35.318417
"710",76.81514,35.33175
"711",76.663765,35.34508
"712",76.53193,35.358418
"713",76.453804,35.371754
"714",76.51972,35.385086
"715",76.87373,35.39842
"716",77.63546,35.411755
"717",78.8513,35.42509
"718",80.428474,35.438423
"719",82.14725,35.451756
"720",83.72198,35.46509
"721",84.89143,35.478428
"722",85.51156,35.49176
"723",85.575035,35.505093
"724",85.17464,35.51843
"725",84.44709,35.531765
"726",83.51934,35.545097
"727",82.50126,35.55843
"728",81.47097,35.571766
"729",80.49439,35.585102
"730",79.635,35.598434
"731",78.958725,35.611767
"732",78.51438,35.625103
"733",78.328835,35.63844
"734",78.39231,35.65177
"735",78.64622,35.665104
"736",79.0222,35.67844
"737",79.4226,35.691776
"738",79.77173,35.70511
"739",80.008545,35.71844
"740",80.093994,35.731777
"741",80.025635,35.745113
"742",79.823,35.758446
"743",79.5227,35.77178
"744",79.168686,35.785114
"745",78.802475,35.79845
"746",78.44602,35.811783
"747",78.11398,35.825115
"748",77.81125,35.83845
"749",77.54757,35.851788
"750",77.3254,35.86512
"751",77.13985,35.878452
"752",76.98848,35.89179
"753",76.87373,35.905125
"754",76.822464,35.918457
"755",76.93477,35.93179
"756",77.35714,35.945126
"757",78.221405,35.95846
"758",79.55932,35.971794
"759",81.25124,35.985126
"760",83.06767,35.998463
"761",84.70344,36.0118
"762",85.89975,36.02513
"763",86.51743,36.038464
"764",86.571144,36.0518
"765",86.16342,36.065136
"766",85.43832,36.07847
"767",84.53254,36.0918
"768",83.560844,36.105137
"769",82.59159,36.118473
"770",81.65896,36.131805
"771",80.80934,36.145138
"772",80.08423,36.158474
"773",79.53002,36.17181
"774",79.19066,36.185143
"775",79.08568,36.198475
"776",79.19554,36.21181
"777",79.45678,36.225147
"778",79.77905,36.23848
"779",80.079346,36.251812
"780",80.2942,36.26515
"781",80.38697,36.278484
"782",80.343025,36.291817
"783",80.17944,36.30515
"784",79.91821,36.318485
"785",79.59594,36.33182
"786",79.24437,36.345154
"787",78.887924,36.358486
"788",78.551,36.371822
"789",78.238495,36.38516
"790",77.95773,36.39849
"791",77.70626,36.411823
"792",77.48165,36.42516
"793",77.28634,36.438496
"794",77.120316,36.451828
"795",76.99336,36.46516
"796",76.95918,36.478497
"797",77.15694,36.491833
"798",77.74532,36.505165
"799",78.83421,36.518497
"800",80.40894,36.531834
"801",82.31327,36.54517
"802",84.266426,36.558502
"803",85.94614,36.571835
"804",87.1107,36.58517
"805",87.66491,36.598507
"806",87.65026,36.61184
"807",87.19127,36.62517
"808",86.43931,36.638508
"809",85.53109,36.651844
"810",84.578926,36.665176
"811",83.63897,36.67851
"812",82.75273,36.691845
"813",81.951935,36.70518
"814",81.26589,36.718513
"815",80.719,36.731846
"816",80.33814,36.745182
"817",80.130615,36.75852
"818",80.08667,36.77185
"819",80.15747,36.785183
"820",80.29908,36.79852
"821",80.448006,36.811855
"822",80.552986,36.825188
"823",80.57252,36.83852
"824",80.48463,36.851856
"825",80.27711,36.865192
"826",79.96704,36.878525
"827",79.58373,36.891857
"828",79.17113,36.905193
"829",78.75609,36.91853
"830",78.3679,36.93186
"831",78.02121,36.945194
"832",77.713585,36.95853
"833",77.44015,36.971867
"834",77.19112,36.9852
"835",76.97139,36.99853
"836",76.77608,37.011868
"837",76.60517,37.025204
"838",76.45869,37.038536
"839",76.3415,37.05187
"840",76.299995,37.065205
"841",76.44648,37.07854
"842",76.944534,37.091873
"843",77.93088,37.105206
"844",79.432365,37.11854
"845",81.33669,37.131878
"846",83.372856,37.14521
"847",85.21858,37.158543
"848",86.59556,37.17188
"849",87.35241,37.185215
"850",87.49401,37.198547
"851",87.13756,37.21188
"852",86.44663,37.225216
"853",85.57259,37.238552
"854",84.630196,37.251884
"855",83.69268,37.265217
"856",82.794235,37.278553
"857",81.95926,37.29189
"858",81.20973,37.30522
"859",80.587166,37.318554
"860",80.13306,37.33189
"861",79.86206,37.345226
"862",79.764404,37.35856
"863",79.80347,37.37189
"864",79.923096,37.385227
"865",80.06714,37.398563
"866",80.17456,37.411896
"867",80.21118,37.42523
"868",80.14526,37.438564
"869",79.9646,37.4519
"870",79.676506,37.465233
"871",79.30785,37.478565
"872",78.890366,37.4919
"873",78.45823,37.505238
"874",78.03586,37.51857
"875",77.63302,37.531902
"876",77.25704,37.54524
"877",76.91524,37.558575
"878",76.612495,37.571907
"879",76.35859,37.58524
"880",76.15839,37.598576
"881",76.00946,37.61191
"882",75.90936,37.625244
"883",75.85077,37.638577
"884",75.826355,37.651913
"885",75.82147,37.66525
"886",75.82391,37.67858
"887",75.826355,37.691914
"888",75.83124,37.70525
"889",75.90448,37.718586
"890",76.1828,37.73192
"891",76.839554,37.74525
"892",77.979706,37.758587
"893",79.5935,37.771923
"894",81.514915,37.785255
"895",83.458305,37.798588
"896",85.09895,37.811924
"897",86.20004,37.82526
"898",86.68101,37.838593
"899",86.59312,37.851925
"900",86.06088,37.86526
"901",85.25033,37.878597
"902",84.298164,37.89193
"903",83.30694,37.905262
"904",82.3328,37.9186
"905",81.41726,37.931934
"906",80.601814,37.945267
"907",79.92554,37.9586
"908",79.4226,37.971935
"909",79.11986,37.98527
"910",79.01732,37.998604
"911",79.09056,38.011936
"912",79.27856,38.025272
"913",79.51537,38.03861
"914",79.73266,38.05194
"915",79.86694,38.065273
"916",79.88403,38.07861
"917",79.766846,38.091946
"918",79.53246,38.105278
"919",79.202866,38.11861
"920",78.81468,38.131947
"921",78.40696,38.145283
"922",78.00412,38.158615
"923",77.628136,38.171947
"924",77.28878,38.185284
"925",76.98604,38.19862
"926",76.71992,38.211952
"927",76.49287,38.225285
"928",76.30244,38.23862
"929",76.15106,38.251957
"930",76.0412,38.26529
"931",75.96796,38.27862
"932",75.93378,38.291958
"933",75.931335,38.305294
"934",75.96307,38.318626
"935",76.01434,38.33196
"936",76.068054,38.345295
"937",76.10712,38.35863
"938",76.12421,38.371964
"939",76.11444,38.385296
"940",76.104675,38.398632
"941",76.16571,38.41197
"942",76.43183,38.4253
"943",77.05928,38.438633
"944",78.1384,38.45197
"945",79.65453,38.465305
"946",81.446556,38.478638
"947",83.243454,38.49197
"948",84.75716,38.505306
"949",85.76059,38.518642
"950",86.17319,38.531975
"951",86.03891,38.545307
"952",85.4847,38.558643
"953",84.65461,38.57198
"954",83.69512,38.58531
"955",82.69901,38.598644
"956",81.73464,38.61198
"957",80.850845,38.625317
"958",80.08911,38.63865
"959",79.4934,38.65198
"960",79.10521,38.665318
"961",78.9514,38.678654
"962",79.0222,38.691986
"963",79.26879,38.70532
"964",79.60815,38.718655
"965",79.95239,38.73199
"966",80.22339,38.745323
"967",80.365,38.758656
"968",80.35767,38.77199
"969",80.21362,38.785328
"970",79.954834,38.79866
"971",79.61791,38.811993
"972",79.234604,38.82533
"973",78.836655,38.838665
"974",78.45335,38.851997
"975",78.101776,38.86533
"976",77.786835,38.878666
"977",77.51583,38.892002
"978",77.29366,38.905334
"979",77.11299,38.918667
"980",76.97139,38.932003
"981",76.87373,38.94534
"982",76.81758,38.95867
"983",76.79317,38.972004
"984",76.79805,38.98534
"985",76.82979,38.998676
"986",76.87862,39.01201
"987",76.93233,39.02534
"988",76.9836,39.038677
"989",77.032425,39.052013
"990",77.06416,39.065346
"991",77.07637,39.07868
"992",77.086136,39.092014
"993",77.14229,39.10535
"994",77.35714,39.118683
"995",77.87717,39.132015
"996",78.8098,39.14535
"997",80.15259,39.158688
"998",81.778595,39.17202
"999",83.45342,39.185352
"1000",84.89876,39.19869
"1001",85.89487,39.212025
"1002",86.346535,39.225357
"1003",86.28306,39.23869
"1004",85.79965,39.252026
"1005",85.030594,39.26536
"1006",84.102844,39.278694
"1007",83.12627,39.292027
"1008",82.161896,39.305363
"1009",81.26589,39.3187
"1010",80.49439,39.33203
"1011",79.89136,39.345364
"1012",79.49096,39.3587
"1013",79.31762,39.372036
"1014",79.35912,39.38537
"1015",79.57641,39.3987
"1016",79.8938,39.412037
"1017",80.233154,39.425373
"1018",80.52613,39.438705
"1019",80.71656,39.452038
"1020",80.765396,39.465374
"1021",80.672615,39.47871
"1022",80.448006,39.492043
"1023",80.12573,39.505375
"1024",79.74731,39.51871
"1025",79.34692,39.532047
"1026",78.958725,39.54538
"1027",78.60227,39.558712
"1028",78.28001,39.57205
"1029",77.996796,39.585384
"1030",77.7551,39.598717
"1031",77.55001,39.61205
"1032",77.38155,39.625385
"1033",77.2546,39.63872
"1034",77.171585,39.652054
"1035",77.12764,39.665386
"1036",77.117874,39.678722
"1037",77.13008,39.69206
"1038",77.154495,39.70539
"1039",77.18379,39.718723
"1040",77.208206,39.73206
"1041",77.225296,39.745396
"1042",77.24971,39.758728
"1043",77.332726,39.77206
"1044",77.591515,39.785397
"1045",78.16281,39.798733
"1046",79.151596,39.812065
"1047",80.54322,39.825397
"1048",82.2034,39.838734
"1049",83.895325,39.85207
"1050",85.3431,39.865402
"1051",86.33189,39.878735
"1052",86.768906,39.89207
"1053",86.68833,39.905407
"1054",86.19272,39.91874
"1055",85.418785,39.93207
"1056",84.49348,39.945408
"1057",83.53155,39.958744
"1058",82.598915,39.972076
"1059",81.7322,39.98541
"1060",80.96803,39.998745
"1061",80.34547,40.01208
"1062",79.89624,40.025414
"1063",79.65209,40.038746
"1064",79.61303,40.052082
"1065",79.76196,40.06542
"1066",80.0354,40.07875
"1067",80.35767,40.092083
"1068",80.6482,40.10542
"1069",80.850845,40.118755
"1070",80.921646,40.132088
"1071",80.850845,40.14542
"1072",80.65064,40.158756
"1073",80.35279,40.172092
"1074",79.98901,40.185425
"1075",79.59594,40.198757
"1076",79.19554,40.212093
"1077",78.8098,40.22543
"1078",78.45579,40.23876
"1079",78.14328,40.252094
"1080",77.872284,40.26543
"1081",77.64034,40.278767
"1082",77.44991,40.2921
"1083",77.29366,40.30543
"1084",77.16426,40.318768
"1085",77.069046,40.332104
"1086",77.00557,40.345436
"1087",76.97383,40.35877
"1088",76.964066,40.372105
"1089",76.97383,40.38544
"1090",76.998245,40.398773
"1091",77.051956,40.412106
"1092",77.21309,40.42544
"1093",77.61593,40.438778
"1094",78.40208,40.45211
"1095",79.64233,40.465443
"1096",81.27566,40.47878
"1097",83.123825,40.492115
"1098",84.91341,40.505447
"1099",86.36851,40.51878
"1100",87.31579,40.532116
"1101",87.69665,40.545452
"1102",87.572136,40.558784
"1103",87.05211,40.572117
"1104",86.26597,40.585453
"1105",85.330894,40.59879
"1106",84.349434,40.61212
"1107",83.37774,40.625454
"1108",82.4622,40.63879
"1109",81.64675,40.652126
"1110",80.9778,40.66546
"1111",80.48463,40.67879
"1112",80.19653,40.692127
"1113",80.12085,40.705463
"1114",80.22583,40.718796
"1115",80.45045,40.73213
"1116",80.719,40.745464
"1117",80.96071,40.7588
"1118",81.11452,40.772133
"1119",81.15114,40.785465
"1120",81.05592,40.7988
"1121",80.84352,40.812138
"1122",80.533455,40.82547
"1123",80.15747,40.838802
"1124",79.742424,40.85214
"1125",79.31762,40.865475
"1126",78.90257,40.878807
"1127",78.51194,40.89214
"1128",78.153046,40.905476
"1129",77.83078,40.91881
"1130",77.540245,40.932144
"1131",77.28634,40.945477
"1132",77.07881,40.958813
"1133",76.91768,40.97215
"1134",76.81026,40.98548
"1135",76.74433,40.998814
"1136",76.700386,41.01215
"1137",76.66132,41.025486
"1138",76.61494,41.03882
"1139",76.56611,41.05215
"1140",76.558784,41.065487
"1141",76.68574,41.078823
"1142",77.0959,41.092155
"1143",77.925995,41.105488
"1144",79.23216,41.118824
"1145",80.936295,41.13216
"1146",82.845505,41.145493
"1147",84.67902,41.158825
"1148",86.16342,41.17216
"1149",87.12047,41.185497
"1150",87.49645,41.19883
"1151",87.34997,41.212162
"1152",86.7982,41.2255
"1153",85.97299,41.238834
"1154",84.998856,41.252167
"1155",83.97589,41.2655
"1156",82.97246,41.278835
"1157",82.04227,41.29217
"1158",81.2195,41.305504
"1159",80.550545,41.318836
"1160",80.07202,41.332172
"1161",79.81079,41.34551
"1162",79.76196,41.35884
"1163",79.89624,41.372173
"1164",80.15259,41.38551
"1165",80.44068,41.398846
"1166",80.68482,41.412178
"1167",80.82887,41.42551
"1168",80.84596,41.438847
"1169",80.72144,41.452183
"1170",80.47486,41.465515
"1171",80.13306,41.478848
"1172",79.73022,41.492184
"1173",79.293205,41.50552
"1174",78.84886,41.518852
"1175",78.41917,41.532185
"1176",78.01633,41.54552
"1177",77.64767,41.558857
"1178",77.31808,41.57219
"1179",77.03731,41.58552
"1180",76.81026,41.598858
"1181",76.63203,41.612194
"1182",76.50507,41.625526
"1183",76.42451,41.63886
"1184",76.37568,41.652195
"1185",76.34882,41.66553
"1186",76.3415,41.678864
"1187",76.334175,41.692196
"1188",76.32929,41.705532
"1189",76.34882,41.71887
"1190",76.45869,41.7322
"1191",76.7834,41.745533
"1192",77.47433,41.75887
"1193",78.61692,41.772205
"1194",80.18921,41.785538
"1195",82.04227,41.79887
"1196",83.92218,41.812206
"1197",85.540855,41.825542
"1198",86.6688,41.838875
"1199",87.20836,41.852207
"1200",87.17174,41.865543
"1201",86.66636,41.87888
"1202",85.83139,41.892212
"1203",84.81575,41.905544
"1204",83.7293,41.91888
"1205",82.65507,41.932217
"1206",81.64919,41.94555
"1207",80.75563,41.95888
"1208",80.02319,41.972218
"1209",79.500725,41.985554
"1210",79.21507,41.998886
"1211",79.17113,42.01222
"1212",79.327385,42.025555
"1213",79.61303,42.03889
"1214",79.940186,42.052223
"1215",80.22827,42.065556
"1216",80.42359,42.07889
"1217",80.49439,42.092228
"1218",80.42603,42.10556
"1219",80.22339,42.118893
"1220",79.91333,42.13223
"1221",79.52514,42.145565
"1222",79.08324,42.158897
"1223",78.62913,42.17223
"1224",78.20187,42.185566
"1225",77.81125,42.198902
"1226",77.46212,42.212234
"1227",77.15694,42.225567
"1228",76.895706,42.238903
"1229",76.67353,42.25224
"1230",76.49287,42.26557
"1231",76.36103,42.278904
"1232",76.27314,42.29224
"1233",76.21942,42.305576
"1234",76.19745,42.31891
"1235",76.192566,42.33224
"1236",76.19745,42.345577
"1237",76.20477,42.358913
"1238",76.22919,42.372246
"1239",76.34394,42.38558
"1240",76.66621,42.398914
"1241",77.3547,42.41225
"1242",78.49973,42.425583
"1243",80.07202,42.438915
"1244",81.91531,42.45225
"1245",83.77081,42.465588
"1246",85.34066,42.47892
"1247",86.41001,42.492252
"1248",86.890976,42.50559
"1249",86.81285,42.518925
"1250",86.28306,42.532257
"1251",85.43832,42.54559
"1252",84.41779,42.558926
"1253",83.3167,42.57226
"1254",82.22049,42.585594
"1255",81.18532,42.598927
"1256",80.28199,42.612263
"1257",79.571526,42.6256
"1258",79.10521,42.63893
"1259",78.89769,42.652264
"1260",78.93919,42.6656
"1261",79.18089,42.678936
"1262",79.537346,42.69227
"1263",79.923096,42.7056
"1264",80.25269,42.718937
"1265",80.47242,42.732273
"1266",80.54566,42.745605
"1267",80.46021,42.758938
"1268",80.233154,42.772274
"1269",79.90112,42.78561
"1270",79.500725,42.798943
"1271",79.07103,42.812275
"1272",78.63889,42.82561
"1273",78.23117,42.838947
"1274",77.86496,42.85228
"1275",77.53536,42.865612
"1276",77.24727,42.87895
"1277",77.00313,42.892284
"1278",76.80293,42.905617
"1279",76.64423,42.91895
"1280",76.524605,42.932285
"1281",76.4416,42.94562
"1282",76.383,42.958954
"1283",76.3415,42.972286
"1284",76.3122,42.985622
"1285",76.30244,42.99896
"1286",76.33662,43.01229
"1287",76.48798,43.025623
"1288",76.88106,43.03896
"1289",77.645226,43.052296
"1290",78.84154,43.065628
"1291",80.430916,43.07896
"1292",82.24246,43.092297
"1293",84.02228,43.105633
"1294",85.49691,43.118965
"1295",86.46128,43.132298
"1296",86.83971,43.145634
"1297",86.659035,43.15897
"1298",86.03403,43.172302
"1299",85.10628,43.185635
"1300",84.01007,43.19897
"1301",82.862595,43.212307
"1302",81.74441,43.22564
"1303",80.72144,43.23897
"1304",79.84985,43.252308
"1305",79.18089,43.265644
"1306",78.76097,43.278976
"1307",78.61448,43.29231
"1308",78.72434,43.305645
"1309",79.03441,43.31898
"1310",79.45678,43.332314
"1311",79.888916,43.345646
"1312",80.23804,43.358982
"1313",80.445564,43.37232
"1314",80.48951,43.38565
"1315",80.38209,43.398983
"1316",80.147705,43.41232
"1317",79.82788,43.425655
"1318",79.45922,43.438988
"1319",79.07347,43.45232
"1320",78.69016,43.465656
"1321",78.32639,43.478992
"1322",77.98947,43.492325
"1323",77.68673,43.505657
"1324",77.418175,43.518993
"1325",77.18623,43.53233
"1326",76.995804,43.545662
"1327",76.84688,43.558994
"1328",76.73701,43.57233
"1329",76.654,43.585667
"1330",76.59052,43.599
"1331",76.541695,43.61233
"1332",76.5124,43.625668
"1333",76.53681,43.639004
"1334",76.697945,43.652336
"1335",77.12764,43.66567
"1336",77.95529,43.679005
"1337",79.23216,43.69234
"1338",80.902115,43.705673
"1339",82.78203,43.719006
"1340",84.610664,43.73234
"1341",86.11215,43.745678
"1342",87.09117,43.75901
"1343",87.47448,43.772343
"1344",87.29626,43.78568
"1345",86.66392,43.799015
"1346",85.70931,43.812347
"1347",84.578926,43.82568
"1348",83.38262,43.839016
"1349",82.210724,43.852352
"1350",81.143814,43.865685
"1351",80.24292,43.879017
"1352",79.5642,43.892353
"1353",79.151596,43.90569
"1354",79.01732,43.91902
"1355",79.14427,43.932354
"1356",79.47631,43.94569
"1357",79.91577,43.959026
"1358",80.35767,43.97236
"1359",80.71168,43.98569
"1360",80.91432,43.999027
"1361",80.938736,44.012363
"1362",80.79225,44.025696
"1363",80.5066,44.03903
"1364",80.130615,44.052364
"1365",79.70092,44.0657
"1366",79.25414,44.079033
"1367",78.819565,44.092365
"1368",78.41917,44.1057
"1369",78.07004,44.119038
"1370",77.77463,44.13237
"1371",77.52071,44.145702
"1372",77.30099,44.15904
"1373",77.100784,44.172375
"1374",76.92256,44.185707
"1375",76.75899,44.19904
"1376",76.62226,44.212376
"1377",76.524605,44.22571
"1378",76.46601,44.239044
"1379",76.473335,44.252377
"1380",76.629585,44.265713
"1381",77.05928,44.27905
"1382",77.8967,44.29238
"1383",79.21507,44.305714
"1384",80.95827,44.31905
"1385",82.94316,44.332386
"1386",84.88411,44.34572
"1387",86.49302,44.35905
"1388",87.555046,44.372387
"1389",87.99939,44.385723
"1390",87.86755,44.39905
"1391",87.27184,44.412388
"1392",86.3563,44.425716
"1393",85.25521,44.439053
"1394",84.08087,44.45238
"1395",82.91142,44.465717
"1396",81.82254,44.479046
"1397",80.885025,44.492382
"1398",80.164795,44.50571
"1399",79.70092,44.519047
"1400",79.51293,44.532375
"1401",79.57641,44.54571
"1402",79.835205,44.55904
"1403",80.21118,44.572376
"1404",80.604256,44.585705
"1405",80.93141,44.59904
"1406",81.12184,44.61237
"1407",81.13161,44.625706
"1408",80.95094,44.639034
"1409",80.61158,44.65237
"1410",80.15747,44.6657
"1411",79.64965,44.679035
"1412",79.13939,44.692364
"1413",78.65598,44.7057
"1414",78.21896,44.71903
"1415",77.838104,44.732365
"1416",77.506065,44.745693
"1417",77.21797,44.75903
"1418",76.97139,44.772358
"1419",76.76143,44.785694
"1420",76.58564,44.799023
"1421",76.4416,44.81236
"1422",76.31953,44.825687
"1423",76.21698,44.839024
"1424",76.14374,44.852352
"1425",76.16815,44.86569
"1426",76.422066,44.879017
"1427",77.06416,44.892353
"1428",78.2092,44.90568
"1429",79.84741,44.919018
"1430",81.829865,44.932346
"1431",83.888,44.945683
"1432",85.711754,44.95901
"1433",87.04234,44.972347
"1434",87.75037,44.985676
"1435",87.84314,44.999012
"1436",87.41833,45.01234
"1437",86.624855,45.025677
"1438",85.6141,45.039005
"1439",84.51301,45.05234
"1440",83.407036,45.06567
"1441",82.35966,45.079006
"1442",81.40505,45.092335
"1443",80.58961,45.10567
"1444",79.94995,45.119
"1445",79.520256,45.132336
"1446",79.3225,45.145664
"1447",79.32983,45.159
"1448",79.4934,45.17233
"1449",79.73754,45.185665
"1450",79.974365,45.198994
"1451",80.12329,45.21233
"1452",80.13794,45.22566
"1453",79.99878,45.238995
"1454",79.70336,45.252323
"1455",79.28344,45.26566
"1456",78.79027,45.278988
"1457",78.260475,45.292324
"1458",77.74532,45.305653
"1459",77.27413,45.31899
"1460",76.86885,45.332317
"1461",76.53193,45.345654
"1462",76.26093,45.358982
"1463",76.0412,45.37232
"1464",75.8703,45.385647
"1465",75.733574,45.398983
"1466",75.62371,45.41231
"1467",75.53826,45.425648
"1468",75.474785,45.438976
"1469",75.43328,45.452312
"1470",75.41619,45.46564
"1471",75.46014,45.478977
"1472",75.650566,45.492306
"1473",76.13397,45.505642
"1474",77.05684,45.51897
"1475",78.48997,45.532307
"1476",80.36256,45.545635
"1477",82.47196,45.55897
"1478",84.52277,45.5723
"1479",86.202484,45.585636
"1480",87.30358,45.598965
"1481",87.7699,45.6123
"1482",87.66735,45.62563
"1483",87.13023,45.638966
"1484",86.329445,45.652294
"1485",85.40658,45.66563
"1486",84.456856,45.67896
"1487",83.526665,45.692295
"1488",82.63554,45.705624
"1489",81.80301,45.71896
"1490",81.06325,45.73229
"1491",80.45289,45.745625
"1492",80.008545,45.758953
"1493",79.74975,45.77229
"1494",79.656975,45.785618
"1495",79.67895,45.798954
"1496",79.75952,45.812283
"1497",79.83765,45.82562
"1498",79.8645,45.838947
"1499",79.80591,45.852283
"1500",79.635,45.865612
"1501",79.35912,45.87895
"1502",78.99046,45.892277
"1503",78.55833,45.905613
"1504",78.09445,45.91894
"1505",77.63302,45.932278
"1506",77.20088,45.945606
"1507",76.81026,45.958942
"1508",76.46113,45.97227
"1509",76.155945,45.985607
"1510",75.897156,45.998936
"1511",75.68719,46.01227
"1512",75.526054,46.0256
"1513",75.41131,46.038937
"1514",75.338066,46.052265
"1515",75.29656,46.0656
"1516",75.27215,46.07893
"1517",75.25506,46.092266
"1518",75.23552,46.105595
"1519",75.228195,46.11893
"1520",75.27703,46.13226
"1521",75.4992,46.145596
"1522",76.053406,46.158924
"1523",77.08125,46.17226
"1524",78.61692,46.18559
"1525",80.56275,46.198925
"1526",82.68192,46.212254
"1527",84.661934,46.22559
"1528",86.23178,46.23892
"1529",87.220566,46.252254
"1530",87.606316,46.265583
"1531",87.47204,46.27892
"1532",86.96422,46.292248
"1533",86.22446,46.305584
"1534",85.38705,46.318913
"1535",84.52766,46.33225
"1536",83.67803,46.345577
"1537",82.845505,46.358913
"1538",82.04227,46.372242
"1539",81.29519,46.38558
"1540",80.64576,46.398907
"1541",80.13794,46.412243
"1542",79.815674,46.42557
"1543",79.66674,46.438908
"1544",79.65453,46.452236
"1545",79.71801,46.465572
"1546",79.783936,46.4789
"1547",79.79614,46.492237
"1548",79.71801,46.505566
"1549",79.53246,46.5189
"1550",79.24681,46.53223
"1551",78.88304,46.545567
"1552",78.46555,46.558895
"1553",78.02121,46.57223
"1554",77.57198,46.58556
"1555",77.14473,46.598896
"1556",76.754105,46.612225
"1557",76.40742,46.62556
"1558",76.11444,46.63889
"1559",75.87518,46.652225
"1560",75.684746,46.665554
"1561",75.53582,46.67889
"1562",75.423515,46.69222
"1563",75.35027,46.705555
"1564",75.31121,46.718884
"1565",75.31365,46.73222
"1566",75.352715,46.74555
"1567",75.41863,46.758884
"1568",75.494316,46.772213
"1569",75.57244,46.78555
"1570",75.63592,46.798878
"1571",75.682304,46.812214
"1572",75.716484,46.825542
"1573",75.7409,46.83888
"1574",75.75311,46.852207
"1575",75.75067,46.865543
"1576",75.72381,46.878872
"1577",75.67254,46.89221
"1578",75.60174,46.905537
"1579",75.543144,46.918873
"1580",75.58221,46.9322
"1581",75.87518,46.945538
"1582",76.60517,46.958866
"1583",77.891815,46.972202
"1584",79.727776,46.98553
"1585",81.94217,46.998867
"1586",84.2298,47.012196
"1587",86.24887,47.02553
"1588",87.725945,47.03886
"1589",88.53895,47.052197
"1590",88.724495,47.065525
"1591",88.41688,47.07886
"1592",87.77478,47.09219
"1593",86.96178,47.105526
"1594",86.09506,47.118855
"1595",85.240555,47.13219
"1596",84.420235,47.14552
"1597",83.64385,47.158855
"1598",82.92119,47.172184
"1599",82.27909,47.18552
"1600",81.75418,47.19885
"1601",81.3782,47.212185
"1602",81.16579,47.225513
"1603",81.09743,47.23885
"1604",81.11452,47.25218
"1605",81.16579,47.265514
"1606",81.18776,47.278843
"1607",81.13893,47.29218
"1608",80.99245,47.305508
"1609",80.7483,47.318844
"1610",80.411385,47.332172
"1611",80.008545,47.34551
"1612",79.56664,47.358837
"1613",79.11009,47.372173
"1614",78.66819,47.3855
"1615",78.25071,47.398838
"1616",77.872284,47.412167
"1617",77.53048,47.425503
"1618",77.22774,47.43883
"1619",76.96651,47.452168
"1620",76.756546,47.465496
"1621",76.592964,47.478832
"1622",76.47578,47.49216
"1623",76.40742,47.505497
"1624",76.3708,47.518826
"1625",76.35859,47.53216
"1626",76.3708,47.54549
"1627",76.39277,47.558826
"1628",76.419624,47.572155
"1629",76.44404,47.58549
"1630",76.453804,47.59882
"1631",76.439156,47.612156
"1632",76.40986,47.625484
"1633",76.3708,47.63882
"1634",76.33906,47.65215
"1635",76.317085,47.665485
"1636",76.30732,47.678814
"1637",76.299995,47.69215
"1638",76.29023,47.70548
"1639",76.263374,47.718815
"1640",76.21942,47.732143
"1641",76.155945,47.74548
"1642",76.09979,47.75881
"1643",76.11444,47.772144
"1644",76.33662,47.785473
"1645",76.93965,47.79881
"1646",78.05539,47.812138
"1647",79.69604,47.825474
"1648",81.71999,47.838802
"1649",83.85138,47.85214
"1650",85.76059,47.865467
"1651",87.1693,47.878803
"1652",87.94324,47.89213
"1653",88.10193,47.905468
"1654",87.765015,47.918797
"1655",87.08629,47.932133
"1656",86.23422,47.94546
"1657",85.32601,47.958797
"1658",84.439766,47.972126
"1659",83.60723,47.985462
"1660",82.847946,47.99879
"1661",82.1741,48.012127
"1662",81.61501,48.025455
"1663",81.20241,48.03879
"1664",80.955826,48.05212
"1665",80.88014,48.065456
"1666",80.94118,48.078785
"1667",81.08278,48.09212
"1668",81.23903,48.10545
"1669",81.3489,48.118786
"1670",81.37087,48.132114
"1671",81.27566,48.14545
"1672",81.06569,48.15878
"1673",80.75319,48.172115
"1674",80.36988,48.185444
"1675",79.937744,48.19878
"1676",79.49584,48.21211
"1677",79.061264,48.225445
"1678",78.64866,48.238773
"1679",78.2678,48.25211
"1680",77.93332,48.265438
"1681",77.645226,48.278774
"1682",77.41573,48.292103
"1683",77.24727,48.30544
"1684",77.13252,48.318768
"1685",77.06172,48.332104
"1686",77.02022,48.345432
"1687",76.995804,48.35877
"1688",76.981155,48.372097
"1689",76.978714,48.385433
"1690",76.98848,48.39876
"1691",77.00313,48.412098
"1692",77.02754,48.425426
"1693",77.051956,48.438763
"1694",77.07637,48.45209
"1695",77.09834,48.465427
"1696",77.10811,48.478756
"1697",77.10567,48.492092
"1698",77.08858,48.50542
"1699",77.049515,48.518757
"1700",76.98604,48.532085
"1701",76.90059,48.54542
"1702",76.79317,48.55875
"1703",76.6833,48.572086
"1704",76.612495,48.585415
"1705",76.680855,48.59875
"1706",77.03975,48.61208
"1707",77.823456,48.625416
"1708",79.10033,48.638744
"1709",80.80446,48.65208
"1710",82.7454,48.66541
"1711",84.6424,48.678745
"1712",86.22446,48.692074
"1713",87.28649,48.70541
"1714",87.767456,48.71874
"1715",87.70397,48.732075
"1716",87.203476,48.745403
"1717",86.40269,48.75874
"1718",85.4432,48.772068
"1719",84.43488,48.785404
"1720",83.458305,48.798733
"1721",82.56718,48.81207
"1722",81.80057,48.825397
"1723",81.18776,48.838734
"1724",80.75807,48.852062
"1725",80.52613,48.8654
"1726",80.49439,48.878727
"1727",80.62379,48.892063
"1728",80.86305,48.90539
"1729",81.13649,48.918728
"1730",81.37087,48.932056
"1731",81.50271,48.945393
"1732",81.497826,48.95872
"1733",81.34646,48.972057
"1734",81.06325,48.985386
"1735",80.69215,48.998722
"1736",80.26246,49.01205
"1737",79.81323,49.025387
"1738",79.37133,49.038715
"1739",78.96117,49.05205
"1740",78.59251,49.06538
"1741",78.28001,49.078716
"1742",78.02365,49.092045
"1743",77.821014,49.10538
"1744",77.65499,49.11871
"1745",77.51339,49.132046
"1746",77.38644,49.145374
"1747",77.281456,49.15871
"1748",77.20088,49.17204
"1749",77.154495,49.185375
"1750",77.152054,49.198704
"1751",77.18379,49.21204
"1752",77.24483,49.22537
"1753",77.32296,49.238705
"1754",77.401085,49.252033
"1755",77.469444,49.26537
"1756",77.5256,49.278698
"1757",77.55489,49.292034
"1758",77.55001,49.305363
"1759",77.49874,49.3187
"1760",77.41085,49.332027
"1761",77.30831,49.345364
"1762",77.25704,49.358692
"1763",77.37667,49.37203
"1764",77.823456,49.385357
"1765",78.71458,49.398693
"1766",80.05493,49.41202
"1767",81.72976,49.425358
"1768",83.51446,49.438686
"1769",85.12581,49.452023
"1770",86.32456,49.46535
"1771",86.98619,49.478687
"1772",87.10338,49.492016
"1773",86.75426,49.505352
"1774",86.063324,49.51868
"1775",85.16487,49.532017
"1776",84.173645,49.545345
"1777",83.17021,49.55868
"1778",82.22049,49.57201
"1779",81.36599,49.585346
"1780",80.66041,49.598675
"1781",80.130615,49.61201
"1782",79.81079,49.62534
"1783",79.71557,49.638676
"1784",79.83276,49.652004
"1785",80.10376,49.66534
"1786",80.45777,49.67867
"1787",80.816666,49.692005
"1788",81.094986,49.705334
"1789",81.24147,49.71867
"1790",81.231705,49.732
"1791",81.075455,49.745335
"1792",80.8069,49.758663
"1793",80.45533,49.772
"1794",80.062256,49.785328
"1795",79.64965,49.798664
"1796",79.23216,49.811993
"1797",78.82933,49.82533
"1798",78.44846,49.838657
"1799",78.10666,49.851994
"1800",77.81369,49.865322
"1801",77.57931,49.87866
"1802",77.39864,49.891987
"1803",77.264366,49.905323
"1804",77.16914,49.91865
"1805",77.10811,49.931988
"1806",77.07393,49.945316
"1807",77.066605,49.958652
"1808",77.083694,49.97198
"1809",77.117874,49.985317
"1810",77.16426,49.998646
"1811",77.208206,50.011982
"1812",77.242386,50.02531
"1813",77.25948,50.038647
"1814",77.25216,50.051975
"1815",77.222855,50.06531
"1816",77.196,50.07864
"1817",77.242386,50.091976
"1818",77.488976,50.105305
"1819",78.082245,50.11864
"1820",79.10521,50.13197
"1821",80.53101,50.145306
"1822",82.21805,50.158634
"1823",83.929504,50.17197
"1824",85.39193,50.1853
"1825",86.397804,50.198635
"1826",86.85924,50.211964
"1827",86.79576,50.2253
"1828",86.29771,50.23863
"1829",85.49203,50.251965
"1830",84.51301,50.265293
"1831",83.47295,50.27863
"1832",82.44999,50.291958
"1833",81.50027,50.305294
"1834",80.66773,50.318623
"1835",80.0061,50.33196
"1836",79.54711,50.345287
"1837",79.32494,50.358624
"1838",79.33959,50.371952
"1839",79.5642,50.38529
"1840",79.92554,50.398617
"1841",80.34058,50.411953
"1842",80.71656,50.42528
"1843",80.97536,50.438618
"1844",81.07301,50.451946
"1845",80.99977,50.465282
"1846",80.7776,50.47861
"1847",80.44312,50.491947
"1848",80.042725,50.505276
"1849",79.61791,50.518612
"1850",79.19554,50.53194
"1851",78.79271,50.545277
"1852",78.41428,50.558605
"1853",78.07248,50.57194
"1854",77.77463,50.58527
"1855",77.53048,50.598606
"1856",77.33761,50.611935
"1857",77.196,50.62527
"1858",77.09834,50.6386
"1859",77.03487,50.651936
"1860",76.998245,50.665264
"1861",76.9836,50.6786
"1862",76.978714,50.69193
"1863",76.978714,50.705265
"1864",76.97139,50.718594
"1865",76.946976,50.73193
"1866",76.92256,50.74526
"1867",76.95674,50.758595
"1868",77.15938,50.771923
"1869",77.662315,50.78526
"1870",78.56809,50.798588
"1871",79.88403,50.811924
"1872",81.50027,50.825253
"1873",83.18974,50.83859
"1874",84.69123,50.851917
"1875",85.78256,50.865253
"1876",86.34409,50.878582
"1877",86.36851,50.89192
"1878",85.94125,50.905247
"1879",85.19417,50.918583
"1880",84.25666,50.93191
"1881",83.23857,50.945248
"1882",82.210724,50.958576
"1883",81.22438,50.971912
"1884",80.33082,50.98524
"1885",79.571526,50.998577
"1886",78.99779,51.011906
"1887",78.643776,51.02524
"1888",78.519264,51.03857
"1889",78.61204,51.051907
"1890",78.86839,51.065235
"1891",79.21507,51.07857
"1892",79.58129,51.0919
"1893",79.89868,51.105236
"1894",80.1062,51.118565
"1895",80.177,51.1319
"1896",80.09888,51.14523
"1897",79.8938,51.158566
"1898",79.5935,51.171894
"1899",79.23949,51.18523
"1900",78.86107,51.19856
"1901",78.49485,51.211895
"1902",78.15549,51.225224
"1903",77.85275,51.23856
"1904",77.57931,51.25189
"1905",77.33761,51.265224
"1906",77.13008,51.278553
"1907",76.95674,51.29189
"1908",76.81514,51.305218
"1909",76.70283,51.318554
"1910",76.61494,51.331882
"1911",76.54902,51.34522
"1912",76.507515,51.358547
"1913",76.490425,51.371883
"1914",76.52705,51.385212
"1915",76.69062,51.39855
"1916",77.10811,51.411877
"1917",77.89426,51.425213
"1918",79.11009,51.43854
"1919",80.70191,51.451878
"1920",82.496376,51.465206
"1921",84.23712,51.478542
"1922",85.660484,51.49187
"1923",86.588234,51.505207
"1924",86.956894,51.518536
"1925",86.820175,51.53187
"1926",86.28306,51.5452
"1927",85.4847,51.558537
"1928",84.55695,51.571865
"1929",83.597466,51.5852
"1930",82.667274,51.59853
"1931",81.80301,51.611866
"1932",81.03395,51.625195
"1933",80.38941,51.63853
"1934",79.90845,51.65186
"1935",79.61791,51.665195
"1936",79.5227,51.678524
"1937",79.60815,51.69186
"1938",79.818115,51.70519
"1939",80.08667,51.718525
"1940",80.34547,51.731853
"1941",80.5359,51.74519
"1942",80.62379,51.75852
"1943",80.584724,51.771854
"1944",80.41627,51.785183
"1945",80.147705,51.79852
"1946",79.80347,51.811848
"1947",79.41772,51.825184
"1948",79.01976,51.838512
"1949",78.62913,51.85185
"1950",78.26292,51.865177
"1951",77.92355,51.878513
"1952",77.61349,51.89184
"1953",77.33761,51.905178
"1954",77.10811,51.918507
"1955",76.927444,51.931843
"1956",76.79561,51.94517
"1957",76.700386,51.958508
"1958",76.63203,51.971836
"1959",76.5832,51.985172
"1960",76.56611,51.9985
"1961",76.63203,52.011837
"1962",76.893265,52.025166
"1963",77.48165,52.0385
"1964",78.48997,52.05183
"1965",79.920654,52.065166
"1966",81.65652,52.078495
"1967",83.47295,52.09183
"1968",85.103836,52.10516
"1969",86.31724,52.118496
"1970",86.993515,52.131824
"1971",87.12779,52.14516
"1972",86.803085,52.15849
"1973",86.14633,52.171825
"1974",85.29183,52.185154
"1975",84.351875,52.19849
"1976",83.407036,52.21182
"1977",82.50614,52.225155
"1978",81.67849,52.238483
"1979",80.95094,52.25182
"1980",80.36256,52.26515
"1981",79.940186,52.278484
"1982",79.7058,52.291813
"1983",79.65453,52.30515
"1984",79.75464,52.318478
"1985",79.954834,52.331814
"1986",80.18677,52.345142
"1987",80.38697,52.35848
"1988",80.50416,52.371807
"1989",80.51148,52.385143
"1990",80.39918,52.39847
"1991",80.17456,52.411808
"1992",79.85474,52.425137
"1993",79.47387,52.438473
"1994",79.063705,52.4518
"1995",78.65598,52.465137
"1996",78.27512,52.478466
"1997",77.943085,52.491802
"1998",77.67208,52.50513
"1999",77.44747,52.518467
"2000",77.264366,52.531796
"2001",77.11055,52.54513
"2002",76.97627,52.55846
"2003",76.8542,52.571796
"2004",76.74677,52.585125
"2005",76.663765,52.59846
"2006",76.612495,52.61179
"2007",76.63447,52.625126
"2008",76.805374,52.638454
"2009",77.24971,52.65179
"2010",78.07736,52.66512
"2011",79.32983,52.678455
"2012",80.93385,52.691784
"2013",82.70878,52.70512
"2014",84.39826,52.71845
"2015",85.750824,52.731785
"2016",86.59556,52.745113
"2017",86.8983,52.75845
"2018",86.70786,52.77178
"2019",86.136566,52.785114
"2020",85.32357,52.798443
"2021",84.39582,52.81178
"2022",83.44366,52.825108
"2023",82.52323,52.838444
"2024",81.67849,52.851772
"2025",80.94362,52.86511
"2026",80.35035,52.878437
"2027",79.92554,52.891773
"2028",79.68871,52.9051
"2029",79.639885,52.918438
"2030",79.744865,52.931767
"2031",79.94995,52.945103
"2032",80.19653,52.95843
"2033",80.41627,52.971767
"2034",80.56275,52.985096
"2035",80.59693,52.998432
"2036",80.50416,53.01176
"2037",80.291756,53.025097
"2038",79.97681,53.038425
"2039",79.5935,53.05176
"2040",79.17845,53.06509
"2041",78.75853,53.078426
"2042",78.363014,53.091755
"2043",78.00656,53.10509
"2044",77.69405,53.11842
"2045",77.43038,53.131756
"2046",77.21553,53.145084
"2047",77.04707,53.15842
"2048",76.91768,53.17175
"2049",76.81514,53.185085
"2050",76.72724,53.198414
"2051",76.65156,53.21175
"2052",76.58564,53.22508
"2053",76.5539,53.238415
"2054",76.61738,53.251743
"2055",76.88594,53.26508
"2056",77.48409,53.278408
"2057",78.49729,53.291744
"2058",79.91821,53.305073
"2059",81.619896,53.31841
"2060",83.38018,53.331738
"2061",84.9427,53.345074
"2062",86.07797,53.358402
"2063",86.68101,53.37174
"2064",86.744484,53.385067
"2065",86.363625,53.398403
"2066",85.660484,53.41173
"2067",84.77913,53.425068
"2068",83.82941,53.438396
"2069",82.88945,53.451733
"2070",82.00076,53.46506
"2071",81.19508,53.478397
"2072",80.51392,53.491726
"2073",79.991455,53.505062
"2074",79.66186,53.51839
"2075",79.54223,53.531727
"2076",79.605705,53.545055
"2077",79.80347,53.55839
"2078",80.059814,53.57172
"2079",80.2942,53.585056
"2080",80.448006,53.598385
"2081",80.48951,53.61172
"2082",80.39918,53.62505
"2083",80.18677,53.638386
"2084",79.87427,53.651714
"2085",79.49096,53.66505
"2086",79.06615,53.67838
"2087",78.63401,53.691715
"2088",78.22629,53.705044
"2089",77.8674,53.71838
"2090",77.55978,53.73171
"2091",77.30831,53.745045
"2092",77.103226,53.758373
"2093",76.93477,53.77171
"2094",76.80049,53.785038
"2095",76.70283,53.798374
"2096",76.63935,53.811703
"2097",76.59785,53.82504
"2098",76.57343,53.838367
"2099",76.5539,53.851704
"2100",76.53437,53.865032
"2101",76.544136,53.87837
"2102",76.66132,53.891697
"2103",76.99336,53.905033
"2104",77.67208,53.91836
"2105",78.75853,53.931698
"2106",80.216064,53.945026
"2107",81.88846,53.958363
"2108",83.54131,53.97169
"2109",84.91829,53.985027
"2110",85.841156,53.998356
"2111",86.23422,54.011692
"2112",86.12436,54.02502
"2113",85.61898,54.038357
"2114",84.85237,54.051685
"2115",83.949036,54.06502
"2116",83.00664,54.07835
"2117",82.091095,54.091686
"2118",81.253685,54.105015
"2119",80.52857,54.11835
"2120",79.94751,54.13168
"2121",79.53979,54.145016
"2122",79.3225,54.158344
"2123",79.290764,54.17168
"2124",79.41039,54.18501
"2125",79.62524,54.198345
"2126",79.85718,54.211674
"2127",80.05005,54.22501
"2128",80.15015,54.23834
"2129",80.12329,54.251675
"2130",79.9646,54.265003
"2131",79.70092,54.27834
"2132",79.35668,54.291668
"2133",78.97093,54.305004
"2134",78.57053,54.318333
"2135",78.187225,54.33167
"2136",77.83566,54.344997
"2137",77.5256,54.358334
"2138",77.25704,54.371662
"2139",77.0251,54.385
"2140",76.82979,54.398327
"2141",76.67353,54.411663
"2142",76.5539,54.42499
"2143",76.46845,54.438328
"2144",76.419624,54.451656
"2145",76.404976,54.464993
"2146",76.404976,54.47832
"2147",76.40742,54.491657
"2148",76.40009,54.504986
"2149",76.38056,54.518322
"2150",76.36591,54.53165
"2151",76.4123,54.544987
"2152",76.63447,54.558315
"2153",77.16182,54.57165
"2154",78.082245,54.58498
"2155",79.395744,54.598316
"2156",80.98268,54.611645
"2157",82.62333,54.62498
"2158",84.068665,54.63831
"2159",85.10872,54.651646
"2160",85.63363,54.664974
"2161",85.645836,54.67831
"2162",85.240555,54.69164
"2163",84.542305,54.704975
"2164",83.682915,54.718304
"2165",82.777145,54.73164
"2166",81.89578,54.74497
"2167",81.08278,54.758305
"2168",80.37965,54.771633
"2169",79.81079,54.78497
"2170",79.40307,54.798298
"2171",79.17601,54.811634
"2172",79.12474,54.824963
"2173",79.23216,54.8383
"2174",79.43725,54.851627
"2175",79.67895,54.864964
"2176",79.886475,54.878292
"2177",80.00366,54.89163
"2178",79.99878,54.904957
"2179",79.86206,54.918293
"2180",79.61791,54.93162
"2181",79.29809,54.944958
"2182",78.941635,54.958286
"2183",78.57786,54.971622
"2184",78.23117,54.98495
"2185",77.91379,54.998287
"2186",77.63302,55.011616
"2187",77.39376,55.024952
"2188",77.196,55.03828
"2189",77.04463,55.051617
"2190",76.93721,55.064945
"2191",76.86641,55.07828
"2192",76.824905,55.09161
"2193",76.81514,55.104946
"2194",76.82735,55.118275
"2195",76.85176,55.13161
"2196",76.893265,55.14494
"2197",76.94209,55.158276
"2198",76.98604,55.171604
"2199",77.015335,55.18494
"2200",77.02998,55.19827
"2201",77.02998,55.211605
"2202",77.03975,55.224934
"2203",77.1252,55.23827
"2204",77.40597,55.2516
"2205",78.009,55.264935
"2206",79.00267,55.278263
"2207",80.35279,55.2916
"2208",81.90799,55.304928
"2209",83.438774,55.318264
"2210",84.69123,55.331593
"2211",85.49203,55.34493
"2212",85.77768,55.358257
"2213",85.60189,55.371593
"2214",85.07698,55.384922
"2215",84.3299,55.39826
"2216",83.48272,55.411587
"2217",82.62333,55.424923
"2218",81.80301,55.43825
"2219",81.06325,55.451588
"2220",80.44068,55.464916
"2221",79.96948,55.478252
"2222",79.674065,55.49158
"2223",79.56664,55.504917
"2224",79.63744,55.518246
"2225",79.83276,55.53158
"2226",80.096436,55.54491
"2227",80.35523,55.558247
"2228",80.55543,55.571575
"2229",80.638435,55.58491
"2230",80.59205,55.59824
"2231",80.41871,55.611576
"2232",80.14526,55.624905
"2233",79.801025,55.63824
"2234",79.42748,55.65157
"2235",79.05638,55.664906
"2236",78.709694,55.678234
"2237",78.399635,55.69157
"2238",78.1384,55.7049
"2239",77.925995,55.718235
"2240",77.76242,55.731564
"2241",77.642784,55.7449
"2242",77.557335,55.75823
"2243",77.503624,55.771564
"2244",77.48165,55.784893
"2245",77.48165,55.79823
"2246",77.503624,55.811558
"2247",77.54269,55.824894
"2248",77.591515,55.838223
"2249",77.642784,55.85156
"2250",77.68429,55.864887
"2251",77.70382,55.878223
"2252",77.68429,55.891552
"2253",77.63546,55.90489
"2254",77.56954,55.918217
"2255",77.540245,55.931553
"2256",77.65743,55.94488
"2257",78.048065,55.958218
"2258",78.80736,55.971546
"2259",79.94507,55.984882
"2260",81.36843,55.99821
"2261",82.87236,56.011547
"2262",84.21759,56.024876
"2263",85.19661,56.03821
"2264",85.69955,56.05154
"2265",85.72152,56.064877
"2266",85.347984,56.078205
"2267",84.69123,56.09154
"2268",83.88068,56.10487
"2269",83.018845,56.118206
"2270",82.18387,56.131535
"2271",81.41482,56.14487
"2272",80.75319,56.1582
"2273",80.22583,56.171535
"2274",79.86206,56.184864
"2275",79.67895,56.1982
"2276",79.676506,56.21153
"2277",79.83032,56.224865
"2278",80.093994,56.238194
"2279",80.39918,56.25153
"2280",80.672615,56.26486
"2281",80.85817,56.278194
"2282",80.919205,56.291523
"2283",80.84352,56.30486
"2284",80.64088,56.318188
"2285",80.34791,56.331524
"2286",79.99878,56.344852
"2287",79.635,56.35819
"2288",79.281,56.371517
"2289",78.9514,56.384853
"2290",78.6511,56.398182
"2291",78.38743,56.41152
"2292",78.15549,56.424847
"2293",77.96506,56.438183
"2294",77.81857,56.45151
"2295",77.71847,56.464848
"2296",77.66476,56.478176
"2297",77.65255,56.491512
"2298",77.67208,56.50484
"2299",77.7087,56.518177
"2300",77.752655,56.531506
"2301",77.7966,56.54484
"2302",77.83078,56.55817
"2303",77.84543,56.571507
"2304",77.83566,56.584835
"2305",77.806366,56.59817
"2306",77.769745,56.6115
"2307",77.77951,56.624836
"2308",77.943085,56.638165
"2309",78.397194,56.6515
"2310",79.23949,56.66483
"2311",80.482185,56.678165
"2312",82.01541,56.691494
"2313",83.61944,56.70483
"2314",85.0428,56.71816
"2315",86.06821,56.731495
"2316",86.59556,56.744823
"2317",86.63462,56.75816
"2318",86.27329,56.77149
"2319",85.63851,56.784824
"2320",84.84505,56.798153
"2321",83.99298,56.81149
"2322",83.1458,56.824818
"2323",82.34989,56.838154
"2324",81.63943,56.851482
"2325",81.04616,56.86482
"2326",80.601814,56.878147
"2327",80.33326,56.891483
"2328",80.25269,56.90481
"2329",80.3357,56.918148
"2330",80.54566,56.931477
"2331",80.814224,56.944813
"2332",81.07301,56.95814
"2333",81.25124,56.971478
"2334",81.304955,56.984806
"2335",81.21217,56.998142
"2336",80.98268,57.01147
"2337",80.638435,57.024807
"2338",80.22339,57.038136
"2339",79.781494,57.05147
"2340",79.3518,57.0648
"2341",78.96117,57.078136
"2342",78.61936,57.091465
"2343",78.331276,57.1048
"2344",78.08957,57.11813
"2345",77.88937,57.131466
"2346",77.72091,57.144794
"2347",77.591515,57.15813
"2348",77.50851,57.17146
"2349",77.46456,57.184795
"2350",77.454796,57.198124
"2351",77.471886,57.21146
"2352",77.4963,57.22479
"2353",77.51339,57.238125
"2354",77.51339,57.251453
"2355",77.49142,57.26479
"2356",77.44747,57.27812
"2357",77.39864,57.291454
"2358",77.38888,57.304783
"2359",77.52071,57.31812
"2360",77.9382,57.331448
"2361",78.75365,57.344784
"2362",79.991455,57.358112
"2363",81.58083,57.37145
"2364",83.3167,57.384777
"2365",84.93538,57.398113
"2366",86.19272,57.41144
"2367",86.94713,57.424778
"2368",87.17906,57.438107
"2369",86.94713,57.451443
"2370",86.37827,57.46477
"2371",85.60677,57.478107
"2372",84.74738,57.491436
"2373",83.88556,57.504772
"2374",83.06523,57.5181
"2375",82.31571,57.531437
"2376",81.654076,57.544765
"2377",81.10719,57.5581
"2378",80.69703,57.57143
"2379",80.44312,57.584766
"2380",80.34791,57.598095
"2381",80.394295,57.61143
"2382",80.5359,57.62476
"2383",80.71168,57.638096
"2384",80.86305,57.651424
"2385",80.938736,57.66476
"2386",80.90456,57.67809
"2387",80.7483,57.691425
"2388",80.4773,57.704754
"2389",80.12085,57.71809
"2390",79.71313,57.73142
"2391",79.28344,57.744755
"2392",78.86351,57.758083
"2393",78.46555,57.77142
"2394",78.10422,57.784748
"2395",77.77951,57.798084
"2396",77.49874,57.811413
"2397",77.261925,57.82475
"2398",77.07149,57.838078
"2399",76.927444,57.851414
"2400",76.82979,57.864742
"2401",76.773636,57.87808
"2402",76.75166,57.891407
"2403",76.75899,57.904743
"2404",76.77852,57.91807
"2405",76.79805,57.931408
"2406",76.80293,57.944736
"2407",76.790726,57.958073
"2408",76.773636,57.9714
"2409",76.81758,57.984737
"2410",77.03975,57.998066
"2411",77.59884,58.011402
"2412",78.60471,58.02473
"2413",80.076904,58.038067
"2414",81.900665,58.051395
"2415",83.83429,58.06473
"2416",85.58968,58.07806
"2417",86.9276,58.091396
"2418",87.708855,58.104725
"2419",87.92615,58.11806
"2420",87.66003,58.13139
"2421",87.044785,58.144726
"2422",86.219574,58.158054
"2423",85.30892,58.17139
"2424",84.4007,58.18472
"2425",83.546196,58.198055
"2426",82.76494,58.211384
"2427",82.06668,58.22472
"2428",81.461205,58.23805
"2429",80.96315,58.251385
"2430",80.59449,58.264713
"2431",80.37232,58.27805
"2432",80.2942,58.291378
"2433",80.325935,58.304714
"2434",80.40894,58.318043
"2435",80.49439,58.33138
"2436",80.52369,58.344707
"2437",80.45533,58.358044
"2438",80.27711,58.371372
"2439",79.9939,58.38471
"2440",79.62524,58.398037
"2441",79.20531,58.411373
"2442",78.76097,58.4247
"2443",78.31907,58.438038
"2444",77.891815,58.451366
"2445",77.4963,58.464703
"2446",77.137405,58.47803
"2447",76.822464,58.491367
"2448",76.5539,58.504696
"2449",76.3415,58.518032
"2450",76.18036,58.53136
"2451",76.07294,58.544697
"2452",76.0119,58.558025
"2453",75.98993,58.57136
"2454",75.99237,58.58469
"2455",76.00946,58.598026
"2456",76.03143,58.611355
"2457",76.04364,58.62469
"2458",76.033875,58.63802
"2459",76.01434,58.651356
"2460",76.02655,58.664684
"2461",76.16815,58.67802
"2462",76.59785,58.69135
"2463",77.46456,58.704685
"2464",78.81712,58.718014
"2465",80.59205,58.73135
"2466",82.579384,58.74468
"2467",84.50324,58.758015
"2468",86.07309,58.771343
"2469",87.1107,58.78468
"2470",87.55016,58.798008
"2471",87.44518,58.811344
"2472",86.91539,58.824673
"2473",86.11215,58.83801
"2474",85.17952,58.851337
"2475",84.227356,58.864674
"2476",83.3167,58.878002
"2477",82.46952,58.89134
"2478",81.69558,58.904667
"2479",81.01198,58.918003
"2480",80.4358,58.93133
"2481",80.00122,58.944668
"2482",79.73754,58.957996
"2483",79.64721,58.971333
"2484",79.68627,58.98466
"2485",79.80835,58.997997
"2486",79.94751,59.011326
"2487",80.042725,59.024662
"2488",80.05249,59.03799
"2489",79.957275,59.051327
"2490",79.75464,59.064655
"2491",79.45678,59.07799
"2492",79.08324,59.09132
"2493",78.66575,59.104656
"2494",78.23117,59.117985
"2495",77.803925,59.13132
"2496",77.401085,59.14465
"2497",77.03975,59.157986
"2498",76.7248,59.171314
"2499",76.456245,59.18465
"2500",76.23163,59.19798
"2501",76.04364,59.211315
"2502",75.897156,59.224644
"2503",75.7995,59.23798
"2504",75.74822,59.25131
"2505",75.73846,59.264645
"2506",75.76044,59.277973
"2507",75.79462,59.29131
"2508",75.8288,59.304638
"2509",75.84833,59.317974
"2510",75.860535,59.331303
"2511",75.897156,59.34464
"2512",76.04364,59.357967
"2513",76.439156,59.371304
"2514",77.23506,59.384632
"2515",78.49485,59.39797
"2516",80.17944,59.411297
"2517",82.1033,59.424633
"2518",83.99542,59.43796
"2519",85.57259,59.451298
"2520",86.63462,59.464626
"2521",87.10338,59.477962
"2522",87.02037,59.49129
"2523",86.50034,59.504627
"2524",85.69222,59.517956
"2525",84.735176,59.531292
"2526",83.73907,59.54462
"2527",82.76738,59.557957
"2528",81.85916,59.571285
"2529",81.03883,59.58462
"2530",80.3357,59.59795
"2531",79.79126,59.611286
"2532",79.43481,59.624615
"2533",79.27856,59.63795
"2534",79.310295,59.65128
"2535",79.483635,59.664616
"2536",79.72289,59.677944
"2537",79.96216,59.69128
"2538",80.1355,59.70461
"2539",80.20386,59.717945
"2540",80.14038,59.731274
"2541",79.95239,59.74461
"2542",79.66186,59.75794
"2543",79.29565,59.771275
"2544",78.887924,59.784603
"2545",78.46311,59.79794
"2546",78.04562,59.811268
"2547",77.65011,59.824604
"2548",77.28878,59.837933
"2549",76.96895,59.85127
"2550",76.697945,59.864597
"2551",76.47578,59.877934
"2552",76.30488,59.891262
"2553",76.18036,59.9046
"2554",76.09979,59.917927
"2555",76.05585,59.931263
"2556",76.04364,59.94459
"2557",76.050964,59.957928
"2558",76.070496,59.971256
"2559",76.087585,59.984592
"2560",76.10956,59.99792
"2561",76.16327,60.011257
"2562",76.32929,60.024586
"2563",76.74433,60.03792
"2564",77.54269,60.05125
"2565",78.785385,60.064587
"2566",80.430916,60.077915
"2567",82.29374,60.09125
"2568",84.11261,60.10458
"2569",85.60677,60.117916
"2570",86.58579,60.131245
"2571",86.98131,60.14458
"2572",86.83971,60.15791
"2573",86.26841,60.171246
"2574",85.41634,60.184574
"2575",84.41047,60.19791
"2576",83.34844,60.21124
"2577",82.303505,60.224575
"2578",81.33425,60.237904
"2579",80.48707,60.25124
"2580",79.80347,60.26457
"2581",79.31762,60.277905
"2582",79.05638,60.291233
"2583",79.012436,60.30457
"2584",79.151596,60.317898
"2585",79.415276,60.331234
"2586",79.7351,60.344563
"2587",80.028076,60.3579
"2588",80.24048,60.371227
"2589",80.33082,60.384563
"2590",80.27955,60.397892
"2591",80.08667,60.41123
"2592",79.783936,60.424557
"2593",79.40307,60.437893
"2594",78.9807,60.45122
"2595",78.555885,60.464558
"2596",78.15549,60.477886
"2597",77.789276,60.491222
"2598",77.46456,60.50455
"2599",77.171585,60.517887
"2600",76.91524,60.531216
"2601",76.697945,60.54455
"2602",76.52216,60.55788
"2603",76.39521,60.571217
"2604",76.314644,60.584545
"2605",76.27314,60.59788
"2606",76.263374,60.61121
"2607",76.26826,60.624546
"2608",76.28535,60.637875
"2609",76.30976,60.65121
"2610",76.35371,60.66454
"2611",76.4831,60.677876
"2612",76.81026,60.691204
"2613",77.47433,60.70454
"2614",78.56565,60.71787
"2615",80.08423,60.731205
"2616",81.88846,60.744534
"2617",83.73907,60.75787
"2618",85.35531,60.7712
"2619",86.51499,60.784534
"2620",87.096054,60.797863
"2621",87.12047,60.8112
"2622",86.67368,60.824528
"2623",85.88754,60.837864
"2624",84.89143,60.851192
"2625",83.80255,60.86453
"2626",82.69901,60.877857
"2627",81.651634,60.891193
"2628",80.709236,60.904522
"2629",79.92798,60.91786
"2630",79.35424,60.931187
"2631",79.0222,60.944523
"2632",78.93675,60.95785
"2633",79.07347,60.971188
"2634",79.37133,60.984516
"2635",79.74975,60.997852
"2636",80.11597,61.01118
"2637",80.394295,61.024517
"2638",80.54322,61.037846
"2639",80.54078,61.05118
"2640",80.39185,61.06451
"2641",80.12573,61.077847
"2642",79.77905,61.091175
"2643",79.378654,61.10451
"2644",78.95384,61.11784
"2645",78.53147,61.131176
"2646",78.135956,61.144505
"2647",77.77951,61.15784
"2648",77.469444,61.17117
"2649",77.21065,61.184505
"2650",77.00313,61.197834
"2651",76.841995,61.21117
"2652",76.72724,61.2245
"2653",76.64912,61.237835
"2654",76.60029,61.251163
"2655",76.56855,61.2645
"2656",76.54658,61.27783
"2657",76.52949,61.291164
"2658",76.53437,61.304493
"2659",76.60517,61.31783
"2660",76.84688,61.331158
"2661",77.3962,61.344494
"2662",78.363014,61.357822
"2663",79.766846,61.37116
"2664",81.50515,61.384487
"2665",83.36065,61.397823
"2666",85.06233,61.41115
"2667",86.35874,61.424488
"2668",87.10094,61.437817
"2669",87.26208,61.451153
"2670",86.91295,61.46448
"2671",86.168304,61.477818
"2672",85.16731,61.491146
"2673",84.04181,61.504482
"2674",82.88701,61.51781
"2675",81.778595,61.531147
"2676",80.77516,61.544476
"2677",79.93042,61.55781
"2678",79.29809,61.57114
"2679",78.91966,61.584476
"2680",78.81468,61.597805
"2681",78.96849,61.61114
"2682",79.310295,61.62447
"2683",79.7522,61.637806
"2684",80.19165,61.651134
"2685",80.54322,61.66447
"2686",80.75075,61.6778
"2687",80.78493,61.691135
"2688",80.655525,61.704464
"2689",80.39185,61.7178
"2690",80.03296,61.73113
"2691",79.61791,61.744465
"2692",79.17601,61.757793
"2693",78.73167,61.77113
"2694",78.3093,61.78446
"2695",77.92111,61.797794
"2696",77.58175,61.811123
"2697",77.296104,61.82446
"2698",77.066605,61.837788
"2699",76.89082,61.851124
"2700",76.754105,61.864452
"2701",76.646675,61.87779
"2702",76.56855,61.891117
"2703",76.507515,61.904453
"2704",76.46357,61.91778
"2705",76.44892,61.931118
"2706",76.5124,61.944447
"2707",76.73945,61.957783
"2708",77.26925,61.97111
"2709",78.21652,61.984447
"2710",79.61303,61.997776
"2711",81.36599,62.011112
"2712",83.26055,62.02444
"2713",85.02083,62.037777
"2714",86.37583,62.051105
"2715",87.15221,62.06444
"2716",87.31335,62.07777
"2717",86.93492,62.091106
"2718",86.14877,62.104435
"2719",85.09895,62.11777
"2720",83.92706,62.1311
"2721",82.718544,62.144436
"2722",81.549095,62.157764
"2723",80.4773,62.1711
"2724",79.569084,62.18443
"2725",78.88304,62.197765
"2726",78.47288,62.211094
"2727",78.35813,62.22443
"2728",78.51194,62.23776
"2729",78.86595,62.251095
"2730",79.32006,62.264423
"2731",79.77417,62.27776
"2732",80.15015,62.29109
"2733",80.39185,62.304424
"2734",80.47486,62.317753
"2735",80.39918,62.33109
"2736",80.18677,62.344418
"2737",79.871826,62.357754
"2738",79.48852,62.371082
"2739",79.07591,62.38442
"2740",78.66575,62.397747
"2741",78.28245,62.411083
"2742",77.93332,62.42441
"2743",77.61837,62.437748
"2744",77.34249,62.451077
"2745",77.103226,62.464413
"2746",76.90059,62.47774
"2747",76.72724,62.491077
"2748",76.59052,62.504406
"2749",76.49287,62.517742
"2750",76.42939,62.53107
"2751",76.40009,62.544407
"2752",76.44648,62.557735
"2753",76.66132,62.57107
"2754",77.18379,62.5844
"2755",78.133514,62.597736
"2756",79.551994,62.611065
"2757",81.34646,62.6244
"2758",83.29717,62.63773
"2759",85.11604,62.651066
"2760",86.5272,62.664394
"2761",87.35729,62.67773
"2762",87.57458,62.69106
"2763",87.24254,62.704395
"2764",86.48325,62.717724
"2765",85.43832,62.73106
"2766",84.244446,62.74439
"2767",82.99931,62.757725
"2768",81.78836,62.771053
"2769",80.6775,62.78439
"2770",79.73754,62.797718
"2771",79.029526,62.811054
"2772",78.59983,62.824383
"2773",78.47288,62.83772
"2774",78.63401,62.851048
"2775",79.009995,62.864384
"2776",79.50561,62.877712
"2777",80.0061,62.89105
"2778",80.42115,62.904377
"2779",80.68482,62.917713
"2780",80.77028,62.93104
"2781",80.68726,62.944378
"2782",80.465096,62.957706
"2783",80.14526,62.971043
"2784",79.75952,62.98437
"2785",79.344475,62.997707
"2786",78.924545,63.011036
"2787",78.519264,63.024372
"2788",78.1384,63.0377
"2789",77.79172,63.051037
"2790",77.49142,63.064365
"2791",77.23262,63.0777
"2792",77.01045,63.09103
"2793",76.82735,63.104366
"2794",76.67841,63.117695
"2795",76.561226,63.13103
"2796",76.48066,63.14436
"2797",76.46601,63.157696
"2798",76.58808,63.171024
"2799",76.98604,63.18436
"2800",77.79904,63.19769
"2801",79.10765,63.211025
"2802",80.87526,63.224354
"2803",82.92119,63.23769
"2804",84.95979,63.25102
"2805",86.68345,63.264355
"2806",87.85779,63.277683
"2807",88.39246,63.29102
"2808",88.3119,63.304348
"2809",87.725945,63.317684
"2810",86.77623,63.331013
"2811",85.61166,63.34435
"2812",84.34455,63.357677
"2813",83.06523,63.371014
"2814",81.84451,63.384342
"2815",80.75319,63.39768
"2816",79.84497,63.411007
"2817",79.185776,63.424343
"2818",78.81712,63.43767
"2819",78.74143,63.451008
"2820",78.922104,63.464336
"2821",79.28588,63.477673
"2822",79.7351,63.491
"2823",80.17456,63.504337
"2824",80.52369,63.517666
"2825",80.726326,63.531002
"2826",80.75807,63.54433
"2827",80.61646,63.557667
"2828",80.33082,63.570995
"2829",79.940186,63.58433
"2830",79.49096,63.59766
"2831",79.0222,63.610996
"2832",78.56321,63.624325
"2833",78.12619,63.63766
"2834",77.72823,63.65099
"2835",77.37423,63.664326
"2836",77.066605,63.677654
"2837",76.805374,63.69099
"2838",76.595406,63.70432
"2839",76.42451,63.717655
"2840",76.282906,63.730984
"2841",76.17059,63.74432
"2842",76.11932,63.75765
"2843",76.207214,63.770985
"2844",76.5832,63.784313
"2845",77.420616,63.79765
"2846",78.80736,63.810978
"2847",80.70191,63.824314
"2848",82.91875,63.837643
"2849",85.152664,63.85098
"2850",87.06676,63.864307
"2851",88.40955,63.877644
"2852",89.06874,63.890972
"2853",89.076065,63.90431
"2854",88.54139,63.917637
"2855",87.61364,63.930973
"2856",86.45396,63.9443
"2857",85.19417,63.957638
"2858",83.929504,63.970966
"2859",82.72587,63.984303
"2860",81.634544,63.99763
"2861",80.71168,64.01097
"2862",80.00366,64.0243
"2863",79.54467,64.037636
"2864",79.34203,64.050964
"2865",79.381096,64.0643
"2866",79.59838,64.07763
"2867",79.91333,64.090965
"2868",80.24292,64.104294
"2869",80.51148,64.11763
"2870",80.65797,64.13096
"2871",80.65308,64.144295
"2872",80.48951,64.15762
"2873",80.181885,64.17096
"2874",79.77417,64.18429
"2875",79.30297,64.197624
"2876",78.80736,64.21095
"2877",78.314186,64.22429
"2878",77.84543,64.23762
"2879",77.40597,64.25095
"2880",77.00801,64.26428
"2881",76.65888,64.27762
"2882",76.35615,64.29095
"2883",76.104675,64.30428
"2884",75.897156,64.31761
"2885",75.72381,64.33095
"2886",75.58465,64.34428
"2887",75.494316,64.35761
"2888",75.51629,64.37094
"2889",75.789734,64.38428
"2890",76.48554,64.397606
"2891",77.738,64.41094
"2892",79.55688,64.42427
"2893",81.79813,64.43761
"2894",84.18829,64.450935
"2895",86.38804,64.46427
"2896",88.08728,64.4776
"2897",89.11757,64.49094
"2898",89.45449,64.504265
"2899",89.178604,64.5176
"2900",88.431526,64.53093
"2901",87.38903,64.544266
"2902",86.20004,64.557594
"2903",84.972,64.57093
"2904",83.78302,64.58426
"2905",82.67704,64.597595
"2906",81.69314,64.61092
"2907",80.86549,64.62426
"2908",80.23804,64.63759
"2909",79.84497,64.650925
"2910",79.691154,64.66425
"2911",79.73998,64.67759
"2912",79.92798,64.69092
"2913",80.177,64.704254
"2914",80.40162,64.71758
"2915",80.533455,64.73092
"2916",80.53101,64.74425
"2917",80.37965,64.75758
"2918",80.08423,64.77091
"2919",79.66674,64.78425
"2920",79.1638,64.79758
"2921",78.61204,64.81091
"2922",78.05295,64.82424
"2923",77.51095,64.83758
"2924",77.00801,64.85091
"2925",76.55634,64.86424
"2926",76.16327,64.87757
"2927",75.8288,64.89091
"2928",75.55535,64.904236
"2929",75.34051,64.91757
"2930",75.17937,64.9309
"2931",75.06706,64.94424
"2932",74.98894,64.957565
"2933",74.94499,64.9709
"2934",74.95964,64.98423
"2935",75.10857,64.99757
"2936",75.55047,65.010895
"2937",76.45869,65.02423
"2938",77.9382,65.03756
"2939",79.9646,65.050896
"2940",82.34257,65.064224
"2941",84.75716,65.07756
"2942",86.84947,65.09089
"2943",88.34608,65.104225
"2944",89.11513,65.11755
"2945",89.181046,65.13089
"2946",88.673225,65.14422
"2947",87.76013,65.157555
"2948",86.61265,65.17088
"2949",85.3724,65.18422
"2950",84.12482,65.19755
"2951",82.930954,65.210884
"2952",81.832306,65.22421
"2953",80.8777,65.23755
"2954",80.113525,65.25088
"2955",79.586174,65.26421
"2956",79.31762,65.27754
"2957",79.28344,65.29088
"2958",79.432365,65.30421
"2959",79.67895,65.31754
"2960",79.937744,65.33087
"2961",80.1355,65.34421
"2962",80.21362,65.35754
"2963",80.14038,65.37087
"2964",79.91089,65.3842
"2965",79.54467,65.39754
"2966",79.06615,65.410866
"2967",78.52659,65.4242
"2968",77.96506,65.43753
"2969",77.41085,65.45087
"2970",76.88838,65.464195
"2971",76.41474,65.47753
"2972",75.99481,65.49086
"2973",75.63592,65.504196
"2974",75.34539,65.517525
"2975",75.12077,65.53086
"2976",74.95232,65.54419
"2977",74.83513,65.557526
"2978",74.75212,65.570854
"2979",74.69352,65.58419
"2980",74.652016,65.59752
"2981",74.634926,65.610855
"2982",74.69596,65.62418
"2983",74.94499,65.63752
"2984",75.54803,65.65085
"2985",76.65644,65.664185
"2986",78.328835,65.67751
"2987",80.47242,65.69085
"2988",82.85771,65.70418
"2989",85.14046,65.717514
"2990",86.99107,65.73084
"2991",88.182495,65.74418
"2992",88.64393,65.75751
"2993",88.43885,65.77084
"2994",87.711296,65.78417
"2995",86.6395,65.79751
"2996",85.39193,65.81084
"2997",84.08331,65.82417
"2998",82.794235,65.8375
"2999",81.57595,65.85084
"3000",80.48707,65.86417
"3001",79.58129,65.8775
"3002",78.92943,65.89083
"3003",78.56565,65.90417
"3004",78.49485,65.917496
"3005",78.66819,65.93083
"3006",79.00267,65.94416
"3007",79.39086,65.9575
"3008",79.727776,65.970825
"3009",79.937744,65.98416
"3010",79.98169,65.99749
"3011",79.84741,66.010826
"3012",79.55688,66.024155
"3013",79.14427,66.03749
"3014",78.63889,66.05082
"3015",78.07736,66.064156
"3016",77.4963,66.077484
"3017",76.925,66.09082
"3018",76.39765,66.10415
"3019",75.9411,66.117485
"3020",75.56512,66.13081
"3021",75.267265,66.14415
"3022",75.037766,66.15748
"3023",74.86687,66.170815
"3024",74.757,66.18414
"3025",74.70084,66.19748
"3026",74.68864,66.21081
"3027",74.70573,66.224144
"3028",74.73258,66.23747
"3029",74.74967,66.25081
"3030",74.757,66.26414
"3031",74.79851,66.27747
"3032",74.98161,66.2908
"3033",75.47234,66.30414
"3034",76.4416,66.31747
"3035",77.97238,66.3308
"3036",80.0061,66.34413
"3037",82.3328,66.35747
"3038",84.63752,66.3708
"3039",86.573586,66.38413
"3040",87.90173,66.39746
"3041",88.516975,66.4108
"3042",88.448616,66.424126
"3043",87.81384,66.43746
"3044",86.77379,66.45079
"3045",85.49935,66.46413
"3046",84.12726,66.477455
"3047",82.75273,66.49079
"3048",81.461205,66.50412
"3049",80.32105,66.517456
"3050",79.398186,66.530785
"3051",78.74876,66.54412
"3052",78.4094,66.55745
"3053",78.37766,66.570786
"3054",78.607155,66.584114
"3055",79.00267,66.59745
"3056",79.4519,66.61078
"3057",79.85474,66.624115
"3058",80.12573,66.63744
"3059",80.22095,66.65078
"3060",80.128174,66.66411
"3061",79.86694,66.677444
"3062",79.47875,66.69077
"3063",79.00511,66.70411
"3064",78.48997,66.71744
"3065",77.960175,66.730774
"3066",77.437706,66.7441
"3067",76.94209,66.75744
"3068",76.49287,66.77077
"3069",76.085144,66.7841
"3070",75.74334,66.79743
"3071",75.4699,66.81077
"3072",75.267265,66.8241
"3073",75.13054,66.83743
"3074",75.0573,66.85076
"3075",75.03288,66.8641
"3076",75.04021,66.877426
"3077",75.06462,66.89076
"3078",75.0988,66.90409
"3079",75.13298,66.91743
"3080",75.176926,66.930756
"3081",75.29168,66.94409
"3082",75.5993,66.95742
"3083",76.2707,66.97076
"3084",77.44747,66.984085
"3085",79.17357,66.99742
"3086",81.32693,67.01075
"3087",83.64385,67.024086
"3088",85.785,67.037415
"3089",87.4403,67.05075
"3090",88.42176,67.06408
"3091",88.690315,67.077415
"3092",88.324104,67.090744
"3093",87.46227,67.10408
"3094",86.27329,67.11741
"3095",84.89876,67.130745
"3096",83.46563,67.14407
"3097",82.05936,67.15741
"3098",80.77028,67.17074
"3099",79.67162,67.184074
"3100",78.836655,67.1974
"3101",78.32639,67.21074
"3102",78.16525,67.22407
"3103",78.32151,67.237404
"3104",78.7219,67.25073
"3105",79.24925,67.26407
"3106",79.781494,67.2774
"3107",80.20874,67.29073
"3108",80.46998,67.30406
"3109",80.52857,67.3174
"3110",80.39185,67.33073
"3111",80.093994,67.34406
"3112",79.68383,67.35739
"3113",79.19798,67.37073
"3114",78.67307,67.384056
"3115",78.14084,67.39739
"3116",77.62325,67.41072
"3117",77.134964,67.42406
"3118",76.697945,67.437386
"3119",76.317085,67.45072
"3120",76.00214,67.46405
"3121",75.76044,67.47739
"3122",75.58709,67.490715
"3123",75.46746,67.50405
"3124",75.403984,67.51738
"3125",75.386894,67.530716
"3126",75.39666,67.544044
"3127",75.42596,67.55738
"3128",75.47234,67.57071
"3129",75.545586,67.584045
"3130",75.7116,67.597374
"3131",76.10712,67.61071
"3132",76.89815,67.62404
"3133",78.19943,67.637375
"3134",80.008545,67.6507
"3135",82.18143,67.66404
"3136",84.437325,67.67737
"3137",86.44175,67.690704
"3138",87.9115,67.70403
"3139",88.690315,67.71737
"3140",88.77577,67.7307
"3141",88.2533,67.74403
"3142",87.26452,67.75736
"3143",85.980316,67.7707
"3144",84.53986,67.78403
"3145",83.04814,67.79736
"3146",81.600365,67.81069
"3147",80.28687,67.82403
"3148",79.19554,67.83736
"3149",78.41184,67.85069
"3150",77.98947,67.86402
"3151",77.95041,67.87736
"3152",78.24338,67.890686
"3153",78.77318,67.90402
"3154",79.41039,67.91735
"3155",80.02075,67.93069
"3156",80.49683,67.944016
"3157",80.782486,67.95735
"3158",80.848404,67.97068
"3159",80.709236,67.98402
"3160",80.40894,67.997345
"3161",79.98901,68.01068
"3162",79.4934,68.02401
"3163",78.96605,68.037346
"3164",78.4387,68.050674
"3165",77.92355,68.06401
"3166",77.435265,68.07734
"3167",76.995804,68.090675
"3168",76.612495,68.104004
"3169",76.297554,68.11734
"3170",76.053406,68.13067
"3171",75.880066,68.144005
"3172",75.75311,68.15733
"3173",75.66033,68.17067
"3174",75.58953,68.184
"3175",75.55047,68.197334
"3176",75.56512,68.21066
"3177",75.72869,68.224
"3178",76.190125,68.23733
"3179",77.11299,68.25066
"3180",78.58518,68.26399
"3181",80.57252,68.27733
"3182",82.88457,68.29066
"3183",85.20393,68.30399
"3184",87.186386,68.31732
"3185",88.57069,68.33066
"3186",89.23476,68.34399
"3187",89.18837,68.35732
"3188",88.54383,68.37065
"3189",87.45495,68.38399
"3190",86.0853,68.397316
"3191",84.5716,68.41065
"3192",83.02861,68.42398
"3193",81.549095,68.43732
"3194",80.22095,68.450645
"3195",79.132065,68.46398
"3196",78.36057,68.47731
"3197",77.95773,68.49065
"3198",77.93332,68.503975
"3199",78.24094,68.51731
"3200",78.77318,68.53064
"3201",79.40307,68.543976
"3202",80.00366,68.557304
"3203",80.47242,68.57064
"3204",80.75075,68.58397
"3205",80.814224,68.597305
"3206",80.67994,68.610634
"3207",80.37965,68.62397
"3208",79.957275,68.6373
"3209",79.45678,68.650635
"3210",78.922104,68.66396
"3211",78.38499,68.6773
"3212",77.8674,68.69063
"3213",77.38644,68.703964
"3214",76.961624,68.71729
"3215",76.59785,68.73063
"3216",76.297554,68.74396
"3217",76.06317,68.75729
"3218",75.87518,68.77062
"3219",75.72137,68.78396
"3220",75.59197,68.79729
"3221",75.48699,68.81062
"3222",75.440605,68.82395
"3223",75.53826,68.83729
"3224",75.95087,68.85062
"3225",76.859085,68.86395
"3226",78.37766,68.87728
"3227",80.482185,68.89062
"3228",82.97978,68.903946
"3229",85.540855,68.91728
"3230",87.78943,68.93061
"3231",89.41787,68.94395
"3232",90.28214,68.957275
"3233",90.38468,68.97061
"3234",89.830475,68.98394
"3235",88.7831,68.99728
"3236",87.41833,69.010605
"3237",85.875336,69.02394
"3238",84.27131,69.03727
"3239",82.701454,69.050606
"3240",81.25613,69.063934
"3241",80.02075,69.07727
"3242",79.08812,69.0906
"3243",78.52659,69.103935
"3244",78.35813,69.11726
"3245",78.538795,69.1306
"3246",78.98558,69.14393
"3247",79.57397,69.157265
"3248",80.17212,69.17059
"3249",80.66041,69.18393
"3250",80.972916,69.19726
"3251",81.07057,69.210594
"3252",80.955826,69.22392
"3253",80.66285,69.23726
"3254",80.233154,69.25059
"3255",79.72289,69.26392
"3256",79.17113,69.27725
"3257",78.6096,69.29059
"3258",78.05783,69.30392
"3259",77.5378,69.31725
"3260",77.06172,69.33058
"3261",76.64179,69.34392
"3262",76.27558,69.35725
"3263",75.96307,69.37058
"3264",75.69207,69.38391
"3265",75.46258,69.39725
"3266",75.26971,69.410576
"3267",75.13542,69.42391
"3268",75.13542,69.43724
"3269",75.423515,69.45058
"3270",76.19501,69.463905
"3271",77.61349,69.47724
"3272",79.69604,69.49057
"3273",82.2913,69.50391
"3274",85.08675,69.517235
"3275",87.67712,69.53057
"3276",89.703514,69.5439
"3277",90.948654,69.557236
"3278",91.371025,69.570564
"3279",91.053635,69.5839
"3280",90.14786,69.59723
"3281",88.84657,69.610565
"3282",87.325554,69.62389
"3283",85.72152,69.63723
"3284",84.139465,69.65056
"3285",82.65507,69.663895
"3286",81.33181,69.67722
"3287",80.24536,69.69056
"3288",79.46166,69.70389
"3289",79.02464,69.717224
"3290",78.92699,69.73055
"3291",79.12474,69.74389
"3292",79.51293,69.75722
"3293",79.97925,69.77055
"3294",80.40894,69.78388
"3295",80.71168,69.79722
"3296",80.833755,69.81055
"3297",80.75807,69.82388
"3298",80.48707,69.83721
"3299",80.0647,69.85055
"3300",79.53246,69.86388
"3301",78.93919,69.87721
"3302",78.32151,69.89054
"3303",77.71847,69.90388
"3304",77.14473,69.917206
"3305",76.61982,69.93054
"3306",76.14862,69.94387
"3307",75.74334,69.95721
"3308",75.403984,69.970535
"3309",75.12077,69.98387
"3310",74.8864,69.9972
"3311",74.70084,70.01054
"3312",74.56657,70.023865
"3313",74.5153,70.0372
"3314",74.66178,70.05053
"3315",75.20378,70.063866
"3316",76.34394,70.077194
"3317",78.184784,70.09053
"3318",80.66529,70.10386
"3319",83.54131,70.117195
"3320",86.4271,70.13052
"3321",88.90761,70.14386
"3322",90.67521,70.15719
"3323",91.59319,70.170525
"3324",91.69085,70.18385
"3325",91.09514,70.19719
"3326",89.99893,70.21052
"3327",88.59266,70.223854
"3328",87.044785,70.23718
"3329",85.46517,70.25052
"3330",83.93683,70.26385
"3331",82.52567,70.27718
"3332",81.29519,70.29051
"3333",80.323494,70.30385
"3334",79.66186,70.31718
"3335",79.33959,70.33051
"3336",79.32494,70.34384
"3337",79.54955,70.35718
"3338",79.906006,70.37051
"3339",80.28199,70.38384
"3340",80.58228,70.39717
"3341",80.743416,70.41051
"3342",80.726326,70.423836
"3343",80.52125,70.43717
"3344",80.14038,70.4505
"3345",79.61791,70.46384
"3346",79.00023,70.477165
"3347",78.331276,70.4905
"3348",77.65743,70.50383
"3349",77.01778,70.517166
"3350",76.439156,70.530495
"3351",75.92645,70.54383
"3352",75.48211,70.55716
"3353",75.10368,70.570496
"3354",74.7863,70.583824
"3355",74.527504,70.59716
"3356",74.322426,70.61049
"3357",74.16617,70.623825
"3358",74.06119,70.63715
"3359",74.039215,70.65049
"3360",74.20767,70.66382
"3361",74.74723,70.677155
"3362",75.86542,70.69048
"3363",77.67208,70.70382
"3364",80.113525,70.71715
"3365",82.95537,70.730484
"3366",85.81674,70.74381
"3367",88.28504,70.75715
"3368",90.040436,70.77048
"3369",90.94621,70.78381
"3370",91.0341,70.79714
"3371",90.440834,70.81048
"3372",89.35195,70.82381
"3373",87.957886,70.83714
"3374",86.41978,70.85047
"3375",84.840164,70.86381
"3376",83.299614,70.87714
"3377",81.87137,70.89047
"3378",80.638435,70.9038
"3379",79.674065,70.91714
"3380",79.03441,70.930466
"3381",78.746315,70.9438
"3382",78.77806,70.95713
"3383",79.04906,70.97047
"3384",79.45434,70.983795
"3385",79.87427,70.99713
"3386",80.20386,71.01046
"3387",80.365,71.023796
"3388",80.325935,71.037125
"3389",80.079346,71.05046
"3390",79.65453,71.06379
"3391",79.10521,71.077126
"3392",78.4802,71.090454
"3393",77.81857,71.10379
"3394",77.154495,71.11712
"3395",76.51728,71.130455
"3396",75.931335,71.14378
"3397",75.406425,71.15712
"3398",74.95964,71.17045
"3399",74.59098,71.183784
"3400",74.30045,71.19711
"3401",74.07828,71.21045
"3402",73.9147,71.22378
"3403",73.79019,71.237114
"3404",73.69741,71.25044
"3405",73.6437,71.26378
"3406",73.66323,71.27711
"3407",73.86099,71.29044
"3408",74.41276,71.30377
"3409",75.51385,71.31711
"3410",77.27413,71.33044
"3411",79.64965,71.34377
"3412",82.42069,71.3571
"3413",85.22591,71.37044
"3414",87.66491,71.383766
"3415",89.41299,71.3971
"3416",90.32853,71.41043
"3417",90.41642,71.42377
"3418",89.8085,71.437096
"3419",88.70008,71.45043
"3420",87.28405,71.46376
"3421",85.714195,71.4771
"3422",84.11505,71.490425
"3423",82.56718,71.50376
"3424",81.15358,71.51709
"3425",79.94751,71.530426
"3426",79.03685,71.543755
"3427",78.47776,71.55709
"3428",78.28733,71.57042
"3429",78.42405,71.583755
"3430",78.79027,71.597084
"3431",79.26147,71.61042
"3432",79.710686,71.62375
"3433",80.042725,71.637085
"3434",80.18921,71.65041
"3435",80.130615,71.66375
"3436",79.871826,71.67708
"3437",79.449455,71.690414
"3438",78.90257,71.70374
"3439",78.277565,71.71708
"3440",77.61349,71.73041
"3441",76.94942,71.743744
"3442",76.30976,71.75707
"3443",75.72381,71.77041
"3444",75.208664,71.78374
"3445",74.77165,71.79707
"3446",74.41764,71.8104
"3447",74.14664,71.82374
"3448",73.953766,71.83707
"3449",73.83414,71.8504
"3450",73.77066,71.86373
"3451",73.74624,71.87707
"3452",73.74624,71.890396
"3453",73.75845,71.90373
"3454",73.79263,71.91706
"3455",73.917145,71.9304
"3456",74.28092,71.943726
"3457",75.08171,71.95706
"3458",76.48554,71.97039
"3459",78.53391,71.98373
"3460",81.09743,71.997055
"3461",83.87579,72.01039
"3462",86.48081,72.02372
"3463",88.54871,72.037056
"3464",89.847565,72.050385
"3465",90.31144,72.06372
"3466",90.01846,72.07705
"3467",89.12245,72.090385
"3468",87.816284,72.103714
"3469",86.26597,72.11705
"3470",84.61799,72.13038
"3471",82.97246,72.143715
"3472",81.42214,72.15704
"3473",80.059814,72.17038
"3474",78.975815,72.18371
"3475",78.24582,72.197044
"3476",77.91623,72.21037
"3477",77.96506,72.22371
"3478",78.314186,72.23704
"3479",78.83421,72.250374
"3480",79.38842,72.2637
"3481",79.84985,72.27704
"3482",80.1355,72.29037
"3483",80.201416,72.3037
"3484",80.05005,72.31703
"3485",79.71313,72.33037
"3486",79.22972,72.3437
"3487",78.64622,72.35703
"3488",78.00656,72.37036
"3489",77.34249,72.3837
"3490",76.69062,72.397026
"3491",76.07538,72.41036
"3492",75.52361,72.42369
"3493",75.04753,72.43703
"3494",74.65934,72.450356
"3495",74.35905,72.46369
"3496",74.13687,72.47702
"3497",73.987946,72.49036
"3498",73.90738,72.503685
"3499",73.882965,72.51702
"3500",73.89517,72.53035
"3501",73.92691,72.543686
"3502",73.96353,72.557014
"3503",74.00748,72.57035
"3504",74.11734,72.58368
"3505",74.42741,72.597015
"3506",75.13542,72.610344
"3507",76.4123,72.62368
"3508",78.32395,72.63701
"3509",80.762955,72.650345
"3510",83.46075,72.66367
"3511",86.046234,72.67701
"3512",88.15808,72.69034
"3513",89.54238,72.703674
"3514",90.11368,72.717
"3515",89.92081,72.73034
"3516",89.09804,72.74367
"3517",87.818726,72.757
"3518",86.261086,72.77033
"3519",84.5716,72.78367
"3520",82.8748,72.797
"3521",81.270775,72.81033
"3522",79.86206,72.82366
"3523",78.746315,72.837
"3524",78.011444,72.85033
"3525",77.69894,72.86366
"3526",77.786835,72.87699
"3527",78.19455,72.89033
"3528",78.785385,72.903656
"3529",79.41772,72.91699
"3530",79.96216,72.93032
"3531",80.323494,72.94366
"3532",80.462654,72.956985
"3533",80.36988,72.97032
"3534",80.06958,72.98365
"3535",79.60815,72.99699
"3536",79.03685,73.010315
"3537",78.399635,73.02365
"3538",77.733116,73.03698
"3539",77.07637,73.050316
"3540",76.456245,73.063644
"3541",75.88983,73.07698
"3542",75.40154,73.09031
"3543",75.001144,73.103645
"3544",74.69108,73.116974
"3545",74.47135,73.13031
"3546",74.33219,73.14364
"3547",74.26139,73.156975
"3548",74.24429,73.1703
"3549",74.26627,73.18364
"3550",74.31266,73.19697
"3551",74.373695,73.210304
"3552",74.442055,73.22363
"3553",74.55192,73.23697
"3554",74.80827,73.2503
"3555",75.38201,73.26363
"3556",76.46601,73.27696
"3557",78.167694,73.2903
"3558",80.4358,73.30363
"3559",83.055466,73.31696
"3560",85.67025,73.33029
"3561",87.90906,73.34363
"3562",89.48379,73.35696
"3563",90.25773,73.37029
"3564",90.25529,73.38362
"3565",89.59365,73.39696
"3566",88.431526,73.410286
"3567",86.93492,73.42362
"3568",85.25521,73.43695
"3569",83.51934,73.45029
"3570",81.83719,73.463615
"3571",80.31861,73.47695
"3572",79.08324,73.49028
"3573",78.22385,73.50362
"3574",77.79904,73.516945
"3575",77.806366,73.53028
"3576",78.18234,73.54361
"3577",78.80003,73.556946
"3578",79.51049,73.570274
"3579",80.164795,73.58361
"3580",80.65308,73.59694
"3581",80.90456,73.610275
"3582",80.907,73.623604
"3583",80.67506,73.63694
"3584",80.257576,73.65027
"3585",79.708244,73.663605
"3586",79.08568,73.67693
"3587",78.42893,73.69027
"3588",77.77219,73.7036
"3589",77.14473,73.716934
"3590",76.575874,73.73026
"3591",76.07782,73.7436
"3592",75.65545,73.75693
"3593",75.31609,73.77026
"3594",75.052414,73.78359
"3595",74.861984,73.79693
"3596",74.72526,73.81026
"3597",74.63737,73.82359
"3598",74.59098,73.83692
"3599",74.581215,73.85026
"3600",74.62272,73.86359
"3601",74.793625,73.87692
"3602",75.24284,73.89025
"3603",76.16327,73.90359
"3604",77.68429,73.916916
"3605",79.80347,73.93025
"3606",82.35966,73.94358
"3607",85.04036,73.95692
"3608",87.45739,73.970245
"3609",89.288475,73.98358
"3610",90.34562,73.99691
"3611",90.60197,74.01025
"3612",90.142975,74.023575
"3613",89.11513,74.03691
"3614",87.69421,74.05024
"3615",86.04379,74.063576
"3616",84.28596,74.076904
"3617",82.533,74.09024
"3618",80.88991,74.10357
"3619",79.47631,74.116905
"3620",78.399635,74.13023
"3621",77.752655,74.14357
"3622",77.57198,74.1569
"3623",77.81857,74.170235
"3624",78.380104,74.18356
"3625",79.097885,74.1969
"3626",79.82544,74.21023
"3627",80.42359,74.223564
"3628",80.80446,74.23689
"3629",80.936295,74.25023
"3630",80.833755,74.26356
"3631",80.52857,74.27689
"3632",80.06714,74.29022
"3633",79.500725,74.30356
"3634",78.87572,74.31689
"3635",78.22629,74.33022
"3636",77.591515,74.34355
"3637",76.995804,74.35689
"3638",76.470894,74.37022
"3639",76.016785,74.38355
"3640",75.63836,74.39688
"3641",75.3283,74.41022
"3642",75.08171,74.423546
"3643",74.88396,74.43688
"3644",74.7277,74.45021
"3645",74.62028,74.46355
"3646",74.56901,74.476875
"3647",74.62516,74.49021
"3648",74.91325,74.50354
"3649",75.63348,74.51688
"3650",76.97383,74.530205
"3651",79.012436,74.54354
"3652",81.654076,74.55687
"3653",84.627754,74.570206
"3654",87.53307,74.583534
"3655",89.95987,74.59687
"3656",91.62737,74.6102
"3657",92.41352,74.623535
"3658",92.36225,74.63686
"3659",91.6054,74.6502
"3660",90.32609,74.66353
"3661",88.70985,74.676865
"3662",86.91783,74.69019
"3663",85.06966,74.70353
"3664",83.2752,74.71686
"3665",81.6321,74.730194
"3666",80.24536,74.74352
"3667",79.2224,74.75686
"3668",78.63401,74.77019
"3669",78.49973,74.78352
"3670",78.75609,74.79685
"3671",79.28588,74.81019
"3672",79.93286,74.82352
"3673",80.552986,74.83685
"3674",81.024185,74.85018
"3675",81.27566,74.86352
"3676",81.28298,74.87685
"3677",81.06081,74.89018
"3678",80.64332,74.90351
"3679",80.079346,74.91685
"3680",79.42016,74.930176
"3681",78.712135,74.94351
"3682",77.996796,74.95684
"3683",77.30343,74.97018
"3684",76.66132,74.983505
"3685",76.09003,74.99684
"3686",75.596855,75.01017
"3687",75.18913,75.023506
"3688",74.86687,75.036835
"3689",74.615395,75.05017
"3690",74.42252,75.0635
"3691",74.285805,75.076836
"3692",74.19058,75.090164
"3693",74.1564,75.1035
"3694",74.28092,75.11683
"3695",74.75212,75.130165
"3696",75.80438,75.14349
"3697",77.60616,75.15683
"3698",80.15503,75.17016
"3699",83.245895,75.183495
"3700",86.4979,75.19682
"3701",89.45205,75.21016
"3702",91.717705,75.22349
"3703",93.08003,75.236824
"3704",93.504845,75.25015
"3705",93.09468,75.26349
"3706",92.03754,75.27682
"3707",90.5507,75.29015
"3708",88.82948,75.30348
"3709",87.030136,75.31682
"3710",85.25033,75.33015
"3711",83.57061,75.34348
"3712",82.05936,75.35681
"3713",80.797134,75.37015
"3714",79.85718,75.38348
"3715",79.29809,75.39681
"3716",79.12962,75.41014
"3717",79.293205,75.42348
"3718",79.676506,75.436806
"3719",80.147705,75.45014
"3720",80.5774,75.46347
"3721",80.86061,75.47681
"3722",80.94362,75.490135
"3723",80.80202,75.50347
"3724",80.45289,75.5168
"3725",79.93042,75.530136
"3726",79.28588,75.543465
"3727",78.56077,75.5568
"3728",77.803925,75.57013
"3729",77.051956,75.583466
"3730",76.3415,75.596794
"3731",75.69207,75.61013
"3732",75.1281,75.62346
"3733",74.649574,75.636795
"3734",74.25407,75.65012
"3735",73.93912,75.66346
"3736",73.69253,75.67679
"3737",73.514305,75.690125
"3738",73.39468,75.70345
"3739",73.32632,75.71679
"3740",73.306786,75.73012
"3741",73.39712,75.743454
"3742",73.741356,75.75678
"3743",74.56901,75.77012
"3744",76.09247,75.78345
"3745",78.38743,75.79678
"3746",81.33425,75.81011
"3747",84.613106,75.82345
"3748",87.77234,75.83678
"3749",90.372475,75.85011
"3750",92.122986,75.86344
"3751",92.92134,75.87678
"3752",92.826126,75.89011
"3753",92.0058,75.90344
"3754",90.667885,75.91677
"3755",89.01747,75.93011
"3756",87.23033,75.943436
"3757",85.42367,75.95677
"3758",83.68047,75.9701
"3759",82.07645,75.98344
"3760",80.69459,75.996765
"3761",79.61547,76.0101
"3762",78.90013,76.02343
"3763",78.572975,76.036766
"3764",78.60227,76.050095
"3765",78.890366,76.06343
"3766",79.3225,76.07676
"3767",79.76196,76.090096
"3768",80.111084,76.103424
"3769",80.291756,76.11676
"3770",80.2649,76.13009
"3771",80.025635,76.143425
"3772",79.5935,76.15675
"3773",79.012436,76.17009
"3774",78.31663,76.18342
"3775",77.557335,76.196754
"3776",76.77608,76.21008
"3777",76.01434,76.22342
"3778",75.30389,76.23675
"3779",74.67155,76.250084
"3780",74.13199,76.26341
"3781",73.6852,76.27675
"3782",73.33608,76.29008
"3783",73.08217,76.30341
"3784",72.91615,76.31674
"3785",72.82338,76.33008
"3786",72.781876,76.34341
"3787",72.76967,76.35674
"3788",72.79164,76.37007
"3789",72.8893,76.38341
"3790",73.20668,76.39674
"3791",73.96353,76.41008
"3792",75.372246,76.423416
"3793",77.52804,76.43675
"3794",80.33326,76.45009
"3795",83.50469,76.463425
"3796",86.61509,76.47676
"3797",89.232315,76.4901
"3798",91.04387,76.50343
"3799",91.92767,76.51677
"3800",91.92279,76.530106
"3801",91.18303,76.54344
"3802",89.901276,76.55678
"3803",88.28748,76.570114
"3804",86.505226,76.58345
"3805",84.67902,76.59679
"3806",82.899216,76.61012
"3807",81.25124,76.62346
"3808",79.835205,76.636795
"3809",78.74143,76.65013
"3810",78.04318,76.66347
"3811",77.7673,76.6768
"3812",77.874725,76.69014
"3813",78.25803,76.703476
"3814",78.78783,76.71681
"3815",79.3225,76.73015
"3816",79.75464,76.743484
"3817",79.99878,76.75682
"3818",80.02075,76.77016
"3819",79.815674,76.78349
"3820",79.40795,76.79683
"3821",78.84154,76.810165
"3822",78.167694,76.8235
"3823",77.437706,76.83684
"3824",76.6955,76.850174
"3825",75.97528,76.86351
"3826",75.30389,76.87685
"3827",74.6984,76.89018
"3828",74.175934,76.90352
"3829",73.7438,76.916855
"3830",73.402,76.93019
"3831",73.15297,76.94353
"3832",72.98695,76.95686
"3833",72.89174,76.9702
"3834",72.84535,76.983536
"3835",72.83803,76.99687
"3836",72.87221,77.01021
"3837",72.99428,77.023544
"3838",73.31899,77.03688
"3839",74.05875,77.05022
"3840",75.41375,77.06355
"3841",77.47677,77.07689
"3842",80.177,77.090225
"3843",83.24101,77.10356
"3844",86.27329,77.1169
"3845",88.84657,77.13023
"3846",90.64347,77.14357
"3847",91.53948,77.156906
"3848",91.55657,77.17024
"3849",90.826584,77.18358
"3850",89.5375,77.196915
"3851",87.89441,77.21025
"3852",86.05844,77.22359
"3853",84.159,77.23692
"3854",82.303505,77.25026
"3855",80.59693,77.263596
"3856",79.14183,77.27693
"3857",78.04318,77.29027
"3858",77.383995,77.303604
"3859",77.188675,77.31694
"3860",77.41329,77.33028
"3861",77.94064,77.34361
"3862",78.61448,77.35695
"3863",79.27856,77.370285
"3864",79.80591,77.38362
"3865",80.113525,77.39696
"3866",80.16968,77.41029
"3867",79.97925,77.42363
"3868",79.58373,77.436966
"3869",79.027084,77.4503
"3870",78.363014,77.46364
"3871",77.63546,77.476974
"3872",76.893265,77.49031
"3873",76.17059,77.50365
"3874",75.49676,77.51698
"3875",74.88884,77.53032
"3876",74.36881,77.543655
"3877",73.936676,77.55699
"3878",73.599754,77.57033
"3879",73.34829,77.583664
"3880",73.18715,77.597
"3881",73.09682,77.61034
"3882",73.06264,77.62367
"3883",73.0724,77.63701
"3884",73.11635,77.650345
"3885",73.21889,77.66368
"3886",73.48257,77.67702
"3887",74.08804,77.69035
"3888",75.25994,77.70369
"3889",77.137405,77.717026
"3890",79.69604,77.73036
"3891",82.70878,77.7437
"3892",85.79477,77.757034
"3893",88.514534,77.77037
"3894",90.511635,77.78371
"3895",91.6054,77.79704
"3896",91.793396,77.81038
"3897",91.19035,77.823715
"3898",89.97452,77.83705
"3899",88.343636,77.85039
"3900",86.47349,77.86372
"3901",84.505684,77.87706
"3902",82.55741,77.890396
"3903",80.74586,77.90373
"3904",79.18822,77.91707
"3905",78.009,77.930405
"3906",77.29366,77.94374
"3907",77.07881,77.95708
"3908",77.315636,77.97041
"3909",77.8967,77.98375
"3910",78.658424,77.997086
"3911",79.43725,78.01042
"3912",80.093994,78.02376
"3913",80.53101,78.037094
"3914",80.69703,78.05043
"3915",80.58961,78.06377
"3916",80.24292,78.0771
"3917",79.7058,78.09044
"3918",79.04906,78.103775
"3919",78.328835,78.11711
"3920",77.5964,78.13045
"3921",76.88106,78.14378
"3922",76.209656,78.15712
"3923",75.596855,78.170456
"3924",75.052414,78.18379
"3925",74.59586,78.19713
"3926",74.2272,78.210464
"3927",73.95865,78.2238
"3928",73.780426,78.23714
"3929",73.6852,78.25047
"3930",73.64614,78.26381
"3931",73.64858,78.277145
"3932",73.67544,78.29048
"3933",73.74624,78.30382
"3934",73.934235,78.317154
"3935",74.40299,78.33049
"3936",75.36736,78.34383
"3937",77.00069,78.35716
"3938",79.3225,78.3705
"3939",82.17166,78.383835
"3940",85.2137,78.39717
"3941",88.026245,78.41051
"3942",90.230865,78.42384
"3943",91.58831,78.43718
"3944",92.03998,78.450516
"3945",91.65667,78.46385
"3946",90.597084,78.47719
"3947",89.04677,78.490524
"3948",87.18883,78.50386
"3949",85.17708,78.5172
"3950",83.14336,78.53053
"3951",81.21217,78.54387
"3952",79.517815,78.557205
"3953",78.204315,78.57054
"3954",77.383995,78.58388
"3955",77.11055,78.59721
"3956",77.347374,78.61055
"3957",77.97238,78.623886
"3958",78.8098,78.63722
"3959",79.67162,78.65056
"3960",80.40406,78.663895
"3961",80.90944,78.67723
"3962",81.13893,78.69057
"3963",81.09987,78.7039
"3964",80.82155,78.71724
"3965",80.35035,78.730576
"3966",79.744865,78.74391
"3967",79.0515,78.75725
"3968",78.32151,78.770584
"3969",77.60128,78.78392
"3970",76.92256,78.79726
"3971",76.30976,78.81059
"3972",75.772644,78.82393
"3973",75.31365,78.837265
"3974",74.932785,78.8506
"3975",74.62272,78.86394
"3976",74.37858,78.87727
"3977",74.18814,78.89061
"3978",74.04898,78.903946
"3979",73.96597,78.91728
"3980",73.97574,78.93062
"3981",74.1857,78.943954
"3982",74.77898,78.95729
"3983",75.95819,78.97063
"3984",77.83566,78.98396
"3985",80.365,78.9973
"3986",83.319145,79.010635
"3987",86.312355,79.02397
"3988",88.92714,79.03731
"3989",90.829025,79.050644
"3990",91.84955,79.06398
"3991",91.98627,79.07732
"3992",91.34905,79.09065
"3993",90.11368,79.10399
"3994",88.465706,79.117325
"3995",86.55894,79.13066
"3996",84.53986,79.144
"3997",82.52567,79.15733
"3998",80.65797,79.17067
"3999",79.078354,79.184006
"4000",77.93576,79.19734
"4001",77.32052,79.21068
"4002",77.25216,79.224014
"4003",77.65255,79.23735
"4004",78.37278,79.25069
"4005",79.22484,79.26402
"4006",80.0354,79.27736
"4007",80.67017,79.290695
"4008",81.06081,79.30403
"4009",81.17311,79.31737
"4010",81.02663,79.3307
"4011",80.66041,79.34404
"4012",80.128174,79.357376
"4013",79.48119,79.37071
"4014",78.77562,79.38405
"4015",78.05295,79.397385
"4016",77.347374,79.41072
"4017",76.6833,79.42406
"4018",76.08026,79.43739
"4019",75.54803,79.45073
"4020",75.09636,79.464066
"4021",74.7277,79.4774
"4022",74.43473,79.49074
"4023",74.21011,79.504074
"4024",74.0441,79.51741
"4025",73.936676,79.53075
"4026",73.934235,79.54408
"4027",74.17105,79.55742
"4028",74.8571,79.570755
"4029",76.209656,79.58409
"4030",78.32639,79.59743
"4031",81.11696,79.61076
"4032",84.30305,79.6241
"4033",87.45739,79.637436
"4034",90.13077,79.65077
"4035",91.998474,79.66411
"4036",92.92134,79.677444
"4037",92.93355,79.69078
"4038",92.16205,79.70412
"4039",90.80461,79.71745
"4040",89.05653,79.73079
"4041",87.08873,79.744125
"4042",85.033035,79.75746
"4043",83.00908,79.7708
"4044",81.15358,79.784134
"4045",79.5935,79.79747
"4046",78.45823,79.81081
"4047",77.84299,79.82414
"4048",77.75754,79.83748
"4049",78.133514,79.850815
"4050",78.819565,79.86415
"4051",79.635,79.87749
"4052",80.40162,79.89082
"4053",80.990005,79.90416
"4054",81.31472,79.917496
"4055",81.358665,79.93083
"4056",81.13405,79.94417
"4057",80.68482,79.957504
"4058",80.06958,79.97084
"4059",79.3518,79.98418
"4060",78.5803,79.99751
"4061",77.80881,80.01085
"4062",77.069046,80.024185
"4063",76.387886,80.03752
"4064",75.78241,80.05086
"4065",75.25994,80.06419
"4066",74.81804,80.07753
"4067",74.459145,80.090866
"4068",74.16617,80.1042
"4069",73.92935,80.11754
"4070",73.75845,80.130875
"4071",73.69497,80.14421
"4072",73.865875,80.15755
"4073",74.48112,80.17088
"4074",75.77753,80.18422
"4075",77.87717,80.197556
"4076",80.71168,80.21089
"4077",84.01495,80.22423
"4078",87.35729,80.237564
"4079",90.26017,80.2509
"4080",92.367134,80.26424
"4081",93.50973,80.27757
"4082",93.69283,80.29091
"4083",93.05562,80.304245
"4084",91.790955,80.31758
"4085",90.11856,80.33092
"4086",88.21179,80.34425
"4087",86.21713,80.35759
"4088",84.23956,80.370926
"4089",82.388954,80.38426
"4090",80.7776,80.3976
"4091",79.52758,80.410934
"4092",78.72434,80.42427
"4093",78.4094,80.43761
"4094",78.54612,80.45094
"4095",79.01732,80.46428
"4096",79.66186,80.477615
"4097",80.323494,80.49095
"4098",80.85817,80.50429
"4099",81.17311,80.517624
"4100",81.22682,80.53096
"4101",81.01442,80.5443
"4102",80.570076,80.55763
"4103",79.94751,80.57097
"4104",79.21019,80.584305
"4105",78.41917,80.59764
"4106",77.625694,80.61098
"4107",76.86641,80.62431
"4108",76.175476,80.63765
"4109",75.562675,80.650986
"4110",75.035324,80.66432
"4111",74.59342,80.67766
"4112",74.23697,80.690994
"4113",73.94888,80.70433
"4114",73.72671,80.71767
"4115",73.565575,80.731
"4116",73.48501,80.74434
"4117",73.55825,80.757675
"4118",73.9733,80.77101
"4119",74.97673,80.78435
"4120",76.76631,80.79768
"4121",79.381096,80.81102
"4122",82.64774,80.824356
"4123",86.185394,80.83769
"4124",89.5082,80.85103
"4125",92.16937,80.864365
"4126",93.890594,80.8777
"4127",94.59617,80.89104
"4128",94.37156,80.90437
"4129",93.40475,80.91771
"4130",91.92279,80.931046
"4131",90.1503,80.94438
"4132",88.25086,80.95772
"4133",86.34409,80.971054
"4134",84.52277,80.98439
"4135",82.862595,80.99773
"4136",81.446556,81.01106
"4137",80.36744,81.0244
"4138",79.68383,81.037735
"4139",79.40063,81.05107
"4140",79.45922,81.06441
"4141",79.7522,81.07774
"4142",80.14038,81.09108
"4143",80.49439,81.104416
"4144",80.71168,81.11775
"4145",80.72877,81.13109
"4146",80.516365,81.144424
"4147",80.093994,81.15776
"4148",79.48852,81.1711
"4149",78.751205,81.18443
"4150",77.943085,81.19777
"4151",77.11543,81.211105
"4152",76.30244,81.22444
"4153",75.55047,81.23778
"4154",74.87419,81.251114
"4155",74.28092,81.26445
"4156",73.78531,81.27779
"4157",73.38003,81.29112
"4158",73.06752,81.30446
"4159",72.83803,81.317795
"4160",72.67689,81.33113
"4161",72.57435,81.34447
"4162",72.52552,81.3578
"4163",72.57435,81.37114
"4164",72.85512,81.384476
"4165",73.58755,81.39781
"4166",75.003586,81.41115
"4167",77.225296,81.424484
"4168",80.184326,81.43782
"4169",83.597466,81.45116
"4170",87.03258,81.46449
"4171",90.01602,81.47783
"4172",92.18402,81.491165
"4173",93.368126,81.5045
"4174",93.590294,81.51784
"4175",92.997025,81.53117
"4176",91.8056,81.54451
"4177",90.24307,81.557846
"4178",88.497444,81.57118
"4179",86.70054,81.58452
"4180",84.94026,81.597855
"4181",83.29229,81.61119
"4182",81.832306,81.62453
"4183",80.638435,81.63786
"4184",79.781494,81.6512
"4185",79.290764,81.664536
"4186",79.14183,81.67787
"4187",79.256584,81.69121
"4188",79.51293,81.704544
"4189",79.7937,81.71788
"4190",79.98413,81.73122
"4191",80.008545,81.74455
"4192",79.82788,81.75789
"4193",79.43969,81.771225
"4194",78.873276,81.78456
"4195",78.16525,81.7979
"4196",77.37667,81.81123
"4197",76.54902,81.82457
"4198",75.73113,81.837906
"4199",74.96208,81.85124
"4200",74.26139,81.86458
"4201",73.65591,81.877914
"4202",73.15541,81.89125
"4203",72.76723,81.90459
"4204",72.47425,81.91792
"4205",72.2765,81.93126
"4206",72.14465,81.944595
"4207",72.06897,81.95793
"4208",72.02258,81.97127
"4209",72.00305,81.984604
"4210",72.010376,81.99794
"4211",72.09338,82.01128
"4212",72.38636,82.02461
"4213",73.10658,82.03795
"4214",74.47379,82.051285
"4215",76.612495,82.06462
"4216",79.466545,82.07796
"4217",82.77226,82.09129
"4218",86.10483,82.10463
"4219",88.99306,82.117966
"4220",91.08293,82.1313
"4221",92.19867,82.14464
"4222",92.35737,82.157974
"4223",91.70794,82.17131
"4224",90.4799,82.18465
"4225",88.90028,82.19798
"4226",87.15953,82.21132
"4227",85.37972,82.224655
"4228",83.64629,82.23799
"4229",82.020294,82.25133
"4230",80.584724,82.26466
"4231",79.429924,82.278
"4232",78.62913,82.291336
"4233",78.22385,82.30467
"4234",78.18234,82.31801
"4235",78.41184,82.331345
"4236",78.77562,82.34468
"4237",79.13939,82.35802
"4238",79.3933,82.37135
"4239",79.46899,82.38469
"4240",79.327385,82.398026
"4241",78.97093,82.41136
"4242",78.42405,82.4247
"4243",77.733116,82.438034
"4244",76.95674,82.45137
"4245",76.14862,82.46471
"4246",75.3576,82.47804
"4247",74.617836,82.49138
"4248",73.951324,82.504715
"4249",73.3727,82.51805
"4250",72.89906,82.53139
"4251",72.535286,82.54472
"4252",72.28382,82.55806
"4253",72.149536,82.571396
"4254",72.112915,82.58473
"4255",72.15442,82.59807
"4256",72.24475,82.611404
"4257",72.35462,82.62474
"4258",72.45472,82.63808
"4259",72.52796,82.65141
"4260",72.569466,82.66475
"4261",72.620735,82.678085
"4262",72.80141,82.69142
"4263",73.32632,82.70476
"4264",74.442055,82.718094
"4265",76.32197,82.73143
"4266",78.96117,82.74477
"4267",82.144806,82.7581
"4268",85.46273,82.77144
"4269",88.44129,82.784775
"4270",90.68009,82.79811
"4271",91.97162,82.81145
"4272",92.28657,82.82478
"4273",91.756775,82.83812
"4274",90.5922,82.851456
"4275",89.01259,82.86479
"4276",87.218124,82.87813
"4277",85.34554,82.891464
"4278",83.51202,82.9048
"4279",81.81033,82.91814
"4280",80.343025,82.93147
"4281",79.19798,82.94481
"4282",78.45823,82.958145
"4283",78.14084,82.97148
"4284",78.21164,82.98482
"4285",78.56077,82.99815
"4286",79.04906,83.01149
"4287",79.534904,83.024826
"4288",79.8938,83.03816
"4289",80.042725,83.0515
"4290",79.94995,83.064835
"4291",79.622795,83.07817
"4292",79.09544,83.09151
"4293",78.42161,83.10484
"4294",77.6672,83.11818
"4295",76.876175,83.131516
"4296",76.09491,83.14485
"4297",75.3576,83.15819
"4298",74.69108,83.171524
"4299",74.107574,83.18486
"4300",73.62417,83.1982
"4301",73.253075,83.21153
"4302",72.99428,83.22487
"4303",72.84779,83.238205
"4304",72.80141,83.25154
"4305",72.84291,83.26488
"4306",72.94545,83.27821
"4307",73.08705,83.29155
"4308",73.23842,83.304886
"4309",73.3727,83.31822
"4310",73.4728,83.33156
"4311",73.53384,83.344894
"4312",73.57778,83.35823
"4313",73.69497,83.37157
"4314",74.06607,83.3849
"4315",74.93767,83.39824
"4316",76.507515,83.411575
"4317",78.836655,83.42491
"4318",81.77615,83.43825
"4319",84.98665,83.451584
"4320",88.01648,83.46492
"4321",90.443275,83.47826
"4322",91.981384,83.49159
"4323",92.55512,83.50493
"4324",92.23773,83.518265
"4325",91.212326,83.5316
"4326",89.69863,83.54494
"4327",87.89685,83.55827
"4328",85.97299,83.57161
"4329",84.051575,83.584946
"4330",82.24979,83.59828
"4331",80.68482,83.61162
"4332",79.47631,83.624954
"4333",78.70481,83.63829
"4334",78.41184,83.65163
"4335",78.553444,83.66496
"4336",79.0222,83.6783
"4337",79.65209,83.691635
"4338",80.289314,83.70497
"4339",80.79225,83.71831
"4340",81.06569,83.73164
"4341",81.06081,83.74498
"4342",80.78981,83.758316
"4343",80.289314,83.77165
"4344",79.622795,83.78499
"4345",78.85863,83.798325
"4346",78.05783,83.81166
"4347",77.26925,83.825
"4348",76.52705,83.83833
"4349",75.85565,83.85167
"4350",75.27459,83.865005
"4351",74.793625,83.87834
"4352",74.424965,83.89168
"4353",74.16617,83.905014
"4354",74.01724,83.91835
"4355",73.95865,83.93169
"4356",73.97574,83.94502
"4357",74.0441,83.95836
"4358",74.13931,83.971695
"4359",74.23697,83.98503
"4360",74.31754,83.99837
"4361",74.36637,84.0117
"4362",74.39323,84.02504
"4363",74.44938,84.038376
"4364",74.67887,84.05171
"4365",75.29412,84.06505
"4366",76.51484,84.078384
"4367",78.45579,84.09172
"4368",81.06081,84.10506
"4369",84.06378,84.11839
"4370",87.05699,84.13173
"4371",89.600975,84.145065
"4372",91.36614,84.1584
"4373",92.20355,84.17174
"4374",92.137634,84.185074
"4375",91.31243,84.19841
"4376",89.92813,84.21175
"4377",88.182495,84.22508
"4378",86.25376,84.23842
"4379",84.27863,84.251755
"4380",82.38163,84.26509
"4381",80.69947,84.27843
"4382",79.364006,84.29176
"4383",78.485085,84.3051
"4384",78.11154,84.318436
"4385",78.22873,84.33177
"4386",78.73411,84.34511
"4387",79.46166,84.358444
"4388",80.22827,84.37178
"4389",80.87282,84.38512
"4390",81.28054,84.39845
"4391",81.392845,84.41179
"4392",81.214615,84.425125
"4393",80.78493,84.43846
"4394",80.17212,84.4518
"4395",79.44457,84.46513
"4396",78.660866,84.47847
"4397",77.872284,84.491806
"4398",77.12276,84.50514
"4399",76.44404,84.51848
"4400",75.860535,84.531815
"4401",75.386894,84.54515
"4402",75.02556,84.55849
"4403",74.76433,84.57182
"4404",74.58854,84.58516
"4405",74.48356,84.598495
"4406",74.42008,84.61183
"4407",74.3859,84.62517
"4408",74.35905,84.638504
"4409",74.34196,84.65184
"4410",74.337074,84.66518
"4411",74.39811,84.67851
"4412",74.64225,84.69185
"4413",75.27703,84.705185
"4414",76.507515,84.71852
"4415",78.44846,84.73186
"4416",81.03639,84.74519
"4417",84.02472,84.75853
"4418",87.00816,84.771866
"4419",89.55459,84.7852
"4420",91.334404,84.79854
"4421",92.191345,84.811874
"4422",92.14496,84.82521
"4423",91.336845,84.83855
"4424",89.96475,84.85188
"4425",88.24109,84.86522
"4426",86.33189,84.878555
"4427",84.37141,84.89189
"4428",82.476845,84.90523
"4429",80.77272,84.918564
"4430",79.37377,84.9319
"4431",78.39231,84.94524
"4432",77.8967,84.95857
"4433",77.88449,84.97191
"4434",78.27024,84.985245
"4435",78.905014,84.99858
"4436",79.62524,85.01192
"4437",80.26978,85.02525
"4438",80.72144,85.03859
"4439",80.90456,85.051926
"4440",80.799576,85.06526
"4441",80.43824,85.0786
"4442",79.87427,85.091934
"4443",79.18089,85.10527
"4444",78.41917,85.11861
"4445",77.64767,85.13194
"4446",76.90303,85.14528
"4447",76.21454,85.158615
"4448",75.60906,85.17195
"4449",75.09392,85.18529
"4450",74.67643,85.19862
"4451",74.356606,85.21196
"4452",74.127106,85.225296
"4453",73.9733,85.23863
"4454",73.87564,85.25197
"4455",73.81949,85.265305
"4456",73.78775,85.27864
"4457",73.777985,85.29198
"4458",73.81949,85.30531
"4459",74.00015,85.31865
"4460",74.510414,85.331985
"4461",75.58709,85.34532
"4462",77.420616,85.35866
"4463",80.03784,85.371994
"4464",83.25567,85.38533
"4465",86.69077,85.39867
"4466",89.85489,85.412
"4467",92.30854,85.42534
"4468",93.78073,85.438675
"4469",94.22507,85.45201
"4470",93.75632,85.46535
"4471",92.58198,85.47868
"4472",90.948654,85.49202
"4473",89.07362,85.505356
"4474",87.12291,85.51869
"4475",85.20393,85.53203
"4476",83.407036,85.545364
"4477",81.812775,85.5587
"4478",80.516365,85.57204
"4479",79.59594,85.58537
"4480",79.10033,85.59871
"4481",79.01732,85.612045
"4482",79.259026,85.62538
"4483",79.69848,85.63872
"4484",80.18921,85.652054
"4485",80.59693,85.66539
"4486",80.82887,85.67873
"4487",80.82643,85.69206
"4488",80.584724,85.7054
"4489",80.128174,85.718735
"4490",79.49584,85.73207
"4491",78.74876,85.74541
"4492",77.943085,85.75874
"4493",77.12764,85.77208
"4494",76.351265,85.785416
"4495",75.64568,85.79875
"4496",75.02556,85.81209
"4497",74.50309,85.825424
"4498",74.075836,85.83876
"4499",73.7438,85.8521
"4500",73.5021,85.86543
"4501",73.340965,85.87877
"4502",73.2433,85.892105
"4503",73.18471,85.90544
"4504",73.15297,85.91878
"4505",73.16518,85.93211
"4506",73.29458,85.94545
"4507",73.71694,85.958786
"4508",74.67155,85.97212
"4509",76.35859,85.98546
"4510",78.839096,85.998795
"4511",81.96414,86.01213
"4512",85.37728,86.02547
"4513",88.59998,86.0388
"4514",91.175705,86.05214
"4515",92.80415,86.065475
"4516",93.402306,86.07881
"4517",93.07515,86.09215
"4518",92.018005,86.105484
"4519",90.4799,86.11882
"4520",88.68055,86.13216
"4521",86.7982,86.14549
"4522",84.93538,86.15883
"4523",83.17265,86.172165
"4524",81.58816,86.1855
"4525",80.257576,86.19884
"4526",79.259026,86.21217
"4527",78.6511,86.22551
"4528",78.44846,86.238846
"4529",78.58762,86.25218
"4530",78.96361,86.26552
"4531",79.429924,86.278854
"4532",79.84741,86.29219
"4533",80.10864,86.30553
"4534",80.147705,86.31886
"4535",79.94751,86.3322
"4536",79.5227,86.345535
"4537",78.922104,86.35887
"4538",78.19211,86.37221
"4539",77.3962,86.385544
"4540",76.58564,86.39888
"4541",75.79706,86.41222
"4542",75.071945,86.42555
"4543",74.43473,86.43889
"4544",73.9025,86.452225
"4545",73.477684,86.46556
"4546",73.15541,86.4789
"4547",72.92836,86.49223
"4548",72.779434,86.50557
"4549",72.69398,86.518906
"4550",72.64515,86.53224
"4551",72.62562,86.54558
"4552",72.6305,86.558914
"4553",72.68177,86.57225
"4554",72.87465,86.58559
"4555",73.39712,86.59892
"4556",74.486,86.61226
