"","ppg","time"
"1",75.78729,642.8662
"2",75.80438,642.87964
"3",75.826355,642.89307
"4",75.85321,642.9065
"5",75.87518,642.9199
"6",75.88495,642.93335
"7",75.8703,642.9468
"8",75.83612,642.9602
"9",75.772644,642.97363
"10",75.69207,642.98706
"11",75.6115,643.0005
"12",75.543144,643.0139
"13",75.50652,643.02734
"14",75.545586,643.0408
"15",75.74578,643.0542
"16",76.25605,643.0676
"17",77.239944,643.08105
"18",78.819565,643.0945
"19",81.007095,643.1079
"20",83.65362,643.12134
"21",86.46372,643.13477
"22",89.07362,643.1482
"23",91.139084,643.1616
"24",92.43305,643.17505
"25",92.8896,643.1885
"26",92.57221,643.2019
"27",91.63958,643.21533
"28",90.304115,643.22876
"29",88.77333,643.2422
"30",87.20836,643.2556
"31",85.70687,643.26904
"32",84.332344,643.2825
"33",83.140915,643.2959
"34",82.16434,643.3093
"35",81.43191,643.32275
"36",80.96071,643.3362
"37",80.73365,643.3496
"38",80.706795,643.36304
"39",80.799576,643.37646
"40",80.92897,643.3899
"41",81.0193,643.4033
"42",81.0193,643.41675
"43",80.88991,643.4302
"44",80.621346,643.4436
"45",80.22339,643.45703
"46",79.72045,643.47046
"47",79.13695,643.4839
"48",78.52415,643.4973
"49",77.91623,643.51074
"50",77.34493,643.5242
"51",76.839554,643.5376
"52",76.41718,643.551
"53",76.08026,643.56445
"54",75.826355,643.5779
"55",75.65545,643.5913
"56",75.55047,643.60474
"57",75.50164,643.61816
"58",75.491875,643.6316
"59",75.50652,643.645
"60",75.53826,643.65845
"61",75.577324,643.6719
"62",75.61639,643.6853
"63",75.650566,643.6987
"64",75.67986,643.71216
"65",75.71404,643.7256
"66",75.74578,643.739
"67",75.78241,643.75244
"68",75.81659,643.76587
"69",75.83612,643.7793
"70",75.82391,643.7927
"71",75.77753,643.80615
"72",75.69207,643.8196
"73",75.58221,643.833
"74",75.45525,643.84644
"75",75.33074,643.85986
"76",75.22087,643.8733
"77",75.14519,643.8867
"78",75.14763,643.90015
"79",75.33074,643.9136
"80",75.85809,643.927
"81",76.90059,643.9404
"82",78.56565,643.95386
"83",80.82643,643.9673
"84",83.51202,643.9807
"85",86.30991,643.99414
"86",88.86122,644.00757
"87",90.851,644.021
"88",92.10101,644.0344
"89",92.55268,644.04785
"90",92.27436,644.0613
"91",91.42718,644.0747
"92",90.211334,644.08813
"93",88.80751,644.10156
"94",87.36462,644.115
"95",85.977875,644.1284
"96",84.698555,644.14185
"97",83.563286,644.1553
"98",82.6038,644.1687
"99",81.83963,644.1821
"100",81.29763,644.19556
"101",80.96315,644.209
"102",80.8069,644.2224
"103",80.7776,644.23584
"104",80.81178,644.24927
"105",80.84352,644.2627
"106",80.82155,644.2761
"107",80.709236,644.28955
"108",80.48463,644.303
"109",80.14526,644.3164
"110",79.70092,644.32983
"111",79.17601,644.34326
"112",78.607155,644.3567
"113",78.030975,644.3701
"114",77.47677,644.38354
"115",76.97139,644.397
"116",76.53925,644.4104
"117",76.18036,644.4238
"118",75.8996,644.43726
"119",75.69695,644.4507
"120",75.56756,644.4641
"121",75.4992,644.47754
"122",75.47967,644.49097
"123",75.48943,644.5044
"124",75.511406,644.5178
"125",75.53582,644.53125
"126",75.562675,644.5447
"127",75.58465,644.5581
"128",75.60906,644.57153
"129",75.63836,644.58496
"130",75.6701,644.5984
"131",75.699394,644.6118
"132",75.72625,644.62524
"133",75.736015,644.6387
"134",75.72137,644.6521
"135",75.67498,644.6655
"136",75.596855,644.67896
"137",75.47723,644.6924
"138",75.32586,644.7058
"139",75.15251,644.71924
"140",74.97917,644.73267
"141",74.847336,644.7461
"142",74.83269,644.7595
"143",75.08659,644.77295
"144",75.792175,644.7864
"145",77.10811,644.7998
"146",79.08568,644.81323
"147",81.64187,644.82666
"148",84.52766,644.8401
"149",87.398796,644.8535
"150",89.88663,644.86694
"151",91.72259,644.8804
"152",92.77486,644.8938
"153",93.03853,644.9072
"154",92.613716,644.92065
"155",91.683525,644.9341
"156",90.45304,644.9475
"157",89.10292,644.96094
"158",87.765015,644.97437
"159",86.4979,644.9878
"160",85.33822,645.0012
"161",84.300606,645.01465
"162",83.39971,645.0281
"163",82.65995,645.0415
"164",82.10086,645.05493
"165",81.72488,645.06836
"166",81.514915,645.0818
"167",81.41726,645.0952
"168",81.373314,645.10864
"169",81.33181,645.1221
"170",81.24635,645.1355
"171",81.077896,645.1489
"172",80.8069,645.16235
"173",80.428474,645.1758
"174",79.954834,645.1892
"175",79.412834,645.20264
"176",78.82689,645.21606
"177",78.24094,645.2295
"178",77.68917,645.2429
"179",77.19112,645.25635
"180",76.76143,645.2698
"181",76.40742,645.2832
"182",76.13153,645.29663
"183",75.92645,645.31006
"184",75.789734,645.3235
"185",75.70672,645.3369
"186",75.66277,645.35034
"187",75.650566,645.3638
"188",75.65545,645.3772
"189",75.665215,645.3906
"190",75.684746,645.40405
"191",75.71404,645.4175
"192",75.75067,645.4309
"193",75.78729,645.44434
"194",75.82147,645.45776
"195",75.84589,645.4712
"196",75.843445,645.4846
"197",75.81171,645.49805
"198",75.74578,645.5115
"199",75.64568,645.5249
"200",75.51873,645.5383
"201",75.372246,645.55176
"202",75.23064,645.5652
"203",75.11833,645.5786
"204",75.071945,645.59204
"205",75.17204,645.60547
"206",75.57244,645.6189
"207",76.453804,645.6323
"208",77.95285,645.64575
"209",80.09155,645.6592
"210",82.74296,645.6726
"211",85.63607,645.68604
"212",88.40223,645.69946
"213",90.702065,645.7129
"214",92.3061,645.7263
"215",93.12398,645.73975
"216",93.18501,645.7532
"217",92.6186,645.7666
"218",91.615166,645.78
"219",90.372475,645.79346
"220",89.04677,645.8069
"221",87.743034,645.8203
"222",86.51743,645.83374
"223",85.39437,645.84717
"224",84.3885,645.8606
"225",83.5169,645.874
"226",82.80644,645.88745
"227",82.27421,645.9009
"228",81.91531,645.9143
"229",81.705345,645.92773
"230",81.59304,645.94116
"231",81.532005,645.9546
"232",81.463646,645.968
"233",81.341576,645.98145
"234",81.13405,645.9949
"235",80.82643,646.0083
"236",80.413826,646.0217
"237",79.91577,646.03516
"238",79.35912,646.0486
"239",78.77074,646.062
"240",78.187225,646.07544
"241",77.628136,646.08887
"242",77.12276,646.1023
"243",76.69306,646.1157
"244",76.34394,646.12915
"245",76.07294,646.1426
"246",75.877625,646.156
"247",75.74578,646.16943
"248",75.667656,646.18286
"249",75.62371,646.1963
"250",75.60418,646.2097
"251",75.60174,646.22314
"252",75.6115,646.2366
"253",75.62371,646.25
"254",75.648125,646.2634
"255",75.682304,646.27686
"256",75.716484,646.2903
"257",75.74822,646.3037
"258",75.76044,646.31714
"259",75.74334,646.33057
"260",75.69451,646.344
"261",75.60662,646.3574
"262",75.48211,646.37085
"263",75.33318,646.3843
"264",75.17937,646.3977
"265",75.04753,646.41113
"266",74.97185,646.42456
"267",75.001144,646.438
"268",75.2575,646.4514
"269",75.90448,646.46484
"270",77.09102,646.4783
"271",78.90013,646.4917
"272",81.28298,646.5051
"273",84.03204,646.51855
"274",86.83238,646.532
"275",89.322655,646.5454
"276",91.22209,646.55884
"277",92.37446,646.57227
"278",92.76021,646.5857
"279",92.45258,646.5991
"280",91.61761,646.61255
"281",90.44816,646.626
"282",89.12245,646.6394
"283",87.76013,646.65283
"284",86.44175,646.66626
"285",85.22102,646.6797
"286",84.122375,646.6931
"287",83.175095,646.70654
"288",82.406044,646.72
"289",81.83719,646.7334
"290",81.47341,646.7468
"291",81.28298,646.76025
"292",81.20241,646.7737
"293",81.180435,646.7871
"294",81.15114,646.80054
"295",81.06081,646.81396
"296",80.88258,646.8274
"297",80.60914,646.8408
"298",80.235596,646.85425
"299",79.77661,646.8677
"300",79.25414,646.8811
"301",78.692604,646.89453
"302",78.116425,646.90796
"303",77.56466,646.9214
"304",77.06172,646.9348
"305",76.612495,646.94824
"306",76.23895,646.9617
"307",75.93622,646.9751
"308",75.699394,646.9885
"309",75.52117,647.00195
"310",75.3991,647.0154
"311",75.3283,647.0288
"312",75.299,647.04224
"313",75.29412,647.05566
"314",75.30877,647.0691
"315",75.34539,647.0825
"316",75.39178,647.09595
"317",75.44305,647.1094
"318",75.49676,647.1228
"319",75.545586,647.1362
"320",75.56512,647.14966
"321",75.54803,647.1631
"322",75.491875,647.1765
"323",75.3991,647.18994
"324",75.27703,647.20337
"325",75.142746,647.2168
"326",75.018234,647.2302
"327",74.92546,647.24365
"328",74.896164,647.2571
"329",75.003586,647.2705
"330",75.37469,647.28394
"331",76.16815,647.29736
"332",77.51827,647.3108
"333",79.45922,647.3242
"334",81.89578,647.33765
"335",84.59846,647.3511
"336",87.24254,647.3645
"337",89.48867,647.3779
"338",91.10246,647.39136
"339",91.97162,647.4048
"340",92.09857,647.4182
"341",91.58343,647.43164
"342",90.59464,647.44507
"343",89.305565,647.4585
"344",87.87488,647.4719
"345",86.414894,647.48535
"346",85.00618,647.4988
"347",83.70977,647.5122
"348",82.58427,647.52563
"349",81.688255,647.53906
"350",81.05592,647.5525
"351",80.70191,647.5659
"352",80.59449,647.57935
"353",80.67506,647.5928
"354",80.850845,647.6062
"355",81.03395,647.6196
"356",81.1487,647.63306
"357",81.14137,647.6465
"358",80.990005,647.6599
"359",80.689705,647.67334
"360",80.26002,647.68677
"361",79.73754,647.7002
"362",79.151596,647.7136
"363",78.538795,647.72705
"364",77.93088,647.7405
"365",77.35958,647.7539
"366",76.8542,647.76733
"367",76.42939,647.78076
"368",76.09735,647.7942
"369",75.85809,647.8076
"370",75.71404,647.82104
"371",75.65545,647.8345
"372",75.6701,647.8479
"373",75.736015,647.8613
"374",75.841,647.87476
"375",75.95331,647.8882
"376",76.050964,647.9016
"377",76.11444,647.91504
"378",76.138855,647.92847
"379",76.11444,647.9419
"380",76.04852,647.9553
"381",75.95087,647.96875
"382",75.83368,647.9822
"383",75.72381,647.9956
"384",75.63348,648.00903
"385",75.59197,648.02246
"386",75.665215,648.0359
"387",75.96796,648.0493
"388",76.65888,648.06274
"389",77.874725,648.0762
"390",79.66674,648.0896
"391",81.94705,648.103
"392",84.49592,648.11646
"393",86.99596,648.1299
"394",89.11513,648.1433
"395",90.61173,648.15674
"396",91.371025,648.17017
"397",91.393,648.1836
"398",90.7802,648.197
"399",89.68398,648.21045
"400",88.28748,648.2239
"401",86.7396,648.2373
"402",85.14778,648.25073
"403",83.59991,648.26416
"404",82.18387,648.2776
"405",80.9778,648.291
"406",80.059814,648.30444
"407",79.483635,648.3179
"408",79.24437,648.3313
"409",79.29809,648.3447
"410",79.54467,648.35815
"411",79.871826,648.3716
"412",80.16968,648.385
"413",80.365,648.39844
"414",80.411385,648.41187
"415",80.274666,648.4253
"416",79.96216,648.4387
"417",79.49828,648.45215
"418",78.92943,648.4656
"419",78.28977,648.479
"420",77.64034,648.49243
"421",77.02266,648.50586
"422",76.47578,648.5193
"423",76.01434,648.5327
"424",75.66277,648.54614
"425",75.423515,648.5596
"426",75.29656,648.573
"427",75.264824,648.5864
"428",75.31365,648.59985
"429",75.41131,648.6133
"430",75.52117,648.6267
"431",75.62371,648.64014
"432",75.69207,648.65356
"433",75.716484,648.667
"434",75.69451,648.6804
"435",75.6408,648.69385
"436",75.57,648.7073
"437",75.50164,648.7207
"438",75.457695,648.73413
"439",75.46502,648.74756
"440",75.59441,648.761
"441",75.982605,648.7744
"442",76.805374,648.78784
"443",78.204315,648.8013
"444",80.21362,648.8147
"445",82.72343,648.8281
"446",85.47494,648.84155
"447",88.111694,648.855
"448",90.29191,648.8684
"449",91.78363,648.88184
"450",92.48676,648.89526
"451",92.420845,648.9087
"452",91.720146,648.9221
"453",90.55558,648.93555
"454",89.112686,648.949
"455",87.55016,648.9624
"456",85.980316,648.9758
"457",84.48371,648.98926
"458",83.12627,649.0027
"459",81.969025,649.0161
"460",81.06081,649.02954
"461",80.448006,649.04297
"462",80.13306,649.0564
"463",80.076904,649.0698
"464",80.198975,649.08325
"465",80.4065,649.0967
"466",80.59693,649.1101
"467",80.69703,649.12354
"468",80.65308,649.13696
"469",80.45289,649.1504
"470",80.09155,649.1638
"471",79.59594,649.17725
"472",79.00267,649.1907
"473",78.345924,649.2041
"474",77.6672,649.2175
"475",77.015335,649.23096
"476",76.42939,649.2444
"477",75.9411,649.2578
"478",75.57,649.27124
"479",75.32586,649.28467
"480",75.1989,649.2981
"481",75.16228,649.3115
"482",75.19646,649.32495
"483",75.26971,649.3384
"484",75.34783,649.3518
"485",75.40887,649.36523
"486",75.43572,649.37866
"487",75.41619,649.3921
"488",75.36248,649.4055
"489",75.2868,649.41895
"490",75.21599,649.4324
"491",75.17204,649.4458
"492",75.176926,649.4592
"493",75.299,649.47266
"494",75.667656,649.4861
"495",76.46357,649.4995
"496",77.85031,649.51294
"497",79.8938,649.52637
"498",82.49882,649.5398
"499",85.40658,649.5532
"500",88.24353,649.56665
"501",90.63126,649.5801
"502",92.298775,649.5935
"503",93.12886,649.60693
"504",93.15083,649.62036
"505",92.50385,649.6338
"506",91.388115,649.6472
"507",90.0087,649.66064
"508",88.5243,649.6741
"509",87.044785,649.6875
"510",85.63119,649.7009
"511",84.32258,649.71436
"512",83.158005,649.7278
"513",82.1741,649.7412
"514",81.41482,649.75464
"515",80.89967,649.76807
"516",80.60914,649.7815
"517",80.48707,649.7949
"518",80.46754,649.80835
"519",80.46998,649.8218
"520",80.42359,649.8352
"521",80.27711,649.84863
"522",80.0061,649.86206
"523",79.605705,649.8755
"524",79.09056,649.8889
"525",78.487526,649.90234
"526",77.84299,649.9158
"527",77.19112,649.9292
"528",76.56611,649.9426
"529",76.00214,649.95605
"530",75.51873,649.9695
"531",75.1281,649.9829
"532",74.83513,649.99634
"533",74.64469,650.00977
"534",74.55192,650.0232
"535",74.54215,650.0366
"536",74.59342,650.05005
"537",74.686195,650.0635
"538",74.78142,650.0769
"539",74.847336,650.09033
"540",74.86931,650.10376
"541",74.83513,650.1172
"542",74.73991,650.1306
"543",74.60563,650.14404
"544",74.4567,650.1575
"545",74.322426,650.1709
"546",74.232086,650.1843
"547",74.232086,650.19775
"548",74.41764,650.2112
"549",74.95476,650.2246
"550",76.03876,650.23804
"551",77.79416,650.25146
"552",80.22095,650.2649
"553",83.13115,650.2783
"554",86.19272,650.29175
"555",88.9955,650.3052
"556",91.18547,650.3186
"557",92.56733,650.33203
"558",93.09956,650.34546
"559",92.87984,650.3589
"560",92.09613,650.3723
"561",90.965744,650.38574
"562",89.67666,650.3992
"563",88.35096,650.4126
"564",87.05699,650.426
"565",85.8143,650.43945
"566",84.63996,650.4529
"567",83.563286,650.4663
"568",82.62089,650.47974
"569",81.85184,650.49316
"570",81.27322,650.5066
"571",80.87526,650.52
"572",80.61402,650.53345
"573",80.44312,650.5469
"574",80.2942,650.5603
"575",80.11597,650.5737
"576",79.86694,650.58716
"577",79.520256,650.6006
"578",79.07591,650.614
"579",78.553444,650.62744
"580",77.98215,650.64087
"581",77.3962,650.6543
"582",76.82735,650.6677
"583",76.299995,650.68115
"584",75.8288,650.6946
"585",75.4284,650.708
"586",75.10368,650.72144
"587",74.847336,650.73486
"588",74.649574,650.7483
"589",74.50797,650.7617
"590",74.40543,650.77515
"591",74.33463,650.7886
"592",74.288246,650.802
"593",74.26139,650.8154
"594",74.25407,650.82886
"595",74.26139,650.8423
"596",74.28092,650.8557
"597",74.29557,650.86914
"598",74.302895,650.88257
"599",74.288246,650.896
"600",74.23697,650.9094
"601",74.14664,650.92285
"602",74.0148,650.9363
"603",73.8439,650.9497
"604",73.651024,650.96313
"605",73.45815,650.97656
"606",73.29702,650.99
"607",73.199356,651.0034
"608",73.23598,651.01685
"609",73.54604,651.0303
"610",74.30045,651.0437
"611",75.65301,651.0571
"612",77.65499,651.07056
"613",80.20386,651.084
"614",83.0457,651.0974
"615",85.81918,651.11084
"616",88.16052,651.12427
"617",89.813385,651.1377
"618",90.687416,651.1511
"619",90.81438,651.16455
"620",90.34074,651.178
"621",89.47158,651.1914
"622",88.39979,651.20483
"623",87.2694,651.21826
"624",86.1561,651.2317
"625",85.08186,651.2451
"626",84.051575,651.25854
"627",83.072556,651.272
"628",82.161896,651.2854
"629",81.37087,651.2988
"630",80.723885,651.31226
"631",80.24048,651.3257
"632",79.90112,651.3391
"633",79.65942,651.35254
"634",79.466545,651.36597
"635",79.28588,651.3794
"636",79.078354,651.3928
"637",78.81712,651.40625
"638",78.48997,651.4197
"639",78.09689,651.4331
"640",77.65255,651.44653
"641",77.16914,651.45996
"642",76.67597,651.4734
"643",76.20477,651.4868
"644",75.775085,651.50024
"645",75.40154,651.5137
"646",75.089035,651.5271
"647",74.83513,651.5405
"648",74.632484,651.55396
"649",74.476234,651.5674
"650",74.36149,651.5808
"651",74.27848,651.59424
"652",74.21744,651.60767
"653",74.175934,651.6211
"654",74.14664,651.6345
"655",74.1149,651.64795
"656",74.0856,651.6614
"657",74.05875,651.6748
"658",74.03677,651.68823
"659",74.019684,651.70166
"660",74.00992,651.7151
"661",74.01724,651.7285
"662",74.039215,651.74194
"663",74.073395,651.7554
"664",74.11978,651.7688
"665",74.16617,651.7822
"666",74.212555,651.79565
"667",74.24185,651.8091
"668",74.23941,651.8225
"669",74.20523,651.83594
"670",74.13931,651.84937
"671",74.04654,651.8628
"672",73.94644,651.8762
"673",73.85367,651.88965
"674",73.797516,651.9031
"675",73.79996,651.9165
"676",73.92447,651.92993
"677",74.31022,651.94336
"678",75.13054,651.9568
"679",76.51972,651.9702
"680",78.51438,651.98364
"681",80.99977,651.9971
"682",83.70733,652.0105
"683",86.29038,652.0239
"684",88.41932,652.03735
"685",89.89151,652.0508
"686",90.650795,652.0642
"687",90.758224,652.07764
"688",90.36271,652.09106
"689",89.64492,652.1045
"690",88.77821,652.1179
"691",87.87732,652.13135
"692",87.00328,652.1448
"693",86.17563,652.1582
"694",85.382164,652.17163
"695",84.62043,652.18506
"696",83.90265,652.1985
"697",83.25567,652.2119
"698",82.71366,652.22534
"699",82.28886,652.2388
"700",81.97879,652.2522
"701",81.75174,652.2656
"702",81.566185,652.27905
"703",81.38796,652.2925
"704",81.19264,652.3059
"705",80.96071,652.31934
"706",80.6775,652.33276
"707",80.34058,652.3462
"708",79.95972,652.3596
"709",79.54711,652.37305
"710",79.11742,652.3865
"711",78.69016,652.3999
"712",78.294655,652.4133
"713",77.943085,652.42676
"714",77.6379,652.4402
"715",77.38888,652.4536
"716",77.19112,652.46704
"717",77.04219,652.48047
"718",76.93233,652.4939
"719",76.84688,652.5073
"720",76.77852,652.52075
"721",76.72236,652.5342
"722",76.66621,652.5476
"723",76.610054,652.56104
"724",76.558784,652.57446
"725",76.50507,652.5879
"726",76.44892,652.6013
"727",76.39521,652.61475
"728",76.33906,652.6282
"729",76.28535,652.6416
"730",76.23895,652.655
"731",76.207214,652.66846
"732",76.190125,652.6819
"733",76.18524,652.6953
"734",76.18768,652.70874
"735",76.190125,652.72217
"736",76.18524,652.7356
"737",76.16327,652.749
"738",76.11688,652.76245
"739",76.03876,652.7759
"740",75.928894,652.7893
"741",75.80194,652.80273
"742",75.67498,652.81616
"743",75.579765,652.8296
"744",75.545586,652.843
"745",75.650566,652.85645
"746",76.016785,652.8699
"747",76.79561,652.8833
"748",78.10666,652.8967
"749",79.9646,652.91016
"750",82.24246,652.9236
"751",84.67658,652.937
"752",86.95445,652.95044
"753",88.7831,652.96387
"754",89.98917,652.9773
"755",90.53849,652.9907
"756",90.50187,653.00415
"757",90.01846,653.0176
"758",89.25918,653.031
"759",88.38514,653.04443
"760",87.49645,653.05786
"761",86.65659,653.0713
"762",85.86801,653.0847
"763",85.120926,653.09814
"764",84.403145,653.1116
"765",83.72686,653.125
"766",83.13115,653.1384
"767",82.64286,653.15186
"768",82.28397,653.1653
"769",82.05203,653.1787
"770",81.917755,653.19214
"771",81.832306,653.20557
"772",81.74929,653.219
"773",81.634544,653.2324
"774",81.45876,653.24585
"775",81.20729,653.2593
"776",80.88991,653.2727
"777",80.51148,653.28613
"778",80.09888,653.29956
"779",79.66674,653.313
"780",79.234604,653.3264
"781",78.82201,653.33984
"782",78.44114,653.3533
"783",78.10422,653.3667
"784",77.81613,653.3801
"785",77.58175,653.39355
"786",77.39376,653.407
"787",77.24483,653.4204
"788",77.12276,653.43384
"789",77.02022,653.44727
"790",76.927444,653.4607
"791",76.841995,653.4741
"792",76.756546,653.48755
"793",76.67841,653.501
"794",76.60761,653.5144
"795",76.54902,653.52783
"796",76.49775,653.54126
"797",76.453804,653.5547
"798",76.41718,653.5681
"799",76.387886,653.58154
"800",76.36591,653.595
"801",76.35615,653.6084
"802",76.35615,653.6218
"803",76.36591,653.63525
"804",76.37568,653.6487
"805",76.38056,653.6621
"806",76.3708,653.67554
"807",76.34638,653.68896
"808",76.29267,653.7024
"809",76.2121,653.7158
"810",76.09979,653.72925
"811",75.97284,653.7427
"812",75.85565,653.7561
"813",75.775085,653.76953
"814",75.792175,653.78296
"815",76.02899,653.7964
"816",76.63447,653.8098
"817",77.738,653.82324
"818",79.39086,653.8367
"819",81.514915,653.8501
"820",83.90265,653.8635
"821",86.24399,653.87695
"822",88.23132,653.8904
"823",89.65713,653.9038
"824",90.43595,653.91724
"825",90.60441,653.93066
"826",90.269936,653.9441
"827",89.59121,653.9575
"828",88.72694,653.97095
"829",87.799194,653.9844
"830",86.89342,653.9978
"831",86.05356,654.0112
"832",85.279625,654.02466
"833",84.576485,654.0381
"834",83.94171,654.0515
"835",83.389946,654.06494
"836",82.930954,654.07837
"837",82.58427,654.0918
"838",82.34501,654.1052
"839",82.19119,654.11865
"840",82.09354,654.1321
"841",82.01541,654.1455
"842",81.92996,654.15894
"843",81.80545,654.17236
"844",81.62478,654.1858
"845",81.373314,654.1992
"846",81.05592,654.21265
"847",80.6775,654.2261
"848",80.257576,654.2395
"849",79.81079,654.2529
"850",79.364006,654.26636
"851",78.93431,654.2798
"852",78.54124,654.2932
"853",78.19699,654.30664
"854",77.908905,654.32007
"855",77.679405,654.3335
"856",77.503624,654.3469
"857",77.36935,654.36035
"858",77.261925,654.3738
"859",77.17647,654.3872
"860",77.10567,654.40063
"861",77.03731,654.41406
"862",76.97383,654.4275
"863",76.91524,654.4409
"864",76.86153,654.45435
"865",76.805374,654.4678
"866",76.75166,654.4812
"867",76.697945,654.4946
"868",76.64912,654.50806
"869",76.610054,654.5215
"870",76.5832,654.5349
"871",76.56611,654.54834
"872",76.55146,654.56177
"873",76.53193,654.5752
"874",76.49531,654.5886
"875",76.44404,654.60205
"876",76.37324,654.6155
"877",76.282906,654.6289
"878",76.18524,654.64233
"879",76.087585,654.65576
"880",76.00214,654.6692
"881",75.93622,654.6826
"882",75.93622,654.69604
"883",76.10956,654.7095
"884",76.612495,654.7229
"885",77.59884,654.7363
"886",79.151596,654.74976
"887",81.214615,654.7632
"888",83.59014,654.7766
"889",85.98276,654.79004
"890",88.07019,654.80347
"891",89.62295,654.8169
"892",90.531166,654.8303
"893",90.79729,654.84375
"894",90.52384,654.8572
"895",89.867096,654.8706
"896",88.990616,654.88403
"897",88.03357,654.89746
"898",87.08873,654.9109
"899",86.19516,654.9243
"900",85.36019,654.93774
"901",84.58137,654.9512
"902",83.87091,654.9646
"903",83.250786,654.978
"904",82.75273,654.99146
"905",82.391396,655.0049
"906",82.17166,655.0183
"907",82.0618,655.03174
"908",82.01785,655.04517
"909",81.991,655.0586
"910",81.93973,655.072
"911",81.83475,655.08545
"912",81.65896,655.0989
"913",81.40505,655.1123
"914",81.077896,655.12573
"915",80.68482,655.13916
"916",80.24292,655.1526
"917",79.76929,655.166
"918",79.28832,655.17944
"919",78.82445,655.1929
"920",78.40208,655.2063
"921",78.03342,655.2197
"922",77.71603,655.23315
"923",77.452354,655.2466
"924",77.239944,655.26
"925",77.069046,655.27344
"926",76.93233,655.28687
"927",76.83223,655.3003
"928",76.754105,655.3137
"929",76.697945,655.32715
"930",76.64912,655.3406
"931",76.610054,655.354
"932",76.575874,655.36743
"933",76.55146,655.38086
"934",76.53437,655.3943
"935",76.52949,655.4077
"936",76.524605,655.42114
"937",76.51728,655.4346
"938",76.49287,655.448
"939",76.45136,655.4614
"940",76.387886,655.47485
"941",76.3122,655.4883
"942",76.21942,655.5017
"943",76.11688,655.51514
"944",76.0119,655.52856
"945",75.90692,655.542
"946",75.81415,655.5554
"947",75.76776,655.56885
"948",75.83368,655.5823
"949",76.15106,655.5957
"950",76.8835,655.60913
"951",78.14084,655.62256
"952",79.937744,655.636
"953",82.161896,655.6494
"954",84.56428,655.66284
"955",86.83238,655.6763
"956",88.687874,655.6897
"957",89.94766,655.7031
"958",90.562904,655.71655
"959",90.57511,655.73
"960",90.10635,655.7434
"961",89.31045,655.75684
"962",88.341194,655.77026
"963",87.31823,655.7837
"964",86.31724,655.7971
"965",85.36263,655.81055
"966",84.46906,655.824
"967",83.65362,655.8374
"968",82.933395,655.8508
"969",82.340126,655.86426
"970",81.898224,655.8777
"971",81.62234,655.8911
"972",81.50027,655.90454
"973",81.478294,655.91797
"974",81.50759,655.9314
"975",81.529564,655.9448
"976",81.495384,655.95825
"977",81.37087,655.9717
"978",81.143814,655.9851
"979",80.81178,655.99854
"980",80.39918,656.01196
"981",79.93042,656.0254
"982",79.429924,656.0388
"983",78.92943,656.05225
"984",78.45335,656.0657
"985",78.013885,656.0791
"986",77.628136,656.0925
"987",77.30343,656.10596
"988",77.04463,656.1194
"989",76.84688,656.1328
"990",76.700386,656.14624
"991",76.59785,656.15967
"992",76.53193,656.1731
"993",76.490425,656.1865
"994",76.46357,656.19995
"995",76.44648,656.2134
"996",76.43427,656.2268
"997",76.41718,656.24023
"998",76.402534,656.25366
"999",76.387886,656.2671
"1000",76.37324,656.2805
"1001",76.35615,656.29395
"1002",76.32441,656.3074
"1003",76.26826,656.3208
"1004",76.18768,656.3342
"1005",76.085144,656.34766
"1006",75.96307,656.3611
"1007",75.83124,656.3745
"1008",75.69695,656.38794
"1009",75.58221,656.40137
"1010",75.50164,656.4148
"1011",75.491875,656.4282
"1012",75.65545,656.44165
"1013",76.138855,656.4551
"1014",77.08125,656.4685
"1015",78.572975,656.48193
"1016",80.56519,656.49536
"1017",82.88457,656.5088
"1018",85.25033,656.5222
"1019",87.35241,656.53564
"1020",88.94911,656.5491
"1021",89.92081,656.5625
"1022",90.25529,656.5759
"1023",90.037994,656.58936
"1024",89.40322,656.6028
"1025",88.514534,656.6162
"1026",87.50622,656.62964
"1027",86.485695,656.64307
"1028",85.50912,656.6565
"1029",84.60334,656.6699
"1030",83.78058,656.68335
"1031",83.06035,656.6968
"1032",82.46464,656.7102
"1033",82.005646,656.72363
"1034",81.69558,656.73706
"1035",81.532005,656.7505
"1036",81.47341,656.7639
"1037",81.46853,656.77734
"1038",81.46853,656.7908
"1039",81.43435,656.8042
"1040",81.322044,656.8176
"1041",81.11696,656.83105
"1042",80.82399,656.8445
"1043",80.45045,656.8579
"1044",80.01587,656.87134
"1045",79.53979,656.88477
"1046",79.05394,656.8982
"1047",78.58274,656.9116
"1048",78.14572,656.92505
"1049",77.76242,656.9385
"1050",77.44259,656.9519
"1051",77.17647,656.96533
"1052",76.964066,656.97876
"1053",76.80049,656.9922
"1054",76.67353,657.0056
"1055",76.57343,657.01904
"1056",76.49775,657.0325
"1057",76.439156,657.0459
"1058",76.39277,657.0593
"1059",76.35859,657.07275
"1060",76.334175,657.0862
"1061",76.32197,657.0996
"1062",76.3122,657.11304
"1063",76.30244,657.12646
"1064",76.282906,657.1399
"1065",76.24872,657.1533
"1066",76.19501,657.16675
"1067",76.11932,657.1802
"1068",76.02167,657.1936
"1069",75.90204,657.20703
"1070",75.775085,657.22046
"1071",75.66033,657.2339
"1072",75.579765,657.2473
"1073",75.560234,657.26074
"1074",75.67498,657.2742
"1075",76.05585,657.2876
"1076",76.84688,657.301
"1077",78.15549,657.31445
"1078",79.98901,657.3279
"1079",82.22049,657.3413
"1080",84.610664,657.35474
"1081",86.854355,657.36816
"1082",88.67811,657.3816
"1083",89.915924,657.395
"1084",90.51652,657.40845
"1085",90.51896,657.4219
"1086",90.0502,657.4353
"1087",89.25918,657.4487
"1088",88.29481,657.46216
"1089",87.27184,657.4756
"1090",86.27085,657.489
"1091",85.32113,657.50244
"1092",84.437325,657.51587
"1093",83.63653,657.5293
"1094",82.9456,657.5427
"1095",82.38407,657.55615
"1096",81.971466,657.5696
"1097",81.71511,657.583
"1098",81.58816,657.59644
"1099",81.53689,657.60986
"1100",81.50759,657.6233
"1101",81.45388,657.6367
"1102",81.33425,657.65015
"1103",81.129166,657.6636
"1104",80.83864,657.677
"1105",80.465096,657.6904
"1106",80.028076,657.70386
"1107",79.54223,657.7173
"1108",79.03441,657.7307
"1109",78.52659,657.74414
"1110",78.05051,657.75757
"1111",77.625694,657.771
"1112",77.264366,657.7844
"1113",76.96895,657.79785
"1114",76.74189,657.8113
"1115",76.575874,657.8247
"1116",76.456245,657.83813
"1117",76.38056,657.85156
"1118",76.33173,657.865
"1119",76.30976,657.8784
"1120",76.30488,657.89185
"1121",76.3122,657.9053
"1122",76.32197,657.9187
"1123",76.334175,657.9321
"1124",76.33662,657.94556
"1125",76.31953,657.959
"1126",76.27558,657.9724
"1127",76.19989,657.98584
"1128",76.09491,657.99927
"1129",75.96063,658.0127
"1130",75.81171,658.0261
"1131",75.665215,658.03955
"1132",75.55047,658.053
"1133",75.48455,658.0664
"1134",75.52117,658.07983
"1135",75.76288,658.09326
"1136",76.35615,658.1067
"1137",77.4255,658.1201
"1138",79.02464,658.13354
"1139",81.0901,658.147
"1140",83.42901,658.1604
"1141",85.75571,658.1738
"1142",87.7699,658.18726
"1143",89.24696,658.2007
"1144",90.08194,658.2141
"1145",90.27726,658.22754
"1146",89.92813,658.24097
"1147",89.19081,658.2544
"1148",88.22888,658.2678
"1149",87.17906,658.28125
"1150",86.134125,658.2947
"1151",85.12825,658.3081
"1152",84.18585,658.32153
"1153",83.32647,658.33496
"1154",82.564735,658.3484
"1155",81.934845,658.3618
"1156",81.45632,658.37524
"1157",81.13405,658.3887
"1158",80.94118,658.4021
"1159",80.83864,658.4155
"1160",80.77028,658.42896
"1161",80.69703,658.4424
"1162",80.57252,658.4558
"1163",80.37476,658.46924
"1164",80.096436,658.48267
"1165",79.7351,658.4961
"1166",79.31762,658.5095
"1167",78.853745,658.52295
"1168",78.37034,658.5364
"1169",77.891815,658.5498
"1170",77.44015,658.56323
"1171",77.032425,658.57666
"1172",76.6833,658.5901
"1173",76.39277,658.6035
"1174",76.16571,658.61694
"1175",75.99725,658.6304
"1176",75.880066,658.6438
"1177",75.79706,658.6572
"1178",75.74578,658.67065
"1179",75.716484,658.6841
"1180",75.69695,658.6975
"1181",75.69451,658.71094
"1182",75.69695,658.72437
"1183",75.70672,658.7378
"1184",75.70916,658.7512
"1185",75.699394,658.76465
"1186",75.66277,658.7781
"1187",75.596855,658.7915
"1188",75.50164,658.80493
"1189",75.38201,658.81836
"1190",75.250175,658.8318
"1191",75.1281,658.8452
"1192",75.03288,658.85864
"1193",74.99138,658.8721
"1194",75.037766,658.8855
"1195",75.26238,658.8989
"1196",75.7995,658.91235
"1197",76.7834,658.9258
"1198",78.27512,658.9392
"1199",80.235596,658.95264
"1200",82.50126,658.96606
"1201",84.79866,658.9795
"1202",86.82994,658.9929
"1203",88.3534,659.00635
"1204",89.254295,659.0198
"1205",89.52773,659.0332
"1206",89.254295,659.04663
"1207",88.587776,659.06006
"1208",87.69421,659.0735
"1209",86.712746,659.0869
"1210",85.73373,659.10034
"1211",84.79866,659.1138
"1212",83.91974,659.1272
"1213",83.11162,659.1406
"1214",82.388954,659.15405
"1215",81.778595,659.1675
"1216",81.30251,659.1809
"1217",80.97536,659.19434
"1218",80.78493,659.20776
"1219",80.68726,659.2212
"1220",80.635994,659.2346
"1221",80.58961,659.24805
"1222",80.50172,659.2615
"1223",80.34547,659.2749
"1224",80.1062,659.2883
"1225",79.78638,659.30176
"1226",79.395744,659.3152
"1227",78.95384,659.3286
"1228",78.485085,659.34204
"1229",78.02609,659.35547
"1230",77.60616,659.3689
"1231",77.23018,659.3823
"1232",76.91524,659.39575
"1233",76.65888,659.4092
"1234",76.45869,659.4226
"1235",76.30244,659.43604
"1236",76.190125,659.44946
"1237",76.10712,659.4629
"1238",76.053406,659.4763
"1239",76.016785,659.48975
"1240",75.999695,659.5032
"1241",75.99725,659.5166
"1242",76.00214,659.53
"1243",76.01434,659.54346
"1244",76.02655,659.5569
"1245",76.02655,659.5703
"1246",76.00946,659.58374
"1247",75.97284,659.59717
"1248",75.914246,659.6106
"1249",75.83612,659.624
"1250",75.73846,659.63745
"1251",75.62859,659.6509
"1252",75.52117,659.6643
"1253",75.43084,659.67773
"1254",75.372246,659.69116
"1255",75.37713,659.7046
"1256",75.528496,659.718
"1257",75.96063,659.73145
"1258",76.81514,659.7449
"1259",78.1799,659.7583
"1260",80.042725,659.7717
"1261",82.25712,659.78516
"1262",84.56184,659.7986
"1263",86.64439,659.812
"1264",88.26063,659.82544
"1265",89.2665,659.83887
"1266",89.652245,659.8523
"1267",89.495995,659.8657
"1268",88.94667,659.87915
"1269",88.1532,659.8926
"1270",87.26452,659.906
"1271",86.366066,659.91943
"1272",85.49691,659.93286
"1273",84.6717,659.9463
"1274",83.89288,659.9597
"1275",83.16777,659.97314
"1276",82.51591,659.9866
"1277",81.9617,660
"1278",81.52468,660.0134
"1279",81.214615,660.02686
"1280",81.004654,660.0403
"1281",80.86549,660.0537
"1282",80.75319,660.06714
"1283",80.62379,660.08057
"1284",80.448006,660.094
"1285",80.20874,660.1074
"1286",79.89868,660.12085
"1287",79.52758,660.1343
"1288",79.11742,660.1477
"1289",78.68772,660.16113
"1290",78.25803,660.17456
"1291",77.84787,660.188
"1292",77.47921,660.2014
"1293",77.15694,660.21484
"1294",76.8835,660.2283
"1295",76.663765,660.2417
"1296",76.490425,660.2551
"1297",76.35615,660.26855
"1298",76.24872,660.282
"1299",76.16327,660.2954
"1300",76.09003,660.30884
"1301",76.02899,660.32227
"1302",75.98016,660.3357
"1303",75.94354,660.3491
"1304",75.91669,660.36255
"1305",75.90204,660.376
"1306",75.894714,660.3894
"1307",75.88983,660.40283
"1308",75.89227,660.41626
"1309",75.88983,660.4297
"1310",75.88251,660.4431
"1311",75.860535,660.45654
"1312",75.81415,660.47
"1313",75.74334,660.4834
"1314",75.65789,660.4968
"1315",75.562675,660.51025
"1316",75.47234,660.5237
"1317",75.403984,660.5371
"1318",75.37713,660.55054
"1319",75.423515,660.56396
"1320",75.62615,660.5774
"1321",76.11932,660.5908
"1322",77.02998,660.60425
"1323",78.4387,660.6177
"1324",80.32105,660.6311
"1325",82.52567,660.64453
"1326",84.78645,660.65796
"1327",86.80553,660.6714
"1328",88.34852,660.6848
"1329",89.288475,660.69824
"1330",89.62539,660.7117
"1331",89.45205,660.7251
"1332",88.9247,660.7385
"1333",88.20203,660.75195
"1334",87.40856,660.7654
"1335",86.61753,660.7788
"1336",85.85092,660.79224
"1337",85.09895,660.80566
"1338",84.35676,660.8191
"1339",83.64141,660.8325
"1340",82.967575,660.84595
"1341",82.37919,660.8594
"1342",81.90555,660.8728
"1343",81.55154,660.8862
"1344",81.304955,660.89966
"1345",81.13405,660.9131
"1346",80.987564,660.9265
"1347",80.83864,660.93994
"1348",80.65308,660.95337
"1349",80.40894,660.9668
"1350",80.10864,660.9802
"1351",79.7522,660.99365
"1352",79.34936,661.0071
"1353",78.91722,661.0205
"1354",78.485085,661.03394
"1355",78.07492,661.04736
"1356",77.70382,661.0608
"1357",77.38888,661.0742
"1358",77.12764,661.08765
"1359",76.91524,661.1011
"1360",76.734566,661.1145
"1361",76.58564,661.1279
"1362",76.46357,661.14136
"1363",76.36103,661.1548
"1364",76.27558,661.1682
"1365",76.20233,661.18164
"1366",76.14618,661.19507
"1367",76.09735,661.2085
"1368",76.06073,661.2219
"1369",76.03876,661.23535
"1370",76.03143,661.2488
"1371",76.033875,661.2622
"1372",76.0412,661.27563
"1373",76.04608,661.28906
"1374",76.04608,661.3025
"1375",76.02655,661.3159
"1376",75.98749,661.32935
"1377",75.92401,661.3428
"1378",75.84589,661.3562
"1379",75.76044,661.3696
"1380",75.67742,661.38306
"1381",75.60418,661.3965
"1382",75.560234,661.4099
"1383",75.55535,661.42334
"1384",75.63836,661.43677
"1385",75.90936,661.4502
"1386",76.49531,661.4636
"1387",77.51827,661.47705
"1388",79.027084,661.4905
"1389",80.953384,661.5039
"1390",83.1165,661.51733
"1391",85.24788,661.53076
"1392",87.0692,661.5442
"1393",88.377815,661.5576
"1394",89.09804,661.57104
"1395",89.25918,661.5845
"1396",88.96864,661.5979
"1397",88.38514,661.6113
"1398",87.66247,661.62476
"1399",86.90318,661.6382
"1400",86.151215,661.6516
"1401",85.41634,661.66504
"1402",84.69123,661.67847
"1403",83.96857,661.6919
"1404",83.27032,661.7053
"1405",82.62577,661.71875
"1406",82.074005,661.7322
"1407",81.64919,661.7456
"1408",81.341576,661.75903
"1409",81.129166,661.77246
"1410",80.98512,661.7859
"1411",80.86549,661.7993
"1412",80.72877,661.81274
"1413",80.54566,661.8262
"1414",80.29908,661.8396
"1415",79.98901,661.853
"1416",79.622795,661.86646
"1417",79.2224,661.8799
"1418",78.81224,661.8933
"1419",78.41184,661.90674
"1420",78.04074,661.92017
"1421",77.7087,661.9336
"1422",77.42306,661.947
"1423",77.18135,661.96045
"1424",76.98604,661.9739
"1425",76.83711,661.9873
"1426",76.71992,662.00073
"1427",76.627144,662.01416
"1428",76.55634,662.0276
"1429",76.50019,662.041
"1430",76.45136,662.05444
"1431",76.40986,662.0679
"1432",76.37324,662.0813
"1433",76.34638,662.0947
"1434",76.32441,662.10815
"1435",76.30488,662.1216
"1436",76.29023,662.135
"1437",76.282906,662.14844
"1438",76.28535,662.16187
"1439",76.29267,662.1753
"1440",76.297554,662.1887
"1441",76.297554,662.20215
"1442",76.28535,662.2156
"1443",76.24872,662.229
"1444",76.1828,662.24243
"1445",76.0827,662.25586
"1446",75.948425,662.2693
"1447",75.7995,662.2827
"1448",75.66277,662.29614
"1449",75.562675,662.3096
"1450",75.545586,662.323
"1451",75.68963,662.3364
"1452",76.10956,662.34985
"1453",76.929886,662.3633
"1454",78.23117,662.3767
"1455",80.01099,662.39014
"1456",82.1326,662.40356
"1457",84.35432,662.417
"1458",86.37827,662.4304
"1459",87.96521,662.44385
"1460",88.973526,662.4573
"1461",89.38613,662.4707
"1462",89.29092,662.48413
"1463",88.834366,662.49756
"1464",88.17273,662.511
"1465",87.44274,662.5244
"1466",86.710304,662.53784
"1467",85.99985,662.5513
"1468",85.30648,662.5647
"1469",84.613106,662.5781
"1470",83.92462,662.59155
"1471",83.27032,662.605
"1472",82.686806,662.6184
"1473",82.213165,662.63184
"1474",81.87381,662.64526
"1475",81.64919,662.6587
"1476",81.51003,662.6721
"1477",81.41238,662.68555
"1478",81.31228,662.699
"1479",81.17799,662.7124
"1480",80.98268,662.7258
"1481",80.72144,662.73926
"1482",80.4065,662.7527
"1483",80.04028,662.7661
"1484",79.64477,662.77954
"1485",79.24681,662.79297
"1486",78.85863,662.8064
"1487",78.49973,662.8198
"1488",78.184784,662.83325
"1489",77.91867,662.8467
"1490",77.70138,662.8601
"1491",77.51827,662.87354
"1492",77.37179,662.88696
"1493",77.25216,662.9004
"1494",77.152054,662.9138
"1495",77.066605,662.92725
"1496",77.00069,662.9407
"1497",76.93965,662.9541
"1498",76.8835,662.9675
"1499",76.824905,662.98096
"1500",76.76387,662.9944
"1501",76.70283,663.0078
"1502",76.65156,663.02124
"1503",76.60517,663.03467
"1504",76.575874,663.0481
"1505",76.558784,663.0615
"1506",76.54658,663.07495
"1507",76.53925,663.0884
"1508",76.53681,663.1018
"1509",76.53681,663.11523
"1510",76.52705,663.12866
"1511",76.50996,663.1421
"1512",76.48066,663.1555
"1513",76.42939,663.16895
"1514",76.36103,663.1824
"1515",76.28779,663.1958
"1516",76.22186,663.2092
"1517",76.16815,663.22266
"1518",76.14862,663.2361
"1519",76.21942,663.2495
"1520",76.4831,663.26294
"1521",77.083694,663.27637
"1522",78.1384,663.2898
"1523",79.693596,663.3032
"1524",81.668724,663.31665
"1525",83.86359,663.3301
"1526",85.99008,663.3435
"1527",87.784546,663.35693
"1528",89.05653,663.37036
"1529",89.740135,663.3838
"1530",89.867096,663.3972
"1531",89.56191,663.41064
"1532",88.97597,663.4241
"1533",88.2533,663.4375
"1534",87.501335,663.4509
"1535",86.77379,663.46436
"1536",86.07309,663.4778
"1537",85.39193,663.4912
"1538",84.715645,663.50464
"1539",84.04913,663.51807
"1540",83.421684,663.5315
"1541",82.87236,663.5449
"1542",82.42802,663.55835
"1543",82.09598,663.5718
"1544",81.85672,663.5852
"1545",81.68337,663.59863
"1546",81.53933,663.61206
"1547",81.3782,663.6255
"1548",81.17067,663.6389
"1549",80.90944,663.65234
"1550",80.59205,663.6658
"1551",80.23071,663.6792
"1552",79.84253,663.6926
"1553",79.44213,663.70605
"1554",79.04906,663.7195
"1555",78.677956,663.7329
"1556",78.34104,663.74634
"1557",78.05051,663.75977
"1558",77.80881,663.7732
"1559",77.611046,663.7866
"1560",77.44991,663.80005
"1561",77.31808,663.8135
"1562",77.205765,663.8269
"1563",77.11055,663.84033
"1564",77.0251,663.85376
"1565",76.946976,663.8672
"1566",76.876175,663.8806
"1567",76.805374,663.89404
"1568",76.74189,663.9075
"1569",76.68574,663.9209
"1570",76.63935,663.9343
"1571",76.60761,663.94775
"1572",76.59052,663.9612
"1573",76.58564,663.9746
"1574",76.592964,663.98804
"1575",76.60029,664.00146
"1576",76.60517,664.0149
"1577",76.595406,664.0283
"1578",76.57099,664.04175
"1579",76.524605,664.0552
"1580",76.453804,664.0686
"1581",76.3708,664.08203
"1582",76.282906,664.09546
"1583",76.207214,664.1089
"1584",76.1535,664.1223
"1585",76.14618,664.13574
"1586",76.21942,664.1492
"1587",76.44892,664.1626
"1588",76.961624,664.176
"1589",77.874725,664.18945
"1590",79.24925,664.2029
"1591",81.05592,664.2163
"1592",83.14336,664.22974
"1593",85.25521,664.24316
"1594",87.113144,664.2566
"1595",88.50721,664.27
"1596",89.325096,664.28345
"1597",89.57412,664.2969
"1598",89.34463,664.3103
"1599",88.79042,664.3237
"1600",88.06287,664.33716
"1601",87.28161,664.3506
"1602",86.51255,664.364
"1603",85.78012,664.37744
"1604",85.07698,664.39087
"1605",84.39582,664.4043
"1606",83.74151,664.4177
"1607",83.13847,664.43115
"1608",82.61845,664.4446
"1609",82.20584,664.458
"1610",81.900665,664.47144
"1611",81.68337,664.48486
"1612",81.53445,664.4983
"1613",81.409935,664.5117
"1614",81.270775,664.52515
"1615",81.0901,664.5386
"1616",80.85329,664.552
"1617",80.550545,664.5654
"1618",80.18677,664.57886
"1619",79.77905,664.5923
"1620",79.3518,664.6057
"1621",78.922104,664.61914
"1622",78.504616,664.63257
"1623",78.12375,664.646
"1624",77.79172,664.6594
"1625",77.51583,664.67285
"1626",77.296104,664.6863
"1627",77.13008,664.6997
"1628",77.00313,664.71313
"1629",76.90059,664.72656
"1630",76.81514,664.74
"1631",76.73701,664.7534
"1632",76.66865,664.76685
"1633",76.610054,664.7803
"1634",76.5539,664.7937
"1635",76.50263,664.8071
"1636",76.44404,664.82056
"1637",76.385445,664.834
"1638",76.33173,664.8474
"1639",76.28779,664.86084
"1640",76.25605,664.87427
"1641",76.23163,664.8877
"1642",76.209656,664.9011
"1643",76.175476,664.91455
"1644",76.12421,664.928
"1645",76.05829,664.9414
"1646",75.97284,664.95483
"1647",75.877625,664.96826
"1648",75.775085,664.9817
"1649",75.684746,664.9951
"1650",75.613945,665.00854
"1651",75.577324,665.022
"1652",75.58465,665.0354
"1653",75.667656,665.0488
"1654",75.91913,665.06226
"1655",76.46113,665.0757
"1656",77.40841,665.0891
"1657",78.81468,665.10254
"1658",80.62867,665.11597
"1659",82.669716,665.1294
"1660",84.67658,665.1428
"1661",86.37583,665.15625
"1662",87.57946,665.1697
"1663",88.20447,665.1831
"1664",88.28016,665.19653
"1665",87.91638,665.20996
"1666",87.2694,665.2234
"1667",86.49302,665.2368
"1668",85.68734,665.25024
"1669",84.90852,665.2637
"1670",84.1712,665.2771
"1671",83.46319,665.2905
"1672",82.78691,665.30396
"1673",82.15457,665.3174
"1674",81.59792,665.3308
"1675",81.13893,665.34424
"1676",80.797134,665.35767
"1677",80.55543,665.3711
"1678",80.40162,665.3845
"1679",80.29908,665.39795
"1680",80.20874,665.4114
"1681",80.10132,665.4248
"1682",79.94751,665.43823
"1683",79.73266,665.45166
"1684",79.449455,665.4651
"1685",79.11742,665.4785
"1686",78.75365,665.49194
"1687",78.37278,665.5054
"1688",77.996796,665.5188
"1689",77.645226,665.5322
"1690",77.32296,665.54565
"1691",77.03975,665.5591
"1692",76.79805,665.5725
"1693",76.60517,665.58594
"1694",76.45869,665.59937
"1695",76.34638,665.6128
"1696",76.265816,665.6262
"1697",76.207214,665.63965
"1698",76.16083,665.6531
"1699",76.12665,665.6665
"1700",76.09735,665.67993
"1701",76.07538,665.69336
"1702",76.06317,665.7068
"1703",76.06561,665.7202
"1704",76.08026,665.73364
"1705",76.10956,665.7471
"1706",76.14618,665.7605
"1707",76.18036,665.7739
"1708",76.207214,665.78735
"1709",76.21454,665.8008
"1710",76.20233,665.8142
"1711",76.16815,665.82764
"1712",76.11688,665.84106
"1713",76.05585,665.8545
"1714",76.00214,665.8679
"1715",75.95819,665.88135
"1716",75.9411,665.8948
"1717",75.965515,665.9082
"1718",76.07538,665.92163
"1719",76.36591,665.93506
"1720",76.946976,665.9485
"1721",77.92355,665.9619
"1722",79.32006,665.97534
"1723",81.058365,665.9888
"1724",82.96025,666.0022
"1725",84.78645,666.0156
"1726",86.30259,666.02905
"1727",87.35485,666.0425
"1728",87.887085,666.0559
"1729",87.93347,666.06934
"1730",87.603874,666.08276
"1731",87.03258,666.0962
"1732",86.33677,666.1096
"1733",85.60677,666.12305
"1734",84.88899,666.1365
"1735",84.2005,666.1499
"1736",83.54131,666.1633
"1737",82.92851,666.17676
"1738",82.38407,666.1902
"1739",81.94217,666.2036
"1740",81.619896,666.21704
"1741",81.42458,666.23047
"1742",81.339134,666.2439
"1743",81.32693,666.2573
"1744",81.34646,666.27075
"1745",81.35134,666.2842
"1746",81.30984,666.2976
"1747",81.19264,666.31104
"1748",80.99489,666.32446
"1749",80.723885,666.3379
"1750",80.396736,666.3513
"1751",80.04028,666.36475
"1752",79.67895,666.3782
"1753",79.33715,666.3916
"1754",79.01976,666.405
"1755",78.746315,666.41846
"1756",78.51194,666.4319
"1757",78.32395,666.4453
"1758",78.18234,666.45874
"1759",78.08469,666.47217
"1760",78.02609,666.4856
"1761",78.00168,666.499
"1762",78.00412,666.51245
"1763",78.01877,666.5259
"1764",78.0383,666.5393
"1765",78.048065,666.55273
"1766",78.0383,666.56616
"1767",77.99191,666.5796
"1768",77.91135,666.593
"1769",77.80148,666.60645
"1770",77.68673,666.6199
"1771",77.58175,666.6333
"1772",77.506065,666.6467
"1773",77.471886,666.66016
"1774",77.49874,666.6736
"1775",77.63302,666.687
"1776",77.96994,666.70044
"1777",78.60471,666.71387
"1778",79.59838,666.7273
"1779",80.94606,666.7407
"1780",82.54276,666.75415
"1781",84.2005,666.7676
"1782",85.694664,666.781
"1783",86.84215,666.79443
"1784",87.54284,666.80786
"1785",87.77478,666.8213
"1786",87.61364,666.8347
"1787",87.15709,666.84814
"1788",86.5272,666.8616
"1789",85.80942,666.875
"1790",85.06233,666.8884
"1791",84.30549,666.90186
"1792",83.560844,666.9153
"1793",82.85283,666.9287
"1794",82.22537,666.94214
"1795",81.71267,666.95557
"1796",81.356224,666.969
"1797",81.163345,666.9824
"1798",81.112076,666.99585
"1799",81.15114,667.0093
"1800",81.22438,667.0227
"1801",81.27322,667.03613
"1802",81.25857,667.04956
"1803",81.146255,667.063
"1804",80.93385,667.0764
"1805",80.64332,667.08984
"1806",80.2942,667.1033
"1807",79.91577,667.1167
"1808",79.537346,667.1301
"1809",79.17601,667.14355
"1810",78.84398,667.157
"1811",78.555885,667.1704
"1812",78.31663,667.18384
"1813",78.14084,667.19727
"1814",78.02609,667.2107
"1815",77.962616,667.2241
"1816",77.92844,667.23755
"1817",77.90646,667.251
"1818",77.87961,667.2644
"1819",77.83322,667.27783
"1820",77.7673,667.29126
"1821",77.679405,667.3047
"1822",77.57198,667.3181
"1823",77.45724,667.33154
"1824",77.35226,667.345
"1825",77.26681,667.3584
"1826",77.22774,667.3718
"1827",77.296104,667.38525
"1828",77.57931,667.3987
"1829",78.17258,667.4121
"1830",79.14427,667.42554
"1831",80.48951,667.43896
"1832",82.1033,667.4524
"1833",83.78546,667.4658
"1834",85.30648,667.47925
"1835",86.485695,667.4927
"1836",87.21324,667.5061
"1837",87.47692,667.51953
"1838",87.345085,667.53296
"1839",86.92027,667.5464
"1840",86.31724,667.5598
"1841",85.63119,667.57324
"1842",84.91829,667.5867
"1843",84.19562,667.6001
"1844",83.48028,667.6135
"1845",82.791794,667.62695
"1846",82.14969,667.6404
"1847",81.59304,667.6538
"1848",81.15358,667.66724
"1849",80.850845,667.68066
"1850",80.66773,667.6941
"1851",80.5774,667.7075
"1852",80.52857,667.72095
"1853",80.482185,667.7344
"1854",80.39918,667.7478
"1855",80.255135,667.7612
"1856",80.0354,667.77466
"1857",79.74731,667.7881
"1858",79.40063,667.8015
"1859",79.01976,667.81494
"1860",78.63157,667.82837
"1861",78.26292,667.8418
"1862",77.93332,667.8552
"1863",77.65499,667.86865
"1864",77.435265,667.8821
"1865",77.26925,667.8955
"1866",77.14961,667.90894
"1867",77.06416,667.92236
"1868",76.98848,667.9358
"1869",76.91524,667.9492
"1870",76.82735,667.96265
"1871",76.7248,667.9761
"1872",76.60517,667.9895
"1873",76.4831,668.0029
"1874",76.37812,668.01636
"1875",76.30244,668.0298
"1876",76.26826,668.0432
"1877",76.31953,668.05664
"1878",76.53193,668.07007
"1879",77.01045,668.0835
"1880",77.84787,668.0969
"1881",79.080795,668.11035
"1882",80.655525,668.1238
"1883",82.41093,668.1372
"1884",84.122375,668.15063
"1885",85.56039,668.16406
"1886",86.57603,668.1775
"1887",87.10094,668.1909
"1888",87.17906,668.20435
"1889",86.90318,668.2178
"1890",86.40269,668.2312
"1891",85.787445,668.2446
"1892",85.12581,668.25806
"1893",84.437325,668.2715
"1894",83.72686,668.2849
"1895",82.99931,668.29834
"1896",82.27177,668.31177
"1897",81.58572,668.3252
"1898",80.99245,668.3386
"1899",80.5359,668.35205
"1900",80.22095,668.3655
"1901",80.03784,668.3789
"1902",79.94995,668.39233
"1903",79.90845,668.40576
"1904",79.86206,668.4192
"1905",79.77661,668.4326
"1906",79.62768,668.44604
"1907",79.40063,668.4595
"1908",79.10033,668.4729
"1909",78.751205,668.4863
"1910",78.37034,668.49976
"1911",77.98703,668.5132
"1912",77.625694,668.5266
"1913",77.31075,668.54004
"1914",77.051956,668.55347
"1915",76.86153,668.5669
"1916",76.7248,668.5803
"1917",76.63447,668.59375
"1918",76.56611,668.6072
"1919",76.50019,668.6206
"1920",76.419624,668.63403
"1921",76.32197,668.64746
"1922",76.2121,668.6609
"1923",76.09979,668.6743
"1924",75.999695,668.68774
"1925",75.92645,668.7012
"1926",75.8996,668.7146
"1927",75.94354,668.728
"1928",76.1413,668.74146
"1929",76.60029,668.7549
"1930",77.4255,668.7683
"1931",78.66331,668.78174
"1932",80.272224,668.79517
"1933",82.10086,668.8086
"1934",83.91974,668.822
"1935",85.47494,668.83545
"1936",86.60044,668.8489
"1937",87.22545,668.8623
"1938",87.379265,668.87573
"1939",87.17174,668.88916
"1940",86.729836,668.9026
"1941",86.168304,668.916
"1942",85.55062,668.92944
"1943",84.89876,668.9429
"1944",84.207825,668.9563
"1945",83.475395,668.9697
"1946",82.71122,668.98315
"1947",81.951935,668.9966
"1948",81.253685,669.01
"1949",80.67017,669.02344
"1950",80.23804,669.03687
"1951",79.954834,669.0503
"1952",79.801025,669.0637
"1953",79.725334,669.07715
"1954",79.674065,669.0906
"1955",79.59838,669.104
"1956",79.46166,669.11743
"1957",79.2517,669.13086
"1958",78.97093,669.1443
"1959",78.63157,669.1577
"1960",78.260475,669.17114
"1961",77.88205,669.1846
"1962",77.51583,669.198
"1963",77.18379,669.2114
"1964",76.88838,669.22485
"1965",76.63935,669.2383
"1966",76.436714,669.2517
"1967",76.27558,669.26514
"1968",76.14862,669.27856
"1969",76.053406,669.292
"1970",75.98016,669.3054
"1971",75.91669,669.31885
"1972",75.86542,669.3323
"1973",75.83124,669.3457
"1974",75.809265,669.35913
"1975",75.79462,669.37256
"1976",75.78485,669.386
"1977",75.775085,669.3994
"1978",75.757996,669.41284
"1979",75.73113,669.4263
"1980",75.68719,669.4397
"1981",75.62127,669.4531
"1982",75.53094,669.46655
"1983",75.423515,669.48
"1984",75.301445,669.4934
"1985",75.191574,669.50684
"1986",75.11589,669.52026
"1987",75.09148,669.5337
"1988",75.17204,669.5471
"1989",75.46014,669.56055
"1990",76.08026,669.574
"1991",77.14717,669.5874
"1992",78.70725,669.6008
"1993",80.672615,669.61426
"1994",82.84306,669.6277
"1995",84.93294,669.6411
"1996",86.67124,669.65454
"1997",87.87488,669.66797
"1998",88.48768,669.6814
"1999",88.5658,669.6948
"2000",88.24841,669.70825
"2001",87.691765,669.7217
"2002",87.030136,669.7351
"2003",86.34409,669.74854
"2004",85.6556,669.76196
"2005",84.96712,669.7754
"2006",84.26154,669.7888
"2007",83.546196,669.80225
"2008",82.83818,669.8157
"2009",82.18631,669.8291
"2010",81.6321,669.8425
"2011",81.20241,669.85596
"2012",80.89723,669.8694
"2013",80.68482,669.8828
"2014",80.54078,669.89624
"2015",80.413826,669.90967
"2016",80.2649,669.9231
"2017",80.076904,669.9365
"2018",79.84253,669.94995
"2019",79.5642,669.9634
"2020",79.256584,669.9768
"2021",78.93187,669.99023
"2022",78.6096,670.00366
"2023",78.29954,670.0171
"2024",78.00656,670.0305
"2025",77.738,670.04395
"2026",77.4963,670.0574
"2027",77.2839,670.0708
"2028",77.100784,670.0842
"2029",76.944534,670.09766
"2030",76.81758,670.1111
"2031",76.717476,670.1245
"2032",76.63203,670.13794
"2033",76.561226,670.15137
"2034",76.50263,670.1648
"2035",76.46113,670.1782
"2036",76.42939,670.19165
"2037",76.41474,670.2051
"2038",76.4123,670.2185
"2039",76.42451,670.23193
"2040",76.439156,670.24536
"2041",76.456245,670.2588
"2042",76.46601,670.2722
"2043",76.46601,670.28564
"2044",76.456245,670.2991
"2045",76.43183,670.3125
"2046",76.39765,670.3259
"2047",76.36103,670.33936
"2048",76.334175,670.3528
"2049",76.334175,670.3662
"2050",76.37812,670.37964
"2051",76.524605,670.39307
"2052",76.89082,670.4065
"2053",77.60372,670.4199
"2054",78.75853,670.43335
"2055",80.37965,670.4468
"2056",82.37675,670.4602
"2057",84.53742,670.47363
"2058",86.590675,670.48706
"2059",88.28748,670.5005
"2060",89.45693,670.5139
"2061",90.04776,670.52734
"2062",90.10635,670.5408
"2063",89.74746,670.5542
"2064",89.11757,670.5676
"2065",88.33143,670.58105
"2066",87.4696,670.5945
"2067",86.5687,670.6079
"2068",85.63851,670.62134
"2069",84.71076,670.63477
"2070",83.83185,670.6482
"2071",83.0457,670.6616
"2072",82.4036,670.67505
"2073",81.92996,670.6885
"2074",81.619896,670.7019
"2075",81.444115,670.71533
"2076",81.358665,670.72876
"2077",81.307396,670.7422
"2078",81.234146,670.7556
"2079",81.10231,670.76904
"2080",80.88747,670.7825
"2081",80.587166,670.7959
"2082",80.216064,670.8093
"2083",79.801025,670.82275
"2084",79.361565,670.8362
"2085",78.924545,670.8496
"2086",78.51194,670.86304
"2087",78.1384,670.87646
"2088",77.81613,670.8899
"2089",77.55001,670.9033
"2090",77.347374,670.91675
"2091",77.20088,670.9302
"2092",77.100784,670.9436
"2093",77.03731,670.95703
"2094",76.995804,670.97046
"2095",76.95674,670.9839
"2096",76.90303,670.9973
"2097",76.83223,671.01074
"2098",76.73701,671.0242
"2099",76.61738,671.0376
"2100",76.490425,671.051
"2101",76.368355,671.06445
"2102",76.26826,671.0779
"2103",76.19745,671.0913
"2104",76.16327,671.10474
"2105",76.19745,671.11816
"2106",76.37324,671.1316
"2107",76.79805,671.145
"2108",77.57931,671.15845
"2109",78.78294,671.1719
"2110",80.37476,671.1853
"2111",82.22537,671.1987
"2112",84.10773,671.21216
"2113",85.785,671.2256
"2114",87.05211,671.239
"2115",87.801636,671.25244
"2116",88.01404,671.26587
"2117",87.76257,671.2793
"2118",87.15953,671.2927
"2119",86.33677,671.30615
"2120",85.384605,671.3196
"2121",84.36408,671.333
"2122",83.32403,671.34644
"2123",82.31327,671.35986
"2124",81.3904,671.3733
"2125",80.6067,671.3867
"2126",80.01343,671.40015
"2127",79.64477,671.4136
"2128",79.47631,671.427
"2129",79.4641,671.4404
"2130",79.54223,671.45386
"2131",79.64477,671.4673
"2132",79.70336,671.4807
"2133",79.68627,671.49414
"2134",79.569084,671.50757
"2135",79.35424,671.521
"2136",79.05394,671.5344
"2137",78.69016,671.54785
"2138",78.28489,671.5613
"2139",77.86984,671.5747
"2140",77.469444,671.58813
"2141",77.10811,671.60156
"2142",76.80049,671.615
"2143",76.558784,671.6284
"2144",76.385445,671.64185
"2145",76.27802,671.6553
"2146",76.21942,671.6687
"2147",76.209656,671.6821
"2148",76.224304,671.69556
"2149",76.24872,671.709
"2150",76.26093,671.7224
"2151",76.24628,671.73584
"2152",76.19989,671.74927
"2153",76.12665,671.7627
"2154",76.0412,671.7761
"2155",75.95575,671.78955
"2156",75.89227,671.803
"2157",75.860535,671.8164
"2158",75.8703,671.82983
"2159",75.96307,671.84326
"2160",76.23163,671.8567
"2161",76.805374,671.8701
"2162",77.789276,671.88354
"2163",79.22484,671.897
"2164",81.03883,671.9104
"2165",83.053024,671.9238
"2166",85.015945,671.93726
"2167",86.67368,671.9507
"2168",87.8407,671.9641
"2169",88.43397,671.97754
"2170",88.47547,671.99097
"2171",88.05554,672.0044
"2172",87.308464,672.0178
"2173",86.36118,672.03125
"2174",85.31869,672.0447
"2175",84.244446,672.0581
"2176",83.18974,672.07153
"2177",82.196075,672.08496
"2178",81.30984,672.0984
"2179",80.584724,672.1118
"2180",80.05005,672.12524
"2181",79.72289,672.1387
"2182",79.586174,672.1521
"2183",79.5935,672.1655
"2184",79.676506,672.17896
"2185",79.77661,672.1924
"2186",79.823,672.2058
"2187",79.78638,672.21924
"2188",79.639885,672.23267
"2189",79.39086,672.2461
"2190",79.04906,672.2595
"2191",78.64866,672.27295
"2192",78.21652,672.2864
"2193",77.78195,672.2998
"2194",77.366905,672.31323
"2195",76.99336,672.32666
"2196",76.67109,672.3401
"2197",76.404976,672.3535
"2198",76.19989,672.36694
"2199",76.05585,672.3804
"2200",75.965515,672.3938
"2201",75.92157,672.4072
"2202",75.90936,672.42065
"2203",75.91669,672.4341
"2204",75.92645,672.4475
"2205",75.928894,672.46094
"2206",75.90692,672.47437
"2207",75.85809,672.4878
"2208",75.78485,672.5012
"2209",75.68963,672.51465
"2210",75.58465,672.5281
"2211",75.48699,672.5415
"2212",75.41375,672.55493
"2213",75.386894,672.56836
"2214",75.45281,672.5818
"2215",75.716484,672.5952
"2216",76.3122,672.60864
"2217",77.32784,672.6221
"2218",78.7805,672.6355
"2219",80.59449,672.6489
"2220",82.56718,672.66235
"2221",84.437325,672.6758
"2222",85.960785,672.6892
"2223",86.98375,672.70264
"2224",87.450066,672.71606
"2225",87.38659,672.7295
"2226",86.8983,672.7429
"2227",86.12192,672.75635
"2228",85.17952,672.7698
"2229",84.16144,672.7832
"2230",83.13603,672.79663
"2231",82.144806,672.81006
"2232",81.231705,672.8235
"2233",80.43336,672.8369
"2234",79.79614,672.85034
"2235",79.34203,672.8638
"2236",79.08324,672.8772
"2237",78.98802,672.8906
"2238",79.01976,672.90405
"2239",79.114975,672.9175
"2240",79.21019,672.9309
"2241",79.256584,672.94434
"2242",79.22728,672.95776
"2243",79.09544,672.9712
"2244",78.86351,672.9846
"2245",78.553444,672.99805
"2246",78.187225,673.0115
"2247",77.79172,673.0249
"2248",77.38644,673.0383
"2249",76.995804,673.05176
"2250",76.64179,673.0652
"2251",76.33173,673.0786
"2252",76.070496,673.09204
"2253",75.86542,673.10547
"2254",75.72137,673.1189
"2255",75.63592,673.1323
"2256",75.60662,673.14575
"2257",75.62371,673.1592
"2258",75.6701,673.1726
"2259",75.72869,673.18604
"2260",75.78729,673.19946
"2261",75.82147,673.2129
"2262",75.82391,673.2263
"2263",75.79706,673.23975
"2264",75.74334,673.2532
"2265",75.6701,673.2666
"2266",75.58953,673.28
"2267",75.51629,673.29346
"2268",75.457695,673.3069
"2269",75.43328,673.3203
"2270",75.494316,673.33374
"2271",75.7409,673.34717
"2272",76.299995,673.3606
"2273",77.27413,673.374
"2274",78.68772,673.38745
"2275",80.445564,673.4009
"2276",82.35233,673.4143
"2277",84.15411,673.42773
"2278",85.6141,673.44116
"2279",86.58091,673.4546
"2280",87.01549,673.468
"2281",86.95201,673.48145
"2282",86.4979,673.4949
"2283",85.78012,673.5083
"2284",84.91829,673.5217
"2285",84.00275,673.53516
"2286",83.09453,673.5486
"2287",82.22537,673.562
"2288",81.43923,673.57544
"2289",80.765396,673.58887
"2290",80.235596,673.6023
"2291",79.87915,673.6157
"2292",79.70336,673.62915
"2293",79.68383,673.6426
"2294",79.77417,673.656
"2295",79.91821,673.66943
"2296",80.059814,673.68286
"2297",80.15259,673.6963
"2298",80.164795,673.7097
"2299",80.079346,673.72314
"2300",79.89868,673.7366
"2301",79.635,673.75
"2302",79.31274,673.7634
"2303",78.94896,673.77686
"2304",78.57053,673.7903
"2305",78.20676,673.8037
"2306",77.87961,673.81714
"2307",77.60128,673.83057
"2308",77.37423,673.844
"2309",77.20332,673.8574
"2310",77.08125,673.87085
"2311",77.00313,673.8843
"2312",76.964066,673.8977
"2313",76.961624,673.91113
"2314",76.98604,673.92456
"2315",77.0251,673.938
"2316",77.06416,673.9514
"2317",77.08858,673.96484
"2318",77.09102,673.9783
"2319",77.0544,673.9917
"2320",76.97383,674.0051
"2321",76.84688,674.01855
"2322",76.700386,674.032
"2323",76.54658,674.0454
"2324",76.40986,674.05884
"2325",76.32929,674.07227
"2326",76.3708,674.0857
"2327",76.63691,674.0991
"2328",77.24727,674.11255
"2329",78.28245,674.126
"2330",79.727776,674.1394
"2331",81.47097,674.15283
"2332",83.30694,674.16626
"2333",84.981766,674.1797
"2334",86.278175,674.1931
"2335",87.08385,674.20654
"2336",87.3695,674.22
"2337",87.19615,674.2334
"2338",86.67368,674.2468
"2339",85.92905,674.26025
"2340",85.07454,674.2737
"2341",84.18829,674.2871
"2342",83.3167,674.30054
"2343",82.493935,674.31396
"2344",81.75906,674.3274
"2345",81.146255,674.3408
"2346",80.68482,674.35425
"2347",80.39918,674.3677
"2348",80.28687,674.3811
"2349",80.31861,674.39453
"2350",80.44312,674.40796
"2351",80.6067,674.4214
"2352",80.75563,674.4348
"2353",80.84596,674.44824
"2354",80.84596,674.4617
"2355",80.7483,674.4751
"2356",80.55543,674.4885
"2357",80.289314,674.50195
"2358",79.9646,674.5154
"2359",79.60815,674.5288
"2360",79.234604,674.54224
"2361",78.870834,674.55566
"2362",78.53147,674.5691
"2363",78.24094,674.5825
"2364",78.00168,674.59595
"2365",77.8259,674.6094
"2366",77.70626,674.6228
"2367",77.63302,674.6362
"2368",77.608604,674.64966
"2369",77.61349,674.6631
"2370",77.64034,674.6765
"2371",77.67696,674.68994
"2372",77.71847,674.70337
"2373",77.74532,674.7168
"2374",77.7551,674.7302
"2375",77.73556,674.74365
"2376",77.68673,674.7571
"2377",77.608604,674.7705
"2378",77.49874,674.78394
"2379",77.36935,674.79736
"2380",77.2375,674.8108
"2381",77.13985,674.8242
"2382",77.14473,674.83765
"2383",77.37911,674.8511
"2384",77.960175,674.8645
"2385",78.975815,674.8779
"2386",80.41871,674.89136
"2387",82.15457,674.9048
"2388",83.97833,674.9182
"2389",85.63363,674.93164
"2390",86.91539,674.94507
"2391",87.70397,674.9585
"2392",87.98474,674.9719
"2393",87.8114,674.98535
"2394",87.291374,674.9988
"2395",86.54673,675.0122
"2396",85.6849,675.02563
"2397",84.78157,675.03906
"2398",83.89288,675.0525
"2399",83.05791,675.0659
"2400",82.30839,675.07935
"2401",81.671165,675.0928
"2402",81.180435,675.1062
"2403",80.86549,675.1196
"2404",80.723885,675.13306
"2405",80.73121,675.1465
"2406",80.84596,675.1599
"2407",81.01686,675.17334
"2408",81.17799,675.18677
"2409",81.2781,675.2002
"2410",81.290306,675.2136
"2411",81.19264,675.22705
"2412",80.98268,675.2405
"2413",80.68726,675.2539
"2414",80.325935,675.26733
"2415",79.93286,675.28076
"2416",79.53246,675.2942
"2417",79.15404,675.3076
"2418",78.81224,675.32104
"2419",78.52659,675.3345
"2420",78.29221,675.3479
"2421",78.11154,675.3613
"2422",77.98703,675.37476
"2423",77.90646,675.3882
"2424",77.8674,675.4016
"2425",77.857635,675.41504
"2426",77.8674,675.42847
"2427",77.88205,675.4419
"2428",77.88693,675.4553
"2429",77.872284,675.46875
"2430",77.83078,675.4822
"2431",77.7673,675.4956
"2432",77.68429,675.50903
"2433",77.591515,675.52246
"2434",77.50851,675.5359
"2435",77.454796,675.5493
"2436",77.467,675.56274
"2437",77.625694,675.5762
"2438",78.05295,675.5896
"2439",78.84642,675.603
"2440",80.05005,675.61646
"2441",81.61013,675.6299
"2442",83.36065,675.6433
"2443",85.07454,675.65674
"2444",86.51011,675.67017
"2445",87.50866,675.6836
"2446",88.006714,675.697
"2447",88.02136,675.71045
"2448",87.638054,675.7239
"2449",86.98375,675.7373
"2450",86.16342,675.75073
"2451",85.26742,675.76416
"2452",84.3592,675.7776
"2453",83.48028,675.791
"2454",82.667274,675.80444
"2455",81.95438,675.8179
"2456",81.38552,675.8313
"2457",80.990005,675.8447
"2458",80.77272,675.85815
"2459",80.723885,675.8716
"2460",80.80446,675.885
"2461",80.95094,675.89844
"2462",81.10475,675.91187
"2463",81.2195,675.9253
"2464",81.24635,675.9387
"2465",81.160904,675.95215
"2466",80.972916,675.9656
"2467",80.69215,675.979
"2468",80.34547,675.99243
"2469",79.95972,676.00586
"2470",79.56176,676.0193
"2471",79.166245,676.0327
"2472",78.802475,676.04614
"2473",78.4802,676.0596
"2474",78.21652,676.073
"2475",78.00656,676.0864
"2476",77.86008,676.09985
"2477",77.76486,676.1133
"2478",77.713585,676.1267
"2479",77.69161,676.14014
"2480",77.68429,676.15356
"2481",77.67452,676.167
"2482",77.65499,676.1804
"2483",77.61593,676.19385
"2484",77.55001,676.2073
"2485",77.45968,676.2207
"2486",77.35714,676.23413
"2487",77.24483,676.24756
"2488",77.14229,676.261
"2489",77.06172,676.2744
"2490",77.049515,676.28784
"2491",77.18379,676.3013
"2492",77.58419,676.3147
"2493",78.36057,676.3281
"2494",79.5642,676.34155
"2495",81.146255,676.355
"2496",82.95293,676.3684
"2497",84.75716,676.38184
"2498",86.312355,676.39526
"2499",87.44274,676.4087
"2500",88.06287,676.4221
"2501",88.17761,676.43555
"2502",87.86267,676.449
"2503",87.23033,676.4624
"2504",86.400246,676.4758
"2505",85.470055,676.48926
"2506",84.51545,676.5027
"2507",83.58282,676.5161
"2508",82.71366,676.52954
"2509",81.94949,676.54297
"2510",81.33181,676.5564
"2511",80.89235,676.5698
"2512",80.6482,676.58325
"2513",80.587166,676.5967
"2514",80.66529,676.6101
"2515",80.82399,676.62354
"2516",80.99245,676.63696
"2517",81.112076,676.6504
"2518",81.146255,676.6638
"2519",81.06813,676.67725
"2520",80.885025,676.6907
"2521",80.604256,676.7041
"2522",80.255135,676.7175
"2523",79.85474,676.73096
"2524",79.43481,676.7444
"2525",79.01488,676.7578
"2526",78.61936,676.77124
"2527",78.25803,676.78467
"2528",77.94064,676.7981
"2529",77.68185,676.8115
"2530",77.48165,676.82495
"2531",77.330284,676.8384
"2532",77.23018,676.8518
"2533",77.17647,676.86523
"2534",77.15694,676.87866
"2535",77.15938,676.8921
"2536",77.17891,676.9055
"2537",77.19844,676.91895
"2538",77.205765,676.9324
"2539",77.18379,676.9458
"2540",77.13252,676.9592
"2541",77.051956,676.97266
"2542",76.94942,676.9861
"2543",76.83467,676.9995
"2544",76.7248,677.01294
"2545",76.629585,677.02637
"2546",76.58808,677.0398
"2547",76.66865,677.0532
"2548",76.998245,677.06665
"2549",77.70138,677.0801
"2550",78.86351,677.0935
"2551",80.46021,677.10693
"2552",82.36454,677.12036
"2553",84.34699,677.1338
"2554",86.14877,677.1472
"2555",87.55016,677.16064
"2556",88.41932,677.1741
"2557",88.7367,677.1875
"2558",88.56092,677.2009
"2559",87.99451,677.21436
"2560",87.17418,677.2278
"2561",86.21469,677.2412
"2562",85.20149,677.25464
"2563",84.19806,677.26807
"2564",83.245895,677.2815
"2565",82.388954,677.2949
"2566",81.68093,677.30835
"2567",81.15602,677.3218
"2568",80.84108,677.3352
"2569",80.723885,677.34863
"2570",80.75807,677.36206
"2571",80.88747,677.3755
"2572",81.03639,677.3889
"2573",81.146255,677.40234
"2574",81.17067,677.4158
"2575",81.08522,677.4292
"2576",80.885025,677.4426
"2577",80.5774,677.45605
"2578",80.19165,677.4695
"2579",79.74731,677.4829
"2580",79.281,677.49634
"2581",78.81712,677.50977
"2582",78.37766,677.5232
"2583",77.979706,677.5366
"2584",77.63546,677.55005
"2585",77.349815,677.5635
"2586",77.12764,677.5769
"2587",76.96895,677.59033
"2588",76.86397,677.60376
"2589",76.81026,677.6172
"2590",76.79805,677.6306
"2591",76.81026,677.64404
"2592",76.839554,677.6575
"2593",76.876175,677.6709
"2594",76.90303,677.6843
"2595",76.90547,677.69775
"2596",76.876175,677.7112
"2597",76.805374,677.7246
"2598",76.70283,677.73804
"2599",76.57343,677.75146
"2600",76.4416,677.7649
"2601",76.32685,677.7783
"2602",76.25117,677.79175
"2603",76.263374,677.8052
"2604",76.46845,677.8186
"2605",76.99092,677.83203
"2606",77.945526,677.84546
"2607",79.36889,677.8589
"2608",81.18288,677.8723
"2609",83.20683,677.88574
"2610",85.1844,677.8992
"2611",86.86168,677.9126
"2612",88.0531,677.926
"2613",88.68543,677.93945
"2614",88.77333,677.9529
"2615",88.40223,677.9663
"2616",87.69421,677.97974
"2617",86.77379,677.99316
"2618",85.75571,678.0066
"2619",84.70832,678.02
"2620",83.6878,678.03345
"2621",82.7454,678.0469
"2622",81.934845,678.0603
"2623",81.29763,678.0737
"2624",80.86549,678.08716
"2625",80.638435,678.1006
"2626",80.587166,678.114
"2627",80.655525,678.12744
"2628",80.780045,678.14087
"2629",80.88991,678.1543
"2630",80.936295,678.1677
"2631",80.885025,678.18115
"2632",80.71656,678.1946
"2633",80.430916,678.208
"2634",80.04761,678.22144
"2635",79.59838,678.23486
"2636",79.11253,678.2483
"2637",78.62913,678.2617
"2638",78.17258,678.27515
"2639",77.75754,678.2886
"2640",77.3962,678.302
"2641",77.09346,678.3154
"2642",76.85176,678.32886
"2643",76.67597,678.3423
"2644",76.561226,678.3557
"2645",76.50263,678.36914
"2646",76.48798,678.38257
"2647",76.50019,678.396
"2648",76.53193,678.4094
"2649",76.56367,678.42285
"2650",76.58564,678.4363
"2651",76.5832,678.4497
"2652",76.54658,678.46313
"2653",76.470894,678.47656
"2654",76.35859,678.49
"2655",76.226746,678.5034
"2656",76.09003,678.51685
"2657",75.96796,678.5303
"2658",75.877625,678.5437
"2659",75.86786,678.5571
"2660",76.036316,678.57056
"2661",76.5124,678.584
"2662",77.41329,678.5974
"2663",78.79271,678.61084
"2664",80.59693,678.62427
"2665",82.65507,678.6377
"2666",84.71076,678.6511
"2667",86.502785,678.66455
"2668",87.82849,678.678
"2669",88.58289,678.6914
"2670",88.76112,678.70483
"2671",88.446175,678.71826
"2672",87.76257,678.7317
"2673",86.84459,678.7451
"2674",85.81186,678.75854
"2675",84.74738,678.772
"2676",83.70977,678.7854
"2677",82.7454,678.7988
"2678",81.89578,678.81226
"2679",81.20729,678.8257
"2680",80.70435,678.8391
"2681",80.40894,678.85254
"2682",80.30152,678.86597
"2683",80.32838,678.8794
"2684",80.428474,678.8928
"2685",80.533455,678.90625
"2686",80.587166,678.9197
"2687",80.54566,678.9331
"2688",80.38453,678.94653
"2689",80.1062,678.95996
"2690",79.73266,678.9734
"2691",79.28344,678.9868
"2692",78.79759,679.00024
"2693",78.30686,679.0137
"2694",77.82834,679.0271
"2695",77.39132,679.0405
"2696",77.00557,679.05396
"2697",76.67353,679.0674
"2698",76.40986,679.0808
"2699",76.21454,679.09424
"2700",76.08026,679.10767
"2701",75.99725,679.1211
"2702",75.96063,679.1345
"2703",75.95575,679.14795
"2704",75.97528,679.1614
"2705",76.00946,679.1748
"2706",76.05585,679.18823
"2707",76.09979,679.20166
"2708",76.12909,679.2151
"2709",76.13153,679.2285
"2710",76.102234,679.24194
"2711",76.036316,679.2554
"2712",75.93866,679.2688
"2713",75.82391,679.2822
"2714",75.70916,679.29565
"2715",75.60418,679.3091
"2716",75.528496,679.3225
"2717",75.52361,679.33594
"2718",75.67742,679.34937
"2719",76.11688,679.3628
"2720",76.9836,679.3762
"2721",78.35081,679.38965
"2722",80.19409,679.4031
"2723",82.3621,679.4165
"2724",84.59113,679.42993
"2725",86.590675,679.44336
"2726",88.11902,679.4568
"2727",89.04677,679.4702
"2728",89.34707,679.48364
"2729",89.0956,679.4971
"2730",88.429085,679.5105
"2731",87.50378,679.5239
"2732",86.45396,679.53735
"2733",85.365074,679.5508
"2734",84.29328,679.5642
"2735",83.27764,679.57764
"2736",82.35966,679.59106
"2737",81.57107,679.6045
"2738",80.95827,679.6179
"2739",80.5481,679.63135
"2740",80.3357,679.6448
"2741",80.27955,679.6582
"2742",80.31861,679.67163
"2743",80.394295,679.68506
"2744",80.445564,679.6985
"2745",80.41871,679.7119
"2746",80.28687,679.72534
"2747",80.04028,679.7388
"2748",79.691154,679.7522
"2749",79.26147,679.7656
"2750",78.79027,679.77905
"2751",78.311745,679.7925
"2752",77.84787,679.8059
"2753",77.42306,679.81934
"2754",77.04463,679.83276
"2755",76.715034,679.8462
"2756",76.44404,679.8596
"2757",76.22919,679.87305
"2758",76.07538,679.8865
"2759",75.98505,679.8999
"2760",75.945984,679.9133
"2761",75.948425,679.92676
"2762",75.982605,679.9402
"2763",76.036316,679.9536
"2764",76.09491,679.96704
"2765",76.15106,679.98047
"2766",76.192566,679.9939
"2767",76.21454,680.0073
"2768",76.19989,680.02075
"2769",76.1535,680.0342
"2770",76.070496,680.0476
"2771",75.95575,680.06104
"2772",75.82147,680.07446
"2773",75.699394,680.0879
"2774",75.5993,680.1013
"2775",75.543144,680.11475
"2776",75.596855,680.1282
"2777",75.86786,680.1416
"2778",76.49775,680.155
"2779",77.611046,680.16846
"2780",79.237045,680.1819
"2781",81.290306,680.1953
"2782",83.57061,680.20874
"2783",85.79233,680.22217
"2784",87.674675,680.2356
"2785",89.01991,680.249
"2786",89.73769,680.26245
"2787",89.83292,680.2759
"2788",89.40322,680.2893
"2789",88.59754,680.30273
"2790",87.56237,680.31616
"2791",86.414894,680.3296
"2792",85.23811,680.343
"2793",84.08331,680.35645
"2794",82.984665,680.3699
"2795",81.99588,680.3833
"2796",81.16823,680.3967
"2797",80.53834,680.41016
"2798",80.12573,680.4236
"2799",79.920654,680.437
"2800",79.87915,680.45044
"2801",79.94263,680.46387
"2802",80.05005,680.4773
"2803",80.14282,680.4907
"2804",80.177,680.50415
"2805",80.13306,680.5176
"2806",80.00122,680.531
"2807",79.783936,680.54443
"2808",79.49584,680.55786
"2809",79.15648,680.5713
"2810",78.79271,680.5847
"2811",78.42161,680.59814
"2812",78.06271,680.6116
"2813",77.733116,680.625
"2814",77.44747,680.6384
"2815",77.21065,680.65186
"2816",77.03975,680.6653
"2817",76.93721,680.6787
"2818",76.90059,680.69214
"2819",76.92012,680.70557
"2820",76.97627,680.719
"2821",77.05684,680.7324
"2822",77.14229,680.74585
"2823",77.21065,680.7593
"2824",77.25216,680.7727
"2825",77.25948,680.78613
"2826",77.22774,680.79956
"2827",77.15938,680.813
"2828",77.06416,680.8264
"2829",76.95674,680.83984
"2830",76.84932,680.8533
"2831",76.756546,680.8667
"2832",76.71015,680.8801
"2833",76.79805,680.89355
"2834",77.152054,680.907
"2835",77.91379,680.9204
"2836",79.16136,680.93384
"2837",80.8777,680.94727
"2838",82.913864,680.9607
"2839",85.03548,680.9741
"2840",86.956894,680.98755
"2841",88.43885,681.001
"2842",89.34951,681.0144
"2843",89.66201,681.02783
"2844",89.43252,681.04126
"2845",88.780655,681.0547
"2846",87.85779,681.0681
"2847",86.77867,681.08154
"2848",85.63363,681.095
"2849",84.48615,681.1084
"2850",83.387505,681.1218
"2851",82.38407,681.13525
"2852",81.529564,681.1487
"2853",80.87282,681.1621
"2854",80.44312,681.17554
"2855",80.22339,681.18896
"2856",80.17456,681.2024
"2857",80.23071,681.2158
"2858",80.325935,681.22925
"2859",80.394295,681.2427
"2860",80.38453,681.2561
"2861",80.26734,681.26953
"2862",80.03784,681.28296
"2863",79.69604,681.2964
"2864",79.26635,681.3098
"2865",78.77806,681.32324
"2866",78.25803,681.3367
"2867",77.74532,681.3501
"2868",77.26925,681.3635
"2869",76.84688,681.37695
"2870",76.49775,681.3904
"2871",76.224304,681.4038
"2872",76.02411,681.41724
"2873",75.88251,681.43066
"2874",75.78729,681.4441
"2875",75.736015,681.4575
"2876",75.72137,681.47095
"2877",75.7409,681.4844
"2878",75.78485,681.4978
"2879",75.85077,681.5112
"2880",75.91669,681.52466
"2881",75.965515,681.5381
"2882",75.98016,681.5515
"2883",75.95575,681.56494
"2884",75.88495,681.57837
"2885",75.78485,681.5918
"2886",75.6701,681.6052
"2887",75.56512,681.61865
"2888",75.4992,681.6321
"2889",75.52117,681.6455
"2890",75.72381,681.65894
"2891",76.25117,681.67236
"2892",77.23262,681.6858
"2893",78.7219,681.6992
"2894",80.67506,681.71265
"2895",82.91142,681.7261
"2896",85.15755,681.7395
"2897",87.1107,681.7529
"2898",88.54871,681.76636
"2899",89.35439,681.7798
"2900",89.530174,681.7932
"2901",89.1664,681.80664
"2902",88.41444,681.82007
"2903",87.42809,681.8335
"2904",86.33921,681.8469
"2905",85.23811,681.86035
"2906",84.173645,681.8738
"2907",83.177536,681.8872
"2908",82.28153,681.90063
"2909",81.5198,681.91406
"2910",80.919205,681.9275
"2911",80.51148,681.9409
"2912",80.28687,681.95435
"2913",80.21362,681.9678
"2914",80.24536,681.9812
"2915",80.31129,681.9946
"2916",80.35279,682.00806
"2917",80.32105,682.0215
"2918",80.184326,682.0349
"2919",79.9353,682.04834
"2920",79.57885,682.06177
"2921",79.14427,682.0752
"2922",78.658424,682.0886
"2923",78.15549,682.10205
"2924",77.66476,682.1155
"2925",77.21309,682.1289
"2926",76.81758,682.14233
"2927",76.490425,682.15576
"2928",76.23407,682.1692
"2929",76.0412,682.1826
"2930",75.90936,682.19604
"2931",75.826355,682.2095
"2932",75.77753,682.2229
"2933",75.755554,682.2363
"2934",75.76532,682.24976
"2935",75.79706,682.2632
"2936",75.84589,682.2766
"2937",75.90204,682.29004
"2938",75.95331,682.30347
"2939",75.98505,682.3169
"2940",75.98749,682.3303
"2941",75.95575,682.34375
"2942",75.88739,682.3572
"2943",75.77997,682.3706
"2944",75.64568,682.38403
"2945",75.49676,682.39746
"2946",75.35027,682.4109
"2947",75.23552,682.4243
"2948",75.20622,682.43774
"2949",75.34539,682.4512
"2950",75.78485,682.4646
"2951",76.67353,682.478
"2952",78.09445,682.49146
"2953",80.02319,682.5049
"2954",82.320595,682.5183
"2955",84.715645,682.53174
"2956",86.89342,682.54517
"2957",88.59022,682.5586
"2958",89.652245,682.572
"2959",90.040436,682.58545
"2960",89.82315,682.5989
"2961",89.15175,682.6123
"2962",88.18494,682.62573
"2963",87.0692,682.63916
"2964",85.91196,682.6526
"2965",84.78157,682.666
"2966",83.70733,682.67944
"2967",82.72587,682.6929
"2968",81.86893,682.7063
"2969",81.17799,682.7197
"2970",80.6775,682.73315
"2971",80.36744,682.7466
"2972",80.22583,682.76
"2973",80.201416,682.77344
"2974",80.23071,682.78687
"2975",80.26246,682.8003
"2976",80.25025,682.8137
"2977",80.15991,682.82715
"2978",79.971924,682.8406
"2979",79.68383,682.854
"2980",79.310295,682.86743
"2981",78.87572,682.88086
"2982",78.40208,682.8943
"2983",77.91867,682.9077
"2984",77.44503,682.92114
"2985",77.00801,682.9346
"2986",76.62226,682.948
"2987",76.30244,682.9614
"2988",76.05829,682.97485
"2989",75.8996,682.9883
"2990",75.81903,683.0017
"2991",75.80194,683.01514
"2992",75.843445,683.02856
"2993",75.91669,683.042
"2994",76.0119,683.0554
"2995",76.10712,683.06885
"2996",76.1828,683.0823
"2997",76.226746,683.0957
"2998",76.23163,683.10913
"2999",76.1828,683.12256
"3000",76.09247,683.136
"3001",75.9704,683.1494
"3002",75.83612,683.16284
"3003",75.716484,683.1763
"3004",75.62127,683.1897
"3005",75.58465,683.2031
"3006",75.6701,683.21655
"3007",75.98505,683.23
"3008",76.66865,683.2434
"3009",77.806366,683.25684
"3010",79.40795,683.27026
"3011",81.37087,683.2837
"3012",83.475395,683.2971
"3013",85.45052,683.31055
"3014",87.05211,683.324
"3015",88.128784,683.3374
"3016",88.621956,683.3508
"3017",88.57069,683.36426
"3018",88.07019,683.3777
"3019",87.259636,683.3911
"3020",86.25376,683.40454
"3021",85.15022,683.41797
"3022",84.01984,683.4314
"3023",82.91875,683.4448
"3024",81.90311,683.45825
"3025",81.03639,683.4717
"3026",80.377205,683.4851
"3027",79.95239,683.49854
"3028",79.766846,683.51196
"3029",79.77417,683.5254
"3030",79.906006,683.5388
"3031",80.08667,683.55225
"3032",80.2478,683.5657
"3033",80.32838,683.5791
"3034",80.29908,683.5925
"3035",80.15259,683.60596
"3036",79.89868,683.6194
"3037",79.56176,683.6328
"3038",79.17601,683.64624
"3039",78.768295,683.65967
"3040",78.365456,683.6731
"3041",77.99191,683.6865
"3042",77.67208,683.69995
"3043",77.418175,683.7134
"3044",77.239944,683.7268
"3045",77.13252,683.74023
"3046",77.07881,683.75366
"3047",77.06416,683.7671
"3048",77.06172,683.7805
"3049",77.06172,683.79395
"3050",77.051956,683.8074
"3051",77.01778,683.8208
"3052",76.961624,683.8342
"3053",76.88106,683.84766
"3054",76.79561,683.8611
"3055",76.715034,683.8745
"3056",76.65644,683.88794
"3057",76.64423,683.90137
"3058",76.732124,683.9148
"3059",77.01778,683.9282
"3060",77.62325,683.94165
"3061",78.643776,683.9551
"3062",80.08667,683.9685
"3063",81.87381,683.98193
"3064",83.81476,683.99536
"3065",85.662926,684.0088
"3066",87.186386,684.0222
"3067",88.22644,684.03564
"3068",88.71473,684.0491
"3069",88.68299,684.0625
"3070",88.20691,684.0759
"3071",87.40856,684.08936
"3072",86.40757,684.1028
"3073",85.29183,684.1162
"3074",84.13214,684.12964
"3075",82.99687,684.14307
"3076",81.94705,684.1565
"3077",81.04616,684.1699
"3078",80.35767,684.18335
"3079",79.91577,684.1968
"3080",79.71313,684.2102
"3081",79.710686,684.22363
"3082",79.84009,684.23706
"3083",80.028076,684.2505
"3084",80.198975,684.2639
"3085",80.289314,684.27734
"3086",80.274666,684.2908
"3087",80.13306,684.3042
"3088",79.87915,684.3176
"3089",79.537346,684.33105
"3090",79.12962,684.3445
"3091",78.69016,684.3579
"3092",78.25803,684.37134
"3093",77.86008,684.38477
"3094",77.52071,684.3982
"3095",77.24971,684.4116
"3096",77.051956,684.42505
"3097",76.91524,684.4385
"3098",76.822464,684.4519
"3099",76.75166,684.46533
"3100",76.700386,684.47876
"3101",76.646675,684.4922
"3102",76.59052,684.5056
"3103",76.52949,684.51904
"3104",76.473335,684.5325
"3105",76.42939,684.5459
"3106",76.41474,684.5593
"3107",76.4416,684.57275
"3108",76.558784,684.5862
"3109",76.86153,684.5996
"3110",77.469444,684.61304
"3111",78.46555,684.62646
"3112",79.87915,684.6399
"3113",81.62966,684.6533
"3114",83.543755,684.66675
"3115",85.38705,684.6802
"3116",86.93004,684.6936
"3117",88.00183,684.70703
"3118",88.53651,684.72046
"3119",88.54383,684.7339
"3120",88.09949,684.7473
"3121",87.325554,684.76074
"3122",86.33921,684.7742
"3123",85.23567,684.7876
"3124",84.09064,684.801
"3125",82.96269,684.81445
"3126",81.9202,684.8279
"3127",81.03151,684.8413
"3128",80.34547,684.85474
"3129",79.89136,684.86816
"3130",79.676506,684.8816
"3131",79.64721,684.895
"3132",79.7351,684.90845
"3133",79.87671,684.9219
"3134",79.99878,684.9353
"3135",80.05249,684.9487
"3136",80.008545,684.96216
"3137",79.84985,684.9756
"3138",79.59106,684.989
"3139",79.24681,685.00244
"3140",78.839096,685.01587
"3141",78.40696,685.0293
"3142",77.98215,685.0427
"3143",77.59884,685.05615
"3144",77.27657,685.0696
"3145",77.02022,685.083
"3146",76.83223,685.09644
"3147",76.70771,685.10986
"3148",76.62226,685.1233
"3149",76.56367,685.1367
"3150",76.51728,685.15015
"3151",76.46357,685.1636
"3152",76.40009,685.177
"3153",76.31953,685.1904
"3154",76.23163,685.20386
"3155",76.1535,685.2173
"3156",76.09979,685.2307
"3157",76.087585,685.24414
"3158",76.14862,685.25757
"3159",76.36103,685.271
"3160",76.839554,685.2844
"3161",77.696495,685.29785
"3162",78.9807,685.3113
"3163",80.66773,685.3247
"3164",82.616005,685.33813
"3165",84.578926,685.35156
"3166",86.30991,685.365
"3167",87.59899,685.3784
"3168",88.341194,685.39185
"3169",88.5243,685.4053
"3170",88.22156,685.4187
"3171",87.54528,685.4321
"3172",86.624855,685.44556
"3173",85.56039,685.459
"3174",84.43,685.4724
"3175",83.29229,685.48584
"3176",82.20828,685.49927
"3177",81.24147,685.5127
"3178",80.445564,685.5261
"3179",79.8645,685.53955
"3180",79.51537,685.553
"3181",79.37133,685.5664
"3182",79.37621,685.57983
"3183",79.45922,685.59326
"3184",79.54955,685.6067
"3185",79.588615,685.6201
"3186",79.537346,685.63354
"3187",79.38354,685.647
"3188",79.12718,685.6604
"3189",78.78294,685.6738
"3190",78.380104,685.68726
"3191",77.94064,685.7007
"3192",77.50118,685.7141
"3193",77.08125,685.72754
"3194",76.697945,685.74097
"3195",76.36591,685.7544
"3196",76.102234,685.7678
"3197",75.90204,685.78125
"3198",75.7702,685.7947
"3199",75.701836,685.8081
"3200",75.682304,685.82153
"3201",75.68963,685.83496
"3202",75.699394,685.8484
"3203",75.68963,685.8618
"3204",75.65545,685.87524
"3205",75.58709,685.8887
"3206",75.48455,685.9021
"3207",75.36492,685.9155
"3208",75.24773,685.92896
"3209",75.14763,685.9424
"3210",75.08171,685.9558
"3211",75.09148,685.96924
"3212",75.26238,685.98267
"3213",75.70916,685.9961
"3214",76.53437,686.0095
"3215",77.80148,686.02295
"3216",79.45678,686.0364
"3217",81.34646,686.0498
"3218",83.23125,686.06323
"3219",84.859695,686.07666
"3220",86.04379,686.0901
"3221",86.693214,686.1035
"3222",86.81041,686.11694
"3223",86.47593,686.1304
"3224",85.81674,686.1438
"3225",84.95491,686.1572
"3226",83.9881,686.17065
"3227",82.984665,686.1841
"3228",81.99344,686.1975
"3229",81.05104,686.21094
"3230",80.216064,686.22437
"3231",79.53002,686.2378
"3232",79.03197,686.2512
"3233",78.73167,686.26465
"3234",78.60471,686.2781
"3235",78.607155,686.2915
"3236",78.66819,686.30493
"3237",78.73411,686.31836
"3238",78.751205,686.3318
"3239",78.68772,686.3452
"3240",78.53147,686.35864
"3241",78.28489,686.3721
"3242",77.962616,686.3855
"3243",77.58907,686.3989
"3244",77.19356,686.41235
"3245",76.79805,686.4258
"3246",76.42695,686.4392
"3247",76.102234,686.45264
"3248",75.83124,686.46606
"3249",75.613945,686.4795
"3250",75.44305,686.4929
"3251",75.31609,686.50635
"3252",75.228195,686.5198
"3253",75.16716,686.5332
"3254",75.125656,686.54663
"3255",75.11101,686.56006
"3256",75.11345,686.5735
"3257",75.13298,686.5869
"3258",75.16472,686.60034
"3259",75.20378,686.6138
"3260",75.24284,686.6272
"3261",75.26238,686.6406
"3262",75.26238,686.65405
"3263",75.23552,686.6675
"3264",75.18913,686.6809
"3265",75.11833,686.69434
"3266",75.037766,686.70776
"3267",74.95232,686.7212
"3268",74.8864,686.7346
"3269",74.84978,686.74805
"3270",74.88884,686.7615
"3271",75.089035,686.7749
"3272",75.56756,686.7883
"3273",76.42451,686.80176
"3274",77.69894,686.8152
"3275",79.3225,686.8286
"3276",81.13161,686.84204
"3277",82.882126,686.85547
"3278",84.3299,686.8689
"3279",85.31869,686.8823
"3280",85.79965,686.89575
"3281",85.80942,686.9092
"3282",85.452965,686.9226
"3283",84.85481,686.93604
"3284",84.12726,686.94946
"3285",83.353325,686.9629
"3286",82.58671,686.9763
"3287",81.85184,686.98975
"3288",81.17067,687.0032
"3289",80.57252,687.0166
"3290",80.08911,687.03
"3291",79.7351,687.04346
"3292",79.52514,687.0569
"3293",79.45434,687.0703
"3294",79.48852,687.08374
"3295",79.58129,687.09717
"3296",79.68383,687.1106
"3297",79.7522,687.124
"3298",79.7522,687.13745
"3299",79.66918,687.1509
"3300",79.50561,687.1643
"3301",79.276115,687.17773
"3302",79.00267,687.19116
"3303",78.70237,687.2046
"3304",78.397194,687.218
"3305",78.10422,687.23145
"3306",77.83566,687.2449
"3307",77.608604,687.2583
"3308",77.42794,687.2717
"3309",77.29366,687.28516
"3310",77.196,687.2986
"3311",77.13252,687.312
"3312",77.09102,687.32544
"3313",77.06416,687.33887
"3314",77.04707,687.3523
"3315",77.03975,687.3657
"3316",77.04219,687.37915
"3317",77.03975,687.3926
"3318",77.02754,687.406
"3319",77.00313,687.41943
"3320",76.97139,687.43286
"3321",76.944534,687.4463
"3322",76.925,687.4597
"3323",76.912796,687.47314
"3324",76.90059,687.4866
"3325",76.87862,687.5
"3326",76.83467,687.5134
"3327",76.76875,687.52686
"3328",76.69062,687.5403
"3329",76.60517,687.5537
"3330",76.52216,687.56714
"3331",76.453804,687.58057
"3332",76.40986,687.594
"3333",76.42939,687.6074
"3334",76.58564,687.62085
"3335",76.995804,687.6343
"3336",77.75998,687.6477
"3337",78.91722,687.66113
"3338",80.40894,687.67456
"3339",82.06668,687.688
"3340",83.66094,687.7014
"3341",84.95979,687.71484
"3342",85.821625,687.7283
"3343",86.20004,687.7417
"3344",86.14877,687.7551
"3345",85.76547,687.76855
"3346",85.172195,687.782
"3347",84.47639,687.7954
"3348",83.75372,687.80884
"3349",83.05058,687.82227
"3350",82.39872,687.8357
"3351",81.81766,687.8491
"3352",81.324486,687.86255
"3353",80.92897,687.876
"3354",80.6482,687.8894
"3355",80.49195,687.90283
"3356",80.448006,687.91626
"3357",80.49683,687.9297
"3358",80.59449,687.9431
"3359",80.709236,687.95654
"3360",80.78981,687.97
"3361",80.80446,687.9834
"3362",80.743416,687.9968
"3363",80.61158,688.01025
"3364",80.41627,688.0237
"3365",80.17212,688.0371
"3366",79.90112,688.05054
"3367",79.622795,688.06396
"3368",79.35668,688.0774
"3369",79.11253,688.0908
"3370",78.89769,688.10425
"3371",78.71946,688.1177
"3372",78.57786,688.1311
"3373",78.47288,688.14453
"3374",78.397194,688.15796
"3375",78.35081,688.1714
"3376",78.32639,688.1848
"3377",78.3093,688.19824
"3378",78.29954,688.2117
"3379",78.28977,688.2251
"3380",78.27512,688.2385
"3381",78.260475,688.25195
"3382",78.24094,688.2654
"3383",78.21408,688.2788
"3384",78.184784,688.29224
"3385",78.15793,688.30566
"3386",78.135956,688.3191
"3387",78.116425,688.3325
"3388",78.09201,688.34595
"3389",78.05783,688.3594
"3390",78.00656,688.3728
"3391",77.93332,688.3862
"3392",77.84299,688.39966
"3393",77.75021,688.4131
"3394",77.659874,688.4265
"3395",77.58419,688.43994
"3396",77.53536,688.45337
"3397",77.53536,688.4668
"3398",77.6379,688.4802
"3399",77.94797,688.49365
"3400",78.56809,688.5071
"3401",79.54711,688.5205
"3402",80.85329,688.53394
"3403",82.354774,688.54736
"3404",83.83673,688.5608
"3405",85.07454,688.5742
"3406",85.91196,688.58765
"3407",86.295265,688.6011
"3408",86.258644,688.6145
"3409",85.8851,688.6279
"3410",85.296715,688.64136
"3411",84.6009,688.6548
"3412",83.87579,688.6682
"3413",83.175095,688.68164
"3414",82.528114,688.69507
"3415",81.94705,688.7085
"3416",81.45144,688.7219
"3417",81.05592,688.73535
"3418",80.76784,688.7488
"3419",80.601814,688.7622
"3420",80.552986,688.77563
"3421",80.601814,688.78906
"3422",80.71412,688.8025
"3423",80.84352,688.8159
"3424",80.95094,688.82935
"3425",81.007095,688.8428
"3426",80.990005,688.8562
"3427",80.89479,688.8696
"3428",80.73609,688.88306
"3429",80.52369,688.8965
"3430",80.27711,688.9099
"3431",80.01587,688.92334
"3432",79.75708,688.93677
"3433",79.51049,688.9502
"3434",79.28832,688.9636
"3435",79.10033,688.97705
"3436",78.9514,688.9905
"3437",78.83421,689.0039
"3438",78.74876,689.01733
"3439",78.68772,689.03076
"3440",78.64866,689.0442
"3441",78.6218,689.0576
"3442",78.60227,689.07104
"3443",78.58762,689.0845
"3444",78.5803,689.0979
"3445",78.5803,689.1113
"3446",78.58274,689.12476
"3447",78.5803,689.1382
"3448",78.572975,689.1516
"3449",78.555885,689.16504
"3450",78.52659,689.17847
"3451",78.49241,689.1919
"3452",78.45335,689.2053
"3453",78.4094,689.21875
"3454",78.35813,689.2322
"3455",78.28733,689.2456
"3456",78.19699,689.25903
"3457",78.09689,689.27246
"3458",77.996796,689.2859
"3459",77.90402,689.2993
"3460",77.83566,689.31274
"3461",77.81613,689.3262
"3462",77.91379,689.3396
"3463",78.22873,689.353
"3464",78.84398,689.36646
"3465",79.80835,689.3799
"3466",81.07057,689.3933
"3467",82.493935,689.40674
"3468",83.86603,689.42017
"3469",84.99153,689.4336
"3470",85.73617,689.447
"3471",86.06088,689.46045
"3472",85.99008,689.4739
"3473",85.62142,689.4873
"3474",85.05501,689.50073
"3475",84.3885,689.51416
"3476",83.69756,689.5276
"3477",83.03349,689.541
"3478",82.41581,689.55444
"3479",81.864044,689.5679
"3480",81.39529,689.5813
"3481",81.024185,689.5947
"3482",80.765396,689.60815
"3483",80.62867,689.6216
"3484",80.601814,689.635
"3485",80.65797,689.64844
"3486",80.76784,689.66187
"3487",80.89235,689.6753
"3488",80.99489,689.6887
"3489",81.04372,689.70215
"3490",81.02907,689.7156
"3491",80.94362,689.729
"3492",80.78981,689.74243
"3493",80.58961,689.75586
"3494",80.35767,689.7693
"3495",80.10376,689.7827
"3496",79.84985,689.79614
"3497",79.605705,689.8096
"3498",79.378654,689.823
"3499",79.18822,689.8364
"3500",79.03685,689.84985
"3501",78.922104,689.8633
"3502",78.836655,689.8767
"3503",78.78294,689.89014
"3504",78.746315,689.90356
"3505",78.71946,689.917
"3506",78.70725,689.9304
"3507",78.70725,689.94385
"3508",78.71458,689.9573
"3509",78.729225,689.9707
"3510",78.74387,689.98413
"3511",78.75609,689.99756
"3512",78.768295,690.011
"3513",78.77562,690.0244
"3514",78.77318,690.03784
"3515",78.75609,690.0513
"3516",78.709694,690.0647
"3517",78.63157,690.0781
"3518",78.52659,690.09155
"3519",78.41184,690.105
"3520",78.2971,690.1184
"3521",78.19943,690.13184
"3522",78.12131,690.14526
"3523",78.07248,690.1587
"3524",78.08469,690.1721
"3525",78.23605,690.18555
"3526",78.63645,690.199
"3527",79.361565,690.2124
"3528",80.42359,690.2258
"3529",81.7322,690.23926
"3530",83.13359,690.2527
"3531",84.42512,690.2661
"3532",85.42855,690.27954
"3533",86.05356,690.29297
"3534",86.28794,690.3064
"3535",86.18051,690.3198
"3536",85.81186,690.33325
"3537",85.279625,690.3467
"3538",84.66682,690.3601
"3539",84.0296,690.37354
"3540",83.40948,690.38696
"3541",82.8333,690.4004
"3542",82.31327,690.4138
"3543",81.87869,690.42725
"3544",81.54421,690.4407
"3545",81.32693,690.4541
"3546",81.231705,690.4675
"3547",81.24391,690.48096
"3548",81.33669,690.4944
"3549",81.47341,690.5078
"3550",81.61257,690.52124
"3551",81.71511,690.53467
"3552",81.74929,690.5481
"3553",81.705345,690.5615
"3554",81.58572,690.57495
"3555",81.392845,690.5884
"3556",81.1487,690.6018
"3557",80.87526,690.61523
"3558",80.58228,690.62866
"3559",80.29664,690.6421
"3560",80.028076,690.6555
"3561",79.79126,690.66895
"3562",79.586174,690.6824
"3563",79.412834,690.6958
"3564",79.27123,690.7092
"3565",79.166245,690.72266
"3566",79.08812,690.7361
"3567",79.04173,690.7495
"3568",79.01488,690.76294
"3569",79.00267,690.77637
"3570",79.00023,690.7898
"3571",78.99779,690.8032
"3572",78.99779,690.81665
"3573",78.99779,690.8301
"3574",78.992905,690.8435
"3575",78.97093,690.85693
"3576",78.92943,690.87036
"3577",78.86839,690.8838
"3578",78.78294,690.8972
"3579",78.68284,690.91064
"3580",78.5803,690.9241
"3581",78.485085,690.9375
"3582",78.40452,690.9509
"3583",78.363014,690.96436
"3584",78.41184,690.9778
"3585",78.63889,690.9912
"3586",79.14427,691.00464
"3587",79.98413,691.01807
"3588",81.13893,691.0315
"3589",82.50858,691.0449
"3590",83.92218,691.05835
"3591",85.19173,691.0718
"3592",86.16098,691.0852
"3593",86.75914,691.09863
"3594",86.98863,691.11206
"3595",86.890976,691.1255
"3596",86.54429,691.1389
"3597",86.03647,691.15234
"3598",85.44564,691.1658
"3599",84.82063,691.1792
"3600",84.19806,691.1926
"3601",83.60235,691.20605
"3602",83.070114,691.2195
"3603",82.62333,691.2329
"3604",82.29374,691.24634
"3605",82.09354,691.25977
"3606",82.01785,691.2732
"3607",82.04471,691.2866
"3608",82.13992,691.30005
"3609",82.25712,691.3135
"3610",82.357216,691.3269
"3611",82.408485,691.34033
"3612",82.38407,691.35376
"3613",82.27665,691.3672
"3614",82.08621,691.3806
"3615",81.829865,691.39404
"3616",81.529564,691.4075
"3617",81.20241,691.4209
"3618",80.87526,691.4343
"3619",80.55543,691.44775
"3620",80.2649,691.4612
"3621",80.00366,691.4746
"3622",79.77173,691.48804
"3623",79.571526,691.50146
"3624",79.40307,691.5149
"3625",79.26147,691.5283
"3626",79.149155,691.54175
"3627",79.06859,691.5552
"3628",79.009995,691.5686
"3629",78.96849,691.58203
"3630",78.93919,691.59546
"3631",78.91966,691.6089
"3632",78.89769,691.6223
"3633",78.870834,691.63574
"3634",78.82445,691.6492
"3635",78.75853,691.6626
"3636",78.66575,691.676
"3637",78.553444,691.68945
"3638",78.433815,691.7029
"3639",78.311745,691.7163
"3640",78.19699,691.72974
"3641",78.099335,691.74316
"3642",78.030975,691.7566
"3643",78.0383,691.77
"3644",78.21652,691.78345
"3645",78.66331,691.7969
"3646",79.45434,691.8103
"3647",80.59693,691.8237
"3648",82.01053,691.83716
"3649",83.543755,691.8506
"3650",84.998856,691.864
"3651",86.19272,691.87744
"3652",87.01549,691.89087
"3653",87.42809,691.9043
"3654",87.45495,691.9177
"3655",87.17174,691.93115
"3656",86.67368,691.9446
"3657",86.056,691.958
"3658",85.384605,691.97144
"3659",84.69367,691.98486
"3660",84.02472,691.9983
"3661",83.404594,692.0117
"3662",82.86748,692.02515
"3663",82.43778,692.0386
"3664",82.13992,692.052
"3665",81.96658,692.0654
"3666",81.90799,692.07886
"3667",81.92508,692.0923
"3668",81.97635,692.1057
"3669",82.02762,692.11914
"3670",82.039825,692.13257
"3671",81.98123,692.146
"3672",81.83719,692.1594
"3673",81.617455,692.17285
"3674",81.32937,692.1863
"3675",80.990005,692.1997
"3676",80.62623,692.21313
"3677",80.257576,692.22656
"3678",79.89624,692.24
"3679",79.554436,692.2534
"3680",79.24193,692.26685
"3681",78.96849,692.2803
"3682",78.73167,692.2937
"3683",78.53391,692.3071
"3684",78.37766,692.32056
"3685",78.25315,692.334
"3686",78.150604,692.3474
"3687",78.07004,692.36084
"3688",78.009,692.37427
"3689",77.962616,692.3877
"3690",77.92844,692.4011
"3691",77.90158,692.41455
"3692",77.872284,692.428
"3693",77.83078,692.4414
"3694",77.77219,692.45483
"3695",77.69161,692.46826
"3696",77.591515,692.4817
"3697",77.471886,692.4951
"3698",77.347374,692.50854
"3699",77.22041,692.522
"3700",77.09834,692.5354
"3701",77.00069,692.5488
"3702",76.95186,692.56226
"3703",77.00801,692.5757
"3704",77.27657,692.5891
"3705",77.86984,692.60254
"3706",78.84398,692.61597
"3707",80.18677,692.6294
"3708",81.795685,692.6428
"3709",83.48028,692.65625
"3710",85.02327,692.6697
"3711",86.24887,692.6831
"3712",87.05211,692.69653
"3713",87.40856,692.70996
"3714",87.35241,692.7234
"3715",86.97398,692.7368
"3716",86.383156,692.75024
"3717",85.680016,692.7637
"3718",84.92561,692.7771
"3719",84.173645,692.7905
"3720",83.45342,692.80396
"3721",82.78935,692.8174
"3722",82.213165,692.8308
"3723",81.74441,692.84424
"3724",81.40749,692.85767
"3725",81.20485,692.8711
"3726",81.11696,692.8845
"3727",81.10475,692.89795
"3728",81.12428,692.9114
"3729",81.13405,692.9248
"3730",81.094986,692.93823
"3731",80.987564,692.95166
"3732",80.80202,692.9651
"3733",80.54322,692.9785
"3734",80.22339,692.99194
"3735",79.85962,693.0054
"3736",79.47143,693.0188
"3737",79.080795,693.0322
"3738",78.70481,693.04565
"3739",78.35569,693.0591
"3740",78.04074,693.0725
"3741",77.7673,693.08594
"3742",77.54269,693.09937
"3743",77.366905,693.1128
"3744",77.239944,693.1262
"3745",77.152054,693.13965
"3746",77.09102,693.1531
"3747",77.04219,693.1665
"3748",77.00313,693.17993
"3749",76.96651,693.19336
"3750",76.93477,693.2068
"3751",76.90547,693.2202
"3752",76.87862,693.23364
"3753",76.84444,693.2471
"3754",76.79805,693.2605
"3755",76.734566,693.2739
"3756",76.654,693.28735
"3757",76.55146,693.3008
"3758",76.43427,693.3142
"3759",76.317085,693.32764
"3760",76.207214,693.34106
"3761",76.11932,693.3545
"3762",76.09003,693.3679
"3763",76.1828,693.38135
"3764",76.50996,693.3948
"3765",77.18379,693.4082
"3766",78.2678,693.42163
"3767",79.74975,693.43506
"3768",81.51736,693.4485
"3769",83.36797,693.4619
"3770",85.0721,693.47534
"3771",86.431984,693.4888
"3772",87.33288,693.5022
"3773",87.745476,693.5156
"3774",87.71374,693.52905
"3775",87.33288,693.5425
"3776",86.72007,693.5559
"3777",85.977875,693.56934
"3778",85.17708,693.58276
"3779",84.37141,693.5962
"3780",83.59014,693.6096
"3781",82.865036,693.62305
"3782",82.22537,693.6365
"3783",81.70779,693.6499
"3784",81.324486,693.6633
"3785",81.08278,693.67676
"3786",80.955826,693.6902
"3787",80.91188,693.7036
"3788",80.89967,693.71704
"3789",80.88258,693.73047
"3790",80.816666,693.7439
"3791",80.68482,693.7573
"3792",80.47486,693.77075
"3793",80.198975,693.7842
"3794",79.8645,693.7976
"3795",79.483635,693.81104
"3796",79.08568,693.82446
"3797",78.68528,693.8379
"3798",78.2971,693.8513
"3799",77.94797,693.86475
"3800",77.645226,693.8782
"3801",77.39376,693.8916
"3802",77.18379,693.905
"3803",77.01289,693.91846
"3804",76.87862,693.9319
"3805",76.78096,693.9453
"3806",76.715034,693.95874
"3807",76.67109,693.97217
"3808",76.646675,693.9856
"3809",76.63447,693.999
"3810",76.627144,694.01245
"3811",76.61982,694.0259
"3812",76.612495,694.0393
"3813",76.59785,694.05273
"3814",76.561226,694.06616
"3815",76.49775,694.0796
"3816",76.404976,694.093
"3817",76.28779,694.10645
"3818",76.16327,694.1199
"3819",76.03876,694.1333
"3820",75.93378,694.1467
"3821",75.86786,694.16016
"3822",75.87518,694.1736
"3823",76.04852,694.187
"3824",76.50263,694.20044
"3825",77.34005,694.21387
"3826",78.6096,694.2273
"3827",80.26002,694.2407
"3828",82.15213,694.25415
"3829",84.06134,694.2676
"3830",85.748375,694.281
"3831",87.03502,694.29443
"3832",87.82605,694.30786
"3833",88.10437,694.3213
"3834",87.938354,694.3347
"3835",87.44518,694.34814
"3836",86.744484,694.3616
"3837",85.93637,694.375
"3838",85.084305,694.3884
"3839",84.22247,694.40186
"3840",83.38262,694.4153
"3841",82.59647,694.4287
"3842",81.90799,694.44214
"3843",81.35134,694.45557
"3844",80.955826,694.469
"3845",80.719,694.4824
"3846",80.6067,694.49585
"3847",80.57496,694.5093
"3848",80.5774,694.5227
"3849",80.552986,694.53613
"3850",80.465096,694.54956
"3851",80.29908,694.563
"3852",80.05493,694.5764
"3853",79.7351,694.58984
"3854",79.361565,694.6033
"3855",78.958725,694.6167
"3856",78.551,694.6301
"3857",78.150604,694.64355
"3858",77.78195,694.657
"3859",77.452354,694.6704
"3860",77.17647,694.68384
"3861",76.94942,694.69727
"3862",76.76875,694.7107
"3863",76.629585,694.7241
"3864",76.53193,694.73755
"3865",76.45869,694.751
"3866",76.404976,694.7644
"3867",76.3708,694.77783
"3868",76.34882,694.79126
"3869",76.334175,694.8047
"3870",76.334175,694.8181
"3871",76.34394,694.83154
"3872",76.351265,694.845
"3873",76.351265,694.8584
"3874",76.334175,694.8718
"3875",76.297554,694.88525
"3876",76.23895,694.8987
"3877",76.16083,694.9121
"3878",76.070496,694.92554
"3879",75.97284,694.93896
"3880",75.877625,694.9524
"3881",75.7995,694.9658
"3882",75.757996,694.97925
"3883",75.80438,694.9927
"3884",76.02655,695.0061
"3885",76.55146,695.01953
"3886",77.47677,695.03296
"3887",78.84398,695.0464
"3888",80.59693,695.0598
"3889",82.579384,695.07324
"3890",84.55695,695.0867
"3891",86.2855,695.1001
"3892",87.5819,695.1135
"3893",88.343636,695.12695
"3894",88.57313,695.1404
"3895",88.34852,695.1538
"3896",87.801636,695.16724
"3897",87.05699,695.18066
"3898",86.22446,695.1941
"3899",85.367516,695.2075
"3900",84.508125,695.22095
"3901",83.66827,695.2344
"3902",82.8748,695.2478
"3903",82.16678,695.2612
"3904",81.58083,695.27466
"3905",81.143814,695.2881
"3906",80.848404,695.3015
"3907",80.6775,695.31494
"3908",80.58228,695.32837
"3909",80.51148,695.3418
"3910",80.42359,695.3552
"3911",80.2942,695.36865
"3912",80.09888,695.3821
"3913",79.83276,695.3955
"3914",79.50561,695.40894
"3915",79.12962,695.42236
"3916",78.73167,695.4358
"3917",78.328835,695.4492
"3918",77.943085,695.46265
"3919",77.591515,695.4761
"3920",77.281456,695.4895
"3921",77.01778,695.5029
"3922",76.79561,695.51636
"3923",76.61494,695.5298
"3924",76.473335,695.5432
"3925",76.368355,695.55664
"3926",76.29023,695.57007
"3927",76.23651,695.5835
"3928",76.19501,695.5969
"3929",76.16571,695.61035
"3930",76.138855,695.6238
"3931",76.10956,695.6372
"3932",76.0827,695.65063
"3933",76.05829,695.66406
"3934",76.03143,695.6775
"3935",76.0119,695.6909
"3936",76.00458,695.70435
"3937",76.00702,695.7178
"3938",76.0119,695.7312
"3939",76.00702,695.7446
"3940",75.98016,695.75806
"3941",75.92157,695.7715
"3942",75.83856,695.7849
"3943",75.74578,695.79834
"3944",75.65301,695.81177
"3945",75.58221,695.8252
"3946",75.54803,695.8386
"3947",75.58953,695.85205
"3948",75.789734,695.8655
"3949",76.265816,695.8789
"3950",77.13252,695.89233
"3951",78.45335,695.90576
"3952",80.18921,695.9192
"3953",82.20096,695.9326
"3954",84.2591,695.94604
"3955",86.10483,695.9595
"3956",87.52819,695.9729
"3957",88.41444,695.9863
"3958",88.74891,695.99976
"3959",88.59754,696.0132
"3960",88.09216,696.0266
"3961",87.37438,696.04004
"3962",86.56626,696.05347
"3963",85.73373,696.0669
"3964",84.90852,696.0803
"3965",84.105286,696.09375
"3966",83.33868,696.1072
"3967",82.62333,696.1206
"3968",81.99588,696.13403
"3969",81.4905,696.14746
"3970",81.11696,696.1609
"3971",80.86549,696.1743
"3972",80.70191,696.18774
"3973",80.59693,696.2012
"3974",80.50904,696.2146
"3975",80.394295,696.228
"3976",80.22827,696.24146
"3977",79.99878,696.2549
"3978",79.7058,696.2683
"3979",79.35912,696.28174
"3980",78.97826,696.29517
"3981",78.58762,696.3086
"3982",78.2092,696.322
"3983",77.857635,696.33545
"3984",77.54513,696.3489
"3985",77.27657,696.3623
"3986",77.05684,696.37573
"3987",76.8835,696.38916
"3988",76.74677,696.4026
"3989",76.63935,696.416
"3990",76.55146,696.42944
"3991",76.48066,696.4429
"3992",76.419624,696.4563
"3993",76.36591,696.4697
"3994",76.31953,696.48315
"3995",76.282906,696.4966
"3996",76.24872,696.51
"3997",76.21942,696.52344
"3998",76.19745,696.53687
"3999",76.17792,696.5503
"4000",76.17059,696.5637
"4001",76.17792,696.57715
"4002",76.19501,696.5906
"4003",76.2121,696.604
"4004",76.21942,696.61743
"4005",76.21454,696.63086
"4006",76.190125,696.6443
"4007",76.14862,696.6577
"4008",76.09491,696.67114
"4009",76.0412,696.6846
"4010",75.99481,696.698
"4011",75.96307,696.7114
"4012",75.96796,696.72485
"4013",76.050964,696.7383
"4014",76.32197,696.7517
"4015",76.90547,696.76514
"4016",77.90646,696.77856
"4017",79.36645,696.792
"4018",81.22682,696.8054
"4019",83.3045,696.81885
"4020",85.350426,696.8323
"4021",87.115585,696.8457
"4022",88.41932,696.85913
"4023",89.17128,696.87256
"4024",89.38613,696.886
"4025",89.144424,696.8994
"4026",88.58289,696.91284
"4027",87.835815,696.9263
"4028",87.00816,696.9397
"4029",86.16098,696.9531
"4030",85.32357,696.96655
"4031",84.505684,696.98
"4032",83.719536,696.9934
"4033",82.99931,697.00684
"4034",82.36454,697.02026
"4035",81.85672,697.0337
"4036",81.48562,697.0471
"4037",81.24635,697.06055
"4038",81.09987,697.074
"4039",81.004654,697.0874
"4040",80.921646,697.1008
"4041",80.8069,697.11426
"4042",80.635994,697.1277
"4043",80.40162,697.1411
"4044",80.111084,697.15454
"4045",79.76196,697.16797
"4046",79.378654,697.1814
"4047",78.98558,697.1948
"4048",78.59739,697.20825
"4049",78.23117,697.2217
"4050",77.90158,697.2351
"4051",77.61349,697.24854
"4052",77.366905,697.26196
"4053",77.16914,697.2754
"4054",77.015335,697.2888
"4055",76.90303,697.30225
"4056",76.822464,697.3157
"4057",76.75899,697.3291
"4058",76.70527,697.3425
"4059",76.66132,697.35596
"4060",76.61982,697.3694
"4061",76.578316,697.3828
"4062",76.541695,697.39624
"4063",76.5124,697.40967
"4064",76.48798,697.4231
"4065",76.46845,697.4365
"4066",76.46113,697.44995
"4067",76.46113,697.4634
"4068",76.46601,697.4768
"4069",76.46601,697.49023
"4070",76.46357,697.50366
"4071",76.44892,697.5171
"4072",76.42451,697.5305
"4073",76.383,697.54395
"4074",76.32441,697.5574
"4075",76.26093,697.5708
"4076",76.19989,697.5842
"4077",76.14862,697.59766
"4078",76.121765,697.6111
"4079",76.15839,697.6245
"4080",76.34638,697.63794
"4081",76.805374,697.65137
"4082",77.66964,697.6648
"4083",79.00511,697.6782
"4084",80.78981,697.69165
"4085",82.882126,697.7051
"4086",85.0428,697.7185
"4087",86.9984,697.73193
"4088",88.52674,697.74536
"4089",89.498436,697.7588
"4090",89.884186,697.7722
"4091",89.75479,697.78564
"4092",89.24208,697.7991
"4093",88.49012,697.8125
"4094",87.63317,697.8259
"4095",86.746925,697.83936
"4096",85.872894,697.8528
"4097",85.02083,697.8662
"4098",84.20538,697.87964
"4099",83.43633,697.89307
"4100",82.74296,697.9065
"4101",82.159454,697.9199
"4102",81.71511,697.93335
"4103",81.40749,697.9468
"4104",81.21217,697.9602
"4105",81.0901,697.97363
"4106",80.99977,697.98706
"4107",80.89479,698.0005
"4108",80.7483,698.0139
"4109",80.54078,698.02734
"4110",80.274666,698.0408
"4111",79.957275,698.0542
"4112",79.59594,698.0676
"4113",79.20775,698.08105
"4114",78.8098,698.0945
"4115",78.42161,698.1079
"4116",78.06271,698.12134
"4117",77.747765,698.13477
"4118",77.47677,698.1482
"4119",77.24727,698.1616
"4120",77.06172,698.17505
"4121",76.91524,698.1885
"4122",76.79805,698.2019
"4123",76.71015,698.21533
"4124",76.646675,698.22876
"4125",76.595406,698.2422
"4126",76.55146,698.2556
"4127",76.50996,698.26904
"4128",76.473335,698.2825
"4129",76.43183,698.2959
"4130",76.39277,698.3093
"4131",76.35615,698.32275
"4132",76.32441,698.3362
"4133",76.299995,698.3496
"4134",76.29267,698.36304
"4135",76.29023,698.37646
"4136",76.29267,698.3899
"4137",76.28535,698.4033
"4138",76.2707,698.41675
"4139",76.241394,698.4302
"4140",76.207214,698.4436
"4141",76.155945,698.45703
"4142",76.09979,698.47046
"4143",76.04852,698.4839
"4144",76.00458,698.4973
"4145",75.98505,698.51074
"4146",76.03876,698.5242
"4147",76.25849,698.5376
"4148",76.77852,698.551
"4149",77.72579,698.56445
"4150",79.15892,698.5779
"4151",81.03883,698.5913
"4152",83.20683,698.60474
"4153",85.40658,698.61816
"4154",87.362175,698.6316
"4155",88.86122,698.645
"4156",89.78409,698.65845
"4157",90.11612,698.6719
"4158",89.93057,698.6853
"4159",89.36416,698.6987
"4160",88.5658,698.71216
"4161",87.66247,698.7256
"4162",86.73716,698.739
"4163",85.83383,698.75244
"4164",84.962234,698.76587
"4165",84.139465,698.7793
"4166",83.3753,698.7927
"4167",82.701454,698.80615
"4168",82.13992,698.8196
"4169",81.71267,698.833
"4170",81.40749,698.84644
"4171",81.20973,698.85986
"4172",81.08278,698.8733
"4173",80.987564,698.8867
"4174",80.88991,698.90015
"4175",80.75075,698.9136
"4176",80.55543,698.927
"4177",80.289314,698.9404
"4178",79.95972,698.95386
"4179",79.586174,698.9673
"4180",79.19066,698.9807
"4181",78.79027,698.99414
"4182",78.4094,699.00757
"4183",78.05539,699.021
"4184",77.738,699.0344
"4185",77.45968,699.04785
"4186",77.222855,699.0613
"4187",77.02754,699.0747
"4188",76.86885,699.08813
"4189",76.74433,699.10156
"4190",76.64912,699.115
"4191",76.57343,699.1284
"4192",76.5124,699.14185
"4193",76.46845,699.1553
"4194",76.43183,699.1687
"4195",76.402534,699.1821
"4196",76.37568,699.19556
"4197",76.35615,699.209
"4198",76.34394,699.2224
"4199",76.33906,699.23584
"4200",76.3415,699.24927
"4201",76.351265,699.2627
"4202",76.351265,699.2761
"4203",76.3415,699.28955
"4204",76.314644,699.303
"4205",76.265816,699.3164
"4206",76.19989,699.32983
"4207",76.121765,699.34326
"4208",76.04852,699.3567
"4209",75.982605,699.3701
"4210",75.93622,699.38354
"4211",75.928894,699.397
"4212",76.02899,699.4104
"4213",76.35371,699.4238
"4214",77.04707,699.43726
"4215",78.21164,699.4507
"4216",79.87915,699.4641
"4217",81.94705,699.47754
"4218",84.2005,699.49097
"4219",86.363625,699.5044
"4220",88.17517,699.5178
"4221",89.45205,699.53125
"4222",90.125885,699.5447
"4223",90.21866,699.5581
"4224",89.83292,699.57153
"4225",89.112686,699.58496
"4226",88.20691,699.5984
"4227",87.235214,699.6118
"4228",86.26597,699.62524
"4229",85.32845,699.6387
"4230",84.43244,699.6521
"4231",83.59014,699.6655
"4232",82.82109,699.67896
"4233",82.159454,699.6924
"4234",81.64431,699.7058
"4235",81.28298,699.71924
"4236",81.06325,699.73267
"4237",80.95094,699.7461
"4238",80.88747,699.7595
"4239",80.82643,699.77295
"4240",80.726326,699.7864
"4241",80.56519,699.7998
"4242",80.325935,699.81323
"4243",80.01343,699.82666
"4244",79.639885,699.8401
"4245",79.22484,699.8535
"4246",78.79515,699.86694
"4247",78.380104,699.8804
"4248",77.99924,699.8938
"4249",77.662315,699.9072
"4250",77.37179,699.92065
"4251",77.1252,699.9341
"4252",76.92012,699.9475
"4253",76.754105,699.96094
"4254",76.62226,699.97437
"4255",76.51972,699.9878
"4256",76.4416,700.0012
"4257",76.38056,700.01465
"4258",76.33173,700.0281
"4259",76.29267,700.0415
"4260",76.265816,700.05493
"4261",76.25117,700.06836
"4262",76.24628,700.0818
"4263",76.25361,700.0952
"4264",76.26826,700.10864
"4265",76.282906,700.1221
"4266",76.29511,700.1355
"4267",76.30488,700.1489
"4268",76.299995,700.16235
"4269",76.27558,700.1758
"4270",76.23407,700.1892
"4271",76.173035,700.20264
"4272",76.09735,700.21606
"4273",76.019226,700.2295
"4274",75.948425,700.2429
"4275",75.897156,700.25635
"4276",75.90692,700.2698
"4277",76.07538,700.2832
"4278",76.53925,700.29663
"4279",77.44015,700.31006
"4280",78.85863,700.3235
"4281",80.76051,700.3369
"4282",82.99443,700.35034
"4283",85.30648,700.3638
"4284",87.40856,700.3772
"4285",89.06386,700.3906
"4286",90.13565,700.40405
"4287",90.58732,700.4175
"4288",90.48234,700.4309
"4289",89.935455,700.44434
"4290",89.1078,700.45776
"4291",88.13611,700.4712
"4292",87.12047,700.4846
"4293",86.11215,700.49805
"4294",85.14778,700.5115
"4295",84.23712,700.5249
"4296",83.39971,700.5383
"4297",82.66483,700.55176
"4298",82.0618,700.5652
"4299",81.617455,700.5786
"4300",81.3196,700.59204
"4301",81.146255,700.60547
"4302",81.05104,700.6189
"4303",80.9778,700.6323
"4304",80.885025,700.64575
"4305",80.743416,700.6592
"4306",80.54322,700.6726
"4307",80.272224,700.68604
"4308",79.937744,700.69946
"4309",79.56176,700.7129
"4310",79.15648,700.7263
"4311",78.73899,700.73975
"4312",78.331276,700.7532
"4313",77.95041,700.7666
"4314",77.60616,700.78
"4315",77.30587,700.79346
"4316",77.04707,700.8069
"4317",76.83711,700.8203
"4318",76.67109,700.83374
"4319",76.53437,700.84717
"4320",76.42939,700.8606
"4321",76.34394,700.874
"4322",76.27558,700.88745
"4323",76.224304,700.9009
"4324",76.19745,700.9143
"4325",76.19501,700.92773
"4326",76.207214,700.94116
"4327",76.226746,700.9546
"4328",76.24628,700.968
"4329",76.25605,700.98145
"4330",76.25361,700.9949
"4331",76.23407,701.0083
"4332",76.192566,701.0217
"4333",76.13153,701.03516
"4334",76.050964,701.0486
"4335",75.95575,701.062
"4336",75.86542,701.07544
"4337",75.7995,701.08887
"4338",75.78729,701.1023
"4339",75.90204,701.1157
"4340",76.26826,701.12915
"4341",77.03487,701.1426
"4342",78.294655,701.156
"4343",80.05737,701.16943
"4344",82.20828,701.18286
"4345",84.52033,701.1963
"4346",86.70542,701.2097
"4347",88.50721,701.22314
"4348",89.75723,701.2366
"4349",90.389565,701.25
"4350",90.43595,701.2634
"4351",90.0087,701.27686
"4352",89.249405,701.2903
"4353",88.29481,701.3037
"4354",87.26208,701.31714
"4355",86.222015,701.33057
"4356",85.20882,701.344
"4357",84.25178,701.3574
"4358",83.370415,701.37085
"4359",82.598915,701.3843
"4360",81.9617,701.3977
"4361",81.478294,701.41113
"4362",81.1487,701.42456
"4363",80.95094,701.438
"4364",80.848404,701.4514
"4365",80.78981,701.46484
"4366",80.73121,701.4783
"4367",80.63355,701.4917
"4368",80.46998,701.5051
"4369",80.23071,701.51855
"4370",79.923096,701.532
"4371",79.554436,701.5454
"4372",79.13939,701.55884
"4373",78.709694,701.57227
"4374",78.28245,701.5857
"4375",77.872284,701.5991
"4376",77.49874,701.61255
"4377",77.17403,701.626
"4378",76.89815,701.6394
"4379",76.680855,701.65283
"4380",76.50996,701.66626
"4381",76.38056,701.6797
"4382",76.280464,701.6931
"4383",76.20477,701.70654
"4384",76.1413,701.72
"4385",76.09735,701.7334
"4386",76.07294,701.7468
"4387",76.06073,701.76025
"4388",76.06073,701.7737
"4389",76.068054,701.7871
"4390",76.07782,701.80054
"4391",76.09003,701.81396
"4392",76.10712,701.8274
"4393",76.12421,701.8408
"4394",76.138855,701.85425
"4395",76.13397,701.8677
"4396",76.112,701.8811
"4397",76.06073,701.89453
"4398",75.98749,701.90796
"4399",75.8996,701.9214
"4400",75.81415,701.9348
"4401",75.7409,701.94824
"4402",75.71404,701.9617
"4403",75.78729,701.9751
"4404",76.087585,701.9885
"4405",76.773636,702.00195
"4406",77.9675,702.0154
"4407",79.7058,702.0288
"4408",81.90555,702.04224
"4409",84.35432,702.05566
"4410",86.75426,702.0691
"4411",88.82216,702.0825
"4412",90.3505,702.09595
"4413",91.23918,702.1094
"4414",91.490654,702.1228
"4415",91.19768,702.1362
"4416",90.49943,702.14966
"4417",89.55215,702.1631
"4418",88.49256,702.1765
"4419",87.40856,702.18994
"4420",86.348976,702.20337
"4421",85.33822,702.2168
"4422",84.39338,702.2302
"4423",83.53887,702.24365
"4424",82.80156,702.2571
"4425",82.213165,702.2705
"4426",81.78592,702.28394
"4427",81.50515,702.29736
"4428",81.339134,702.3108
"4429",81.234146,702.3242
"4430",81.143814,702.33765
"4431",81.02907,702.3511
"4432",80.85817,702.3645
"4433",80.61402,702.3779
"4434",80.29908,702.39136
"4435",79.91821,702.4048
"4436",79.483635,702.4182
"4437",79.01976,702.43164
"4438",78.553444,702.44507
"4439",78.099335,702.4585
"4440",77.68673,702.4719
"4441",77.32052,702.48535
"4442",77.00557,702.4988
"4443",76.74433,702.5122
"4444",76.53437,702.52563
"4445",76.37324,702.53906
"4446",76.24872,702.5525
"4447",76.15839,702.5659
"4448",76.09491,702.57935
"4449",76.04608,702.5928
"4450",76.0119,702.6062
"4451",75.99237,702.6196
"4452",75.98749,702.63306
"4453",75.999695,702.6465
"4454",76.019226,702.6599
"4455",76.0412,702.67334
"4456",76.053406,702.68677
"4457",76.04852,702.7002
"4458",76.02655,702.7136
"4459",75.98505,702.72705
"4460",75.92401,702.7405
"4461",75.841,702.7539
"4462",75.74578,702.76733
"4463",75.648125,702.78076
"4464",75.55535,702.7942
"4465",75.494316,702.8076
"4466",75.508965,702.82104
"4467",75.701836,702.8345
"4468",76.226746,702.8479
"4469",77.225296,702.8613
"4470",78.768295,702.87476
"4471",80.82643,702.8882
"4472",83.23613,702.9016
"4473",85.74105,702.91504
"4474",88.03845,702.92847
"4475",89.88907,702.9419
"4476",91.12932,702.9553
"4477",91.71038,702.96875
"4478",91.67864,702.9822
"4479",91.16106,702.9956
"4480",90.31388,703.00903
"4481",89.29092,703.02246
"4482",88.20447,703.0359
"4483",87.1107,703.0493
"4484",86.04135,703.06274
"4485",85.02815,703.0762
"4486",84.1004,703.0896
"4487",83.28741,703.103
"4488",82.62333,703.11646
"4489",82.11795,703.1299
"4490",81.76395,703.1433
"4491",81.532005,703.15674
"4492",81.373314,703.17017
"4493",81.25124,703.1836
"4494",81.1194,703.197
"4495",80.94362,703.21045
"4496",80.706795,703.2239
"4497",80.396736,703.2373
"4498",80.01587,703.25073
"4499",79.58373,703.26416
"4500",79.11986,703.2776
"4501",78.64866,703.291
"4502",78.19699,703.30444
"4503",77.77707,703.3179
"4504",77.40597,703.3313
"4505",77.08858,703.3447
"4506",76.822464,703.35815
"4507",76.60029,703.3716
"4508",76.42451,703.385
"4509",76.28535,703.39844
"4510",76.17792,703.41187
"4511",76.09491,703.4253
"4512",76.03143,703.4387
"4513",75.98016,703.45215
"4514",75.93378,703.4656
"4515",75.89227,703.479
"4516",75.86542,703.49243
"4517",75.84833,703.50586
"4518",75.843445,703.5193
"4519",75.84589,703.5327
"4520",75.84833,703.54614
"4521",75.84589,703.5596
"4522",75.83368,703.573
"4523",75.7995,703.5864
"4524",75.74334,703.59985
"4525",75.66033,703.6133
"4526",75.55779,703.6267
"4527",75.44793,703.64014
"4528",75.34783,703.65356
"4529",75.27947,703.667
"4530",75.31121,703.6804
"4531",75.55291,703.69385
"4532",76.16327,703.7073
"4533",77.281456,703.7207
"4534",78.96849,703.73413
"4535",81.15846,703.74756
"4536",83.66338,703.761
"4537",86.1976,703.7744
"4538",88.4535,703.78784
"4539",90.194244,703.8013
"4540",91.285576,703.8147
"4541",91.71038,703.8281
"4542",91.5346,703.84155
"4543",90.90471,703.855
"4544",89.98917,703.8684
"4545",88.93202,703.88184
"4546",87.82849,703.89526
"4547",86.73472,703.9087
"4548",85.67269,703.9221
"4549",84.664375,703.93555
"4550",83.736626,703.949
"4551",82.91875,703.9624
"4552",82.2449,703.9758
"4553",81.7322,703.98926
"4554",81.36843,704.0027
"4555",81.11696,704.0161
"4556",80.94362,704.02954
"4557",80.80446,704.04297
"4558",80.65064,704.0564
"4559",80.45777,704.0698
"4560",80.2063,704.08325
"4561",79.89136,704.0967
"4562",79.51049,704.1101
"4563",79.080795,704.12354
"4564",78.6218,704.13696
"4565",78.15793,704.1504
"4566",77.7087,704.1638
"4567",77.29366,704.17725
"4568",76.91768,704.1907
"4569",76.592964,704.2041
"4570",76.3122,704.2175
"4571",76.08026,704.23096
"4572",75.8996,704.2444
"4573",75.757996,704.2578
"4574",75.650566,704.27124
"4575",75.577324,704.28467
