"","ppg","time"
"1",77.32052,380.16602
"2",77.27169,380.17944
"3",77.2375,380.19287
"4",77.22041,380.2063
"5",77.21553,380.21973
"6",77.22041,380.23315
"7",77.222855,380.24658
"8",77.21553,380.26
"9",77.208206,380.27344
"10",77.20332,380.28687
"11",77.21065,380.3003
"12",77.23018,380.31372
"13",77.25948,380.32715
"14",77.29366,380.34058
"15",77.332726,380.354
"16",77.36935,380.36743
"17",77.40353,380.38086
"18",77.42794,380.3943
"19",77.44747,380.4077
"20",77.45724,380.42114
"21",77.46212,380.43457
"22",77.46456,380.448
"23",77.46212,380.46143
"24",77.46212,380.47485
"25",77.46456,380.48828
"26",77.48409,380.5017
"27",77.54757,380.51514
"28",77.72579,380.52856
"29",78.1091,380.542
"30",78.77562,380.55542
"31",79.744865,380.56885
"32",80.96559,380.58228
"33",82.31083,380.5957
"34",83.597466,380.60913
"35",84.65705,380.62256
"36",85.384605,380.636
"37",85.74105,380.6494
"38",85.753265,380.66284
"39",85.49447,380.67627
"40",85.04524,380.6897
"41",84.50324,380.70312
"42",83.931946,380.71655
"43",83.37774,380.72998
"44",82.865036,380.7434
"45",82.4036,380.75684
"46",81.99344,380.77026
"47",81.63943,380.7837
"48",81.341576,380.79712
"49",81.109634,380.81055
"50",80.94606,380.82397
"51",80.850845,380.8374
"52",80.814224,380.85083
"53",80.82887,380.86426
"54",80.87526,380.8777
"55",80.936295,380.8911
"56",80.98512,380.90454
"57",80.99977,380.91797
"58",80.970474,380.9314
"59",80.885025,380.94482
"60",80.75319,380.95825
"61",80.58228,380.97168
"62",80.394295,380.9851
"63",80.201416,380.99854
"64",80.01831,381.01196
"65",79.852295,381.0254
"66",79.70336,381.03882
"67",79.571526,381.05225
"68",79.45434,381.06567
"69",79.34936,381.0791
"70",79.259026,381.09253
"71",79.1931,381.10596
"72",79.14183,381.1194
"73",79.10277,381.1328
"74",79.06859,381.14624
"75",79.029526,381.15967
"76",78.98802,381.1731
"77",78.9514,381.18652
"78",78.91966,381.19995
"79",78.90257,381.21338
"80",78.89281,381.2268
"81",78.87816,381.24023
"82",78.86107,381.25366
"83",78.839096,381.2671
"84",78.81468,381.28052
"85",78.79271,381.29395
"86",78.77806,381.30737
"87",78.765854,381.3208
"88",78.75609,381.33423
"89",78.73899,381.34766
"90",78.71946,381.36108
"91",78.709694,381.3745
"92",78.70237,381.38794
"93",78.70237,381.40137
"94",78.709694,381.4148
"95",78.72434,381.42822
"96",78.729225,381.44165
"97",78.7219,381.45508
"98",78.709694,381.4685
"99",78.695045,381.48193
"100",78.68528,381.49536
"101",78.68284,381.5088
"102",78.68772,381.52222
"103",78.69993,381.53564
"104",78.73167,381.54907
"105",78.84154,381.5625
"106",79.11253,381.57593
"107",79.62035,381.58936
"108",80.38941,381.60278
"109",81.38308,381.6162
"110",82.48417,381.62964
"111",83.53155,381.64307
"112",84.37873,381.6565
"113",84.92561,381.66992
"114",85.15022,381.68335
"115",85.084305,381.69678
"116",84.791336,381.7102
"117",84.34699,381.72363
"118",83.83673,381.73706
"119",83.3167,381.7505
"120",82.828415,381.76392
"121",82.38651,381.77734
"122",81.986115,381.79077
"123",81.62966,381.8042
"124",81.31472,381.81763
"125",81.0486,381.83105
"126",80.84596,381.84448
"127",80.719,381.8579
"128",80.67017,381.87134
"129",80.68238,381.88477
"130",80.73365,381.8982
"131",80.799576,381.91162
"132",80.85817,381.92505
"133",80.88991,381.93848
"134",80.885025,381.9519
"135",80.84108,381.96533
"136",80.76051,381.97876
"137",80.6482,381.9922
"138",80.5066,382.0056
"139",80.35035,382.01904
"140",80.18677,382.03247
"141",80.03052,382.0459
"142",79.888916,382.05933
"143",79.764404,382.07275
"144",79.6643,382.08618
"145",79.58373,382.0996
"146",79.52514,382.11304
"147",79.47631,382.12646
"148",79.43481,382.1399
"149",79.40063,382.15332
"150",79.364006,382.16675
"151",79.327385,382.18018
"152",79.293205,382.1936
"153",79.259026,382.20703
"154",79.23216,382.22046
"155",79.20775,382.2339
"156",79.19066,382.2473
"157",79.17357,382.26074
"158",79.15648,382.27417
"159",79.13939,382.2876
"160",79.11986,382.30103
"161",79.10521,382.31445
"162",79.09056,382.32788
"163",79.080795,382.3413
"164",79.06859,382.35474
"165",79.05882,382.36816
"166",79.04906,382.3816
"167",79.04173,382.39502
"168",79.04173,382.40845
"169",79.044174,382.42188
"170",79.04906,382.4353
"171",79.0515,382.44873
"172",79.04906,382.46216
"173",79.029526,382.4756
"174",78.995346,382.489
"175",78.958725,382.50244
"176",78.91966,382.51587
"177",78.89281,382.5293
"178",78.89769,382.54272
"179",78.98558,382.55615
"180",79.2224,382.56958
"181",79.67162,382.583
"182",80.35035,382.59644
"183",81.22194,382.60986
"184",82.193634,382.6233
"185",83.13359,382.63672
"186",83.90509,382.65015
"187",84.422676,382.66357
"188",84.65461,382.677
"189",84.613106,382.69043
"190",84.351875,382.70386
"191",83.946594,382.7173
"192",83.46807,382.7307
"193",82.9749,382.74414
"194",82.50858,382.75757
"195",82.08133,382.771
"196",81.6907,382.78442
"197",81.35134,382.79785
"198",81.06569,382.81128
"199",80.83864,382.8247
"200",80.68238,382.83813
"201",80.59937,382.85156
"202",80.57984,382.865
"203",80.59937,382.87842
"204",80.64576,382.89185
"205",80.69703,382.90527
"206",80.743416,382.9187
"207",80.76784,382.93213
"208",80.75807,382.94556
"209",80.71656,382.95898
"210",80.64332,382.9724
"211",80.54322,382.98584
"212",80.428474,382.99927
"213",80.30396,383.0127
"214",80.16968,383.02612
"215",80.03296,383.03955
"216",79.906006,383.05298
"217",79.78882,383.0664
"218",79.693596,383.07983
"219",79.62524,383.09326
"220",79.57641,383.1067
"221",79.537346,383.12012
"222",79.49828,383.13354
"223",79.45678,383.14697
"224",79.412834,383.1604
"225",79.37377,383.17383
"226",79.33959,383.18726
"227",79.31518,383.20068
"228",79.29809,383.2141
"229",79.28344,383.22754
"230",79.27123,383.24097
"231",79.26391,383.2544
"232",79.25414,383.26782
"233",79.24681,383.28125
"234",79.237045,383.29468
"235",79.22484,383.3081
"236",79.21019,383.32153
"237",79.19798,383.33496
"238",79.19554,383.3484
"239",79.20531,383.36182
"240",79.2224,383.37524
"241",79.24681,383.38867
"242",79.26635,383.4021
"243",79.276115,383.41553
"244",79.273674,383.42896
"245",79.26391,383.44238
"246",79.24925,383.4558
"247",79.234604,383.46924
"248",79.2224,383.48267
"249",79.20775,383.4961
"250",79.19066,383.50952
"251",79.18089,383.52295
"252",79.20531,383.53638
"253",79.33715,383.5498
"254",79.64721,383.56323
"255",80.17456,383.57666
"256",80.919205,383.5901
"257",81.812775,383.60352
"258",82.74296,383.61694
"259",83.57549,383.63037
"260",84.2005,383.6438
"261",84.56184,383.65723
"262",84.65461,383.67065
"263",84.508125,383.68408
"264",84.19318,383.6975
"265",83.77814,383.71094
"266",83.32891,383.72437
"267",82.89189,383.7378
"268",82.493935,383.75122
"269",82.1326,383.76465
"270",81.81033,383.77808
"271",81.532005,383.7915
"272",81.29763,383.80493
"273",81.11696,383.81836
"274",80.99733,383.8318
"275",80.936295,383.8452
"276",80.92897,383.85864
"277",80.96071,383.87207
"278",81.01686,383.8855
"279",81.08034,383.89893
"280",81.129166,383.91235
"281",81.143814,383.92578
"282",81.11696,383.9392
"283",81.0486,383.95264
"284",80.94118,383.96606
"285",80.81178,383.9795
"286",80.67994,383.99292
"287",80.54566,384.00635
"288",80.41627,384.01978
"289",80.2942,384.0332
"290",80.17944,384.04663
"291",80.06958,384.06006
"292",79.96948,384.0735
"293",79.886475,384.0869
"294",79.83032,384.10034
"295",79.78882,384.11377
"296",79.76196,384.1272
"297",79.73998,384.14062
"298",79.71801,384.15405
"299",79.69604,384.16748
"300",79.676506,384.1809
"301",79.65942,384.19434
"302",79.64477,384.20776
"303",79.635,384.2212
"304",79.622795,384.23462
"305",79.61547,384.24805
"306",79.60815,384.26147
"307",79.59594,384.2749
"308",79.57397,384.28833
"309",79.54955,384.30176
"310",79.517815,384.3152
"311",79.4934,384.3286
"312",79.47631,384.34204
"313",79.47387,384.35547
"314",79.47143,384.3689
"315",79.4641,384.38232
"316",79.45434,384.39575
"317",79.43969,384.40918
"318",79.415276,384.4226
"319",79.39086,384.43604
"320",79.364006,384.44946
"321",79.33471,384.4629
"322",79.30053,384.47632
"323",79.26879,384.48975
"324",79.24681,384.50317
"325",79.2517,384.5166
"326",79.33959,384.53003
"327",79.58129,384.54346
"328",80.03784,384.5569
"329",80.71412,384.5703
"330",81.57839,384.58374
"331",82.54032,384.59717
"332",83.46563,384.6106
"333",84.23224,384.62402
"334",84.75716,384.63745
"335",85.015945,384.65088
"336",85.02571,384.6643
"337",84.82796,384.67773
"338",84.49836,384.69116
"339",84.10773,384.7046
"340",83.702446,384.71802
"341",83.3167,384.73145
"342",82.96025,384.74487
"343",82.63554,384.7583
"344",82.33524,384.77173
"345",82.06668,384.78516
"346",81.83719,384.79858
"347",81.65652,384.812
"348",81.53689,384.82544
"349",81.478294,384.83887
"350",81.47341,384.8523
"351",81.50271,384.86572
"352",81.54421,384.87915
"353",81.57595,384.89258
"354",81.58083,384.906
"355",81.54421,384.91943
"356",81.463646,384.93286
"357",81.34646,384.9463
"358",81.20485,384.95972
"359",81.04372,384.97314
"360",80.86549,384.98657
"361",80.68238,385
"362",80.50416,385.01343
"363",80.33082,385.02686
"364",80.17212,385.04028
"365",80.0354,385.0537
"366",79.920654,385.06714
"367",79.823,385.08057
"368",79.73754,385.094
"369",79.66186,385.10742
"370",79.59106,385.12085
"371",79.53002,385.13428
"372",79.47875,385.1477
"373",79.432365,385.16113
"374",79.38598,385.17456
"375",79.33959,385.188
"376",79.290764,385.20142
"377",79.23949,385.21484
"378",79.18822,385.22827
"379",79.14671,385.2417
"380",79.10765,385.25513
"381",79.063705,385.26855
"382",79.0222,385.28198
"383",78.98802,385.2954
"384",78.96117,385.30884
"385",78.941635,385.32227
"386",78.93431,385.3357
"387",78.92943,385.34912
"388",78.91966,385.36255
"389",78.90013,385.37598
"390",78.86839,385.3894
"391",78.82689,385.40283
"392",78.78294,385.41626
"393",78.73655,385.4297
"394",78.68528,385.4431
"395",78.63401,385.45654
"396",78.5803,385.46997
"397",78.54124,385.4834
"398",78.551,385.49683
"399",78.675514,385.51025
"400",78.98558,385.52368
"401",79.53246,385.5371
"402",80.306404,385.55054
"403",81.24635,385.56396
"404",82.24002,385.5774
"405",83.1458,385.59082
"406",83.85138,385.60425
"407",84.29328,385.61768
"408",84.47639,385.6311
"409",84.422676,385.64453
"410",84.20294,385.65796
"411",83.87579,385.6714
"412",83.50225,385.6848
"413",83.12138,385.69824
"414",82.757614,385.71167
"415",82.41825,385.7251
"416",82.1033,385.73853
"417",81.82254,385.75195
"418",81.58083,385.76538
"419",81.38064,385.7788
"420",81.22682,385.79224
"421",81.13161,385.80566
"422",81.0901,385.8191
"423",81.0901,385.83252
"424",81.11452,385.84595
"425",81.14137,385.85938
"426",81.146255,385.8728
"427",81.11696,385.88623
"428",81.04616,385.89966
"429",80.93385,385.9131
"430",80.78493,385.9265
"431",80.6067,385.93994
"432",80.40894,385.95337
"433",80.201416,385.9668
"434",79.99634,385.98022
"435",79.80347,385.99365
"436",79.62768,386.00708
"437",79.46899,386.0205
"438",79.33959,386.03394
"439",79.234604,386.04736
"440",79.149155,386.0608
"441",79.080795,386.07422
"442",79.0222,386.08765
"443",78.96849,386.10107
"444",78.91722,386.1145
"445",78.870834,386.12793
"446",78.82689,386.14136
"447",78.785385,386.1548
"448",78.73899,386.1682
"449",78.68528,386.18164
"450",78.626686,386.19507
"451",78.56565,386.2085
"452",78.5095,386.22192
"453",78.45579,386.23535
"454",78.40208,386.24878
"455",78.35325,386.2622
"456",78.30686,386.27563
"457",78.2678,386.28906
"458",78.23605,386.3025
"459",78.2092,386.31592
"460",78.19211,386.32935
"461",78.1799,386.34277
"462",78.17258,386.3562
"463",78.16281,386.36963
"464",78.14816,386.38306
"465",78.118866,386.39648
"466",78.07736,386.4099
"467",78.028534,386.42334
"468",77.97482,386.43677
"469",77.93088,386.4502
"470",77.90646,386.46362
"471",77.92844,386.47705
"472",78.06027,386.49048
"473",78.37034,386.5039
"474",78.907455,386.51733
"475",79.68627,386.53076
"476",80.66041,386.5442
"477",81.72488,386.55762
"478",82.75273,386.57104
"479",83.62676,386.58447
"480",84.266426,386.5979
"481",84.6424,386.61133
"482",84.75716,386.62476
"483",84.65461,386.63818
"484",84.38361,386.6516
"485",84.017395,386.66504
"486",83.614555,386.67847
"487",83.22392,386.6919
"488",82.865036,386.70532
"489",82.54032,386.71875
"490",82.24002,386.73218
"491",81.95682,386.7456
"492",81.6907,386.75903
"493",81.449,386.77246
"494",81.25857,386.7859
"495",81.13405,386.79932
"496",81.07301,386.81274
"497",81.058365,386.82617
"498",81.06569,386.8396
"499",81.06081,386.85303
"500",81.024185,386.86646
"501",80.94362,386.87988
"502",80.81911,386.8933
"503",80.66285,386.90674
"504",80.47486,386.92017
"505",80.272224,386.9336
"506",80.059814,386.94702
"507",79.84985,386.96045
"508",79.64965,386.97388
"509",79.466545,386.9873
"510",79.290764,387.00073
"511",79.132065,387.01416
"512",78.98802,387.0276
"513",78.85863,387.04102
"514",78.746315,387.05444
"515",78.643776,387.06787
"516",78.54856,387.0813
"517",78.467995,387.09473
"518",78.399635,387.10815
"519",78.34348,387.12158
"520",78.29954,387.135
"521",78.26536,387.14844
"522",78.22873,387.16187
"523",78.18234,387.1753
"524",78.12863,387.18872
"525",78.07248,387.20215
"526",78.013885,387.21558
"527",77.95285,387.229
"528",77.8967,387.24243
"529",77.84543,387.25586
"530",77.79904,387.2693
"531",77.75754,387.2827
"532",77.72579,387.29614
"533",77.70626,387.30957
"534",77.69405,387.323
"535",77.68673,387.33643
"536",77.67452,387.34985
"537",77.65743,387.36328
"538",77.63058,387.3767
"539",77.591515,387.39014
"540",77.54513,387.40356
"541",77.49386,387.417
"542",77.44259,387.43042
"543",77.40597,387.44385
"544",77.435265,387.45728
"545",77.60128,387.4707
"546",77.98215,387.48413
"547",78.62913,387.49756
"548",79.537346,387.511
"549",80.635994,387.5244
"550",81.80301,387.53784
"551",82.90654,387.55127
"552",83.82208,387.5647
"553",84.471504,387.57812
"554",84.83284,387.59155
"555",84.92073,387.60498
"556",84.78157,387.6184
"557",84.48615,387.63184
"558",84.10773,387.64526
"559",83.70977,387.6587
"560",83.32159,387.67212
"561",82.95537,387.68555
"562",82.6038,387.69897
"563",82.26444,387.7124
"564",81.93973,387.72583
"565",81.64919,387.73926
"566",81.40749,387.7527
"567",81.22194,387.7661
"568",81.092545,387.77954
"569",81.00954,387.79297
"570",80.953384,387.8064
"571",80.919205,387.81982
"572",80.89235,387.83325
"573",80.86061,387.84668
"574",80.8069,387.8601
"575",80.72144,387.87354
"576",80.59693,387.88696
"577",80.4358,387.9004
"578",80.23804,387.91382
"579",80.02319,387.92725
"580",79.80591,387.94067
"581",79.5935,387.9541
"582",79.395744,387.96753
"583",79.219955,387.98096
"584",79.06615,387.9944
"585",78.924545,388.0078
"586",78.79271,388.02124
"587",78.67063,388.03467
"588",78.56077,388.0481
"589",78.46311,388.06152
"590",78.37522,388.07495
"591",78.30686,388.08838
"592",78.24826,388.1018
"593",78.19211,388.11523
"594",78.1384,388.12866
"595",78.08469,388.1421
"596",78.02609,388.15552
"597",77.9675,388.16895
"598",77.908905,388.18237
"599",77.84787,388.1958
"600",77.786835,388.20923
"601",77.733116,388.22266
"602",77.67696,388.23608
"603",77.625694,388.2495
"604",77.591515,388.26294
"605",77.56466,388.27637
"606",77.54757,388.2898
"607",77.540245,388.30322
"608",77.55245,388.31665
"609",77.574425,388.33008
"610",77.60616,388.3435
"611",77.642784,388.35693
"612",77.67696,388.37036
"613",77.69894,388.3838
"614",77.71114,388.39722
"615",77.72579,388.41064
"616",77.75998,388.42407
"617",77.85031,388.4375
"618",78.06027,388.45093
"619",78.45823,388.46436
"620",79.11009,388.47778
"621",80.025635,388.4912
"622",81.16579,388.50464
"623",82.4329,388.51807
"624",83.685356,388.5315
"625",84.78157,388.54492
"626",85.62386,388.55835
"627",86.15854,388.57178
"628",86.3856,388.5852
"629",86.346535,388.59863
"630",86.11459,388.61206
"631",85.76059,388.6255
"632",85.35531,388.63892
"633",84.95003,388.65234
"634",84.56916,388.66577
"635",84.210266,388.6792
"636",83.86603,388.69263
"637",83.52422,388.70605
"638",83.1873,388.71948
"639",82.862595,388.7329
"640",82.57206,388.74634
"641",82.32792,388.75977
"642",82.13504,388.7732
"643",81.988556,388.78662
"644",81.87381,388.80005
"645",81.77615,388.81348
"646",81.67605,388.8269
"647",81.56374,388.84033
"648",81.42458,388.85376
"649",81.25124,388.8672
"650",81.041275,388.8806
"651",80.799576,388.89404
"652",80.54078,388.90747
"653",80.27711,388.9209
"654",80.025635,388.93433
"655",79.7937,388.94775
"656",79.59106,388.96118
"657",79.415276,388.9746
"658",79.26391,388.98804
"659",79.12718,389.00146
"660",79.00267,389.0149
"661",78.89281,389.02832
"662",78.78783,389.04175
"663",78.695045,389.05518
"664",78.61204,389.0686
"665",78.54612,389.08203
"666",78.487526,389.09546
"667",78.43137,389.1089
"668",78.37522,389.1223
"669",78.31663,389.13574
"670",78.260475,389.14917
"671",78.2092,389.1626
"672",78.170135,389.17603
"673",78.14084,389.18945
"674",78.12375,389.20288
"675",78.11154,389.2163
"676",78.099335,389.22974
"677",78.08469,389.24316
"678",78.07248,389.2566
"679",78.06027,389.27002
"680",78.04318,389.28345
"681",78.02609,389.29688
"682",77.99924,389.3103
"683",77.962616,389.32373
"684",77.91867,389.33716
"685",77.86984,389.3506
"686",77.823456,389.364
"687",77.789276,389.37744
"688",77.76486,389.39087
"689",77.75998,389.4043
"690",77.80148,389.41772
"691",77.95041,389.43115
"692",78.29221,389.44458
"693",78.907455,389.458
"694",79.83276,389.47144
"695",81.03883,389.48486
"696",82.41337,389.4983
"697",83.790344,389.51172
"698",85.00618,389.52515
"699",85.93637,389.53857
"700",86.519875,389.552
"701",86.76402,389.56543
"702",86.72007,389.57886
"703",86.47349,389.5923
"704",86.117035,389.6057
"705",85.71664,389.61914
"706",85.316246,389.63257
"707",84.93294,389.646
"708",84.55451,389.65942
"709",84.16144,389.67285
"710",83.75128,389.68628
"711",83.32647,389.6997
"712",82.9041,389.71313
"713",82.5037,389.72656
"714",82.142365,389.74
"715",81.832306,389.75342
"716",81.57839,389.76685
"717",81.38308,389.78027
"718",81.231705,389.7937
"719",81.109634,389.80713
"720",80.987564,389.82056
"721",80.83864,389.83398
"722",80.65308,389.8474
"723",80.4358,389.86084
"724",80.19653,389.87427
"725",79.94995,389.8877
"726",79.70092,389.90112
"727",79.45678,389.91455
"728",79.2224,389.92798
"729",79.00023,389.9414
"730",78.79515,389.95483
"731",78.60227,389.96826
"732",78.433815,389.9817
"733",78.29221,389.99512
"734",78.1799,390.00854
"735",78.09445,390.02197
"736",78.0383,390.0354
"737",77.99924,390.04883
"738",77.9675,390.06226
"739",77.93576,390.07568
"740",77.8967,390.0891
"741",77.85031,390.10254
"742",77.7966,390.11597
"743",77.74044,390.1294
"744",77.69405,390.14282
"745",77.6672,390.15625
"746",77.659874,390.16968
"747",77.67452,390.1831
"748",77.69894,390.19653
"749",77.733116,390.20996
"750",77.7673,390.2234
"751",77.7966,390.23682
"752",77.81125,390.25024
"753",77.81369,390.26367
"754",77.79904,390.2771
"755",77.769745,390.29053
"756",77.733116,390.30396
"757",77.69894,390.31738
"758",77.67452,390.3308
"759",77.659874,390.34424
"760",77.65011,390.35767
"761",77.65255,390.3711
"762",77.70138,390.38452
"763",77.86008,390.39795
"764",78.21408,390.41138
"765",78.83177,390.4248
"766",79.74975,390.43823
"767",80.92409,390.45166
"768",82.2449,390.4651
"769",83.560844,390.47852
"770",84.71809,390.49194
"771",85.59945,390.50537
"772",86.14389,390.5188
"773",86.3563,390.53223
"774",86.28794,390.54565
"775",86.01938,390.55908
"776",85.63363,390.5725
"777",85.19905,390.58594
"778",84.75227,390.59937
"779",84.30305,390.6128
"780",83.85138,390.62622
"781",83.38506,390.63965
"782",82.916306,390.65308
"783",82.4622,390.6665
"784",82.05203,390.67993
"785",81.705345,390.69336
"786",81.44167,390.7068
"787",81.248795,390.7202
"788",81.11452,390.73364
"789",81.0193,390.74707
"790",80.94362,390.7605
"791",80.86305,390.77393
"792",80.762955,390.78735
"793",80.621346,390.80078
"794",80.4358,390.8142
"795",80.20874,390.82764
"796",79.957275,390.84106
"797",79.70092,390.8545
"798",79.46166,390.86792
"799",79.23949,390.88135
"800",79.03441,390.89478
"801",78.83421,390.9082
"802",78.63401,390.92163
"803",78.44114,390.93506
"804",78.26536,390.9485
"805",78.12131,390.9619
"806",78.013885,390.97534
"807",77.94064,390.98877
"808",77.891815,391.0022
"809",77.857635,391.01562
"810",77.823456,391.02905
"811",77.79172,391.04248
"812",77.7673,391.0559
"813",77.75754,391.06934
"814",77.75021,391.08276
"815",77.74288,391.0962
"816",77.72823,391.10962
"817",77.70626,391.12305
"818",77.68185,391.13647
"819",77.65499,391.1499
"820",77.63302,391.16333
"821",77.60616,391.17676
"822",77.5671,391.1902
"823",77.51583,391.2036
"824",77.45968,391.21704
"825",77.40597,391.23047
"826",77.35958,391.2439
"827",77.33761,391.25732
"828",77.366905,391.27075
"829",77.51583,391.28418
"830",77.87717,391.2976
"831",78.51438,391.31104
"832",79.45434,391.32446
"833",80.65797,391.3379
"834",82.01541,391.35132
"835",83.370415,391.36475
"836",84.578926,391.37817
"837",85.521324,391.3916
"838",86.136566,391.40503
"839",86.41245,391.41846
"840",86.39536,391.4319
"841",86.1561,391.4453
"842",85.77768,391.45874
"843",85.330894,391.47217
"844",84.85237,391.4856
"845",84.351875,391.49902
"846",83.82941,391.51245
"847",83.29229,391.52588
"848",82.75517,391.5393
"849",82.24002,391.55273
"850",81.77371,391.56616
"851",81.38308,391.5796
"852",81.08034,391.59302
"853",80.85817,391.60645
"854",80.71168,391.61987
"855",80.61158,391.6333
"856",80.52613,391.64673
"857",80.42359,391.66016
"858",80.28199,391.67358
"859",80.08423,391.687
"860",79.84253,391.70044
"861",79.571526,391.71387
"862",79.29565,391.7273
"863",79.027084,391.74072
"864",78.77074,391.75415
"865",78.53147,391.76758
"866",78.30442,391.781
"867",78.09201,391.79443
"868",77.90158,391.80786
"869",77.73556,391.8213
"870",77.5964,391.83472
"871",77.486534,391.84814
"872",77.40353,391.86157
"873",77.33517,391.875
"874",77.27169,391.88843
"875",77.21065,391.90186
"876",77.152054,391.91528
"877",77.100784,391.9287
"878",77.05928,391.94214
"879",77.032425,391.95557
"880",77.02022,391.969
"881",77.01289,391.98242
"882",76.995804,391.99585
"883",76.964066,392.00928
"884",76.90791,392.0227
"885",76.83223,392.03613
"886",76.74189,392.04956
"887",76.646675,392.063
"888",76.561226,392.07642
"889",76.49775,392.08984
"890",76.46601,392.10327
"891",76.46845,392.1167
"892",76.52705,392.13013
"893",76.70771,392.14355
"894",77.0959,392.15698
"895",77.77463,392.1704
"896",78.785385,392.18384
"897",80.096436,392.19727
"898",81.602806,392.2107
"899",83.12871,392.22412
"900",84.49592,392.23755
"901",85.57015,392.25098
"902",86.27329,392.2644
"903",86.59312,392.27783
"904",86.58335,392.29126
"905",86.327,392.3047
"906",85.92905,392.3181
"907",85.472496,392.33154
"908",85.00374,392.34497
"909",84.53254,392.3584
"910",84.04181,392.37183
"911",83.51202,392.38525
"912",82.950485,392.39868
"913",82.37919,392.4121
"914",81.84207,392.42554
"915",81.375755,392.43896
"916",81.004654,392.4524
"917",80.72144,392.46582
"918",80.516365,392.47925
"919",80.36744,392.49268
"920",80.24536,392.5061
"921",80.12573,392.51953
"922",79.98413,392.53296
"923",79.80835,392.5464
"924",79.5935,392.5598
"925",79.34692,392.57324
"926",79.080795,392.58667
"927",78.80003,392.6001
"928",78.51682,392.61353
"929",78.22629,392.62695
"930",77.94064,392.64038
"931",77.66964,392.6538
"932",77.418175,392.66724
"933",77.20088,392.68066
"934",77.02754,392.6941
"935",76.90059,392.70752
"936",76.807816,392.72095
"937",76.74433,392.73438
"938",76.697945,392.7478
"939",76.65888,392.76123
"940",76.6247,392.77466
"941",76.592964,392.7881
"942",76.56855,392.8015
"943",76.5539,392.81494
"944",76.54902,392.82837
"945",76.55634,392.8418
"946",76.56855,392.85522
"947",76.5832,392.86865
"948",76.592964,392.88208
"949",76.60029,392.8955
"950",76.612495,392.90894
"951",76.63203,392.92236
"952",76.65888,392.9358
"953",76.68818,392.94922
"954",76.700386,392.96265
"955",76.6955,392.97607
"956",76.66621,392.9895
"957",76.627144,393.00293
"958",76.592964,393.01636
"959",76.575874,393.0298
"960",76.575874,393.0432
"961",76.60029,393.05664
"962",76.680855,393.07007
"963",76.88838,393.0835
"964",77.31075,393.09692
"965",78.04562,393.11035
"966",79.14427,393.12378
"967",80.57252,393.1372
"968",82.210724,393.15063
"969",83.88068,393.16406
"970",85.38949,393.1775
"971",86.588234,393.19092
"972",87.39147,393.20435
"973",87.784546,393.21777
"974",87.816284,393.2312
"975",87.56725,393.24463
"976",87.13756,393.25806
"977",86.62241,393.27148
"978",86.0853,393.2849
"979",85.56039,393.29834
"980",85.0428,393.31177
"981",84.51057,393.3252
"982",83.946594,393.33862
"983",83.36065,393.35205
"984",82.777145,393.36548
"985",82.24246,393.3789
"986",81.78104,393.39233
"987",81.409935,393.40576
"988",81.11696,393.4192
"989",80.89479,393.43262
"990",80.719,393.44604
"991",80.57496,393.45947
"992",80.428474,393.4729
"993",80.26002,393.48633
"994",80.05737,393.49976
"995",79.81079,393.51318
"996",79.53002,393.5266
"997",79.237045,393.54004
"998",78.94896,393.55347
"999",78.67307,393.5669
"1000",78.41428,393.58032
"1001",78.170135,393.59375
"1002",77.94797,393.60718
"1003",77.75021,393.6206
"1004",77.58419,393.63403
"1005",77.452354,393.64746
"1006",77.35714,393.6609
"1007",77.28878,393.67432
"1008",77.23506,393.68774
"1009",77.18623,393.70117
"1010",77.13985,393.7146
"1011",77.08858,393.72803
"1012",77.03487,393.74146
"1013",76.9836,393.75488
"1014",76.929886,393.7683
"1015",76.86641,393.78174
"1016",76.79561,393.79517
"1017",76.717476,393.8086
"1018",76.63691,393.82202
"1019",76.56367,393.83545
"1020",76.507515,393.84888
"1021",76.46845,393.8623
"1022",76.4416,393.87573
"1023",76.42451,393.88916
"1024",76.40986,393.9026
"1025",76.40009,393.91602
"1026",76.39765,393.92944
"1027",76.402534,393.94287
"1028",76.41474,393.9563
"1029",76.422066,393.96973
"1030",76.419624,393.98315
"1031",76.402534,393.99658
"1032",76.37568,394.01
"1033",76.34638,394.02344
"1034",76.334175,394.03687
"1035",76.33906,394.0503
"1036",76.36591,394.06372
"1037",76.42695,394.07715
"1038",76.575874,394.09058
"1039",76.90791,394.104
"1040",77.5378,394.11743
"1041",78.536354,394.13086
"1042",79.91821,394.1443
"1043",81.59304,394.1577
"1044",83.387505,394.17114
"1045",85.09407,394.18457
"1046",86.5272,394.198
"1047",87.56481,394.21143
"1048",88.162964,394.22485
"1049",88.343636,394.23828
"1050",88.182495,394.2517
"1051",87.784546,394.26514
"1052",87.24986,394.27856
"1053",86.659035,394.292
"1054",86.06821,394.30542
"1055",85.49203,394.31885
"1056",84.92561,394.33228
"1057",84.35432,394.3457
"1058",83.78058,394.35913
"1059",83.21904,394.37256
"1060",82.69169,394.386
"1061",82.230255,394.3994
"1062",81.849396,394.41284
"1063",81.55398,394.42627
"1064",81.33181,394.4397
"1065",81.160904,394.45312
"1066",81.0193,394.46655
"1067",80.88747,394.47998
"1068",80.740974,394.4934
"1069",80.55787,394.50684
"1070",80.3357,394.52026
"1071",80.079346,394.5337
"1072",79.78882,394.54712
"1073",79.47875,394.56055
"1074",79.1638,394.57397
"1075",78.8513,394.5874
"1076",78.551,394.60083
"1077",78.28489,394.61426
"1078",78.05295,394.6277
"1079",77.857635,394.6411
"1080",77.696495,394.65454
"1081",77.56222,394.66797
"1082",77.44259,394.6814
"1083",77.33517,394.69482
"1084",77.239944,394.70825
"1085",77.16182,394.72168
"1086",77.09834,394.7351
"1087",77.049515,394.74854
"1088",77.00801,394.76196
"1089",76.97627,394.7754
"1090",76.944534,394.78882
"1091",76.92012,394.80225
"1092",76.90059,394.81567
"1093",76.88106,394.8291
"1094",76.85664,394.84253
"1095",76.839554,394.85596
"1096",76.824905,394.8694
"1097",76.81758,394.8828
"1098",76.8127,394.89624
"1099",76.807816,394.90967
"1100",76.807816,394.9231
"1101",76.8127,394.93652
"1102",76.82979,394.94995
"1103",76.86153,394.96338
"1104",76.910355,394.9768
"1105",76.95674,394.99023
"1106",76.99336,395.00366
"1107",77.015335,395.0171
"1108",77.02266,395.03052
"1109",77.02266,395.04395
"1110",77.0251,395.05737
"1111",77.032425,395.0708
"1112",77.03975,395.08423
"1113",77.051956,395.09766
"1114",77.10811,395.11108
"1115",77.281456,395.1245
"1116",77.68185,395.13794
"1117",78.42161,395.15137
"1118",79.54711,395.1648
"1119",81.03395,395.17822
"1120",82.7625,395.19165
"1121",84.54719,395.20508
"1122",86.17807,395.2185
"1123",87.49645,395.23193
"1124",88.394905,395.24536
"1125",88.851456,395.2588
"1126",88.89784,395.27222
"1127",88.60975,395.28564
"1128",88.08728,395.29907
"1129",87.43786,395.3125
"1130",86.73716,395.32593
"1131",86.04135,395.33936
"1132",85.38949,395.35278
"1133",84.771805,395.3662
"1134",84.18097,395.37964
"1135",83.612114,395.39307
"1136",83.072556,395.4065
"1137",82.58427,395.41992
"1138",82.16678,395.43335
"1139",81.83475,395.44678
"1140",81.58572,395.4602
"1141",81.392845,395.47363
"1142",81.23903,395.48706
"1143",81.09987,395.5005
"1144",80.95827,395.51392
"1145",80.797134,395.52734
"1146",80.61158,395.54077
"1147",80.38941,395.5542
"1148",80.13306,395.56763
"1149",79.84741,395.58105
"1150",79.53979,395.59448
"1151",79.2224,395.6079
"1152",78.91478,395.62134
"1153",78.626686,395.63477
"1154",78.363014,395.6482
"1155",78.12131,395.66162
"1156",77.90402,395.67505
"1157",77.71603,395.68848
"1158",77.55001,395.7019
"1159",77.40841,395.71533
"1160",77.29122,395.72876
"1161",77.19844,395.7422
"1162",77.120316,395.7556
"1163",77.051956,395.76904
"1164",76.98848,395.78247
"1165",76.927444,395.7959
"1166",76.86397,395.80933
"1167",76.80049,395.82275
"1168",76.73945,395.83618
"1169",76.68818,395.8496
"1170",76.654,395.86304
"1171",76.63447,395.87646
"1172",76.63203,395.8899
"1173",76.63447,395.90332
"1174",76.63447,395.91675
"1175",76.63203,395.93018
"1176",76.629585,395.9436
"1177",76.63935,395.95703
"1178",76.663765,395.97046
"1179",76.70527,395.9839
"1180",76.756546,395.9973
"1181",76.81758,396.01074
"1182",76.87129,396.02417
"1183",76.91768,396.0376
"1184",76.95186,396.05103
"1185",76.981155,396.06445
"1186",77.00069,396.07788
"1187",77.02022,396.0913
"1188",77.03487,396.10474
"1189",77.049515,396.11816
"1190",77.07881,396.1316
"1191",77.18623,396.14502
"1192",77.48165,396.15845
"1193",78.07736,396.17188
"1194",79.05882,396.1853
"1195",80.430916,396.19873
"1196",82.10574,396.21216
"1197",83.914856,396.2256
"1198",85.65316,396.239
"1199",87.13756,396.25244
"1200",88.236206,396.26587
"1201",88.89052,396.2793
"1202",89.10536,396.29272
"1203",88.93935,396.30615
"1204",88.48524,396.31958
"1205",87.85535,396.333
"1206",87.13756,396.34644
"1207",86.40513,396.35986
"1208",85.697105,396.3733
"1209",85.02083,396.38672
"1210",84.38117,396.40015
"1211",83.78058,396.41357
"1212",83.23369,396.427
"1213",82.7625,396.44043
"1214",82.37919,396.45386
"1215",82.09598,396.4673
"1216",81.898224,396.4807
"1217",81.77127,396.49414
"1218",81.685814,396.50757
"1219",81.619896,396.521
"1220",81.53689,396.53442
"1221",81.41482,396.54785
"1222",81.234146,396.56128
"1223",80.99245,396.5747
"1224",80.69459,396.58813
"1225",80.35523,396.60156
"1226",79.991455,396.615
"1227",79.62035,396.62842
"1228",79.24925,396.64185
"1229",78.89281,396.65527
"1230",78.553444,396.6687
"1231",78.24338,396.68213
"1232",77.97482,396.69556
"1233",77.74532,396.70898
"1234",77.55489,396.7224
"1235",77.40353,396.73584
"1236",77.28878,396.74927
"1237",77.20088,396.7627
"1238",77.134964,396.77612
"1239",77.086136,396.78955
"1240",77.051956,396.80298
"1241",77.01778,396.8164
"1242",76.99336,396.82983
"1243",76.96895,396.84326
"1244",76.94942,396.8567
"1245",76.927444,396.87012
"1246",76.90303,396.88354
"1247",76.88106,396.89697
"1248",76.86397,396.9104
"1249",76.84688,396.92383
"1250",76.83711,396.93726
"1251",76.839554,396.95068
"1252",76.84444,396.9641
"1253",76.84688,396.97754
"1254",76.84688,396.99097
"1255",76.84688,397.0044
"1256",76.84932,397.01782
"1257",76.85176,397.03125
"1258",76.86153,397.04468
"1259",76.86885,397.0581
"1260",76.87129,397.07153
"1261",76.859085,397.08496
"1262",76.83223,397.0984
"1263",76.805374,397.11182
"1264",76.82979,397.12524
"1265",76.98848,397.13867
"1266",77.39132,397.1521
"1267",78.14816,397.16553
"1268",79.29565,397.17896
"1269",80.8069,397.19238
"1270",82.56718,397.2058
"1271",84.39338,397.21924
"1272",86.09018,397.23267
"1273",87.484245,397.2461
"1274",88.45838,397.25952
"1275",88.971085,397.27295
"1276",89.04433,397.28638
"1277",88.74891,397.2998
"1278",88.18982,397.31323
"1279",87.47936,397.32666
"1280",86.70298,397.3401
"1281",85.924164,397.35352
"1282",85.17464,397.36694
"1283",84.46906,397.38037
"1284",83.81964,397.3938
"1285",83.23125,397.40723
"1286",82.7161,397.42065
"1287",82.28153,397.43408
"1288",81.94461,397.4475
"1289",81.70046,397.46094
"1290",81.53933,397.47437
"1291",81.43923,397.4878
"1292",81.38064,397.50122
"1293",81.32693,397.51465
"1294",81.253685,397.52808
"1295",81.13649,397.5415
"1296",80.96559,397.55493
"1297",80.72877,397.56836
"1298",80.4358,397.5818
"1299",80.093994,397.5952
"1300",79.727776,397.60864
"1301",79.35424,397.62207
"1302",78.99046,397.6355
"1303",78.65354,397.64893
"1304",78.348366,397.66235
"1305",78.0798,397.67578
"1306",77.85031,397.6892
"1307",77.65743,397.70264
"1308",77.503624,397.71606
"1309",77.38644,397.7295
"1310",77.296104,397.74292
"1311",77.222855,397.75635
"1312",77.1667,397.76978
"1313",77.1252,397.7832
"1314",77.09834,397.79663
"1315",77.08125,397.81006
"1316",77.069046,397.8235
"1317",77.06172,397.8369
"1318",77.049515,397.85034
"1319",77.03487,397.86377
"1320",77.01778,397.8772
"1321",77.00313,397.89062
"1322",76.99336,397.90405
"1323",76.98848,397.91748
"1324",76.99092,397.9309
"1325",76.99092,397.94434
"1326",76.98848,397.95776
"1327",76.97383,397.9712
"1328",76.946976,397.98462
"1329",76.910355,397.99805
"1330",76.876175,398.01147
"1331",76.84444,398.0249
"1332",76.81758,398.03833
"1333",76.79805,398.05176
"1334",76.79805,398.0652
"1335",76.86397,398.0786
"1336",77.09346,398.09204
"1337",77.608604,398.10547
"1338",78.49973,398.1189
"1339",79.78638,398.13232
"1340",81.41726,398.14575
"1341",83.245895,398.15918
"1342",85.07942,398.1726
"1343",86.72007,398.18604
"1344",88.02136,398.19946
"1345",88.885635,398.2129
"1346",89.28603,398.22632
"1347",89.254295,398.23975
"1348",88.866104,398.25317
"1349",88.24109,398.2666
"1350",87.481804,398.28003
"1351",86.67368,398.29346
"1352",85.872894,398.3069
"1353",85.10872,398.3203
"1354",84.38361,398.33374
"1355",83.70977,398.34717
"1356",83.09697,398.3606
"1357",82.562294,398.37402
"1358",82.12039,398.38745
"1359",81.78348,398.40088
"1360",81.549095,398.4143
"1361",81.40749,398.42773
"1362",81.324486,398.44116
"1363",81.270775,398.4546
"1364",81.21217,398.46802
"1365",81.126724,398.48145
"1366",80.98512,398.49487
"1367",80.78737,398.5083
"1368",80.52613,398.52173
"1369",80.216064,398.53516
"1370",79.871826,398.54858
"1371",79.51537,398.562
"1372",79.15648,398.57544
"1373",78.8098,398.58887
"1374",78.47776,398.6023
"1375",78.170135,398.61572
"1376",77.891815,398.62915
"1377",77.65499,398.64258
"1378",77.467,398.656
"1379",77.32052,398.66943
"1380",77.21553,398.68286
"1381",77.13252,398.6963
"1382",77.06416,398.70972
"1383",77.00557,398.72314
"1384",76.95918,398.73657
"1385",76.927444,398.75
"1386",76.90303,398.76343
"1387",76.89082,398.77686
"1388",76.8835,398.79028
"1389",76.876175,398.8037
"1390",76.86153,398.81714
"1391",76.84932,398.83057
"1392",76.83711,398.844
"1393",76.824905,398.85742
"1394",76.80049,398.87085
"1395",76.773636,398.88428
"1396",76.732124,398.8977
"1397",76.67597,398.91113
"1398",76.612495,398.92456
"1399",76.55146,398.938
"1400",76.49531,398.95142
"1401",76.45136,398.96484
"1402",76.43183,398.97827
"1403",76.470894,398.9917
"1404",76.663765,399.00513
"1405",77.13252,399.01855
"1406",77.979706,399.03198
"1407",79.25414,399.0454
"1408",80.90944,399.05884
"1409",82.80888,399.07227
"1410",84.74006,399.0857
"1411",86.485695,399.09912
"1412",87.87488,399.11255
"1413",88.814835,399.12598
"1414",89.27627,399.1394
"1415",89.29092,399.15283
"1416",88.93446,399.16626
"1417",88.31678,399.1797
"1418",87.54528,399.1931
"1419",86.70542,399.20654
"1420",85.86069,399.21997
"1421",85.04524,399.2334
"1422",84.27619,399.24683
"1423",83.55596,399.26025
"1424",82.9041,399.27368
"1425",82.33524,399.2871
"1426",81.881134,399.30054
"1427",81.549095,399.31396
"1428",81.33425,399.3274
"1429",81.20485,399.34082
"1430",81.13649,399.35425
"1431",81.08034,399.36768
"1432",81.01198,399.3811
"1433",80.90456,399.39453
"1434",80.73609,399.40796
"1435",80.50416,399.4214
"1436",80.218506,399.4348
"1437",79.8938,399.44824
"1438",79.53979,399.46167
"1439",79.168686,399.4751
"1440",78.79515,399.48853
"1441",78.433815,399.50195
"1442",78.09445,399.51538
"1443",77.786835,399.5288
"1444",77.52071,399.54224
"1445",77.28878,399.55566
"1446",77.0959,399.5691
"1447",76.927444,399.58252
"1448",76.78584,399.59595
"1449",76.67841,399.60938
"1450",76.59785,399.6228
"1451",76.541695,399.63623
"1452",76.50263,399.64966
"1453",76.470894,399.6631
"1454",76.436714,399.6765
"1455",76.39765,399.68994
"1456",76.36103,399.70337
"1457",76.32441,399.7168
"1458",76.30244,399.73022
"1459",76.297554,399.74365
"1460",76.29511,399.75708
"1461",76.29267,399.7705
"1462",76.28535,399.78394
"1463",76.26093,399.79736
"1464",76.224304,399.8108
"1465",76.1828,399.82422
"1466",76.1413,399.83765
"1467",76.09979,399.85107
"1468",76.06561,399.8645
"1469",76.06561,399.87793
"1470",76.1828,399.89136
"1471",76.53925,399.9048
"1472",77.2546,399.9182
"1473",78.38987,399.93164
"1474",79.940186,399.94507
"1475",81.80057,399.9585
"1476",83.77814,399.97192
"1477",85.65072,399.98535
"1478",87.23277,399.99878
"1479",88.39979,400.0122
"1480",89.08339,400.02563
"1481",89.29824,400.03906
"1482",89.112686,400.0525
"1483",88.619514,400.06592
"1484",87.92615,400.07935
"1485",87.11803,400.09277
"1486",86.26841,400.1062
"1487",85.4139,400.11963
"1488",84.576485,400.13306
"1489",83.77814,400.14648
"1490",83.053024,400.1599
"1491",82.41825,400.17334
"1492",81.89334,400.18677
"1493",81.4905,400.2002
"1494",81.197525,400.21362
"1495",80.990005,400.22705
"1496",80.84596,400.24048
"1497",80.73609,400.2539
"1498",80.63111,400.26733
"1499",80.50172,400.28076
"1500",80.32105,400.2942
"1501",80.07202,400.30762
"1502",79.75708,400.32104
"1503",79.39086,400.33447
"1504",79.00023,400.3479
"1505",78.60471,400.36133
"1506",78.21896,400.37476
"1507",77.86252,400.38818
"1508",77.54269,400.4016
"1509",77.2546,400.41504
"1510",77.00557,400.42847
"1511",76.79561,400.4419
"1512",76.61982,400.45532
"1513",76.48066,400.46875
"1514",76.37812,400.48218
"1515",76.30976,400.4956
"1516",76.27314,400.50903
"1517",76.25849,400.52246
"1518",76.25605,400.5359
"1519",76.25849,400.54932
"1520",76.263374,400.56274
"1521",76.27314,400.57617
"1522",76.28779,400.5896
"1523",76.30488,400.60303
"1524",76.317085,400.61646
"1525",76.32929,400.62988
"1526",76.33906,400.6433
"1527",76.3415,400.65674
"1528",76.334175,400.67017
"1529",76.30976,400.6836
"1530",76.2707,400.69702
"1531",76.21698,400.71045
"1532",76.14862,400.72388
"1533",76.070496,400.7373
"1534",76.00702,400.75073
"1535",75.97772,400.76416
"1536",76.04852,400.7776
"1537",76.32197,400.79102
"1538",76.92256,400.80444
"1539",77.94064,400.81787
"1540",79.40063,400.8313
"1541",81.22682,400.84473
"1542",83.2752,400.85815
"1543",85.31869,400.87158
"1544",87.13512,400.885
"1545",88.55604,400.89844
"1546",89.48623,400.91187
"1547",89.88663,400.9253
"1548",89.813385,400.93872
"1549",89.36416,400.95215
"1550",88.6659,400.96558
"1551",87.8407,400.979
"1552",86.99596,400.99243
"1553",86.19272,401.00586
"1554",85.44076,401.0193
"1555",84.735176,401.0327
"1556",84.06622,401.04614
"1557",83.44366,401.05957
"1558",82.88457,401.073
"1559",82.4329,401.08643
"1560",82.13016,401.09985
"1561",81.97635,401.11328
"1562",81.92752,401.1267
"1563",81.92996,401.14014
"1564",81.91531,401.15356
"1565",81.83719,401.167
"1566",81.66628,401.18042
"1567",81.40017,401.19385
"1568",81.05592,401.20728
"1569",80.64576,401.2207
"1570",80.17944,401.23413
"1571",79.67162,401.24756
"1572",79.14427,401.261
"1573",78.61448,401.2744
"1574",78.10666,401.28784
"1575",77.65255,401.30127
"1576",77.26925,401.3147
"1577",76.964066,401.32812
"1578",76.73701,401.34155
"1579",76.575874,401.35498
"1580",76.46357,401.3684
"1581",76.37812,401.38184
"1582",76.30976,401.39526
"1583",76.25605,401.4087
"1584",76.21698,401.42212
"1585",76.190125,401.43555
"1586",76.16815,401.44897
"1587",76.155945,401.4624
"1588",76.155945,401.47583
"1589",76.17059,401.48926
"1590",76.1828,401.5027
"1591",76.192566,401.5161
"1592",76.192566,401.52954
"1593",76.16815,401.54297
"1594",76.11688,401.5564
"1595",76.053406,401.56982
"1596",75.97772,401.58325
"1597",75.897156,401.59668
"1598",75.81903,401.6101
"1599",75.76776,401.62354
"1600",75.74822,401.63696
"1601",75.77997,401.6504
"1602",75.91669,401.66382
"1603",76.25849,401.67725
"1604",76.91524,401.69067
"1605",77.996796,401.7041
"1606",79.53979,401.71753
"1607",81.480736,401.73096
"1608",83.65362,401.7444
"1609",85.8143,401.7578
"1610",87.71862,401.77124
"1611",89.181046,401.78467
"1612",90.10635,401.7981
"1613",90.48234,401.81152
"1614",90.37003,401.82495
"1615",89.88663,401.83838
"1616",89.161514,401.8518
"1617",88.324104,401.86523
"1618",87.45495,401.87866
"1619",86.61509,401.8921
"1620",85.8143,401.90552
"1621",85.06477,401.91895
"1622",84.36164,401.93237
"1623",83.70977,401.9458
"1624",83.11406,401.95923
"1625",82.58915,401.97266
"1626",82.142365,401.98608
"1627",81.76639,401.9995
"1628",81.45876,402.01294
"1629",81.197525,402.02637
"1630",80.97536,402.0398
"1631",80.76784,402.05322
"1632",80.552986,402.06665
"1633",80.306404,402.08008
"1634",80.02075,402.0935
"1635",79.693596,402.10693
"1636",79.33227,402.12036
"1637",78.95628,402.1338
"1638",78.58762,402.14722
"1639",78.23361,402.16064
"1640",77.90158,402.17407
"1641",77.58907,402.1875
"1642",77.31075,402.20093
"1643",77.07881,402.21436
"1644",76.90303,402.22778
"1645",76.79317,402.2412
"1646",76.73701,402.25464
"1647",76.715034,402.26807
"1648",76.70771,402.2815
"1649",76.69306,402.29492
"1650",76.66621,402.30835
"1651",76.63935,402.32178
"1652",76.61494,402.3352
"1653",76.592964,402.34863
"1654",76.57343,402.36206
"1655",76.54658,402.3755
"1656",76.51728,402.38892
"1657",76.490425,402.40234
"1658",76.45869,402.41577
"1659",76.41718,402.4292
"1660",76.34394,402.44263
"1661",76.23651,402.45605
"1662",76.09735,402.46948
"1663",75.95331,402.4829
"1664",75.82391,402.49634
"1665",75.736015,402.50977
"1666",75.71404,402.5232
"1667",75.83612,402.53662
"1668",76.22186,402.55005
"1669",76.998245,402.56348
"1670",78.23117,402.5769
"1671",79.91821,402.59033
"1672",81.934845,402.60376
"1673",84.05646,402.6172
"1674",86.0267,402.6306
"1675",87.63073,402.64404
"1676",88.71717,402.65747
"1677",89.2372,402.6709
"1678",89.22011,402.68433
"1679",88.7831,402.69775
"1680",88.06531,402.71118
"1681",87.2108,402.7246
"1682",86.329445,402.73804
"1683",85.489586,402.75146
"1684",84.70588,402.7649
"1685",83.97589,402.77832
"1686",83.28985,402.79175
"1687",82.63798,402.80518
"1688",82.0325,402.8186
"1689",81.49294,402.83203
"1690",81.03883,402.84546
"1691",80.67506,402.8589
"1692",80.38941,402.8723
"1693",80.16235,402.88574
"1694",79.97681,402.89917
"1695",79.81079,402.9126
"1696",79.64721,402.92603
"1697",79.466545,402.93945
"1698",79.259026,402.95288
"1699",79.00755,402.9663
"1700",78.70237,402.97974
"1701",78.35325,402.99316
"1702",77.977264,403.0066
"1703",77.59884,403.02002
"1704",77.2375,403.03345
"1705",76.90547,403.04688
"1706",76.6247,403.0603
"1707",76.39765,403.07373
"1708",76.23407,403.08716
"1709",76.138855,403.1006
"1710",76.104675,403.114
"1711",76.10712,403.12744
"1712",76.121765,403.14087
"1713",76.13397,403.1543
"1714",76.12909,403.16772
"1715",76.102234,403.18115
"1716",76.053406,403.19458
"1717",75.98993,403.208
"1718",75.90936,403.22144
"1719",75.81171,403.23486
"1720",75.72137,403.2483
"1721",75.66277,403.26172
"1722",75.66277,403.27515
"1723",75.736015,403.28857
"1724",75.92401,403.302
"1725",76.29511,403.31543
"1726",76.93965,403.32886
"1727",77.943085,403.3423
"1728",79.33715,403.3557
"1729",81.08766,403.36914
"1730",83.06523,403.38257
"1731",85.04524,403.396
"1732",86.800644,403.40942
"1733",88.14343,403.42285
"1734",88.9662,403.43628
"1735",89.25674,403.4497
"1736",89.08339,403.46313
"1737",88.57801,403.47656
"1738",87.87244,403.49
"1739",87.0692,403.50342
"1740",86.2269,403.51685
"1741",85.365074,403.53027
"1742",84.50324,403.5437
"1743",83.65606,403.55713
"1744",82.847946,403.57056
"1745",82.12039,403.58398
"1746",81.50027,403.5974
"1747",80.99977,403.61084
"1748",80.6067,403.62427
"1749",80.29664,403.6377
"1750",80.0354,403.65112
"1751",79.79614,403.66455
"1752",79.55688,403.67798
"1753",79.29809,403.6914
"1754",79.01488,403.70483
"1755",78.70725,403.71826
"1756",78.37766,403.7317
"1757",78.028534,403.74512
"1758",77.659874,403.75854
"1759",77.279015,403.77197
"1760",76.893265,403.7854
"1761",76.524605,403.79883
"1762",76.19989,403.81226
"1763",75.93622,403.82568
"1764",75.74822,403.8391
"1765",75.631035,403.85254
"1766",75.560234,403.86597
"1767",75.51873,403.8794
"1768",75.494316,403.89282
"1769",75.474785,403.90625
"1770",75.45037,403.91968
"1771",75.41863,403.9331
"1772",75.37957,403.94653
"1773",75.33318,403.95996
"1774",75.2868,403.9734
"1775",75.2575,403.98682
"1776",75.25506,404.00024
"1777",75.3283,404.01367
"1778",75.55047,404.0271
"1779",76.036316,404.04053
"1780",76.893265,404.05396
"1781",78.17502,404.06738
"1782",79.85474,404.0808
"1783",81.79324,404.09424
"1784",83.775696,404.10767
"1785",85.56527,404.1211
"1786",86.97398,404.13452
"1787",87.88464,404.14795
"1788",88.27039,404.16138
"1789",88.18005,404.1748
"1790",87.71618,404.18823
"1791",87.01549,404.20166
"1792",86.185394,404.2151
"1793",85.30404,404.22852
"1794",84.40559,404.24194
"1795",83.50713,404.25537
"1796",82.62089,404.2688
"1797",81.78348,404.28223
"1798",81.041275,404.29565
"1799",80.448006,404.30908
"1800",80.03296,404.3225
"1801",79.783936,404.33594
"1802",79.65453,404.34937
"1803",79.59838,404.3628
"1804",79.5642,404.37622
"1805",79.50805,404.38965
"1806",79.41039,404.40308
"1807",79.23949,404.4165
"1808",78.995346,404.42993
"1809",78.6804,404.44336
"1810",78.311745,404.4568
"1811",77.92111,404.4702
"1812",77.55001,404.48364
"1813",77.208206,404.49707
"1814",76.912796,404.5105
"1815",76.67109,404.52393
"1816",76.46845,404.53735
"1817",76.30488,404.55078
"1818",76.18036,404.5642
"1819",76.07782,404.57764
"1820",75.98505,404.59106
"1821",75.8996,404.6045
"1822",75.82147,404.61792
"1823",75.755554,404.63135
"1824",75.7116,404.64478
"1825",75.69695,404.6582
"1826",75.71404,404.67163
"1827",75.77753,404.68506
"1828",75.93622,404.6985
"1829",76.28779,404.7119
"1830",76.93965,404.72534
"1831",77.977264,404.73877
"1832",79.4226,404.7522
"1833",81.19264,404.76562
"1834",83.12138,404.77905
"1835",84.98909,404.79248
"1836",86.58091,404.8059
"1837",87.74059,404.81934
"1838",88.39735,404.83276
"1839",88.55848,404.8462
"1840",88.307014,404.85962
"1841",87.75281,404.87305
"1842",87.01305,404.88647
"1843",86.16342,404.8999
"1844",85.26009,404.91333
"1845",84.317696,404.92676
"1846",83.370415,404.9402
"1847",82.45243,404.9536
"1848",81.61257,404.96704
"1849",80.907,404.98047
"1850",80.37476,404.9939
"1851",80.025635,405.00732
"1852",79.835205,405.02075
"1853",79.7522,405.03418
"1854",79.710686,405.0476
"1855",79.65209,405.06104
"1856",79.53246,405.07446
"1857",79.33715,405.0879
"1858",79.06859,405.10132
"1859",78.74387,405.11475
"1860",78.38987,405.12817
"1861",78.02609,405.1416
"1862",77.67208,405.15503
"1863",77.332726,405.16846
"1864",77.01778,405.1819
"1865",76.734566,405.1953
"1866",76.49287,405.20874
"1867",76.30976,405.22217
"1868",76.190125,405.2356
"1869",76.12909,405.24902
"1870",76.09979,405.26245
"1871",76.08026,405.27588
"1872",76.04364,405.2893
"1873",75.99237,405.30273
"1874",75.93866,405.31616
"1875",75.914246,405.3296
"1876",75.945984,405.34302
"1877",76.0827,405.35645
"1878",76.40009,405.36987
"1879",77.00069,405.3833
"1880",77.96994,405.39673
"1881",79.35912,405.41016
"1882",81.126724,405.42358
"1883",83.11894,405.437
"1884",85.101395,405.45044
"1885",86.820175,405.46387
"1886",88.077515,405.4773
"1887",88.76845,405.49072
"1888",88.90517,405.50415
"1889",88.57801,405.51758
"1890",87.92859,405.531
"1891",87.096054,405.54443
"1892",86.18295,405.55786
"1893",85.24544,405.5713
"1894",84.30793,405.58472
"1895",83.38262,405.59814
"1896",82.493935,405.61157
"1897",81.68093,405.625
"1898",80.98268,405.63843
"1899",80.43824,405.65186
"1900",80.04761,405.66528
"1901",79.78638,405.6787
"1902",79.60815,405.69214
"1903",79.45678,405.70557
"1904",79.28588,405.719
"1905",79.06859,405.73242
"1906",78.79515,405.74585
"1907",78.46311,405.75928
"1908",78.08469,405.7727
"1909",77.67696,405.78613
"1910",77.24727,405.79956
"1911",76.807816,405.813
"1912",76.37812,405.82642
"1913",75.96796,405.83984
"1914",75.596855,405.85327
"1915",75.284355,405.8667
"1916",75.04997,405.88013
"1917",74.89372,405.89355
"1918",74.793625,405.90698
"1919",74.737465,405.9204
"1920",74.70084,405.93384
"1921",74.66178,405.94727
"1922",74.61051,405.9607
"1923",74.55436,405.97412
"1924",74.50065,405.98755
"1925",74.45182,406.00098
"1926",74.4152,406.0144
"1927",74.39323,406.02783
"1928",74.39323,406.04126
"1929",74.45426,406.0547
"1930",74.67887,406.0681
"1931",75.20622,406.08154
"1932",76.18768,406.09497
"1933",77.70382,406.1084
"1934",79.72045,406.12183
"1935",82.07156,406.13525
"1936",84.48371,406.14868
"1937",86.64927,406.1621
"1938",88.32166,406.17554
"1939",89.376366,406.18896
"1940",89.79874,406.2024
"1941",89.68154,406.21582
"1942",89.16884,406.22925
"1943",88.41688,406.24268
"1944",87.56725,406.2561
"1945",86.68101,406.26953
"1946",85.78989,406.28296
"1947",84.89632,406.2964
"1948",83.99298,406.3098
"1949",83.089645,406.32324
"1950",82.230255,406.33667
"1951",81.463646,406.3501
"1952",80.833755,406.36353
"1953",80.360115,406.37695
"1954",80.02075,406.39038
"1955",79.79614,406.4038
"1956",79.64477,406.41724
"1957",79.537346,406.43066
"1958",79.43725,406.4441
"1959",79.31518,406.45752
"1960",79.14183,406.47095
"1961",78.907455,406.48438
"1962",78.61448,406.4978
"1963",78.277565,406.51123
"1964",77.91623,406.52466
"1965",77.55001,406.5381
"1966",77.19844,406.5515
"1967",76.86397,406.56494
"1968",76.55634,406.57837
"1969",76.29023,406.5918
"1970",76.07294,406.60522
"1971",75.90448,406.61865
"1972",75.775085,406.63208
"1973",75.682304,406.6455
"1974",75.62371,406.65894
"1975",75.5993,406.67236
"1976",75.61639,406.6858
"1977",75.6701,406.69922
"1978",75.755554,406.71265
"1979",75.85321,406.72607
"1980",75.945984,406.7395
"1981",76.00946,406.75293
"1982",76.04364,406.76636
"1983",76.036316,406.7798
"1984",76.00458,406.7932
"1985",75.95331,406.80664
"1986",75.88495,406.82007
"1987",75.809265,406.8335
"1988",75.73113,406.84692
"1989",75.665215,406.86035
"1990",75.67498,406.87378
"1991",75.90692,406.8872
"1992",76.52216,406.90063
"1993",77.66964,406.91406
"1994",79.40063,406.9275
"1995",81.634544,406.94092
"1996",84.139465,406.95435
"1997",86.60288,406.96777
"1998",88.71473,406.9812
"1999",90.250404,406.99463
"2000",91.11955,407.00806
"2001",91.34173,407.02148
"2002",91.0341,407.0349
"2003",90.36759,407.04834
"2004",89.50576,407.06177
"2005",88.568245,407.0752
"2006",87.606316,407.08862
"2007",86.6273,407.10205
"2008",85.6141,407.11548
"2009",84.56916,407.1289
"2010",83.526665,407.14233
"2011",82.53788,407.15576
"2012",81.67361,407.1692
"2013",80.9778,407.18262
"2014",80.465096,407.19604
"2015",80.111084,407.20947
"2016",79.88159,407.2229
"2017",79.725334,407.23633
"2018",79.60082,407.24976
"2019",79.4641,407.26318
"2020",79.29565,407.2766
"2021",79.080795,407.29004
"2022",78.81468,407.30347
"2023",78.51194,407.3169
"2024",78.184784,407.33032
"2025",77.85275,407.34375
"2026",77.5256,407.35718
"2027",77.21553,407.3706
"2028",76.92012,407.38403
"2029",76.646675,407.39746
"2030",76.40009,407.4109
"2031",76.18524,407.42432
"2032",76.00214,407.43774
"2033",75.84833,407.45117
"2034",75.71404,407.4646
"2035",75.596855,407.47803
"2036",75.49676,407.49146
"2037",75.423515,407.50488
"2038",75.38445,407.5183
"2039",75.37469,407.53174
"2040",75.389336,407.54517
"2041",75.41863,407.5586
"2042",75.457695,407.57202
"2043",75.4992,407.58545
"2044",75.53826,407.59888
"2045",75.57,407.6123
"2046",75.59197,407.62573
"2047",75.58709,407.63916
"2048",75.545586,407.6526
"2049",75.47723,407.66602
"2050",75.39666,407.67944
"2051",75.335625,407.69287
"2052",75.38201,407.7063
"2053",75.6701,407.71973
"2054",76.35615,407.73315
"2055",77.56466,407.74658
"2056",79.327385,407.76
"2057",81.55642,407.77344
"2058",84.0296,407.78687
"2059",86.4564,407.8003
"2060",88.54871,407.81372
"2061",90.09903,407.82715
"2062",90.99504,407.84058
"2063",91.246506,407.854
"2064",90.95598,407.86743
"2065",90.27482,407.88086
"2066",89.35439,407.8943
"2067",88.324104,407.9077
"2068",87.24742,407.92114
"2069",86.153656,407.93457
"2070",85.05745,407.948
"2071",83.97833,407.96143
"2072",82.948044,407.97485
"2073",82.01785,407.98828
"2074",81.23659,408.0017
"2075",80.63355,408.01514
"2076",80.21118,408.02856
"2077",79.94263,408.042
"2078",79.77661,408.05542
"2079",79.66674,408.06885
"2080",79.56664,408.08228
"2081",79.447014,408.0957
"2082",79.293205,408.10913
"2083",79.093,408.12256
"2084",78.84886,408.136
"2085",78.555885,408.1494
"2086",78.22385,408.16284
"2087",77.86252,408.17627
"2088",77.49142,408.1897
"2089",77.13008,408.20312
"2090",76.788284,408.21655
"2091",76.470894,408.22998
"2092",76.17792,408.2434
"2093",75.92645,408.25684
"2094",75.718925,408.27026
"2095",75.55779,408.2837
"2096",75.44549,408.29712
"2097",75.37713,408.31055
"2098",75.34051,408.32397
"2099",75.32342,408.3374
"2100",75.31365,408.35083
"2101",75.31365,408.36426
"2102",75.32342,408.3777
"2103",75.34051,408.3911
"2104",75.36004,408.40454
"2105",75.389336,408.41797
"2106",75.41375,408.4314
"2107",75.43572,408.44482
"2108",75.45281,408.45825
"2109",75.45525,408.47168
"2110",75.43572,408.4851
"2111",75.389336,408.49854
"2112",75.31121,408.51196
"2113",75.22087,408.5254
"2114",75.140305,408.53882
"2115",75.0988,408.55225
"2116",75.159836,408.56567
"2117",75.43328,408.5791
"2118",76.06073,408.59253
"2119",77.17647,408.60596
"2120",78.83177,408.6194
"2121",80.972916,408.6328
"2122",83.40948,408.64624
"2123",85.87045,408.65967
"2124",88.0531,408.6731
"2125",89.74258,408.68652
"2126",90.809494,408.69995
"2127",91.23186,408.71338
"2128",91.07805,408.7268
"2129",90.47013,408.74023
"2130",89.55947,408.75366
"2131",88.480354,408.7671
"2132",87.33532,408.78052
"2133",86.18295,408.79395
"2134",85.0721,408.80737
"2135",84.02228,408.8208
"2136",83.055466,408.83423
"2137",82.20096,408.84766
"2138",81.480736,408.86108
"2139",80.91188,408.8745
"2140",80.499275,408.88794
"2141",80.22827,408.90137
"2142",80.06714,408.9148
"2143",79.98657,408.92822
"2144",79.93286,408.94165
"2145",79.8645,408.95508
"2146",79.74731,408.9685
"2147",79.56176,408.98193
"2148",79.30785,408.99536
"2149",78.992905,409.0088
"2150",78.63157,409.02222
"2151",78.24338,409.03564
"2152",77.84787,409.04907
"2153",77.45724,409.0625
"2154",77.09834,409.07593
"2155",76.7834,409.08936
"2156",76.51728,409.10278
"2157",76.299995,409.1162
"2158",76.12421,409.12964
"2159",75.98505,409.14307
"2160",75.8703,409.1565
"2161",75.77753,409.16992
"2162",75.699394,409.18335
"2163",75.63592,409.19678
"2164",75.58953,409.2102
"2165",75.562675,409.22363
"2166",75.562675,409.23706
"2167",75.58709,409.2505
"2168",75.62127,409.26392
"2169",75.650566,409.27734
"2170",75.665215,409.29077
"2171",75.667656,409.3042
"2172",75.67498,409.31763
"2173",75.69451,409.33105
"2174",75.736015,409.34448
"2175",75.792175,409.3579
"2176",75.843445,409.37134
"2177",75.86786,409.38477
"2178",75.85321,409.3982
"2179",75.79706,409.41162
"2180",75.71404,409.42505
"2181",75.62371,409.43848
"2182",75.55291,409.4519
"2183",75.543144,409.46533
"2184",75.6701,409.47876
"2185",76.07294,409.4922
"2186",76.90303,409.5056
"2187",78.26536,409.51904
"2188",80.164795,409.53247
"2189",82.49882,409.5459
"2190",85.030594,409.55933
"2191",87.464714,409.57275
"2192",89.52529,409.58618
"2193",91.02434,409.5996
"2194",91.86908,409.61304
"2195",92.05951,409.62646
"2196",91.68597,409.6399
"2197",90.88762,409.65332
"2198",89.82803,409.66675
"2199",88.63416,409.68018
"2200",87.40612,409.6936
"2201",86.19516,409.70703
"2202",85.03548,409.72046
"2203",83.95392,409.7339
"2204",82.97734,409.7473
"2205",82.14725,409.76074
"2206",81.49294,409.77417
"2207",81.02907,409.7876
"2208",80.740974,409.80103
"2209",80.59693,409.81445
"2210",80.53834,409.82788
"2211",80.52125,409.8413
"2212",80.49195,409.85474
"2213",80.40894,409.86816
"2214",80.257576,409.8816
"2215",80.025635,409.89502
"2216",79.71313,409.90845
"2217",79.33471,409.92188
"2218",78.91478,409.9353
"2219",78.47288,409.94873
"2220",78.03342,409.96216
"2221",77.61837,409.9756
"2222",77.239944,409.989
"2223",76.89815,410.00244
"2224",76.60029,410.01587
"2225",76.34638,410.0293
"2226",76.14374,410.04272
"2227",75.98749,410.05615
"2228",75.88251,410.06958
"2229",75.81903,410.083
"2230",75.78485,410.09644
"2231",75.7702,410.10986
"2232",75.76288,410.1233
"2233",75.76044,410.13672
"2234",75.76776,410.15015
"2235",75.77997,410.16357
"2236",75.80438,410.177
"2237",75.84589,410.19043
"2238",75.894714,410.20386
"2239",75.9411,410.2173
"2240",75.98749,410.2307
"2241",76.02655,410.24414
"2242",76.050964,410.25757
"2243",76.068054,410.271
"2244",76.068054,410.28442
"2245",76.050964,410.29785
"2246",76.00946,410.31128
"2247",75.948425,410.3247
"2248",75.877625,410.33813
"2249",75.809265,410.35156
"2250",75.76532,410.365
"2251",75.7995,410.37842
"2252",76.033875,410.39185
"2253",76.629585,410.40527
"2254",77.72579,410.4187
"2255",79.38598,410.43213
"2256",81.5613,410.44556
"2257",84.06622,410.45898
"2258",86.607765,410.4724
"2259",88.885635,410.48584
"2260",90.65812,410.49927
"2261",91.793396,410.5127
"2262",92.25239,410.52612
"2263",92.10101,410.53955
"2264",91.46136,410.55298
"2265",90.48234,410.5664
"2266",89.29824,410.57983
"2267",88.01404,410.59326
"2268",86.70054,410.6067
"2269",85.42123,410.62012
"2270",84.21515,410.63354
"2271",83.13603,410.64697
"2272",82.21805,410.6604
"2273",81.495384,410.67383
"2274",80.98024,410.68726
"2275",80.66041,410.70068
"2276",80.50172,410.7141
"2277",80.45533,410.72754
"2278",80.47242,410.74097
"2279",80.49683,410.7544
"2280",80.48707,410.76782
"2281",80.411385,410.78125
"2282",80.25025,410.79468
"2283",80.008545,410.8081
"2284",79.693596,410.82153
"2285",79.31518,410.83496
"2286",78.89525,410.8484
"2287",78.450905,410.86182
"2288",78.00168,410.87524
"2289",77.557335,410.88867
"2290",77.137405,410.9021
"2291",76.74433,410.91553
"2292",76.40009,410.92896
"2293",76.104675,410.94238
"2294",75.86786,410.9558
"2295",75.699394,410.96924
"2296",75.59441,410.98267
"2297",75.53094,410.9961
"2298",75.494316,411.00952
"2299",75.47234,411.02295
"2300",75.45281,411.03638
"2301",75.43572,411.0498
"2302",75.43084,411.06323
"2303",75.44305,411.07666
"2304",75.474785,411.0901
"2305",75.52117,411.10352
"2306",75.57488,411.11694
"2307",75.62615,411.13037
"2308",75.67498,411.1438
"2309",75.716484,411.15723
"2310",75.736015,411.17065
"2311",75.736015,411.18408
"2312",75.716484,411.1975
"2313",75.67986,411.21094
"2314",75.63592,411.22437
"2315",75.58221,411.2378
"2316",75.528496,411.25122
"2317",75.51385,411.26465
"2318",75.6408,411.27808
"2319",76.07538,411.2915
"2320",76.98604,411.30493
"2321",78.47776,411.31836
"2322",80.54078,411.3318
"2323",83.018845,411.3452
"2324",85.64095,411.35864
"2325",88.10681,411.37207
"2326",90.14542,411.3855
"2327",91.58587,411.39893
"2328",92.35493,411.41235
"2329",92.472115,411.42578
"2330",92.02533,411.4392
"2331",91.15617,411.45264
"2332",90.01114,411.46606
"2333",88.71229,411.4795
"2334",87.362175,411.49292
"2335",86.02426,411.50635
"2336",84.749825,411.51978
"2337",83.5877,411.5332
"2338",82.579384,411.54663
"2339",81.76639,411.56006
"2340",81.17067,411.5735
"2341",80.79469,411.5869
"2342",80.60914,411.60034
"2343",80.56275,411.61377
"2344",80.59449,411.6272
"2345",80.64576,411.64062
"2346",80.67506,411.65405
"2347",80.64576,411.66748
"2348",80.533455,411.6809
"2349",80.33326,411.69434
"2350",80.045166,411.70776
"2351",79.67895,411.7212
"2352",79.25414,411.73462
"2353",78.79271,411.74805
"2354",78.32639,411.76147
"2355",77.8674,411.7749
"2356",77.43038,411.78833
"2357",77.02266,411.80176
"2358",76.65644,411.8152
"2359",76.33906,411.8286
"2360",76.08026,411.84204
"2361",75.88495,411.85547
"2362",75.755554,411.8689
"2363",75.67498,411.88232
"2364",75.63348,411.89575
"2365",75.6115,411.90918
"2366",75.60418,411.9226
"2367",75.59441,411.93604
"2368",75.58953,411.94946
"2369",75.59441,411.9629
"2370",75.6115,411.97632
"2371",75.648125,411.98975
"2372",75.701836,412.00317
"2373",75.76044,412.0166
"2374",75.81171,412.03003
"2375",75.843445,412.04346
"2376",75.841,412.0569
"2377",75.809265,412.0703
"2378",75.76044,412.08374
"2379",75.699394,412.09717
"2380",75.63592,412.1106
"2381",75.577324,412.12402
"2382",75.562675,412.13745
"2383",75.68719,412.15088
"2384",76.12665,412.1643
"2385",77.04219,412.17773
"2386",78.54856,412.19116
"2387",80.63111,412.2046
"2388",83.13603,412.21802
"2389",85.79233,412.23145
"2390",88.289925,412.24487
"2391",90.355385,412.2583
"2392",91.81293,412.27173
"2393",92.58686,412.28516
"2394",92.70161,412.29858
"2395",92.24994,412.312
"2396",91.3637,412.32544
"2397",90.194244,412.33887
"2398",88.87099,412.3523
"2399",87.481804,412.36572
"2400",86.0975,412.37915
"2401",84.76692,412.39258
"2402",83.53643,412.406
"2403",82.45243,412.41943
"2404",81.57351,412.43286
"2405",80.92897,412.4463
"2406",80.52613,412.45972
"2407",80.34058,412.47314
"2408",80.32105,412.48657
"2409",80.394295,412.5
"2410",80.50416,412.51343
"2411",80.59449,412.52686
"2412",80.62623,412.54028
"2413",80.567635,412.5537
"2414",80.40406,412.56714
"2415",80.13794,412.58057
"2416",79.77905,412.594
"2417",79.35424,412.60742
"2418",78.887924,412.62085
"2419",78.4094,412.63428
"2420",77.93332,412.6477
"2421",77.48165,412.66113
"2422",77.06172,412.67456
"2423",76.68574,412.688
"2424",76.3708,412.70142
"2425",76.112,412.71484
"2426",75.914246,412.72827
"2427",75.7702,412.7417
"2428",75.67498,412.75513
"2429",75.613945,412.76855
"2430",75.579765,412.78198
"2431",75.56512,412.7954
"2432",75.57,412.80884
"2433",75.58953,412.82227
"2434",75.61639,412.8357
"2435",75.65301,412.84912
"2436",75.69695,412.86255
"2437",75.73846,412.87598
"2438",75.76776,412.8894
"2439",75.78241,412.90283
"2440",75.772644,412.91626
"2441",75.73846,412.9297
"2442",75.682304,412.9431
"2443",75.60906,412.95654
"2444",75.53094,412.96997
"2445",75.48211,412.9834
"2446",75.55047,412.99683
"2447",75.89227,413.01025
"2448",76.6833,413.02368
"2449",78.04318,413.0371
"2450",79.99634,413.05054
"2451",82.423134,413.06396
"2452",85.07942,413.0774
"2453",87.65514,413.09082
"2454",89.864655,413.10425
"2455",91.507744,413.11768
"2456",92.48188,413.1311
"2457",92.772415,413.14453
"2458",92.45258,413.15796
"2459",91.65667,413.1714
"2460",90.528725,413.1848
"2461",89.21278,413.19824
"2462",87.82361,413.21167
"2463",86.43687,413.2251
"2464",85.101395,413.23853
"2465",83.87091,413.25195
"2466",82.78447,413.26538
"2467",81.881134,413.2788
"2468",81.197525,413.29224
"2469",80.74586,413.30566
"2470",80.50416,413.3191
"2471",80.4358,413.33252
"2472",80.479744,413.34595
"2473",80.57984,413.35938
"2474",80.67017,413.3728
"2475",80.70191,413.38623
"2476",80.63355,413.39966
"2477",80.45533,413.4131
"2478",80.17212,413.4265
"2479",79.80347,413.43994
"2480",79.37133,413.45337
"2481",78.907455,413.4668
"2482",78.42893,413.48022
"2483",77.95285,413.49365
"2484",77.503624,413.50708
"2485",77.09346,413.5205
"2486",76.73701,413.53394
"2487",76.44404,413.54736
"2488",76.21698,413.5608
"2489",76.050964,413.57422
"2490",75.9411,413.58765
"2491",75.87274,413.60107
"2492",75.83612,413.6145
"2493",75.81659,413.62793
"2494",75.81659,413.64136
"2495",75.83368,413.6548
"2496",75.8703,413.6682
"2497",75.91913,413.68164
"2498",75.97772,413.69507
"2499",76.02167,413.7085
"2500",76.04364,413.72192
"2501",76.02899,413.73535
"2502",75.98505,413.74878
"2503",75.91913,413.7622
"2504",75.83612,413.77563
"2505",75.73846,413.78906
"2506",75.64324,413.8025
"2507",75.577324,413.81592
"2508",75.63592,413.82935
"2509",75.98749,413.84277
"2510",76.80049,413.8562
"2511",78.187225,413.86963
"2512",80.15259,413.88306
"2513",82.562294,413.89648
"2514",85.16731,413.9099
"2515",87.66491,413.92334
"2516",89.776764,413.93677
"2517",91.30511,413.9502
"2518",92.154724,413.96362
"2519",92.32075,413.97705
"2520",91.89105,413.99048
"2521",91.00481,414.0039
"2522",89.830475,414.01733
"2523",88.50721,414.03076
"2524",87.13512,414.0442
"2525",85.785,414.05762
"2526",84.508125,414.07104
"2527",83.34844,414.08447
"2528",82.337685,414.0979
"2529",81.5198,414.11133
"2530",80.91676,414.12476
"2531",80.533455,414.13818
"2532",80.34058,414.1516
"2533",80.29664,414.16504
"2534",80.34058,414.17847
"2535",80.40162,414.1919
"2536",80.43336,414.20532
"2537",80.39185,414.21875
"2538",80.257576,414.23218
"2539",80.03052,414.2456
"2540",79.72045,414.25903
"2541",79.33715,414.27246
"2542",78.89525,414.2859
"2543",78.416725,414.29932
"2544",77.92111,414.31274
"2545",77.44015,414.32617
"2546",76.998245,414.3396
"2547",76.61494,414.35303
"2548",76.30488,414.36646
"2549",76.06073,414.37988
"2550",75.88251,414.3933
"2551",75.757996,414.40674
"2552",75.67498,414.42017
"2553",75.631035,414.4336
"2554",75.62371,414.44702
"2555",75.648125,414.46045
"2556",75.69695,414.47388
"2557",75.76044,414.4873
"2558",75.826355,414.50073
"2559",75.877625,414.51416
"2560",75.914246,414.5276
"2561",75.92401,414.54102
"2562",75.90448,414.55444
"2563",75.85321,414.56787
"2564",75.7702,414.5813
"2565",75.665215,414.59473
"2566",75.55535,414.60815
"2567",75.46258,414.62158
"2568",75.43572,414.635
"2569",75.59197,414.64844
"2570",76.085144,414.66187
"2571",77.07637,414.6753
"2572",78.65598,414.68872
"2573",80.79225,414.70215
"2574",83.3167,414.71558
"2575",85.94614,414.729
"2576",88.36561,414.74243
"2577",90.309,414.75586
"2578",91.61028,414.7693
"2579",92.21088,414.7827
"2580",92.14252,414.79614
"2581",91.52239,414.80957
"2582",90.50187,414.823
"2583",89.24696,414.83643
"2584",87.88953,414.84985
"2585",86.519875,414.86328
"2586",85.20149,414.8767
"2587",83.983215,414.89014
"2588",82.90166,414.90356
"2589",81.991,414.917
"2590",81.290306,414.93042
"2591",80.80202,414.94385
"2592",80.51148,414.95728
"2593",80.37232,414.9707
"2594",80.33082,414.98413
"2595",80.3357,414.99756
"2596",80.3357,415.011
"2597",80.29908,415.0244
"2598",80.18921,415.03784
"2599",79.991455,415.05127
"2600",79.69848,415.0647
"2601",79.32494,415.07812
"2602",78.887924,415.09155
"2603",78.41917,415.10498
"2604",77.93576,415.1184
"2605",77.471886,415.13184
"2606",77.049515,415.14526
"2607",76.67597,415.1587
"2608",76.36591,415.17212
"2609",76.10956,415.18555
"2610",75.89227,415.19897
"2611",75.70916,415.2124
"2612",75.55779,415.22583
"2613",75.44549,415.23926
"2614",75.38201,415.2527
"2615",75.369804,415.2661
"2616",75.39666,415.27954
"2617",75.44549,415.29297
"2618",75.494316,415.3064
"2619",75.53094,415.31982
"2620",75.54803,415.33325
"2621",75.545586,415.34668
"2622",75.51873,415.3601
"2623",75.474785,415.37354
"2624",75.41131,415.38696
"2625",75.335625,415.4004
"2626",75.2575,415.41382
"2627",75.18669,415.42725
"2628",75.13542,415.44067
"2629",75.17204,415.4541
"2630",75.421074,415.46753
"2631",76.06317,415.48096
"2632",77.239944,415.4944
"2633",79.009995,415.5078
"2634",81.29763,415.52124
"2635",83.897766,415.53467
"2636",86.50034,415.5481
"2637",88.80263,415.56152
"2638",90.56779,415.57495
"2639",91.663994,415.58838
"2640",92.05463,415.6018
"2641",91.810486,415.61523
"2642",91.05852,415.62866
"2643",89.969635,415.6421
"2644",88.707405,415.65552
"2645",87.38415,415.66895
"2646",86.07065,415.68237
"2647",84.81087,415.6958
"2648",83.64629,415.70923
"2649",82.60624,415.72266
"2650",81.72976,415.73608
"2651",81.0486,415.7495
"2652",80.5774,415.76294
"2653",80.29664,415.77637
"2654",80.16968,415.7898
"2655",80.15015,415.80322
"2656",80.17944,415.81665
"2657",80.198975,415.83008
"2658",80.16235,415.8435
"2659",80.0354,415.85693
"2660",79.80347,415.87036
"2661",79.47631,415.8838
"2662",79.07591,415.89722
"2663",78.6218,415.91064
"2664",78.14084,415.92407
"2665",77.65743,415.9375
"2666",77.19356,415.95093
"2667",76.76875,415.96436
"2668",76.402534,415.97778
"2669",76.104675,415.9912
"2670",75.877625,416.00464
"2671",75.7116,416.01807
"2672",75.59197,416.0315
"2673",75.50408,416.04492
"2674",75.44793,416.05835
"2675",75.41619,416.07178
"2676",75.41863,416.0852
"2677",75.45037,416.09863
"2678",75.508965,416.11206
"2679",75.58465,416.1255
"2680",75.66033,416.13892
"2681",75.72869,416.15234
"2682",75.77997,416.16577
"2683",75.80438,416.1792
"2684",75.79462,416.19263
"2685",75.757996,416.20605
"2686",75.69695,416.21948
"2687",75.61883,416.2329
"2688",75.528496,416.24634
"2689",75.43572,416.25977
"2690",75.34783,416.2732
"2691",75.30877,416.28662
"2692",75.423515,416.30005
"2693",75.862976,416.31348
"2694",76.81026,416.3269
"2695",78.3679,416.34033
"2696",80.52125,416.35376
"2697",83.104294,416.3672
"2698",85.82895,416.3806
"2699",88.34852,416.39404
"2700",90.38224,416.40747
"2701",91.74456,416.4209
"2702",92.3769,416.43433
"2703",92.32807,416.44775
"2704",91.72259,416.46118
"2705",90.7338,416.4746
"2706",89.530174,416.48804
"2707",88.24353,416.50146
"2708",86.95445,416.5149
"2709",85.70443,416.52832
"2710",84.51789,416.54175
"2711",83.42657,416.55518
"2712",82.46708,416.5686
"2713",81.67361,416.58203
"2714",81.06325,416.59546
"2715",80.638435,416.6089
"2716",80.36988,416.6223
"2717",80.216064,416.63574
"2718",80.12573,416.64917
"2719",80.059814,416.6626
"2720",79.98169,416.67603
"2721",79.85474,416.68945
"2722",79.65209,416.70288
"2723",79.37133,416.7163
"2724",79.01976,416.72974
"2725",78.61204,416.74316
"2726",78.17258,416.7566
"2727",77.730675,416.77002
"2728",77.30099,416.78345
"2729",76.893265,416.79688
"2730",76.52216,416.8103
"2731",76.19501,416.82373
"2732",75.91913,416.83716
"2733",75.69451,416.8506
"2734",75.51629,416.864
"2735",75.37957,416.87744
"2736",75.27459,416.89087
"2737",75.18913,416.9043
"2738",75.125656,416.91772
"2739",75.08415,416.93115
"2740",75.054855,416.94458
"2741",75.03288,416.958
"2742",75.020676,416.97144
"2743",75.018234,416.98486
"2744",75.028,416.9983
"2745",75.052414,417.01172
"2746",75.09148,417.02515
"2747",75.13786,417.03857
"2748",75.174484,417.052
"2749",75.19646,417.06543
"2750",75.1989,417.07886
"2751",75.18181,417.0923
"2752",75.140305,417.1057
"2753",75.08171,417.11914
"2754",75.00847,417.13257
"2755",74.9279,417.146
"2756",74.86687,417.15942
"2757",74.88884,417.17285
"2758",75.14519,417.18628
"2759",75.83124,417.1997
"2760",77.10567,417.21313
"2761",79.04173,417.22656
"2762",81.566185,417.24
"2763",84.44465,417.25342
"2764",87.33288,417.26685
"2765",89.884186,417.28027
"2766",91.8349,417.2937
"2767",93.04585,417.30713
"2768",93.504845,417.32056
"2769",93.29244,417.33398
"2770",92.55512,417.3474
"2771",91.48089,417.36084
"2772",90.22598,417.37427
"2773",88.91737,417.3877
"2774",87.63561,417.40112
"2775",86.417336,417.41455
"2776",85.28451,417.42798
"2777",84.25422,417.4414
"2778",83.34844,417.45483
"2779",82.58427,417.46826
"2780",81.97879,417.4817
"2781",81.52468,417.49512
"2782",81.20241,417.50854
"2783",80.972916,417.52197
"2784",80.799576,417.5354
"2785",80.6482,417.54883
"2786",80.48707,417.56226
"2787",80.28687,417.57568
"2788",80.03784,417.5891
"2789",79.72289,417.60254
"2790",79.35424,417.61597
"2791",78.93919,417.6294
"2792",78.502174,417.64282
"2793",78.05295,417.65625
"2794",77.61593,417.66968
"2795",77.20088,417.6831
"2796",76.82979,417.69653
"2797",76.50507,417.70996
"2798",76.23407,417.7234
"2799",76.02167,417.73682
"2800",75.85809,417.75024
"2801",75.73846,417.76367
"2802",75.65789,417.7771
"2803",75.60906,417.79053
"2804",75.58221,417.80396
"2805",75.56512,417.81738
"2806",75.55779,417.8308
"2807",75.55535,417.84424
"2808",75.55535,417.85767
"2809",75.55779,417.8711
"2810",75.56512,417.88452
"2811",75.579765,417.89795
"2812",75.60906,417.91138
"2813",75.648125,417.9248
"2814",75.699394,417.93823
"2815",75.75311,417.95166
"2816",75.79706,417.9651
"2817",75.82391,417.97852
"2818",75.826355,417.99194
"2819",75.79706,418.00537
"2820",75.74578,418.0188
"2821",75.67742,418.03223
"2822",75.60906,418.04565
"2823",75.54803,418.05908
"2824",75.51873,418.0725
"2825",75.57244,418.08594
"2826",75.83856,418.09937
"2827",76.48554,418.1128
"2828",77.68429,418.12622
"2829",79.51537,418.13965
"2830",81.9324,418.15308
"2831",84.72297,418.1665
"2832",87.572136,418.17993
"2833",90.125885,418.19336
"2834",92.11566,418.2068
"2835",93.37789,418.2202
"2836",93.873505,418.23364
"2837",93.67574,418.24707
"2838",92.93843,418.2605
"2839",91.844666,418.27393
"2840",90.57511,418.28735
"2841",89.27871,418.30078
"2842",88.02136,418.3142
"2843",86.83238,418.32764
"2844",85.714195,418.34106
"2845",84.6717,418.3545
"2846",83.719536,418.36792
"2847",82.879684,418.38135
"2848",82.18387,418.39478
"2849",81.64431,418.4082
"2850",81.24635,418.42163
"2851",80.95827,418.43506
"2852",80.75807,418.4485
"2853",80.601814,418.4619
"2854",80.45045,418.47534
"2855",80.26002,418.48877
"2856",80.008545,418.5022
"2857",79.67895,418.51562
"2858",79.28344,418.52905
"2859",78.83421,418.54248
"2860",78.363014,418.5559
"2861",77.89426,418.56934
"2862",77.44503,418.58276
"2863",77.02754,418.5962
"2864",76.654,418.60962
"2865",76.32929,418.62305
"2866",76.05829,418.63647
"2867",75.83856,418.6499
"2868",75.667656,418.66333
"2869",75.545586,418.67676
"2870",75.46502,418.6902
"2871",75.41131,418.7036
"2872",75.37957,418.71704
"2873",75.355156,418.73047
"2874",75.3283,418.7439
"2875",75.29412,418.75732
"2876",75.264824,418.77075
"2877",75.23796,418.78418
"2878",75.21843,418.7976
"2879",75.208664,418.81104
"2880",75.21599,418.82446
"2881",75.23796,418.8379
"2882",75.26971,418.85132
"2883",75.30389,418.86475
"2884",75.34539,418.87817
"2885",75.38201,418.8916
"2886",75.41375,418.90503
"2887",75.43572,418.91846
"2888",75.44549,418.9319
"2889",75.43572,418.9453
"2890",75.39666,418.95874
"2891",75.33318,418.97217
"2892",75.25994,418.9856
"2893",75.211105,418.99902
"2894",75.28191,419.01245
"2895",75.61883,419.02588
"2896",76.40986,419.0393
"2897",77.7966,419.05273
"2898",79.818115,419.06616
"2899",82.371864,419.0796
"2900",85.19905,419.09302
"2901",87.96765,419.10645
"2902",90.34318,419.11987
"2903",92.0766,419.1333
"2904",93.05562,419.14673
"2905",93.280235,419.16016
"2906",92.85054,419.17358
"2907",91.932556,419.187
"2908",90.719154,419.20044
"2909",89.38369,419.21387
"2910",88.0531,419.2273
"2911",86.7982,419.24072
"2912",85.643394,419.25415
"2913",84.593575,419.26758
"2914",83.648735,419.281
"2915",82.81377,419.29443
"2916",82.1033,419.30786
"2917",81.53689,419.3213
"2918",81.1194,419.33472
"2919",80.833755,419.34814
"2920",80.66041,419.36157
"2921",80.550545,419.375
"2922",80.45777,419.38843
"2923",80.34058,419.40186
"2924",80.16724,419.41528
"2925",79.91821,419.4287
"2926",79.59838,419.44214
"2927",79.21507,419.45557
"2928",78.785385,419.469
"2929",78.32395,419.48242
"2930",77.85031,419.49585
"2931",77.383995,419.50928
"2932",76.946976,419.5227
"2933",76.558784,419.53613
"2934",76.241394,419.54956
"2935",75.99725,419.563
"2936",75.82147,419.57642
"2937",75.70916,419.58984
"2938",75.6408,419.60327
"2939",75.596855,419.6167
"2940",75.562675,419.63013
"2941",75.53826,419.64355
"2942",75.51873,419.65698
"2943",75.508965,419.6704
"2944",75.511406,419.68384
"2945",75.51385,419.69727
"2946",75.51873,419.7107
"2947",75.52361,419.72412
"2948",75.53094,419.73755
"2949",75.543144,419.75098
"2950",75.56756,419.7644
"2951",75.596855,419.77783
"2952",75.631035,419.79126
"2953",75.66033,419.8047
"2954",75.67498,419.8181
"2955",75.67254,419.83154
"2956",75.65301,419.84497
"2957",75.60418,419.8584
"2958",75.53582,419.87183
"2959",75.45525,419.88525
"2960",75.38201,419.89868
"2961",75.338066,419.9121
"2962",75.39422,419.92554
"2963",75.682304,419.93896
"2964",76.37812,419.9524
"2965",77.628136,419.96582
"2966",79.500725,419.97925
"2967",81.91043,419.99268
"2968",84.63752,420.0061
"2969",87.35729,420.01953
"2970",89.740135,420.03296
"2971",91.51751,420.0464
"2972",92.55512,420.0598
"2973",92.823685,420.07324
"2974",92.40864,420.08667
"2975",91.473564,420.1001
"2976",90.21622,420.11353
"2977",88.82216,420.12695
"2978",87.430534,420.14038
"2979",86.10971,420.1538
"2980",84.87923,420.16724
"2981",83.76837,420.18066
"2982",82.78691,420.1941
"2983",81.95438,420.20752
"2984",81.29519,420.22095
"2985",80.82155,420.23438
"2986",80.516365,420.2478
"2987",80.343025,420.26123
"2988",80.255135,420.27466
"2989",80.2063,420.2881
"2990",80.15747,420.3015
"2991",80.076904,420.31494
"2992",79.9353,420.32837
"2993",79.727776,420.3418
"2994",79.449455,420.35522
"2995",79.10521,420.36865
"2996",78.70481,420.38208
"2997",78.2678,420.3955
"2998",77.81857,420.40894
"2999",77.37423,420.42236
"3000",76.95186,420.4358
"3001",76.578316,420.44922
"3002",76.263374,420.46265
"3003",76.00946,420.47607
"3004",75.81415,420.4895
"3005",75.67254,420.50293
"3006",75.57488,420.51636
"3007",75.4992,420.5298
"3008",75.43816,420.5432
"3009",75.38445,420.55664
"3010",75.34051,420.57007
"3011",75.31121,420.5835
"3012",75.301445,420.59692
"3013",75.31121,420.61035
"3014",75.34051,420.62378
"3015",75.38201,420.6372
"3016",75.42596,420.65063
"3017",75.46258,420.66406
"3018",75.48943,420.6775
"3019",75.50164,420.69092
"3020",75.50164,420.70435
"3021",75.48211,420.71777
"3022",75.440605,420.7312
"3023",75.38201,420.74463
"3024",75.30633,420.75806
"3025",75.23552,420.77148
"3026",75.18669,420.7849
"3027",75.194016,420.79834
"3028",75.35027,420.81177
"3029",75.80194,420.8252
"3030",76.71015,420.83862
"3031",78.19455,420.85205
"3032",80.257576,420.86548
"3033",82.7625,420.8789
"3034",85.435875,420.89233
"3035",87.93591,420.90576
"3036",89.96719,420.9192
"3037",91.336845,420.93262
"3038",91.981384,420.94604
"3039",91.93744,420.95947
"3040",91.3222,420.9729
"3041",90.29679,420.98633
"3042",89.024796,420.99976
"3043",87.64294,421.01318
"3044",86.24399,421.0266
"3045",84.893875,421.04004
"3046",83.63653,421.05347
"3047",82.51591,421.0669
"3048",81.57107,421.08032
"3049",80.84596,421.09375
"3050",80.35279,421.10718
"3051",80.08667,421.1206
"3052",80.00366,421.13403
"3053",80.042725,421.14746
"3054",80.14526,421.1609
"3055",80.257576,421.17432
"3056",80.32838,421.18774
"3057",80.31861,421.20117
"3058",80.20874,421.2146
"3059",79.98657,421.22803
"3060",79.67162,421.24146
"3061",79.28832,421.25488
"3062",78.86839,421.2683
"3063",78.42893,421.28174
"3064",77.996796,421.29517
"3065",77.58419,421.3086
"3066",77.21065,421.32202
"3067",76.88594,421.33545
"3068",76.61982,421.34888
"3069",76.41474,421.3623
"3070",76.265816,421.37573
"3071",76.16815,421.38916
"3072",76.10956,421.4026
"3073",76.087585,421.41602
"3074",76.09735,421.42944
"3075",76.13153,421.44287
"3076",76.1828,421.4563
"3077",76.23651,421.46973
"3078",76.297554,421.48315
"3079",76.34882,421.49658
"3080",76.39033,421.51
"3081",76.4123,421.52344
"3082",76.40986,421.53687
"3083",76.37324,421.5503
"3084",76.30244,421.56372
"3085",76.207214,421.57715
"3086",76.09003,421.59058
"3087",75.97528,421.604
"3088",75.877625,421.61743
"3089",75.81659,421.63086
"3090",75.85077,421.6443
"3091",76.09735,421.6577
"3092",76.71015,421.67114
"3093",77.81857,421.68457
"3094",79.46899,421.698
"3095",81.58816,421.71143
"3096",83.96857,421.72485
"3097",86.31968,421.73828
"3098",88.35584,421.7517
"3099",89.86221,421.76514
"3100",90.72892,421.77856
"3101",90.94133,421.792
"3102",90.56779,421.80542
"3103",89.73037,421.81885
"3104",88.57313,421.83228
"3105",87.23277,421.8457
"3106",85.80942,421.85913
"3107",84.39826,421.87256
"3108",83.06523,421.886
"3109",81.883575,421.8994
"3110",80.90944,421.91284
"3111",80.19409,421.92627
"3112",79.766846,421.9397
"3113",79.61303,421.95312
"3114",79.68139,421.96655
"3115",79.89868,421.97998
"3116",80.18677,421.9934
"3117",80.46021,422.00684
"3118",80.65064,422.02026
"3119",80.71656,422.0337
"3120",80.64576,422.04712
"3121",80.43824,422.06055
"3122",80.12329,422.07397
"3123",79.727776,422.0874
"3124",79.293205,422.10083
"3125",78.836655,422.11426
"3126",78.380104,422.1277
"3127",77.945526,422.1411
"3128",77.557335,422.15454
"3129",77.225296,422.16797
"3130",76.97139,422.1814
"3131",76.80293,422.19482
"3132",76.71259,422.20825
"3133",76.68574,422.22168
"3134",76.6955,422.2351
"3135",76.72236,422.24854
"3136",76.74189,422.26196
"3137",76.73701,422.2754
"3138",76.70527,422.28882
"3139",76.654,422.30225
"3140",76.58808,422.31567
"3141",76.52216,422.3291
"3142",76.46845,422.34253
"3143",76.456245,422.35596
"3144",76.53193,422.3694
"3145",76.81514,422.3828
"3146",77.44259,422.39624
"3147",78.52415,422.40967
"3148",80.08179,422.4231
"3149",82.0325,422.43652
"3150",84.18341,422.44995
"3151",86.27085,422.46338
"3152",88.03601,422.4768
"3153",89.28603,422.49023
"3154",89.92813,422.50366
"3155",89.952545,422.5171
"3156",89.4374,422.53052
"3157",88.50233,422.54395
"3158",87.293816,422.55737
"3159",85.94125,422.5708
"3160",84.53254,422.58423
"3161",83.13847,422.59766
"3162",81.82742,422.61108
"3163",80.66773,422.6245
"3164",79.71801,422.63794
"3165",79.03197,422.65137
"3166",78.643776,422.6648
"3167",78.53147,422.67822
"3168",78.64866,422.69165
"3169",78.91478,422.70508
"3170",79.24193,422.7185
"3171",79.54223,422.73193
"3172",79.74731,422.74536
"3173",79.818115,422.7588
"3174",79.727776,422.77222
"3175",79.49096,422.78564
"3176",79.14427,422.79907
"3177",78.71702,422.8125
"3178",78.25071,422.82593
"3179",77.786835,422.83936
"3180",77.35226,422.85278
"3181",76.964066,422.8662
"3182",76.63691,422.87964
"3183",76.37568,422.89307
"3184",76.18036,422.9065
"3185",76.04852,422.91992
"3186",75.97284,422.93335
"3187",75.93622,422.94678
"3188",75.92645,422.9602
"3189",75.92157,422.97363
"3190",75.914246,422.98706
"3191",75.894714,423.0005
"3192",75.8703,423.01392
"3193",75.84589,423.02734
"3194",75.84833,423.04077
"3195",75.945984,423.0542
"3196",76.25849,423.06763
"3197",76.94942,423.08105
"3198",78.14572,423.09448
"3199",79.88159,423.1079
"3200",82.06424,423.12134
"3201",84.46418,423.13477
"3202",86.783554,423.1482
"3203",88.72694,423.16162
"3204",90.09415,423.17505
"3205",90.78264,423.18848
"3206",90.81438,423.2019
"3207",90.284584,423.21533
"3208",89.342186,423.22876
"3209",88.148315,423.2422
"3210",86.82994,423.2556
"3211",85.48226,423.26904
"3212",84.16632,423.28247
"3213",82.92607,423.2959
"3214",81.812775,423.30933
"3215",80.87038,423.32275
"3216",80.14282,423.33618
"3217",79.64965,423.3496
"3218",79.38598,423.36304
"3219",79.30785,423.37646
"3220",79.35668,423.3899
"3221",79.466545,423.40332
"3222",79.58129,423.41675
"3223",79.639885,423.43018
"3224",79.61303,423.4436
"3225",79.47631,423.45703
"3226",79.234604,423.47046
"3227",78.89281,423.4839
"3228",78.485085,423.4973
"3229",78.03586,423.51074
"3230",77.58419,423.52417
"3231",77.154495,423.5376
"3232",76.76631,423.55103
"3233",76.4416,423.56445
"3234",76.18036,423.57788
"3235",75.98505,423.5913
"3236",75.85321,423.60474
"3237",75.775085,423.61816
"3238",75.733574,423.6316
"3239",75.70916,423.64502
"3240",75.68963,423.65845
"3241",75.66033,423.67188
"3242",75.6115,423.6853
"3243",75.55291,423.69873
"3244",75.49676,423.71216
"3245",75.46258,423.7256
"3246",75.48699,423.739
"3247",75.67986,423.75244
"3248",76.19501,423.76587
"3249",77.196,423.7793
"3250",78.768295,423.79272
"3251",80.885025,423.80615
"3252",83.370415,423.81958
"3253",85.92172,423.833
"3254",88.20447,423.84644
"3255",89.94766,423.85986
"3256",90.99748,423.8733
"3257",91.3222,423.88672
"3258",91.00481,423.90015
"3259",90.19913,423.91357
"3260",89.08095,423.927
"3261",87.80896,423.94043
"3262",86.51011,423.95386
"3263",85.25277,423.9673
"3264",84.068665,423.9807
"3265",82.97978,423.99414
"3266",82.00076,424.00757
"3267",81.1487,424.021
"3268",80.448006,424.03442
"3269",79.91577,424.04785
"3270",79.54711,424.06128
"3271",79.3225,424.0747
"3272",79.20775,424.08813
"3273",79.15648,424.10156
"3274",79.1223,424.115
"3275",79.063705,424.12842
"3276",78.95628,424.14185
"3277",78.78294,424.15527
"3278",78.53391,424.1687
"3279",78.221405,424.18213
"3280",77.855194,424.19556
"3281",77.45724,424.20898
"3282",77.05928,424.2224
"3283",76.680855,424.23584
"3284",76.3415,424.24927
"3285",76.053406,424.2627
"3286",75.809265,424.27612
"3287",75.61639,424.28955
"3288",75.47234,424.30298
"3289",75.38201,424.3164
"3290",75.33318,424.32983
"3291",75.31609,424.34326
"3292",75.30633,424.3567
"3293",75.29168,424.37012
"3294",75.25994,424.38354
"3295",75.211105,424.39697
"3296",75.14519,424.4104
"3297",75.07683,424.42383
"3298",75.00847,424.43726
"3299",74.94499,424.45068
"3300",74.90349,424.4641
"3301",74.949875,424.47754
"3302",75.23308,424.49097
"3303",75.94354,424.5044
"3304",77.239944,424.51782
"3305",79.168686,424.53125
"3306",81.62722,424.54468
"3307",84.35676,424.5581
"3308",87.00572,424.57153
"3309",89.232315,424.58496
"3310",90.80461,424.5984
"3311",91.629814,424.61182
"3312",91.73235,424.62524
"3313",91.24162,424.63867
"3314",90.338295,424.6521
"3315",89.2079,424.66553
"3316",87.992065,424.67896
"3317",86.77623,424.69238
"3318",85.59701,424.7058
"3319",84.4593,424.71924
"3320",83.38018,424.73267
"3321",82.38163,424.7461
"3322",81.4905,424.75952
"3323",80.73853,424.77295
"3324",80.14038,424.78638
"3325",79.691154,424.7998
"3326",79.378654,424.81323
"3327",79.17357,424.82666
"3328",79.04173,424.8401
"3329",78.94408,424.85352
"3330",78.83177,424.86694
"3331",78.6804,424.88037
"3332",78.46555,424.8938
"3333",78.184784,424.90723
"3334",77.85031,424.92065
"3335",77.48409,424.93408
"3336",77.10567,424.9475
"3337",76.734566,424.96094
"3338",76.385445,424.97437
"3339",76.070496,424.9878
"3340",75.78485,425.00122
"3341",75.53582,425.01465
"3342",75.32342,425.02808
"3343",75.15007,425.0415
"3344",75.01335,425.05493
"3345",74.91325,425.06836
"3346",74.84245,425.0818
"3347",74.80095,425.0952
"3348",74.78142,425.10864
"3349",74.77409,425.12207
"3350",74.776535,425.1355
"3351",74.77898,425.14893
"3352",74.77898,425.16235
"3353",74.78142,425.17578
"3354",74.79118,425.1892
"3355",74.80827,425.20264
"3356",74.84001,425.21606
"3357",74.87175,425.2295
"3358",74.90105,425.24292
"3359",74.93523,425.25635
"3360",74.97673,425.26978
"3361",75.03288,425.2832
"3362",75.10368,425.29663
"3363",75.18425,425.31006
"3364",75.2575,425.3235
"3365",75.30633,425.3369
"3366",75.3283,425.35034
"3367",75.31609,425.36377
"3368",75.27947,425.3772
"3369",75.23308,425.39062
"3370",75.18913,425.40405
"3371",75.20378,425.41748
"3372",75.423515,425.4309
"3373",76.0412,425.44434
"3374",77.25948,425.45776
"3375",79.185776,425.4712
"3376",81.78348,425.48462
"3377",84.82796,425.49805
"3378",87.96521,425.51147
"3379",90.794846,425.5249
"3380",92.999466,425.53833
"3381",94.398415,425.55176
"3382",94.96483,425.5652
"3383",94.78905,425.5786
"3384",94.049286,425.59204
"3385",92.95308,425.60547
"3386",91.68841,425.6189
"3387",90.39445,425.63232
"3388",89.129776,425.64575
"3389",87.9115,425.65918
"3390",86.7396,425.6726
"3391",85.62142,425.68604
"3392",84.576485,425.69946
"3393",83.63409,425.7129
"3394",82.828415,425.72632
"3395",82.178986,425.73975
"3396",81.67361,425.75317
"3397",81.290306,425.7666
"3398",80.99489,425.78003
"3399",80.75563,425.79346
"3400",80.54078,425.8069
"3401",80.31373,425.8203
"3402",80.05005,425.83374
"3403",79.7351,425.84717
"3404",79.364006,425.8606
"3405",78.941635,425.87402
"3406",78.485085,425.88745
"3407",78.02365,425.90088
"3408",77.57198,425.9143
"3409",77.14961,425.92773
"3410",76.76387,425.94116
"3411",76.422066,425.9546
"3412",76.12909,425.96802
"3413",75.88251,425.98145
"3414",75.68719,425.99487
"3415",75.543144,426.0083
"3416",75.43572,426.02173
"3417",75.355156,426.03516
"3418",75.28924,426.04858
"3419",75.23064,426.062
"3420",75.174484,426.07544
"3421",75.11833,426.08887
"3422",75.07683,426.1023
"3423",75.04997,426.11572
"3424",75.037766,426.12915
"3425",75.03044,426.14258
"3426",75.018234,426.156
"3427",74.9987,426.16943
"3428",74.97185,426.18286
"3429",74.94743,426.1963
"3430",74.93034,426.20972
"3431",74.93034,426.22314
"3432",74.94743,426.23657
"3433",74.97673,426.25
"3434",75.020676,426.26343
"3435",75.07683,426.27686
"3436",75.140305,426.29028
"3437",75.20622,426.3037
"3438",75.264824,426.31714
"3439",75.318535,426.33057
"3440",75.36004,426.344
"3441",75.389336,426.35742
"3442",75.40154,426.37085
"3443",75.39422,426.38428
"3444",75.36248,426.3977
"3445",75.31365,426.41113
"3446",75.29412,426.42456
"3447",75.421074,426.438
"3448",75.894714,426.45142
"3449",76.925,426.46484
"3450",78.643776,426.47827
"3451",81.05104,426.4917
"3452",83.980774,426.50513
"3453",87.10826,426.51855
"3454",90.04288,426.53198
"3455",92.45258,426.5454
"3456",94.12253,426.55884
"3457",94.96727,426.57227
"3458",95.02586,426.5857
"3459",94.43748,426.59912
"3460",93.40475,426.61255
"3461",92.13519,426.62598
"3462",90.794846,426.6394
"3463",89.48623,426.65283
"3464",88.25086,426.66626
"3465",87.078964,426.6797
"3466",85.96567,426.6931
"3467",84.9012,426.70654
"3468",83.90753,426.71997
"3469",83.021286,426.7334
"3470",82.27909,426.74683
"3471",81.69558,426.76025
"3472",81.25124,426.77368
"3473",80.92409,426.7871
"3474",80.67506,426.80054
"3475",80.462654,426.81396
"3476",80.24292,426.8274
"3477",79.99878,426.84082
"3478",79.71557,426.85425
"3479",79.38598,426.86768
"3480",79.01488,426.8811
"3481",78.6096,426.89453
"3482",78.1799,426.90796
"3483",77.752655,426.9214
"3484",77.33517,426.9348
"3485",76.93721,426.94824
"3486",76.56611,426.96167
"3487",76.22919,426.9751
"3488",75.928894,426.98853
"3489",75.6701,427.00195
"3490",75.46502,427.01538
"3491",75.31121,427.0288
"3492",75.20378,427.04224
"3493",75.13054,427.05566
"3494",75.08659,427.0691
"3495",75.06462,427.08252
"3496",75.0573,427.09595
"3497",75.06462,427.10938
"3498",75.07683,427.1228
"3499",75.08659,427.13623
"3500",75.08659,427.14966
"3501",75.07439,427.1631
"3502",75.0573,427.1765
"3503",75.04265,427.18994
"3504",75.037766,427.20337
"3505",75.04265,427.2168
"3506",75.052414,427.23022
"3507",75.06462,427.24365
"3508",75.08171,427.25708
"3509",75.11345,427.2705
"3510",75.16472,427.28394
"3511",75.2404,427.29736
"3512",75.335625,427.3108
"3513",75.43084,427.32422
"3514",75.508965,427.33765
"3515",75.562675,427.35107
"3516",75.58465,427.3645
"3517",75.579765,427.37793
"3518",75.560234,427.39136
"3519",75.528496,427.4048
"3520",75.494316,427.4182
"3521",75.48699,427.43164
"3522",75.579765,427.44507
"3523",75.94354,427.4585
"3524",76.77608,427.47192
"3525",78.24582,427.48535
"3526",80.40406,427.49878
"3527",83.14824,427.5122
"3528",86.20981,427.52563
"3529",89.22987,427.53906
"3530",91.844666,427.5525
"3531",93.802704,427.56592
"3532",94.96239,427.57935
"3533",95.31396,427.59277
"3534",94.94774,427.6062
"3535",94.029755,427.61963
"3536",92.76021,427.63306
"3537",91.3222,427.64648
"3538",89.864655,427.6599
"3539",88.465706,427.67334
"3540",87.1693,427.68677
"3541",85.98276,427.7002
"3542",84.91341,427.71362
"3543",83.96857,427.72705
"3544",83.158005,427.74048
"3545",82.493935,427.7539
"3546",81.991,427.76733
"3547",81.634544,427.78076
"3548",81.39773,427.7942
"3549",81.23659,427.80762
"3550",81.10231,427.82104
"3551",80.94606,427.83447
"3552",80.73365,427.8479
"3553",80.445564,427.86133
"3554",80.08179,427.87476
"3555",79.66674,427.88818
"3556",79.219955,427.9016
"3557",78.75609,427.91504
"3558",78.28489,427.92847
"3559",77.81613,427.9419
"3560",77.35226,427.95532
"3561",76.90547,427.96875
"3562",76.490425,427.98218
"3563",76.12909,427.9956
"3564",75.83124,428.00903
"3565",75.59197,428.02246
"3566",75.39666,428.0359
"3567",75.228195,428.04932
"3568",75.07683,428.06274
"3569",74.94499,428.07617
"3570",74.83513,428.0896
"3571",74.759445,428.10303
"3572",74.71061,428.11646
"3573",74.68131,428.12988
"3574",74.66178,428.1433
"3575",74.64225,428.15674
"3576",74.62028,428.17017
"3577",74.598305,428.1836
"3578",74.581215,428.19702
"3579",74.57877,428.21045
"3580",74.58854,428.22388
"3581",74.617836,428.2373
"3582",74.67399,428.25073
"3583",74.75212,428.26416
"3584",74.84245,428.2776
"3585",74.94011,428.29102
"3586",75.03288,428.30444
"3587",75.11101,428.31787
"3588",75.16228,428.3313
"3589",75.19646,428.34473
"3590",75.21355,428.35815
"3591",75.20622,428.37158
"3592",75.18425,428.385
"3593",75.16228,428.39844
"3594",75.15495,428.41187
"3595",75.21843,428.4253
"3596",75.48943,428.43872
"3597",76.16327,428.45215
"3598",77.43038,428.46558
"3599",79.3933,428.479
"3600",82.01297,428.49243
"3601",85.08186,428.50586
"3602",88.26307,428.5193
"3603",91.17082,428.5327
"3604",93.49752,428.54614
"3605",95.05272,428.55957
"3606",95.782715,428.573
"3607",95.7412,428.58643
"3608",95.07225,428.59985
"3609",93.95651,428.61328
"3610",92.58442,428.6267
"3611",91.11467,428.64014
"3612",89.65713,428.65356
"3613",88.27772,428.667
"3614",87.00572,428.68042
"3615",85.858246,428.69385
"3616",84.842606,428.70728
"3617",83.963684,428.7207
"3618",83.23369,428.73413
"3619",82.667274,428.74756
"3620",82.262,428.761
"3621",82.003204,428.7744
"3622",81.85672,428.78784
"3623",81.778595,428.80127
"3624",81.71267,428.8147
"3625",81.60769,428.82812
"3626",81.43435,428.84155
"3627",81.17555,428.85498
"3628",80.82887,428.8684
"3629",80.4065,428.88184
"3630",79.93286,428.89526
"3631",79.42748,428.9087
"3632",78.91478,428.92212
"3633",78.416725,428.93555
"3634",77.945526,428.94897
"3635",77.51095,428.9624
"3636",77.11055,428.97583
"3637",76.75899,428.98926
"3638",76.453804,429.0027
"3639",76.19745,429.0161
"3640",75.98993,429.02954
"3641",75.81903,429.04297
"3642",75.684746,429.0564
"3643",75.58221,429.06982
"3644",75.50408,429.08325
"3645",75.43572,429.09668
"3646",75.372246,429.1101
"3647",75.30633,429.12354
"3648",75.24284,429.13696
"3649",75.18669,429.1504
"3650",75.14519,429.16382
"3651",75.123215,429.17725
"3652",75.11589,429.19067
"3653",75.11589,429.2041
"3654",75.1281,429.21753
"3655",75.14763,429.23096
"3656",75.18181,429.2444
"3657",75.228195,429.2578
"3658",75.27215,429.27124
"3659",75.30389,429.28467
"3660",75.30633,429.2981
"3661",75.27703,429.31152
"3662",75.21355,429.32495
"3663",75.13298,429.33838
"3664",75.04753,429.3518
"3665",74.984055,429.36523
"3666",74.9987,429.37866
"3667",75.22575,429.3921
"3668",75.85809,429.40552
"3669",77.07637,429.41895
"3670",78.975815,429.43237
"3671",81.514915,429.4458
"3672",84.488594,429.45923
"3673",87.55749,429.47266
"3674",90.34806,429.48608
"3675",92.55024,429.4995
"3676",93.995575,429.51294
"3677",94.63035,429.52637
"3678",94.5156,429.5398
"3679",93.7905,429.55322
"3680",92.645454,429.56665
"3681",91.25628,429.58008
"3682",89.78165,429.5935
"3683",88.31922,429.60693
"3684",86.9276,429.62036
"3685",85.63851,429.6338
"3686",84.471504,429.64722
"3687",83.441216,429.66064
"3688",82.579384,429.67407
"3689",81.91043,429.6875
"3690",81.43679,429.70093
"3691",81.13893,429.71436
"3692",80.97536,429.72778
"3693",80.89723,429.7412
"3694",80.848404,429.75464
"3695",80.797134,429.76807
"3696",80.69703,429.7815
"3697",80.52857,429.79492
"3698",80.27955,429.80835
"3699",79.94263,429.82178
"3700",79.53002,429.8352
"3701",79.063705,429.84863
"3702",78.57053,429.86206
"3703",78.07248,429.8755
"3704",77.59884,429.88892
"3705",77.16182,429.90234
"3706",76.771194,429.91577
"3707",76.43183,429.9292
"3708",76.14374,429.94263
"3709",75.8996,429.95605
"3710",75.70428,429.96948
"3711",75.55291,429.9829
"3712",75.44305,429.99634
"3713",75.369804,430.00977
"3714",75.3283,430.0232
"3715",75.30633,430.03662
"3716",75.29656,430.05005
"3717",75.29412,430.06348
"3718",75.299,430.0769
"3719",75.30877,430.09033
"3720",75.33074,430.10376
"3721",75.36248,430.1172
"3722",75.3991,430.1306
"3723",75.44305,430.14404
"3724",75.48699,430.15747
"3725",75.53338,430.1709
"3726",75.579765,430.18433
"3727",75.61883,430.19775
"3728",75.63836,430.21118
"3729",75.631035,430.2246
"3730",75.59197,430.23804
"3731",75.53094,430.25146
"3732",75.46258,430.2649
"3733",75.40154,430.27832
"3734",75.38201,430.29175
"3735",75.47723,430.30518
"3736",75.843445,430.3186
"3737",76.67841,430.33203
"3738",78.14816,430.34546
"3739",80.291756,430.3589
"3740",83.004196,430.3723
"3741",86.00961,430.38574
"3742",88.93935,430.39917
"3743",91.44671,430.4126
"3744",93.28268,430.42603
"3745",94.33494,430.43945
"3746",94.608376,430.45288
"3747",94.20065,430.4663
"3748",93.26559,430.47974
"3749",91.981384,430.49316
"3750",90.52628,430.5066
"3751",89.02968,430.52002
"3752",87.57702,430.53345
"3753",86.20981,430.54688
"3754",84.95979,430.5603
"3755",83.85138,430.57373
"3756",82.899216,430.58716
"3757",82.1326,430.6006
"3758",81.56374,430.614
"3759",81.18776,430.62744
"3760",80.97536,430.64087
"3761",80.88258,430.6543
"3762",80.85817,430.66772
"3763",80.850845,430.68115
"3764",80.814224,430.69458
"3765",80.706795,430.708
"3766",80.49683,430.72144
"3767",80.17944,430.73486
"3768",79.76929,430.7483
"3769",79.27856,430.76172
"3770",78.73899,430.77515
"3771",78.1799,430.78857
"3772",77.628136,430.802
"3773",77.103226,430.81543
"3774",76.63691,430.82886
"3775",76.24628,430.8423
"3776",75.93378,430.8557
"3777",75.69695,430.86914
"3778",75.526054,430.88257
"3779",75.3991,430.896
"3780",75.301445,430.90942
"3781",75.22575,430.92285
"3782",75.17204,430.93628
"3783",75.13054,430.9497
"3784",75.10857,430.96313
"3785",75.0988,430.97656
"3786",75.11101,430.99
"3787",75.13786,431.00342
"3788",75.17204,431.01685
"3789",75.211105,431.03027
"3790",75.24773,431.0437
"3791",75.27947,431.05713
"3792",75.301445,431.07056
"3793",75.30389,431.08398
"3794",75.27947,431.0974
"3795",75.23064,431.11084
"3796",75.157394,431.12427
"3797",75.07439,431.1377
"3798",74.99626,431.15112
"3799",74.94743,431.16455
"3800",74.98894,431.17798
"3801",75.25994,431.1914
"3802",75.95331,431.20483
"3803",77.2546,431.21826
"3804",79.237045,431.2317
"3805",81.829865,431.24512
"3806",84.78401,431.25854
"3807",87.73571,431.27197
"3808",90.31632,431.2854
"3809",92.25239,431.29883
"3810",93.40719,431.31226
"3811",93.77341,431.32568
"3812",93.45113,431.3391
"3813",92.60395,431.35254
"3814",91.42962,431.36597
"3815",90.10147,431.3794
"3816",88.74647,431.39282
"3817",87.44518,431.40625
"3818",86.23422,431.41968
"3819",85.12581,431.4331
"3820",84.12482,431.44653
"3821",83.25323,431.45996
"3822",82.533,431.4734
"3823",81.98123,431.48682
"3824",81.59548,431.50024
"3825",81.34402,431.51367
"3826",81.19264,431.5271
"3827",81.0901,431.54053
"3828",80.98512,431.55396
"3829",80.83864,431.56738
"3830",80.62623,431.5808
"3831",80.33326,431.59424
"3832",79.95972,431.60767
"3833",79.5227,431.6211
"3834",79.046616,431.63452
"3835",78.553444,431.64795
"3836",78.06271,431.66138
"3837",77.58175,431.6748
"3838",77.1252,431.68823
"3839",76.70283,431.70166
"3840",76.33173,431.7151
"3841",76.02899,431.72852
"3842",75.80194,431.74194
"3843",75.64568,431.75537
"3844",75.543144,431.7688
"3845",75.48455,431.78223
"3846",75.44305,431.79565
"3847",75.423515,431.80908
"3848",75.423515,431.8225
"3849",75.44793,431.83594
"3850",75.494316,431.84937
"3851",75.562675,431.8628
"3852",75.648125,431.87622
"3853",75.73846,431.88965
"3854",75.83368,431.90308
"3855",75.914246,431.9165
"3856",75.97284,431.92993
"3857",75.99237,431.94336
"3858",75.96063,431.9568
"3859",75.877625,431.9702
"3860",75.755554,431.98364
"3861",75.613945,431.99707
"3862",75.47967,432.0105
"3863",75.386894,432.02393
"3864",75.41863,432.03735
"3865",75.716484,432.05078
"3866",76.46357,432.0642
"3867",77.81369,432.07764
"3868",79.823,432.09106
"3869",82.38407,432.1045
"3870",85.23323,432.11792
"3871",87.99695,432.13135
"3872",90.31876,432.14478
"3873",91.949646,432.1582
"3874",92.7773,432.17163
"3875",92.83589,432.18506
"3876",92.25239,432.1985
"3877",91.21477,432.2119
"3878",89.90372,432.22534
"3879",88.49012,432.23877
"3880",87.09117,432.2522
"3881",85.770355,432.26562
"3882",84.56428,432.27905
"3883",83.49004,432.29248
"3884",82.564735,432.3059
"3885",81.79324,432.31934
"3886",81.18776,432.33276
"3887",80.7483,432.3462
"3888",80.45533,432.35962
"3889",80.274666,432.37305
"3890",80.164795,432.38647
"3891",80.08423,432.3999
"3892",79.99634,432.41333
"3893",79.87427,432.42676
"3894",79.69604,432.4402
"3895",79.45922,432.4536
"3896",79.1638,432.46704
"3897",78.81468,432.48047
"3898",78.42161,432.4939
"3899",78.00168,432.50732
"3900",77.5671,432.52075
"3901",77.13008,432.53418
"3902",76.71259,432.5476
"3903",76.32929,432.56104
"3904",75.99725,432.57446
"3905",75.72625,432.5879
"3906",75.51385,432.60132
"3907",75.352715,432.61475
"3908",75.23552,432.62817
"3909",75.15495,432.6416
"3910",75.11101,432.65503
"3911",75.10124,432.66846
"3912",75.13054,432.6819
"3913",75.19646,432.6953
"3914",75.284355,432.70874
"3915",75.37469,432.72217
"3916",75.457695,432.7356
"3917",75.51629,432.74902
"3918",75.5407,432.76245
"3919",75.53582,432.77588
"3920",75.50408,432.7893
"3921",75.44549,432.80273
"3922",75.36248,432.81616
"3923",75.267265,432.8296
"3924",75.16716,432.84302
"3925",75.07683,432.85645
"3926",75.03288,432.86987
"3927",75.10857,432.8833
"3928",75.44305,432.89673
"3929",76.20233,432.91016
"3930",77.52804,432.92358
"3931",79.45434,432.937
"3932",81.87625,432.95044
"3933",84.54963,432.96387
"3934",87.14,432.9773
"3935",89.31533,432.99072
"3936",90.83879,433.00415
"3937",91.615166,433.01758
"3938",91.65911,433.031
"3939",91.090256,433.04443
"3940",90.08194,433.05786
"3941",88.8246,433.0713
"3942",87.47692,433.08472
"3943",86.14877,433.09814
"3944",84.89876,433.11157
"3945",83.75128,433.125
"3946",82.73075,433.13843
"3947",81.85672,433.15186
"3948",81.15358,433.16528
"3949",80.638435,433.1787
"3950",80.31373,433.19214
"3951",80.147705,433.20557
"3952",80.08667,433.219
"3953",80.076904,433.23242
"3954",80.06714,433.24585
"3955",80.01343,433.25928
"3956",79.89136,433.2727
"3957",79.68871,433.28613
"3958",79.40551,433.29956
"3959",79.05394,433.313
"3960",78.65354,433.32642
"3961",78.21896,433.33984
"3962",77.77707,433.35327
"3963",77.347374,433.3667
"3964",76.944534,433.38013
"3965",76.578316,433.39355
"3966",76.265816,433.40698
"3967",76.016785,433.4204
"3968",75.83368,433.43384
"3969",75.716484,433.44727
"3970",75.65545,433.4607
"3971",75.648125,433.47412
"3972",75.684746,433.48755
"3973",75.75311,433.50098
"3974",75.841,433.5144
"3975",75.94354,433.52783
"3976",76.03876,433.54126
"3977",76.11444,433.5547
"3978",76.155945,433.5681
"3979",76.155945,433.58154
"3980",76.10712,433.59497
"3981",76.02167,433.6084
"3982",75.914246,433.62183
"3983",75.80194,433.63525
"3984",75.701836,433.64868
"3985",75.631035,433.6621
"3986",75.6115,433.67554
"3987",75.71404,433.68896
"3988",76.07294,433.7024
"3989",76.85176,433.71582
"3990",78.17258,433.72925
"3991",80.05249,433.74268
"3992",82.388954,433.7561
"3993",84.945145,433.76953
"3994",87.39147,433.78296
"3995",89.427635,433.7964
"3996",90.83879,433.8098
"3997",91.527275,433.82324
"3998",91.510185,433.83667
"3999",90.8925,433.8501
"4000",89.847565,433.86353
"4001",88.551155,433.87695
"4002",87.15953,433.89038
"4003",85.767914,433.9038
"4004",84.43488,433.91724
"4005",83.20195,433.93066
"4006",82.10574,433.9441
"4007",81.18288,433.95752
"4008",80.4773,433.97095
"4009",80.01831,433.98438
"4010",79.79614,433.9978
"4011",79.76196,434.01123
"4012",79.85474,434.02466
"4013",80.00122,434.0381
"4014",80.13794,434.0515
"4015",80.21118,434.06494
"4016",80.184326,434.07837
"4017",80.042725,434.0918
"4018",79.78882,434.10522
"4019",79.43969,434.11865
"4020",79.029526,434.13208
"4021",78.59251,434.1455
"4022",78.15549,434.15894
"4023",77.73556,434.17236
"4024",77.34493,434.1858
"4025",77.00069,434.19922
"4026",76.717476,434.21265
"4027",76.50996,434.22607
"4028",76.387886,434.2395
"4029",76.334175,434.25293
"4030",76.33662,434.26636
"4031",76.36347,434.2798
"4032",76.39033,434.2932
"4033",76.404976,434.30664
"4034",76.39277,434.32007
"4035",76.34882,434.3335
"4036",76.282906,434.34692
"4037",76.19745,434.36035
"4038",76.104675,434.37378
"4039",76.02899,434.3872
"4040",76.019226,434.40063
"4041",76.175476,434.41406
"4042",76.64912,434.4275
"4043",77.593956,434.44092
"4044",79.07347,434.45435
"4045",81.041275,434.46777
"4046",83.30938,434.4812
"4047",85.5848,434.49463
"4048",87.56237,434.50806
"4049",89.00038,434.52148
"4050",89.779205,434.5349
"4051",89.90372,434.54834
"4052",89.461815,434.56177
"4053",88.59266,434.5752
"4054",87.45495,434.58862
"4055",86.185394,434.60205
"4056",84.874344,434.61548
"4057",83.57061,434.6289
"4058",82.31327,434.64233
"4059",81.15358,434.65576
"4060",80.15503,434.6692
"4061",79.37377,434.68262
"4062",78.84642,434.69604
"4063",78.57786,434.70947
"4064",78.53147,434.7229
"4065",78.641335,434.73633
"4066",78.83421,434.74976
"4067",79.04906,434.76318
"4068",79.22728,434.7766
"4069",79.31762,434.79004
"4070",79.29565,434.80347
"4071",79.151596,434.8169
"4072",78.905014,434.83032
"4073",78.57053,434.84375
"4074",78.17746,434.85718
"4075",77.7551,434.8706
"4076",77.34005,434.88403
"4077",76.964066,434.89746
"4078",76.65644,434.9109
"4079",76.42939,434.92432
"4080",76.27314,434.93774
"4081",76.175476,434.95117
"4082",76.10956,434.9646
"4083",76.068054,434.97803
"4084",76.03876,434.99146
"4085",76.02655,435.00488
"4086",76.02899,435.0183
"4087",76.04364,435.03174
"4088",76.06317,435.04517
"4089",76.09491,435.0586
"4090",76.14862,435.07202
"4091",76.282906,435.08545
"4092",76.6247,435.09888
"4093",77.349815,435.1123
"4094",78.58762,435.12573
"4095",80.38453,435.13916
"4096",82.64774,435.1526
"4097",85.1429,435.16602
"4098",87.5404,435.17944
"4099",89.52773,435.19287
"4100",90.87053,435.2063
"4101",91.47112,435.21973
"4102",91.36126,435.23315
"4103",90.66056,435.24658
"4104",89.55703,435.26
"4105",88.233765,435.27344
"4106",86.84215,435.28687
"4107",85.46761,435.3003
"4108",84.15167,435.31372
"4109",82.91142,435.32715
"4110",81.76395,435.34058
"4111",80.743416,435.354
"4112",79.89136,435.36743
"4113",79.22972,435.38086
"4114",78.765854,435.3943
"4115",78.47532,435.4077
"4116",78.314186,435.42114
"4117",78.24582,435.43457
"4118",78.221405,435.448
"4119",78.20187,435.46143
"4120",78.150604,435.47485
"4121",78.04318,435.48828
"4122",77.857635,435.5017
"4123",77.591515,435.51514
"4124",77.25948,435.52856
"4125",76.87862,435.542
"4126",76.473335,435.55542
"4127",76.07782,435.56885
"4128",75.73113,435.58228
"4129",75.457695,435.5957
"4130",75.25994,435.60913
"4131",75.13542,435.62256
"4132",75.05974,435.636
"4133",75.01091,435.6494
"4134",74.97185,435.66284
"4135",74.932785,435.67627
"4136",74.881516,435.6897
"4137",74.830246,435.70312
"4138",74.7863,435.71655
"4139",74.76921,435.72998
"4140",74.80583,435.7434
"4141",74.96208,435.75684
"4142",75.37469,435.77026
"4143",76.19501,435.7837
"4144",77.54269,435.79712
"4145",79.44213,435.81055
"4146",81.79324,435.82397
"4147",84.34699,435.8374
"4148",86.77867,435.85083
"4149",88.77821,435.86426
"4150",90.14786,435.8777
"4151",90.80461,435.8911
"4152",90.78264,435.90454
"4153",90.20401,435.91797
"4154",89.2372,435.9314
"4155",88.043335,435.94482
"4156",86.7567,435.95825
"4157",85.46517,435.97168
"4158",84.21515,435.9851
"4159",83.03105,435.99854
"4160",81.94217,436.01196
"4161",80.990005,436.0254
"4162",80.20386,436.03882
"4163",79.61303,436.05225
"4164",79.22972,436.06567
"4165",79.027084,436.0791
"4166",78.95628,436.09253
"4167",78.96361,436.10596
"4168",78.992905,436.1194
"4169",78.992905,436.1328
"4170",78.92943,436.14624
"4171",78.77806,436.15967
"4172",78.54368,436.1731
"4173",78.24582,436.18652
"4174",77.90402,436.19995
"4175",77.54269,436.21338
"4176",77.18379,436.2268
"4177",76.85176,436.24023
"4178",76.57099,436.25366
"4179",76.351265,436.2671
"4180",76.18036,436.28052
"4181",76.03876,436.29395
"4182",75.90448,436.30737
"4183",75.75311,436.3208
"4184",75.57488,436.33423
"4185",75.38445,436.34766
"4186",75.20134,436.36108
"4187",75.04753,436.3745
"4188",74.94499,436.38794
"4189",74.932785,436.40137
"4190",75.10368,436.4148
"4191",75.60174,436.42822
"4192",76.56855,436.44165
"4193",78.08957,436.45508
"4194",80.14038,436.4685
"4195",82.564735,436.48193
"4196",85.06966,436.49536
"4197",87.327995,436.5088
"4198",89.07118,436.52222
"4199",90.13809,436.53564
"4200",90.49699,436.54907
"4201",90.23331,436.5625
"4202",89.48867,436.57593
"4203",88.42664,436.58936
"4204",87.19859,436.60278
"4205",85.892426,436.6162
"4206",84.5716,436.62964
"4207",83.2752,436.64307
"4208",82.05203,436.6565
"4209",80.953384,436.66992
"4210",80.028076,436.68335
"4211",79.31274,436.69678
"4212",78.82445,436.7102
"4213",78.551,436.72363
"4214",78.450905,436.73706
"4215",78.46311,436.7505
"4216",78.536354,436.76392
"4217",78.60471,436.77734
"4218",78.626686,436.79077
"4219",78.56321,436.8042
"4220",78.397194,436.81763
"4221",78.135956,436.83105
"4222",77.79904,436.84448
"4223",77.42794,436.8579
"4224",77.049515,436.87134
"4225",76.69306,436.88477
"4226",76.38056,436.8982
"4227",76.112,436.91162
"4228",75.88739,436.92505
"4229",75.699394,436.93848
"4230",75.545586,436.9519
"4231",75.41375,436.96533
"4232",75.28924,436.97876
"4233",75.15495,436.9922
"4234",75.00603,437.0056
"4235",74.84978,437.01904
"4236",74.70573,437.03247
"4237",74.600746,437.0459
"4238",74.55436,437.05933
"4239",74.60563,437.07275
"4240",74.84245,437.08618
"4241",75.40887,437.0996
"4242",76.45136,437.11304
"4243",78.05295,437.12646
"4244",80.177,437.1399
"4245",82.633095,437.15332
"4246",85.10872,437.16675
"4247",87.27917,437.18018
"4248",88.885635,437.1936
"4249",89.8085,437.20703
"4250",90.040436,437.22046
"4251",89.68398,437.2339
"4252",88.883194,437.2473
"4253",87.79431,437.26074
"4254",86.554054,437.27417
"4255",85.25033,437.2876
"4256",83.93683,437.30103
"4257",82.64286,437.31445
"4258",81.40505,437.32788
"4259",80.26978,437.3413
"4260",79.30297,437.35474
"4261",78.55833,437.36816
"4262",78.0676,437.3816
"4263",77.81613,437.39502
"4264",77.7551,437.40845
"4265",77.81125,437.42188
"4266",77.91379,437.4353
"4267",77.99191,437.44873
"4268",77.996796,437.46216
"4269",77.908905,437.4756
"4270",77.730675,437.489
"4271",77.47433,437.50244
"4272",77.16182,437.51587
"4273",76.81514,437.5293
"4274",76.453804,437.54272
"4275",76.09735,437.55615
"4276",75.7702,437.56958
"4277",75.48455,437.583
"4278",75.24773,437.59644
"4279",75.0573,437.60986
"4280",74.90837,437.6233
"4281",74.79607,437.63672
"4282",74.720375,437.65015
"4283",74.67643,437.66357
"4284",74.66422,437.677
"4285",74.67399,437.69043
"4286",74.69108,437.70386
"4287",74.71061,437.7173
"4288",74.737465,437.7307
"4289",74.77165,437.74414
"4290",74.82048,437.75757
"4291",74.879074,437.771
"4292",74.94743,437.78442
"4293",75.00847,437.79785
"4294",75.05974,437.81128
"4295",75.08415,437.8247
"4296",75.07439,437.83813
"4297",75.02312,437.85156
"4298",74.94255,437.865
"4299",74.847336,437.87842
"4300",74.759445,437.89185
"4301",74.70817,437.90527
"4302",74.759445,437.9187
"4303",75.04021,437.93213
"4304",75.736015,437.94556
"4305",77.02022,437.95898
"4306",78.958725,437.9724
"4307",81.45876,437.98584
"4308",84.27863,437.99927
"4309",87.05455,438.0127
"4310",89.43008,438.02612
"4311",91.15617,438.03955
"4312",92.12787,438.05298
"4313",92.35981,438.0664
"4314",91.95209,438.07983
"4315",91.06584,438.09326
"4316",89.87686,438.1067
"4317",88.534065,438.12012
"4318",87.14244,438.13354
"4319",85.7728,438.14697
"4320",84.46174,438.1604
"4321",83.24101,438.17383
"4322",82.14969,438.18726
"4323",81.231705,438.20068
"4324",80.52125,438.2141
"4325",80.028076,438.22754
"4326",79.742424,438.24097
"4327",79.61303,438.2544
"4328",79.586174,438.26782
"4329",79.60815,438.28125
"4330",79.62524,438.29468
"4331",79.5935,438.3081
"4332",79.49096,438.32153
"4333",79.29809,438.33496
"4334",79.01976,438.3484
"4335",78.67307,438.36182
"4336",78.28001,438.37524
"4337",77.872284,438.38867
"4338",77.471886,438.4021
"4339",77.0959,438.41553
"4340",76.75899,438.42896
"4341",76.46601,438.44238
"4342",76.21454,438.4558
"4343",76.01434,438.46924
"4344",75.85321,438.48267
"4345",75.72137,438.4961
"4346",75.613945,438.50952
"4347",75.53338,438.52295
"4348",75.46502,438.53638
"4349",75.41131,438.5498
"4350",75.372246,438.56323
"4351",75.338066,438.57666
"4352",75.30877,438.5901
"4353",75.28924,438.60352
"4354",75.27215,438.61694
"4355",75.2575,438.63037
"4356",75.24773,438.6438
"4357",75.23796,438.65723
"4358",75.22575,438.67065
"4359",75.21599,438.68408
"4360",75.211105,438.6975
"4361",75.21843,438.71094
"4362",75.2404,438.72437
"4363",75.27459,438.7378
"4364",75.31609,438.75122
"4365",75.36004,438.76465
"4366",75.39178,438.77808
"4367",75.40154,438.7915
"4368",75.37469,438.80493
"4369",75.30877,438.81836
"4370",75.211105,438.8318
"4371",75.0988,438.8452
"4372",74.98894,438.85864
"4373",74.94743,438.87207
"4374",75.09392,438.8855
"4375",75.61639,438.89893
"4376",76.68574,438.91235
"4377",78.382545,438.92578
"4378",80.64576,438.9392
"4379",83.27276,438.95264
"4380",85.943695,438.96606
"4381",88.32166,438.9795
"4382",90.15518,438.99292
"4383",91.31243,439.00635
"4384",91.776306,439.01978
"4385",91.615166,439.0332
"4386",90.95842,439.04663
"4387",89.96475,439.06006
"4388",88.780655,439.0735
"4389",87.518425,439.0869
"4390",86.2562,439.10034
"4391",85.03548,439.11377
"4392",83.89288,439.1272
"4393",82.86992,439.14062
"4394",81.988556,439.15405
"4395",81.28542,439.16748
"4396",80.780045,439.1809
"4397",80.462654,439.19434
"4398",80.306404,439.20776
"4399",80.26978,439.2212
"4400",80.30396,439.23462
"4401",80.35767,439.24805
"4402",80.38453,439.26147
"4403",80.34547,439.2749
"4404",80.22339,439.28833
"4405",80.008545,439.30176
"4406",79.708244,439.3152
"4407",79.34692,439.3286
"4408",78.9514,439.34204
"4409",78.54124,439.35547
"4410",78.1384,439.3689
"4411",77.76242,439.38232
"4412",77.42306,439.39575
"4413",77.117874,439.40918
"4414",76.859085,439.4226
"4415",76.646675,439.43604
"4416",76.46845,439.44946
"4417",76.32197,439.4629
"4418",76.19745,439.47632
"4419",76.09003,439.48975
"4420",76.00214,439.50317
"4421",75.9411,439.5166
"4422",75.90692,439.53003
"4423",75.90204,439.54346
"4424",75.931335,439.5569
"4425",75.98749,439.5703
"4426",76.050964,439.58374
"4427",76.12909,439.59717
"4428",76.226746,439.6106
"4429",76.334175,439.62402
"4430",76.44892,439.63745
"4431",76.558784,439.65088
"4432",76.63935,439.6643
"4433",76.68574,439.67773
"4434",76.69062,439.69116
"4435",76.65644,439.7046
"4436",76.595406,439.71802
"4437",76.51484,439.73145
"4438",76.4123,439.74487
"4439",76.299995,439.7583
"4440",76.190125,439.77173
"4441",76.085144,439.78516
"4442",76.02411,439.79858
"4443",76.08026,439.812
"4444",76.4123,439.82544
"4445",77.18135,439.83887
"4446",78.49729,439.8523
"4447",80.35767,439.86572
"4448",82.62577,439.87915
"4449",85.05257,439.89258
"4450",87.33288,439.906
"4451",89.21767,439.91943
"4452",90.55314,439.93286
"4453",91.28802,439.9463
"4454",91.44915,439.95972
"4455",91.11467,439.97314
"4456",90.406654,439.98657
"4457",89.44961,440
"4458",88.360725,440.01343
"4459",87.22301,440.02686
"4460",86.09018,440.04028
"4461",85.00374,440.0537
"4462",84.00275,440.06714
"4463",83.11894,440.08057
"4464",82.38651,440.094
"4465",81.829865,440.10742
"4466",81.45632,440.12085
"4467",81.24147,440.13428
"4468",81.15358,440.1477
"4469",81.15114,440.16113
"4470",81.18288,440.17456
"4471",81.20973,440.188
"4472",81.18532,440.20142
"4473",81.08522,440.21484
"4474",80.89479,440.22827
"4475",80.62379,440.2417
"4476",80.28199,440.25513
"4477",79.8938,440.26855
"4478",79.483635,440.28198
"4479",79.061264,440.2954
"4480",78.64622,440.30884
"4481",78.25559,440.32227
"4482",77.89914,440.3357
"4483",77.58663,440.34912
"4484",77.3254,440.36255
"4485",77.11543,440.37598
"4486",76.95674,440.3894
"4487",76.83467,440.40283
"4488",76.73701,440.41626
"4489",76.65644,440.4297
"4490",76.5832,440.4431
"4491",76.51484,440.45654
"4492",76.453804,440.46997
"4493",76.40742,440.4834
"4494",76.37324,440.49683
"4495",76.351265,440.51025
"4496",76.34394,440.52368
"4497",76.3415,440.5371
"4498",76.33662,440.55054
"4499",76.33173,440.56396
"4500",76.31953,440.5774
"4501",76.29267,440.59082
"4502",76.25117,440.60425
"4503",76.192566,440.61768
"4504",76.11932,440.6311
"4505",76.04364,440.64453
"4506",75.96307,440.65796
"4507",75.87518,440.6714
"4508",75.7995,440.6848
"4509",75.78241,440.69824
"4510",75.945984,440.71167
"4511",76.456245,440.7251
"4512",77.45724,440.73853
"4513",79.00511,440.75195
"4514",81.0193,440.76538
"4515",83.29229,440.7788
"4516",85.538414,440.79224
